# t [s], A [cm^2], U [cm/s], P [cPa], c [cm/s]
1.000000000000000021e-03 1.528015000000000068e-01 1.917659999999999920e-01 9.084239999999999782e+01 1.884029999999999973e+03
2.000000000000000042e-03 1.527775000000000105e-01 1.490036499999999986e+00 8.829864999999999498e+01 1.883775000000000091e+03
3.000000000000000062e-03 1.526879999999999904e-01 3.127777000000000029e+00 8.484835000000001060e+01 1.882884999999999991e+03
4.000000000000000083e-03 1.525535000000000085e-01 4.965894999999999726e+00 8.085974999999999113e+01 1.881559999999999945e+03
5.000000000000000104e-03 1.523964999999999903e-01 6.958734999999999893e+00 7.698149999999999693e+01 1.880035000000000082e+03
6.000000000000000125e-03 1.522364999999999968e-01 9.019064999999999444e+00 7.361045000000000016e+01 1.878494999999999891e+03
7.000000000000000146e-03 1.520825000000000093e-01 1.100045500000000054e+01 7.077279999999998950e+01 1.877025000000000091e+03
8.000000000000000167e-03 1.519369999999999887e-01 1.277172499999999999e+01 6.828010000000000446e+01 1.875664999999999964e+03
9.000000000000001055e-03 1.518019999999999925e-01 1.429576999999999920e+01 6.602174999999999727e+01 1.874429999999999836e+03
1.000000000000000194e-02 1.516814999999999969e-01 1.559834999999999994e+01 6.403485000000000582e+01 1.873329999999999927e+03
1.099999999999999936e-02 1.515775000000000039e-01 1.670394999999999897e+01 6.236629999999999541e+01 1.872390000000000100e+03
1.200000000000000025e-02 1.514889999999999848e-01 1.762474999999999881e+01 6.100934999999999775e+01 1.871605000000000018e+03
1.300000000000000114e-02 1.514159999999999950e-01 1.837105000000000032e+01 5.992815000000000225e+01 1.870960000000000036e+03
1.400000000000000203e-02 1.513565000000000049e-01 1.894754999999999967e+01 5.906595000000000084e+01 1.870445000000000164e+03
1.499999999999999944e-02 1.513075000000000114e-01 1.935620000000000118e+01 5.834470000000000312e+01 1.870025000000000091e+03
1.600000000000000033e-02 1.512664999999999982e-01 1.961710000000000065e+01 5.771020000000000039e+01 1.869680000000000064e+03
1.700000000000000122e-02 1.512335000000000207e-01 1.978965000000000174e+01 5.720080000000000098e+01 1.869404999999999973e+03
1.800000000000000211e-02 1.512105000000000254e-01 1.996674999999999756e+01 5.696845000000000425e+01 1.869224999999999909e+03
1.900000000000000300e-02 1.512040000000000051e-01 2.024239999999999995e+01 5.721750000000000114e+01 1.869184999999999945e+03
2.000000000000000042e-02 1.512184999999999779e-01 2.067174999999999940e+01 5.809629999999999939e+01 1.869315000000000055e+03
2.100000000000000130e-02 1.512545000000000139e-01 2.124699999999999989e+01 5.960694999999999766e+01 1.869650000000000091e+03
2.200000000000000219e-02 1.513105000000000144e-01 2.190070000000000050e+01 6.157935000000000514e+01 1.870150000000000091e+03
2.299999999999999961e-02 1.513784999999999992e-01 2.252945000000000064e+01 6.371535000000000082e+01 1.870769999999999982e+03
2.400000000000000050e-02 1.514484999999999859e-01 2.302810000000000201e+01 6.567664999999999509e+01 1.871414999999999964e+03
2.500000000000000139e-02 1.515119999999999800e-01 2.332019999999999982e+01 6.717974999999999852e+01 1.872005000000000109e+03
2.600000000000000228e-02 1.515615000000000157e-01 2.337534999999999741e+01 6.806565000000000509e+01 1.872474999999999909e+03
2.700000000000000316e-02 1.515930000000000055e-01 2.321155000000000257e+01 6.832505000000000450e+01 1.872789999999999964e+03
2.800000000000000058e-02 1.516075000000000061e-01 2.288255000000000194e+01 6.807880000000000109e+01 1.872945000000000164e+03
2.900000000000000147e-02 1.516084999999999794e-01 2.245725000000000193e+01 6.752379999999999427e+01 1.872965000000000146e+03
3.000000000000000236e-02 1.516009999999999858e-01 2.199844999999999828e+01 6.686650000000000205e+01 1.872909999999999854e+03
3.099999999999999978e-02 1.515890000000000015e-01 2.154670000000000130e+01 6.626480000000000814e+01 1.872815000000000055e+03
3.200000000000000067e-02 1.515770000000000173e-01 2.111370000000000147e+01 6.579390000000000782e+01 1.872710000000000036e+03
3.300000000000000155e-02 1.515664999999999929e-01 2.068560000000000088e+01 6.544225000000000136e+01 1.872610000000000127e+03
3.400000000000000244e-02 1.515565000000000107e-01 2.023290000000000077e+01 6.513259999999999650e+01 1.872519999999999982e+03
3.500000000000000333e-02 1.515444999999999987e-01 1.972404999999999831e+01 6.476005000000000678e+01 1.872409999999999854e+03
3.600000000000000422e-02 1.515285000000000104e-01 1.913884999999999792e+01 6.423335000000000150e+01 1.872269999999999982e+03
3.700000000000000511e-02 1.515059999999999740e-01 1.847749999999999915e+01 6.350994999999999635e+01 1.872075000000000045e+03
3.799999999999999906e-02 1.514785000000000159e-01 1.776470000000000127e+01 6.261520000000000152e+01 1.871835000000000036e+03
3.899999999999999994e-02 1.514460000000000250e-01 1.704594999999999771e+01 6.164209999999999923e+01 1.871549999999999955e+03
4.000000000000000083e-02 1.514139999999999930e-01 1.637955000000000183e+01 6.073269999999999413e+01 1.871255000000000109e+03
4.100000000000000172e-02 1.513849999999999918e-01 1.582365000000000066e+01 6.004540000000000077e+01 1.870990000000000009e+03
4.200000000000000261e-02 1.513639999999999985e-01 1.542445000000000022e+01 5.971844999999999715e+01 1.870799999999999955e+03
4.300000000000000350e-02 1.513559999999999905e-01 1.520674999999999955e+01 5.983859999999999957e+01 1.870710000000000036e+03
4.400000000000000439e-02 1.513625000000000109e-01 1.516910000000000025e+01 6.042130000000000223e+01 1.870755000000000109e+03
4.499999999999999833e-02 1.513829999999999898e-01 1.528460000000000107e+01 6.140739999999999554e+01 1.870925000000000182e+03
4.599999999999999922e-02 1.514154999999999807e-01 1.550604999999999833e+01 6.267430000000000234e+01 1.871215000000000146e+03
4.700000000000000011e-02 1.514570000000000083e-01 1.577399999999999913e+01 6.405789999999998940e+01 1.871575000000000045e+03
4.800000000000000100e-02 1.515009999999999968e-01 1.602594999999999814e+01 6.537969999999999970e+01 1.871970000000000027e+03
4.900000000000000189e-02 1.515430000000000110e-01 1.620455000000000112e+01 6.647315000000000396e+01 1.872349999999999909e+03
5.000000000000000278e-02 1.515779999999999905e-01 1.626370000000000005e+01 6.720465000000000089e+01 1.872670000000000073e+03
5.100000000000000366e-02 1.516015000000000001e-01 1.617259999999999920e+01 6.748685000000000400e+01 1.872885000000000218e+03
5.200000000000000455e-02 1.516100000000000225e-01 1.591615000000000002e+01 6.728284999999999627e+01 1.872974999999999909e+03
5.300000000000000544e-02 1.516029999999999878e-01 1.549375000000000036e+01 6.660220000000001050e+01 1.872920000000000073e+03
5.399999999999999939e-02 1.515805000000000069e-01 1.491629999999999967e+01 6.549125000000000796e+01 1.872724999999999909e+03
5.500000000000000028e-02 1.515429999999999833e-01 1.420244999999999891e+01 6.402080000000000837e+01 1.872394999999999982e+03
5.600000000000000117e-02 1.514929999999999888e-01 1.337514999999999965e+01 6.227275000000000205e+01 1.871950000000000045e+03
5.700000000000000205e-02 1.514329999999999843e-01 1.245906000000000091e+01 6.033010000000000161e+01 1.871409999999999854e+03
5.800000000000000294e-02 1.513645000000000129e-01 1.147861999999999938e+01 5.826935000000000286e+01 1.870789999999999964e+03
5.900000000000000383e-02 1.512899999999999801e-01 1.045752500000000040e+01 5.615769999999999840e+01 1.870125000000000000e+03
6.000000000000000472e-02 1.512135000000000007e-01 9.418794999999999362e+00 5.405275000000000318e+01 1.869430000000000064e+03
6.099999999999999867e-02 1.511355000000000059e-01 8.385434999999999306e+00 5.200515000000000043e+01 1.868724999999999909e+03
6.199999999999999956e-02 1.510584999999999845e-01 7.381014999999999660e+00 5.006194999999999595e+01 1.868025000000000091e+03
6.300000000000000044e-02 1.509845000000000215e-01 6.430379999999999541e+00 4.826955000000000240e+01 1.867349999999999909e+03
6.400000000000000133e-02 1.509150000000000214e-01 5.559429999999999872e+00 4.667620000000000147e+01 1.866720000000000027e+03
6.500000000000000222e-02 1.508530000000000149e-01 4.794959999999999667e+00 4.533220000000000027e+01 1.866150000000000091e+03
6.600000000000000311e-02 1.507995000000000030e-01 4.163640000000000008e+00 4.428920000000000101e+01 1.865660000000000082e+03
6.700000000000000400e-02 1.507570000000000021e-01 3.690774999999999917e+00 4.359730000000000416e+01 1.865265000000000100e+03
6.800000000000000488e-02 1.507280000000000009e-01 3.398880000000000123e+00 4.330219999999999914e+01 1.864985000000000127e+03
6.900000000000000577e-02 1.507124999999999992e-01 3.306245000000000100e+00 4.344119999999999493e+01 1.864835000000000036e+03
7.000000000000000666e-02 1.507135000000000002e-01 3.425755000000000106e+00 4.404019999999999868e+01 1.864825000000000045e+03
7.100000000000000755e-02 1.507315000000000182e-01 3.764029999999999987e+00 4.511100000000000421e+01 1.864969999999999800e+03
7.200000000000000844e-02 1.507664999999999977e-01 4.320990000000000109e+00 4.665014999999999645e+01 1.865269999999999982e+03
7.300000000000000933e-02 1.508194999999999952e-01 5.089904999999999902e+00 4.863864999999999839e+01 1.865730000000000018e+03
7.399999999999999634e-02 1.508889999999999953e-01 6.057820000000000427e+00 5.104335000000000377e+01 1.866340000000000146e+03
7.499999999999999722e-02 1.509739999999999971e-01 7.206364999999999910e+00 5.381874999999999432e+01 1.867099999999999909e+03
7.599999999999999811e-02 1.510739999999999861e-01 8.512809999999999988e+00 5.691009999999999991e+01 1.867990000000000009e+03
7.699999999999999900e-02 1.511859999999999871e-01 9.951304999999999623e+00 6.025645000000000095e+01 1.868994999999999891e+03
7.799999999999999989e-02 1.513085000000000124e-01 1.149404999999999966e+01 6.379420000000000357e+01 1.870099999999999909e+03
7.900000000000000078e-02 1.514395000000000047e-01 1.311278499999999880e+01 6.746014999999999873e+01 1.871280000000000200e+03
8.000000000000000167e-02 1.515759999999999885e-01 1.477979999999999983e+01 7.119509999999999650e+01 1.872519999999999982e+03
8.100000000000000255e-02 1.517169999999999908e-01 1.646934999999999860e+01 7.494594999999999629e+01 1.873800000000000182e+03
8.200000000000000344e-02 1.518599999999999950e-01 1.815825000000000244e+01 7.866785000000000139e+01 1.875105000000000018e+03
8.300000000000000433e-02 1.520024999999999848e-01 1.982675000000000054e+01 8.232609999999999673e+01 1.876414999999999964e+03
8.400000000000000522e-02 1.521444999999999881e-01 2.145900000000000318e+01 8.589605000000000246e+01 1.877720000000000027e+03
8.500000000000000611e-02 1.522840000000000027e-01 2.304325000000000045e+01 8.936379999999999768e+01 1.879005000000000109e+03
8.600000000000000699e-02 1.524214999999999876e-01 2.457169999999999987e+01 9.272495000000000687e+01 1.880269999999999982e+03
8.700000000000000788e-02 1.525555000000000105e-01 2.604009999999999891e+01 9.598320000000001073e+01 1.881509999999999991e+03
8.800000000000000877e-02 1.526865000000000028e-01 2.744735000000000014e+01 9.914934999999999832e+01 1.882735000000000127e+03
8.899999999999999578e-02 1.528149999999999786e-01 2.879475000000000051e+01 1.022379499999999979e+02 1.883924999999999955e+03
8.999999999999999667e-02 1.529405000000000070e-01 3.008525000000000205e+01 1.052654500000000013e+02 1.885094999999999800e+03
9.099999999999999756e-02 1.530644999999999922e-01 3.132254999999999967e+01 1.082485000000000070e+02 1.886250000000000000e+03
9.199999999999999845e-02 1.531865000000000032e-01 3.251064999999999827e+01 1.112015000000000100e+02 1.887389999999999873e+03
9.299999999999999933e-02 1.533075000000000132e-01 3.365314999999999657e+01 1.141349999999999909e+02 1.888525000000000091e+03
9.400000000000000022e-02 1.534274999999999944e-01 3.475270000000000437e+01 1.170569999999999879e+02 1.889644999999999982e+03
9.500000000000000111e-02 1.535469999999999891e-01 3.581074999999999875e+01 1.199685000000000059e+02 1.890764999999999873e+03
9.600000000000000200e-02 1.536660000000000248e-01 3.682744999999999891e+01 1.228654999999999973e+02 1.891884999999999991e+03
9.700000000000000289e-02 1.537844999999999906e-01 3.780134999999999934e+01 1.257409999999999997e+02 1.892989999999999782e+03
9.800000000000000377e-02 1.539014999999999966e-01 3.872984999999999900e+01 1.285819999999999936e+02 1.894095000000000027e+03
9.900000000000000466e-02 1.540175000000000016e-01 3.960889999999999844e+01 1.313729999999999905e+02 1.895184999999999945e+03
1.000000000000000056e-01 1.541310000000000180e-01 4.043354999999999677e+01 1.340964999999999918e+02 1.896255000000000109e+03
1.010000000000000064e-01 1.542419999999999902e-01 4.119804999999999495e+01 1.367319999999999993e+02 1.897299999999999955e+03
1.020000000000000073e-01 1.543499999999999872e-01 4.189614999999999867e+01 1.392599999999999909e+02 1.898315000000000055e+03
1.030000000000000082e-01 1.544534999999999936e-01 4.252139999999999986e+01 1.416585000000000036e+02 1.899295000000000073e+03
1.040000000000000091e-01 1.545519999999999949e-01 4.306744999999999379e+01 1.439100000000000250e+02 1.900230000000000018e+03
1.050000000000000100e-01 1.546450000000000047e-01 4.352814999999999657e+01 1.459954999999999927e+02 1.901115000000000009e+03
1.059999999999999970e-01 1.547324999999999950e-01 4.389809999999999945e+01 1.478994999999999891e+02 1.901945000000000164e+03
1.069999999999999979e-01 1.548124999999999918e-01 4.417255000000000109e+01 1.496080000000000041e+02 1.902704999999999927e+03
1.079999999999999988e-01 1.548844999999999805e-01 4.434794999999999732e+01 1.511115000000000066e+02 1.903405000000000200e+03
1.089999999999999997e-01 1.549495000000000178e-01 4.442204999999999870e+01 1.524010000000000105e+02 1.904025000000000091e+03
1.100000000000000006e-01 1.550064999999999915e-01 4.439400000000000546e+01 1.534745000000000061e+02 1.904569999999999936e+03
1.110000000000000014e-01 1.550549999999999984e-01 4.426444999999999652e+01 1.543315000000000055e+02 1.905039999999999964e+03
1.120000000000000023e-01 1.550954999999999973e-01 4.403589999999999804e+01 1.549764999999999873e+02 1.905434999999999945e+03
1.130000000000000032e-01 1.551275000000000015e-01 4.371249999999999858e+01 1.554159999999999968e+02 1.905744999999999891e+03
1.140000000000000041e-01 1.551514999999999977e-01 4.329995000000000260e+01 1.556630000000000109e+02 1.905984999999999900e+03
1.150000000000000050e-01 1.551684999999999870e-01 4.280544999999999334e+01 1.557325000000000159e+02 1.906150000000000091e+03
1.160000000000000059e-01 1.551774999999999960e-01 4.223760000000000048e+01 1.556415000000000077e+02 1.906250000000000000e+03
1.170000000000000068e-01 1.551804999999999990e-01 4.160594999999999999e+01 1.554099999999999966e+02 1.906284999999999854e+03
1.180000000000000077e-01 1.551780000000000104e-01 4.092079999999999984e+01 1.550595000000000141e+02 1.906269999999999982e+03
1.190000000000000085e-01 1.551704999999999890e-01 4.019290000000000163e+01 1.546114999999999782e+02 1.906210000000000036e+03
1.200000000000000094e-01 1.551589999999999914e-01 3.943305000000000149e+01 1.540889999999999986e+02 1.906099999999999909e+03
1.209999999999999964e-01 1.551434999999999897e-01 3.865165000000000362e+01 1.535109999999999957e+02 1.905964999999999918e+03
1.219999999999999973e-01 1.551254999999999995e-01 3.785860000000000269e+01 1.528979999999999961e+02 1.905800000000000182e+03
1.229999999999999982e-01 1.551055000000000073e-01 3.706300000000000239e+01 1.522669999999999959e+02 1.905615000000000009e+03
1.239999999999999991e-01 1.550845000000000140e-01 3.627280000000000371e+01 1.516315000000000168e+02 1.905420000000000073e+03
1.250000000000000000e-01 1.550624999999999920e-01 3.549465000000000003e+01 1.510034999999999741e+02 1.905215000000000146e+03
1.260000000000000009e-01 1.550404999999999978e-01 3.473380000000000223e+01 1.503915000000000077e+02 1.905005000000000109e+03
1.270000000000000018e-01 1.550185000000000035e-01 3.399414999999999765e+01 1.498000000000000114e+02 1.904795000000000073e+03
1.280000000000000027e-01 1.549964999999999815e-01 3.327794999999999703e+01 1.492319999999999993e+02 1.904585000000000036e+03
1.290000000000000036e-01 1.549750000000000016e-01 3.258624999999999972e+01 1.486854999999999905e+02 1.904380000000000109e+03
1.300000000000000044e-01 1.549539999999999806e-01 3.191844999999999999e+01 1.481569999999999823e+02 1.904179999999999836e+03
1.310000000000000053e-01 1.549335000000000018e-01 3.127289999999999992e+01 1.476415000000000077e+02 1.903984999999999900e+03
1.320000000000000062e-01 1.549125000000000085e-01 3.064669999999999916e+01 1.471295000000000073e+02 1.903789999999999964e+03
1.330000000000000071e-01 1.548924999999999885e-01 3.003630000000000067e+01 1.466134999999999877e+02 1.903590000000000146e+03
1.340000000000000080e-01 1.548714999999999953e-01 2.943735000000000213e+01 1.460815000000000055e+02 1.903394999999999982e+03
1.350000000000000089e-01 1.548499999999999877e-01 2.884494999999999720e+01 1.455225000000000080e+02 1.903184999999999945e+03
1.360000000000000098e-01 1.548275000000000068e-01 2.825424999999999898e+01 1.449275000000000091e+02 1.902974999999999909e+03
1.370000000000000107e-01 1.548029999999999962e-01 2.766029999999999944e+01 1.442839999999999918e+02 1.902744999999999891e+03
1.380000000000000115e-01 1.547775000000000123e-01 2.705855000000000032e+01 1.435840000000000032e+02 1.902505000000000109e+03
1.390000000000000124e-01 1.547494999999999843e-01 2.644494999999999862e+01 1.428199999999999932e+02 1.902235000000000127e+03
1.400000000000000133e-01 1.547195000000000098e-01 2.581609999999999872e+01 1.419855000000000018e+02 1.901949999999999818e+03
1.410000000000000142e-01 1.546859999999999902e-01 2.516969999999999885e+01 1.410779999999999745e+02 1.901644999999999982e+03
1.420000000000000151e-01 1.546509999999999829e-01 2.450435000000000230e+01 1.400964999999999918e+02 1.901309999999999945e+03
1.430000000000000160e-01 1.546124999999999861e-01 2.381980000000000075e+01 1.390420000000000016e+02 1.900949999999999818e+03
1.440000000000000169e-01 1.545715000000000006e-01 2.311710000000000065e+01 1.379200000000000159e+02 1.900565000000000055e+03
1.450000000000000178e-01 1.545285000000000131e-01 2.239840000000000231e+01 1.367375000000000114e+02 1.900159999999999854e+03
1.459999999999999909e-01 1.544824999999999948e-01 2.166714999999999947e+01 1.355035000000000025e+02 1.899724999999999909e+03
1.469999999999999918e-01 1.544345000000000023e-01 2.092764999999999986e+01 1.342305000000000064e+02 1.899279999999999973e+03
1.479999999999999927e-01 1.543849999999999945e-01 2.018524999999999991e+01 1.329325000000000045e+02 1.898819999999999936e+03
1.489999999999999936e-01 1.543344999999999856e-01 1.944604999999999961e+01 1.316229999999999905e+02 1.898345000000000027e+03
1.499999999999999944e-01 1.542835000000000178e-01 1.871655000000000157e+01 1.303199999999999932e+02 1.897865000000000009e+03
1.509999999999999953e-01 1.542330000000000090e-01 1.800355000000000061e+01 1.290384999999999991e+02 1.897394999999999982e+03
1.519999999999999962e-01 1.541830000000000145e-01 1.731390000000000029e+01 1.277939999999999969e+02 1.896920000000000073e+03
1.529999999999999971e-01 1.541334999999999789e-01 1.665404999999999802e+01 1.266025000000000063e+02 1.896454999999999927e+03
1.539999999999999980e-01 1.540865000000000151e-01 1.603020000000000067e+01 1.254765000000000015e+02 1.896015000000000100e+03
1.549999999999999989e-01 1.540409999999999835e-01 1.544764999999999944e+01 1.244275000000000091e+02 1.895585000000000036e+03
1.559999999999999998e-01 1.539989999999999970e-01 1.491084999999999994e+01 1.234660000000000082e+02 1.895184999999999945e+03
1.570000000000000007e-01 1.539594999999999991e-01 1.442334999999999923e+01 1.225979999999999990e+02 1.894819999999999936e+03
1.580000000000000016e-01 1.539240000000000053e-01 1.398744999999999905e+01 1.218275000000000006e+02 1.894474999999999909e+03
1.590000000000000024e-01 1.538915000000000144e-01 1.360449999999999982e+01 1.211564999999999941e+02 1.894170000000000073e+03
