# t [s], A [cm^2], U [cm/s], P [cPa], c [cm/s]
1.000000000000000021e-03 6.824729999999999963e-01 6.567650000000001265e-03 9.588204999999999245e+01 1.724855000000000018e+03
2.000000000000000042e-03 6.824600000000000666e-01 -6.563049999999999960e-03 9.584935000000000116e+01 1.724845000000000027e+03
3.000000000000000062e-03 6.824980000000000491e-01 5.799199999999999494e-02 9.592279999999999518e+01 1.724864999999999782e+03
4.000000000000000083e-03 6.825524999999998954e-01 1.603570500000000010e-01 9.605854999999999677e+01 1.724889999999999873e+03
5.000000000000000104e-03 6.825449999999999573e-01 1.716225000000000112e-01 9.605555000000001087e+01 1.724889999999999873e+03
6.000000000000000125e-03 6.824810000000000043e-01 8.626050000000001772e-02 9.586764999999999759e+01 1.724855000000000018e+03
7.000000000000000146e-03 6.824319999999999276e-01 2.125299999999996636e-02 9.564605000000000246e+01 1.724815000000000055e+03
8.000000000000000167e-03 6.823770000000000113e-01 -6.371299999999996411e-02 9.536840000000000828e+01 1.724755000000000109e+03
9.000000000000001055e-03 6.822749999999999648e-01 -2.466150000000000286e-01 9.493025000000000091e+01 1.724670000000000073e+03
1.000000000000000194e-02 6.821215000000000472e-01 -5.378799999999999137e-01 9.429025000000000034e+01 1.724545000000000073e+03
1.099999999999999936e-02 6.819034999999999958e-01 -9.575599999999999667e-01 9.339074999999999704e+01 1.724369999999999891e+03
1.200000000000000025e-02 6.816035000000000288e-01 -1.527765000000000040e+00 9.216169999999999618e+01 1.724125000000000000e+03
1.300000000000000114e-02 6.812394999999999978e-01 -2.199654999999999916e+00 9.062364999999999782e+01 1.723825000000000045e+03
1.400000000000000203e-02 6.808699999999999752e-01 -2.846395000000000231e+00 8.892234999999999445e+01 1.723469999999999800e+03
1.499999999999999944e-02 6.805535000000000334e-01 -3.332002999999999826e+00 8.725139999999998963e+01 1.723115000000000009e+03
1.600000000000000033e-02 6.803144999999999332e-01 -3.578589500000000090e+00 8.575084999999999980e+01 1.722769999999999982e+03
1.700000000000000122e-02 6.801395000000000080e-01 -3.585658999999999708e+00 8.445765000000000100e+01 1.722465000000000146e+03
1.800000000000000211e-02 6.799910000000000121e-01 -3.408891500000000185e+00 8.331610000000000582e+01 1.722179999999999836e+03
1.900000000000000300e-02 6.798280000000000989e-01 -3.123571000000000097e+00 8.222190000000000509e+01 1.721900000000000091e+03
2.000000000000000042e-02 6.796219999999999484e-01 -2.791886500000000382e+00 8.107280000000000086e+01 1.721610000000000127e+03
2.100000000000000130e-02 6.793659999999999144e-01 -2.443834999999999980e+00 7.980654999999998722e+01 1.721295000000000073e+03
2.200000000000000219e-02 6.790699999999999514e-01 -2.074060000000000237e+00 7.841689999999999827e+01 1.720960000000000036e+03
2.299999999999999961e-02 6.787564999999999849e-01 -1.652760000000000229e+00 7.694755000000000678e+01 1.720599999999999909e+03
2.400000000000000050e-02 6.784504999999999564e-01 -1.145190000000000152e+00 7.546689999999999543e+01 1.720235000000000127e+03
2.500000000000000139e-02 6.781654999999999767e-01 -5.317299999999998139e-01 7.403700000000000614e+01 1.719880000000000109e+03
2.600000000000000228e-02 6.779029999999999223e-01 1.787050000000001138e-01 7.268649999999999523e+01 1.719534999999999854e+03
2.700000000000000316e-02 6.776489999999999458e-01 9.455499999999998906e-01 7.139779999999998950e+01 1.719210000000000036e+03
2.800000000000000058e-02 6.773789999999999534e-01 1.703344999999999887e+00 7.010884999999998968e+01 1.718875000000000000e+03
2.900000000000000147e-02 6.770639999999999992e-01 2.375725000000000087e+00 6.872894999999999754e+01 1.718534999999999854e+03
3.000000000000000236e-02 6.766820000000000057e-01 2.892850000000000144e+00 6.716315000000000168e+01 1.718159999999999854e+03
3.099999999999999978e-02 6.762205000000000021e-01 3.208145000000000024e+00 6.534020000000001005e+01 1.717735000000000127e+03
3.200000000000000067e-02 6.756845000000000212e-01 3.309339999999999726e+00 6.323489999999999611e+01 1.717259999999999991e+03
3.300000000000000155e-02 6.750929999999999431e-01 3.220359999999999889e+00 6.087890000000000157e+01 1.716735000000000127e+03
3.400000000000000244e-02 6.744775000000000631e-01 2.993090000000000028e+00 5.835519999999999641e+01 1.716175000000000182e+03
3.500000000000000333e-02 6.738724999999999854e-01 2.693009999999999682e+00 5.578059999999999974e+01 1.715599999999999909e+03
3.600000000000000422e-02 6.733085000000000875e-01 2.384335000000000093e+00 5.328215000000000146e+01 1.715035000000000082e+03
3.700000000000000511e-02 6.728079999999999616e-01 2.118770000000000486e+00 5.097605000000000075e+01 1.714500000000000000e+03
3.799999999999999906e-02 6.723870000000000680e-01 1.930285000000000029e+00 4.895349999999999824e+01 1.714025000000000091e+03
3.899999999999999994e-02 6.720485000000000486e-01 1.835605000000000153e+00 4.727495000000000402e+01 1.713615000000000009e+03
4.000000000000000083e-02 6.717934999999999324e-01 1.838435000000000041e+00 4.597145000000000437e+01 1.713284999999999854e+03
4.100000000000000172e-02 6.716180000000000483e-01 1.935670000000000002e+00 4.505180000000000007e+01 1.713034999999999854e+03
4.200000000000000261e-02 6.715180000000000593e-01 2.123607499999999870e+00 4.451130000000000564e+01 1.712875000000000000e+03
4.300000000000000350e-02 6.714919999999999778e-01 2.402690000000000214e+00 4.434154999999999802e+01 1.712789999999999964e+03
4.400000000000000439e-02 6.715394999999999559e-01 2.779824999999999768e+00 4.453669999999999618e+01 1.712795000000000073e+03
4.499999999999999833e-02 6.716649999999999565e-01 3.267900000000000027e+00 4.509694999999999965e+01 1.712884999999999991e+03
4.599999999999999922e-02 6.718714999999999549e-01 3.883024999999999949e+00 4.602759999999999962e+01 1.713059999999999945e+03
4.700000000000000011e-02 6.721624999999999961e-01 4.640439999999999898e+00 4.733509999999999707e+01 1.713320000000000164e+03
4.800000000000000100e-02 6.725379999999999692e-01 5.550430000000000419e+00 4.902195000000000391e+01 1.713659999999999854e+03
4.900000000000000189e-02 6.729964999999999975e-01 6.615310000000000024e+00 5.108159999999999457e+01 1.714089999999999918e+03
5.000000000000000278e-02 6.735309999999999908e-01 7.828095000000000248e+00 5.349515000000000242e+01 1.714599999999999909e+03
5.100000000000000366e-02 6.741319999999999535e-01 9.172554999999999126e+00 5.623035000000000139e+01 1.715184999999999945e+03
5.200000000000000455e-02 6.747874999999999845e-01 1.062532500000000013e+01 5.924264999999999759e+01 1.715840000000000146e+03
5.300000000000000544e-02 6.754830000000000556e-01 1.215822499999999984e+01 6.247849999999999682e+01 1.716550000000000182e+03
5.399999999999999939e-02 6.762064999999999326e-01 1.374131999999999998e+01 6.587964999999999804e+01 1.717299999999999955e+03
5.500000000000000028e-02 6.769445000000000601e-01 1.534579999999999878e+01 6.938809999999999434e+01 1.718085000000000036e+03
5.600000000000000117e-02 6.776860000000000106e-01 1.694609499999999969e+01 7.294995000000000118e+01 1.718889999999999873e+03
5.700000000000000205e-02 6.784239999999999160e-01 1.852130000000000010e+01 7.651935000000000286e+01 1.719704999999999927e+03
5.800000000000000294e-02 6.791519999999999779e-01 2.005555000000000021e+01 8.006004999999998972e+01 1.720530000000000200e+03
5.900000000000000383e-02 6.798669999999999991e-01 2.153805000000000192e+01 8.354635000000000389e+01 1.721335000000000036e+03
6.000000000000000472e-02 6.805674999999999919e-01 2.296215000000000117e+01 8.696205000000000496e+01 1.722140000000000100e+03
6.099999999999999867e-02 6.812534999999999563e-01 2.432444999999999879e+01 9.030055000000000121e+01 1.722930000000000064e+03
6.199999999999999956e-02 6.819264999999999910e-01 2.562369999999999948e+01 9.356045000000000300e+01 1.723704999999999927e+03
6.300000000000000044e-02 6.825864999999999849e-01 2.685994999999999777e+01 9.674569999999999936e+01 1.724460000000000036e+03
6.400000000000000133e-02 6.832365000000000244e-01 2.803405000000000058e+01 9.986275000000000546e+01 1.725204999999999927e+03
6.500000000000000222e-02 6.838770000000000682e-01 2.914634999999999820e+01 1.029181499999999971e+02 1.725940000000000055e+03
6.600000000000000311e-02 6.845084999999999642e-01 3.019679999999999964e+01 1.059176500000000090e+02 1.726655000000000200e+03
6.700000000000000400e-02 6.851310000000000455e-01 3.118439999999999657e+01 1.088650000000000091e+02 1.727365000000000009e+03
6.800000000000000488e-02 6.857444999999999791e-01 3.210699999999999932e+01 1.117600000000000051e+02 1.728059999999999945e+03
6.900000000000000577e-02 6.863460000000000116e-01 3.296115000000000350e+01 1.145979999999999990e+02 1.728750000000000000e+03
7.000000000000000666e-02 6.869345000000000034e-01 3.374269999999999925e+01 1.173714999999999975e+02 1.729420000000000073e+03
7.100000000000000755e-02 6.875059999999999505e-01 3.444695000000000107e+01 1.200704999999999956e+02 1.730069999999999936e+03
7.200000000000000844e-02 6.880580000000000584e-01 3.506905000000000427e+01 1.226804999999999950e+02 1.730710000000000036e+03
7.300000000000000933e-02 6.885875000000000190e-01 3.560479999999999734e+01 1.251894999999999953e+02 1.731320000000000164e+03
7.399999999999999634e-02 6.890914999999999679e-01 3.605070000000000618e+01 1.275820000000000078e+02 1.731909999999999854e+03
7.499999999999999722e-02 6.895674999999999999e-01 3.640480000000000160e+01 1.298464999999999918e+02 1.732470000000000027e+03
7.599999999999999811e-02 6.900140000000000162e-01 3.666625000000000512e+01 1.319714999999999918e+02 1.733000000000000000e+03
7.699999999999999900e-02 6.904295000000000293e-01 3.683559999999999945e+01 1.339505000000000052e+02 1.733494999999999891e+03
7.799999999999999989e-02 6.908134999999999692e-01 3.691450000000000387e+01 1.357769999999999868e+02 1.733954999999999927e+03
7.900000000000000078e-02 6.911659999999999471e-01 3.690524999999999523e+01 1.374474999999999909e+02 1.734384999999999991e+03
8.000000000000000167e-02 6.914854999999999752e-01 3.681085000000000207e+01 1.389610000000000127e+02 1.734769999999999982e+03
8.100000000000000255e-02 6.917729999999999713e-01 3.663455000000000439e+01 1.403174999999999955e+02 1.735119999999999891e+03
8.200000000000000344e-02 6.920284999999999354e-01 3.638004999999999711e+01 1.415169999999999959e+02 1.735440000000000055e+03
8.300000000000000433e-02 6.922524999999999373e-01 3.605150000000000432e+01 1.425645000000000095e+02 1.735715000000000146e+03
8.400000000000000522e-02 6.924455000000000471e-01 3.565359999999999729e+01 1.434625000000000057e+02 1.735960000000000036e+03
8.500000000000000611e-02 6.926095000000001001e-01 3.519180000000000064e+01 1.442170000000000130e+02 1.736170000000000073e+03
8.600000000000000699e-02 6.927455000000000140e-01 3.467260000000000275e+01 1.448354999999999961e+02 1.736345000000000027e+03
8.700000000000000788e-02 6.928549999999999986e-01 3.410330000000000439e+01 1.453280000000000030e+02 1.736485000000000127e+03
8.800000000000000877e-02 6.929430000000000867e-01 3.349224999999999852e+01 1.457060000000000173e+02 1.736599999999999909e+03
8.899999999999999578e-02 6.930100000000000149e-01 3.284844999999999970e+01 1.459834999999999923e+02 1.736690000000000055e+03
8.999999999999999667e-02 6.930609999999999271e-01 3.218115000000000236e+01 1.461734999999999900e+02 1.736759999999999991e+03
9.099999999999999756e-02 6.930974999999999220e-01 3.149960000000000093e+01 1.462920000000000016e+02 1.736804999999999836e+03
9.199999999999999845e-02 6.931240000000000734e-01 3.081234999999999857e+01 1.463539999999999850e+02 1.736835000000000036e+03
9.299999999999999933e-02 6.931424999999999947e-01 3.012704999999999700e+01 1.463720000000000141e+02 1.736855000000000018e+03
9.400000000000000022e-02 6.931549999999999656e-01 2.945000000000000284e+01 1.463584999999999923e+02 1.736865000000000009e+03
9.500000000000000111e-02 6.931629999999999736e-01 2.878584999999999638e+01 1.463230000000000075e+02 1.736859999999999900e+03
9.600000000000000200e-02 6.931680000000000064e-01 2.813785000000000025e+01 1.462724999999999795e+02 1.736855000000000018e+03
9.700000000000000289e-02 6.931694999999999940e-01 2.750724999999999909e+01 1.462100000000000080e+02 1.736845000000000027e+03
9.800000000000000377e-02 6.931685000000000763e-01 2.689415000000000333e+01 1.461374999999999886e+02 1.736829999999999927e+03
9.900000000000000466e-02 6.931624999999999037e-01 2.629714999999999847e+01 1.460529999999999973e+02 1.736809999999999945e+03
1.000000000000000056e-01 6.931524999999999492e-01 2.571399999999999864e+01 1.459540000000000077e+02 1.736789999999999964e+03
1.010000000000000064e-01 6.931365000000000443e-01 2.514164999999999850e+01 1.458354999999999961e+02 1.736764999999999873e+03
1.020000000000000073e-01 6.931125000000000203e-01 2.457649999999999935e+01 1.456910000000000025e+02 1.736730000000000018e+03
1.030000000000000082e-01 6.930795000000000705e-01 2.401485000000000269e+01 1.455154999999999745e+02 1.736694999999999936e+03
1.040000000000000091e-01 6.930380000000000429e-01 2.345289999999999964e+01 1.453029999999999973e+02 1.736639999999999873e+03
1.050000000000000100e-01 6.929845000000000033e-01 2.288710000000000022e+01 1.450469999999999970e+02 1.736579999999999927e+03
1.059999999999999970e-01 6.929195000000000215e-01 2.231414999999999793e+01 1.447434999999999832e+02 1.736514999999999873e+03
1.069999999999999979e-01 6.928430000000000977e-01 2.173145000000000238e+01 1.443885000000000218e+02 1.736434999999999945e+03
1.079999999999999988e-01 6.927535000000000220e-01 2.113684999999999903e+01 1.439805000000000064e+02 1.736345000000000027e+03
1.089999999999999997e-01 6.926525000000000043e-01 2.052935000000000088e+01 1.435185000000000173e+02 1.736240000000000009e+03
1.100000000000000006e-01 6.925394999999999746e-01 1.990864999999999796e+01 1.430040000000000191e+02 1.736125000000000000e+03
1.110000000000000014e-01 6.924159999999999204e-01 1.927555000000000263e+01 1.424410000000000025e+02 1.735994999999999891e+03
1.120000000000000023e-01 6.922835000000000516e-01 1.863190000000000168e+01 1.418335000000000150e+02 1.735860000000000127e+03
1.130000000000000032e-01 6.921435000000000226e-01 1.798049999999999926e+01 1.411904999999999859e+02 1.735710000000000036e+03
1.140000000000000041e-01 6.919994999999999896e-01 1.732515000000000072e+01 1.405194999999999936e+02 1.735559999999999945e+03
1.150000000000000050e-01 6.918514999999999526e-01 1.667030000000000101e+01 1.398315000000000055e+02 1.735400000000000091e+03
1.160000000000000059e-01 6.917039999999999855e-01 1.602120000000000033e+01 1.391374999999999886e+02 1.735240000000000009e+03
1.170000000000000068e-01 6.915594999999999937e-01 1.538325000000000031e+01 1.384495000000000005e+02 1.735079999999999927e+03
1.180000000000000077e-01 6.914200000000000346e-01 1.476210000000000022e+01 1.377794999999999845e+02 1.734920000000000073e+03
1.190000000000000085e-01 6.912884999999999724e-01 1.416319999999999979e+01 1.371394999999999982e+02 1.734769999999999982e+03
1.200000000000000094e-01 6.911659999999999471e-01 1.359192000000000000e+01 1.365399999999999920e+02 1.734625000000000000e+03
1.209999999999999964e-01 6.910560000000000036e-01 1.305270499999999956e+01 1.359900000000000091e+02 1.734489999999999782e+03
1.219999999999999973e-01 6.909589999999999899e-01 1.254951499999999953e+01 1.354989999999999952e+02 1.734369999999999891e+03
1.229999999999999982e-01 6.908765000000000045e-01 1.208519000000000077e+01 1.350720000000000027e+02 1.734264999999999873e+03
1.239999999999999991e-01 6.908080000000000886e-01 1.166172000000000075e+01 1.347129999999999939e+02 1.734164999999999964e+03
1.250000000000000000e-01 6.907550000000000079e-01 1.127993500000000004e+01 1.344234999999999900e+02 1.734089999999999918e+03
1.260000000000000009e-01 6.907164999999999555e-01 1.093961000000000006e+01 1.342024999999999864e+02 1.734030000000000200e+03
1.270000000000000018e-01 6.906909999999999439e-01 1.063959999999999972e+01 1.340475000000000136e+02 1.733980000000000018e+03
1.280000000000000027e-01 6.906780000000000141e-01 1.037778499999999937e+01 1.339544999999999959e+02 1.733945000000000164e+03
1.290000000000000036e-01 6.906760000000000677e-01 1.015138500000000121e+01 1.339164999999999850e+02 1.733924999999999955e+03
1.300000000000000044e-01 6.906829999999999359e-01 9.957194999999998686e+00 1.339264999999999759e+02 1.733920000000000073e+03
1.310000000000000053e-01 6.906974999999999643e-01 9.791460000000000719e+00 1.339770000000000039e+02 1.733920000000000073e+03
1.320000000000000062e-01 6.907179999999999431e-01 9.650379999999998404e+00 1.340595000000000141e+02 1.733929999999999836e+03
1.330000000000000071e-01 6.907419999999999671e-01 9.530250000000000554e+00 1.341659999999999968e+02 1.733944999999999936e+03
1.340000000000000080e-01 6.907689999999999664e-01 9.427315000000000111e+00 1.342889999999999873e+02 1.733970000000000027e+03
1.350000000000000089e-01 6.907970000000001054e-01 9.338204999999998535e+00 1.344215000000000089e+02 1.733994999999999891e+03
1.360000000000000098e-01 6.908254999999999812e-01 9.259714999999999918e+00 1.345579999999999927e+02 1.734019999999999982e+03
1.370000000000000107e-01 6.908535000000000093e-01 9.189095000000000013e+00 1.346929999999999836e+02 1.734049999999999955e+03
1.380000000000000115e-01 6.908790000000000209e-01 9.123854999999998938e+00 1.348230000000000075e+02 1.734079999999999927e+03
1.390000000000000124e-01 6.909030000000000449e-01 9.061840000000000117e+00 1.349440000000000168e+02 1.734105000000000018e+03
1.400000000000000133e-01 6.909250000000000114e-01 9.001265000000000072e+00 1.350540000000000020e+02 1.734130000000000109e+03
1.410000000000000142e-01 6.909440000000000026e-01 8.940780000000000172e+00 1.351519999999999868e+02 1.734150000000000091e+03
1.420000000000000151e-01 6.909600000000000186e-01 8.879239999999999355e+00 1.352365000000000066e+02 1.734170000000000073e+03
1.430000000000000160e-01 6.909739999999999771e-01 8.815889999999999560e+00 1.353079999999999927e+02 1.734190000000000055e+03
1.440000000000000169e-01 6.909849999999999604e-01 8.750365000000000393e+00 1.353670000000000186e+02 1.734204999999999927e+03
1.450000000000000178e-01 6.909939999999999971e-01 8.682579999999999742e+00 1.354134999999999991e+02 1.734215000000000146e+03
1.459999999999999909e-01 6.910005000000000175e-01 8.612679999999999225e+00 1.354505000000000052e+02 1.734224999999999909e+03
1.469999999999999918e-01 6.910060000000000091e-01 8.541119999999999379e+00 1.354784999999999968e+02 1.734235000000000127e+03
1.479999999999999927e-01 6.910104999999999720e-01 8.468510000000000204e+00 1.355004999999999882e+02 1.734235000000000127e+03
1.489999999999999936e-01 6.910140000000000171e-01 8.395599999999999952e+00 1.355174999999999841e+02 1.734240000000000009e+03
1.499999999999999944e-01 6.910179999999999101e-01 8.323164999999999480e+00 1.355324999999999989e+02 1.734250000000000000e+03
1.509999999999999953e-01 6.910220000000000251e-01 8.251955000000000595e+00 1.355464999999999804e+02 1.734255000000000109e+03
1.519999999999999962e-01 6.910259999999999181e-01 8.182634999999999437e+00 1.355609999999999786e+02 1.734259999999999991e+03
1.529999999999999971e-01 6.910309999999999508e-01 8.115705000000000169e+00 1.355774999999999864e+02 1.734264999999999873e+03
1.539999999999999980e-01 6.910365000000000535e-01 8.051489999999999370e+00 1.355969999999999800e+02 1.734269999999999982e+03
1.549999999999999989e-01 6.910429999999999628e-01 7.990109999999999602e+00 1.356184999999999832e+02 1.734269999999999982e+03
1.559999999999999998e-01 6.910495000000000942e-01 7.931469999999999132e+00 1.356430000000000007e+02 1.734275000000000091e+03
1.570000000000000007e-01 6.910560000000000036e-01 7.875294999999999490e+00 1.356684999999999945e+02 1.734284999999999854e+03
1.580000000000000016e-01 6.910635000000000527e-01 7.821144999999999570e+00 1.356945000000000050e+02 1.734289999999999964e+03
1.590000000000000024e-01 6.910690000000000444e-01 7.768489999999999895e+00 1.357189999999999941e+02 1.734295000000000073e+03
