# t [s], A [cm^2], U [cm/s], P [cPa], c [cm/s]
1.000000000000000021e-03 1.778580000000000161e-01 3.058731499999999826e-01 9.299780000000001223e+01 2.307369999999999891e+03
2.000000000000000042e-03 1.778104999999999825e-01 1.717889999999999917e+00 8.951740000000000919e+01 2.306940000000000055e+03
3.000000000000000062e-03 1.776929999999999898e-01 3.476811999999999792e+00 8.466044999999999732e+01 2.305920000000000073e+03
4.000000000000000083e-03 1.775384999999999880e-01 5.480741000000000085e+00 7.952955000000000041e+01 2.304599999999999909e+03
5.000000000000000104e-03 1.773784999999999945e-01 7.637930000000000774e+00 7.511299999999999955e+01 2.303250000000000000e+03
6.000000000000000125e-03 1.772279999999999966e-01 9.710535000000000139e+00 7.153929999999999723e+01 2.301994999999999891e+03
7.000000000000000146e-03 1.770875000000000088e-01 1.147709000000000046e+01 6.838205000000000666e+01 2.300850000000000364e+03
8.000000000000000167e-03 1.769614999999999938e-01 1.292514000000000074e+01 6.553170000000000073e+01 2.299835000000000036e+03
9.000000000000001055e-03 1.768534999999999968e-01 1.411345000000000027e+01 6.314934999999999832e+01 2.298984999999999673e+03
1.000000000000000194e-02 1.767650000000000055e-01 1.506445000000000078e+01 6.126749999999999829e+01 2.298289999999999964e+03
1.099999999999999936e-02 1.766949999999999910e-01 1.578849999999999909e+01 5.981094999999999118e+01 2.297750000000000000e+03
1.200000000000000025e-02 1.766389999999999905e-01 1.628235000000000099e+01 5.863564999999999827e+01 2.297329999999999927e+03
1.300000000000000114e-02 1.765919999999999990e-01 1.654964999999999975e+01 5.756360000000000099e+01 2.296980000000000018e+03
1.400000000000000203e-02 1.765525000000000011e-01 1.667385000000000161e+01 5.660504999999999853e+01 2.296684999999999945e+03
1.499999999999999944e-02 1.765260000000000162e-01 1.683784999999999954e+01 5.612704999999999700e+01 2.296494999999999891e+03
1.600000000000000033e-02 1.765249999999999875e-01 1.723505000000000109e+01 5.667669999999999675e+01 2.296489999999999782e+03
1.700000000000000122e-02 1.765585000000000071e-01 1.794545000000000101e+01 5.857479999999999620e+01 2.296755000000000109e+03
1.800000000000000211e-02 1.766250000000000042e-01 1.888009999999999877e+01 6.162304999999999922e+01 2.297279999999999745e+03
1.900000000000000300e-02 1.767114999999999936e-01 1.982475000000000165e+01 6.513179999999999836e+01 2.297965000000000146e+03
2.000000000000000042e-02 1.767994999999999983e-01 2.054234999999999900e+01 6.821564999999999657e+01 2.298675000000000182e+03
2.100000000000000130e-02 1.768695000000000128e-01 2.087279999999999802e+01 7.016249999999999432e+01 2.299255000000000109e+03
2.200000000000000219e-02 1.769094999999999973e-01 2.078549999999999898e+01 7.068825000000001069e+01 2.299605000000000018e+03
2.299999999999999961e-02 1.769189999999999929e-01 2.036874999999999858e+01 6.997944999999999993e+01 2.299699999999999818e+03
2.400000000000000050e-02 1.769030000000000047e-01 1.977174999999999727e+01 6.853610000000000468e+01 2.299599999999999909e+03
2.500000000000000139e-02 1.768744999999999901e-01 1.913235000000000241e+01 6.691364999999998986e+01 2.299385000000000218e+03
2.600000000000000228e-02 1.768425000000000136e-01 1.852414999999999878e+01 6.549179999999999779e+01 2.299130000000000109e+03
2.700000000000000316e-02 1.768119999999999969e-01 1.794174999999999898e+01 6.436209999999999809e+01 2.298880000000000109e+03
2.800000000000000058e-02 1.767829999999999957e-01 1.732294999999999874e+01 6.335894999999999300e+01 2.298650000000000091e+03
2.900000000000000147e-02 1.767500000000000182e-01 1.659335000000000093e+01 6.219575000000000387e+01 2.298389999999999873e+03
3.000000000000000236e-02 1.767090000000000050e-01 1.571214999999999939e+01 6.063774999999999693e+01 2.298065000000000055e+03
3.099999999999999978e-02 1.766564999999999941e-01 1.470314999999999905e+01 5.864110000000000156e+01 2.297659999999999854e+03
3.200000000000000067e-02 1.765960000000000030e-01 1.365864999999999974e+01 5.640644999999999953e+01 2.297180000000000291e+03
3.300000000000000155e-02 1.765355000000000119e-01 1.271550000000000047e+01 5.433055000000000234e+01 2.296694999999999709e+03
3.400000000000000244e-02 1.764844999999999886e-01 1.201285000000000025e+01 5.287574999999999648e+01 2.296284999999999854e+03
3.500000000000000333e-02 1.764545000000000141e-01 1.164869999999999983e+01 5.241275000000000261e+01 2.296029999999999745e+03
3.600000000000000422e-02 1.764519999999999977e-01 1.165015000000000001e+01 5.309475000000000477e+01 2.295985000000000127e+03
3.700000000000000511e-02 1.764775000000000094e-01 1.196625000000000050e+01 5.480669999999999931e+01 2.296175000000000182e+03
3.799999999999999906e-02 1.765260000000000162e-01 1.248339999999999961e+01 5.719670000000000698e+01 2.296534999999999854e+03
3.899999999999999994e-02 1.765869999999999940e-01 1.305450000000000088e+01 5.976959999999999695e+01 2.297014999999999873e+03
4.000000000000000083e-02 1.766495000000000148e-01 1.353130000000000166e+01 6.200629999999999598e+01 2.297510000000000218e+03
4.100000000000000172e-02 1.766999999999999960e-01 1.379234999999999900e+01 6.347229999999999706e+01 2.297914999999999964e+03
4.200000000000000261e-02 1.767289999999999972e-01 1.375935000000000130e+01 6.388954999999999984e+01 2.298159999999999854e+03
4.300000000000000350e-02 1.767305000000000126e-01 1.340119999999999933e+01 6.316105000000000302e+01 2.298185000000000400e+03
4.400000000000000439e-02 1.767029999999999990e-01 1.272794999999999987e+01 6.135155000000000314e+01 2.297980000000000018e+03
4.499999999999999833e-02 1.766484999999999861e-01 1.177842000000000056e+01 5.863939999999999486e+01 2.297560000000000400e+03
4.599999999999999922e-02 1.765700000000000047e-01 1.060603500000000032e+01 5.525794999999999391e+01 2.296944999999999709e+03
4.700000000000000011e-02 1.764740000000000197e-01 9.267945000000000988e+00 5.144445000000000334e+01 2.296184999999999945e+03
4.800000000000000100e-02 1.763655000000000084e-01 7.818485000000000795e+00 4.740709999999999980e+01 2.295324999999999818e+03
4.900000000000000189e-02 1.762495000000000034e-01 6.307285000000000252e+00 4.331369999999999720e+01 2.294404999999999745e+03
5.000000000000000278e-02 1.761314999999999964e-01 4.781229999999999869e+00 3.929725000000000534e+01 2.293460000000000036e+03
5.100000000000000366e-02 1.760140000000000038e-01 3.287476999999999983e+00 3.547129999999999939e+01 2.292519999999999982e+03
5.200000000000000455e-02 1.759014999999999884e-01 1.876199999999999868e+00 3.194624999999999915e+01 2.291625000000000000e+03
5.300000000000000544e-02 1.757980000000000098e-01 6.014900000000000801e-01 2.884074999999999989e+01 2.290784999999999854e+03
5.399999999999999939e-02 1.757064999999999877e-01 -4.799900000000000277e-01 2.628419999999999845e+01 2.290050000000000182e+03
5.500000000000000028e-02 1.756314999999999960e-01 -1.312478000000000034e+00 2.441040000000000276e+01 2.289439999999999600e+03
5.600000000000000117e-02 1.755774999999999975e-01 -1.845734999999999904e+00 2.334485000000000099e+01 2.288994999999999891e+03
5.700000000000000205e-02 1.755470000000000086e-01 -2.039915000000000145e+00 2.318975000000000009e+01 2.288724999999999909e+03
5.800000000000000294e-02 1.755434999999999912e-01 -1.869645000000000001e+00 2.400939999999999941e+01 2.288680000000000291e+03
5.900000000000000383e-02 1.755680000000000018e-01 -1.326581000000000010e+00 2.582130000000000081e+01 2.288849999999999909e+03
6.000000000000000472e-02 1.756214999999999860e-01 -4.201550000000000562e-01 2.859170000000000300e+01 2.289250000000000000e+03
6.099999999999999867e-02 1.757019999999999971e-01 8.233699999999999353e-01 3.223884999999999934e+01 2.289875000000000000e+03
6.199999999999999956e-02 1.758079999999999921e-01 2.363307499999999894e+00 3.663989999999999725e+01 2.290699999999999818e+03
6.300000000000000044e-02 1.759354999999999947e-01 4.147916000000000381e+00 4.164244999999999663e+01 2.291699999999999818e+03
6.400000000000000133e-02 1.760805000000000009e-01 6.118400000000000283e+00 4.707704999999999984e+01 2.292845000000000255e+03
6.500000000000000222e-02 1.762385000000000201e-01 8.213100000000000733e+00 5.277105000000000246e+01 2.294099999999999909e+03
6.600000000000000311e-02 1.764045000000000196e-01 1.037168499999999938e+01 5.856115000000000492e+01 2.295425000000000182e+03
6.700000000000000400e-02 1.765745000000000231e-01 1.253912499999999852e+01 6.430485000000000184e+01 2.296779999999999745e+03
6.800000000000000488e-02 1.767440000000000122e-01 1.466864999999999952e+01 6.988934999999999320e+01 2.298144999999999982e+03
6.900000000000000577e-02 1.769104999999999983e-01 1.672429999999999950e+01 7.523734999999999218e+01 2.299489999999999782e+03
7.000000000000000666e-02 1.770714999999999928e-01 1.868180000000000263e+01 8.030889999999999418e+01 2.300789999999999964e+03
7.100000000000000755e-02 1.772265000000000090e-01 2.052875000000000227e+01 8.509950000000000614e+01 2.302045000000000073e+03
7.200000000000000844e-02 1.773744999999999905e-01 2.226304999999999978e+01 8.963445000000000107e+01 2.303250000000000000e+03
7.300000000000000933e-02 1.775160000000000071e-01 2.389099999999999824e+01 9.396084999999999354e+01 2.304409999999999854e+03
7.399999999999999634e-02 1.776534999999999920e-01 2.542454999999999998e+01 9.813620000000000232e+01 2.305525000000000091e+03
7.499999999999999722e-02 1.777865000000000140e-01 2.687839999999999918e+01 1.022219999999999942e+02 2.306614999999999782e+03
7.599999999999999811e-02 1.779175000000000062e-01 2.826769999999999783e+01 1.062717999999999989e+02 2.307680000000000291e+03
7.699999999999999900e-02 1.780470000000000108e-01 2.960555000000000092e+01 1.103275000000000006e+02 2.308744999999999891e+03
7.799999999999999989e-02 1.781774999999999887e-01 3.090214999999999890e+01 1.144134999999999991e+02 2.309809999999999945e+03
7.900000000000000078e-02 1.783075000000000077e-01 3.216349999999999909e+01 1.185380000000000109e+02 2.310875000000000000e+03
8.000000000000000167e-02 1.784395000000000009e-01 3.339140000000000441e+01 1.226930000000000121e+02 2.311945000000000164e+03
8.100000000000000255e-02 1.785709999999999797e-01 3.458325000000000671e+01 1.268549999999999898e+02 2.313019999999999982e+03
8.200000000000000344e-02 1.787019999999999997e-01 3.573290000000000077e+01 1.309900000000000091e+02 2.314099999999999909e+03
8.300000000000000433e-02 1.788319999999999910e-01 3.683079999999999643e+01 1.350550000000000068e+02 2.315164999999999964e+03
8.400000000000000522e-02 1.789594999999999936e-01 3.786495000000000033e+01 1.390020000000000095e+02 2.316204999999999927e+03
8.500000000000000611e-02 1.790829999999999922e-01 3.882160000000000366e+01 1.427799999999999727e+02 2.317215000000000146e+03
8.600000000000000699e-02 1.792015000000000136e-01 3.968585000000000207e+01 1.463379999999999939e+02 2.318190000000000055e+03
8.700000000000000788e-02 1.793124999999999858e-01 4.044280000000000541e+01 1.496279999999999859e+02 2.319109999999999673e+03
8.800000000000000877e-02 1.794155000000000055e-01 4.107835000000000036e+01 1.526039999999999850e+02 2.319954999999999927e+03
8.899999999999999578e-02 1.795094999999999885e-01 4.157994999999999663e+01 1.552280000000000086e+02 2.320730000000000018e+03
8.999999999999999667e-02 1.795920000000000016e-01 4.193795000000000073e+01 1.574714999999999918e+02 2.321420000000000073e+03
9.099999999999999756e-02 1.796639999999999904e-01 4.214605000000000246e+01 1.593160000000000025e+02 2.322014999999999873e+03
9.199999999999999845e-02 1.797234999999999805e-01 4.220225000000000648e+01 1.607554999999999836e+02 2.322519999999999982e+03
9.299999999999999933e-02 1.797715000000000007e-01 4.210889999999999844e+01 1.617959999999999923e+02 2.322914999999999964e+03
9.400000000000000022e-02 1.798075000000000090e-01 4.187304999999999922e+01 1.624585000000000150e+02 2.323224999999999909e+03
9.500000000000000111e-02 1.798319999999999919e-01 4.150600000000000023e+01 1.627735000000000127e+02 2.323434999999999945e+03
9.600000000000000200e-02 1.798460000000000059e-01 4.102285000000000537e+01 1.627830000000000155e+02 2.323569999999999709e+03
9.700000000000000289e-02 1.798514999999999975e-01 4.044134999999999991e+01 1.625364999999999895e+02 2.323619999999999891e+03
9.800000000000000377e-02 1.798490000000000089e-01 3.978145000000000664e+01 1.620869999999999891e+02 2.323605000000000018e+03
9.900000000000000466e-02 1.798399999999999999e-01 3.906354999999999933e+01 1.614865000000000066e+02 2.323545000000000073e+03
1.000000000000000056e-01 1.798270000000000146e-01 3.830819999999999936e+01 1.607889999999999873e+02 2.323440000000000055e+03
1.010000000000000064e-01 1.798099999999999976e-01 3.753454999999999586e+01 1.600420000000000016e+02 2.323305000000000291e+03
1.020000000000000073e-01 1.797909999999999786e-01 3.675974999999999682e+01 1.592860000000000014e+02 2.323154999999999745e+03
1.030000000000000082e-01 1.797710000000000141e-01 3.599835000000000207e+01 1.585534999999999854e+02 2.322994999999999891e+03
1.040000000000000091e-01 1.797520000000000229e-01 3.526170000000000471e+01 1.578689999999999998e+02 2.322835000000000036e+03
1.050000000000000100e-01 1.797330000000000039e-01 3.455750000000000455e+01 1.572464999999999975e+02 2.322679999999999836e+03
1.059999999999999970e-01 1.797155000000000002e-01 3.388989999999999725e+01 1.566899999999999977e+02 2.322534999999999854e+03
1.069999999999999979e-01 1.796995000000000120e-01 3.325930000000000319e+01 1.561949999999999932e+02 2.322399999999999636e+03
1.079999999999999988e-01 1.796844999999999970e-01 3.266264999999999930e+01 1.557470000000000141e+02 2.322275000000000091e+03
1.089999999999999997e-01 1.796705000000000108e-01 3.209394999999999953e+01 1.553259999999999934e+02 2.322154999999999745e+03
1.100000000000000006e-01 1.796570000000000111e-01 3.154464999999999719e+01 1.549044999999999845e+02 2.322045000000000073e+03
1.110000000000000014e-01 1.796429999999999971e-01 3.100455000000000183e+01 1.544540000000000077e+02 2.321930000000000291e+03
1.120000000000000023e-01 1.796274999999999955e-01 3.046229999999999905e+01 1.539415000000000191e+02 2.321800000000000182e+03
1.130000000000000032e-01 1.796109999999999929e-01 2.990654999999999930e+01 1.533380000000000223e+02 2.321659999999999854e+03
1.140000000000000041e-01 1.795904999999999863e-01 2.932655000000000101e+01 1.526140000000000043e+02 2.321494999999999891e+03
1.150000000000000050e-01 1.795670000000000044e-01 2.871320000000000050e+01 1.517484999999999786e+02 2.321304999999999836e+03
1.160000000000000059e-01 1.795390000000000041e-01 2.805924999999999869e+01 1.507249999999999943e+02 2.321079999999999927e+03
1.170000000000000068e-01 1.795070000000000277e-01 2.736050000000000182e+01 1.495364999999999895e+02 2.320815000000000055e+03
1.180000000000000077e-01 1.794695000000000040e-01 2.661560000000000059e+01 1.481834999999999809e+02 2.320510000000000218e+03
1.190000000000000085e-01 1.794280000000000042e-01 2.582675000000000054e+01 1.466775000000000091e+02 2.320175000000000182e+03
1.200000000000000094e-01 1.793814999999999993e-01 2.499924999999999997e+01 1.450369999999999777e+02 2.319800000000000182e+03
1.209999999999999964e-01 1.793319999999999914e-01 2.414150000000000063e+01 1.432909999999999968e+02 2.319394999999999982e+03
1.219999999999999973e-01 1.792789999999999939e-01 2.326445000000000007e+01 1.414724999999999966e+02 2.318965000000000146e+03
1.229999999999999982e-01 1.792239999999999944e-01 2.238105000000000189e+01 1.396214999999999975e+02 2.318514999999999873e+03
1.239999999999999991e-01 1.791679999999999939e-01 2.150540000000000163e+01 1.377775000000000034e+02 2.318060000000000400e+03
1.250000000000000000e-01 1.791130000000000222e-01 2.065210000000000079e+01 1.359830000000000041e+02 2.317609999999999673e+03
1.260000000000000009e-01 1.790585000000000093e-01 1.983514999999999873e+01 1.342760000000000105e+02 2.317164999999999964e+03
1.270000000000000018e-01 1.790074999999999861e-01 1.906745000000000090e+01 1.326915000000000191e+02 2.316739999999999782e+03
1.280000000000000027e-01 1.789584999999999926e-01 1.835999999999999943e+01 1.312574999999999932e+02 2.316350000000000364e+03
1.290000000000000036e-01 1.789149999999999907e-01 1.772139999999999915e+01 1.299950000000000045e+02 2.315984999999999673e+03
1.300000000000000044e-01 1.788764999999999938e-01 1.715775000000000006e+01 1.289180000000000064e+02 2.315664999999999964e+03
1.310000000000000053e-01 1.788425000000000153e-01 1.667210000000000036e+01 1.280314999999999941e+02 2.315385000000000218e+03
1.320000000000000062e-01 1.788144999999999873e-01 1.626494999999999891e+01 1.273325000000000102e+02 2.315149999999999636e+03
1.330000000000000071e-01 1.787909999999999777e-01 1.593414999999999893e+01 1.268135000000000048e+02 2.314954999999999927e+03
1.340000000000000080e-01 1.787739999999999885e-01 1.567530000000000001e+01 1.264594999999999914e+02 2.314810000000000400e+03
1.350000000000000089e-01 1.787610000000000032e-01 1.548200000000000109e+01 1.262514999999999930e+02 2.314694999999999709e+03
1.360000000000000098e-01 1.787524999999999809e-01 1.534675000000000011e+01 1.261680000000000064e+02 2.314619999999999891e+03
1.370000000000000107e-01 1.787475000000000036e-01 1.526069999999999993e+01 1.261864999999999952e+02 2.314579999999999927e+03
1.380000000000000115e-01 1.787460000000000160e-01 1.521470000000000056e+01 1.262830000000000013e+02 2.314560000000000400e+03
1.390000000000000124e-01 1.787464999999999749e-01 1.519925000000000104e+01 1.264344999999999999e+02 2.314559999999999945e+03
1.400000000000000133e-01 1.787489999999999912e-01 1.520529999999999937e+01 1.266189999999999998e+02 2.314579999999999927e+03
1.410000000000000142e-01 1.787529999999999952e-01 1.522424999999999962e+01 1.268164999999999907e+02 2.314605000000000018e+03
1.420000000000000151e-01 1.787569999999999992e-01 1.524835000000000029e+01 1.270115000000000123e+02 2.314635000000000218e+03
1.430000000000000160e-01 1.787614999999999899e-01 1.527115000000000045e+01 1.271894999999999953e+02 2.314670000000000073e+03
1.440000000000000169e-01 1.787659999999999805e-01 1.528725000000000023e+01 1.273400000000000034e+02 2.314704999999999927e+03
1.450000000000000178e-01 1.787694999999999979e-01 1.529269999999999996e+01 1.274575000000000102e+02 2.314735000000000127e+03
1.459999999999999909e-01 1.787719999999999865e-01 1.528505000000000003e+01 1.275374999999999943e+02 2.314760000000000218e+03
1.469999999999999918e-01 1.787739999999999885e-01 1.526320000000000121e+01 1.275815000000000055e+02 2.314774999999999636e+03
1.479999999999999927e-01 1.787750000000000172e-01 1.522735000000000127e+01 1.275914999999999964e+02 2.314784999999999854e+03
1.489999999999999936e-01 1.787750000000000172e-01 1.517875000000000085e+01 1.275750000000000028e+02 2.314784999999999854e+03
1.499999999999999944e-01 1.787745000000000029e-01 1.511974999999999980e+01 1.275390000000000015e+02 2.314779999999999745e+03
1.509999999999999953e-01 1.787739999999999885e-01 1.505320000000000036e+01 1.274920000000000044e+02 2.314779999999999745e+03
1.519999999999999962e-01 1.787730000000000152e-01 1.498215000000000074e+01 1.274430000000000121e+02 2.314769999999999982e+03
1.529999999999999971e-01 1.787719999999999865e-01 1.490984999999999872e+01 1.274014999999999986e+02 2.314760000000000218e+03
1.539999999999999980e-01 1.787710000000000132e-01 1.483924999999999983e+01 1.273745000000000118e+02 2.314755000000000109e+03
1.549999999999999989e-01 1.787710000000000132e-01 1.477285000000000004e+01 1.273670000000000044e+02 2.314750000000000000e+03
1.559999999999999998e-01 1.787710000000000132e-01 1.471250000000000036e+01 1.273830000000000098e+02 2.314755000000000109e+03
1.570000000000000007e-01 1.787714999999999999e-01 1.465925000000000011e+01 1.274234999999999900e+02 2.314755000000000109e+03
1.580000000000000016e-01 1.787730000000000152e-01 1.461355000000000004e+01 1.274875000000000114e+02 2.314769999999999982e+03
1.590000000000000024e-01 1.787750000000000172e-01 1.457505000000000095e+01 1.275720000000000027e+02 2.314784999999999854e+03
