# t [s], A [cm^2], U [cm/s], P [cPa], c [cm/s]
1.000000000000000021e-03 5.919159999999999977e-01 3.835350000000001258e-03 9.902209999999999468e+01 1.500534999999999854e+03
2.000000000000000042e-03 5.919075000000000308e-01 -6.853799999999999736e-04 9.900614999999999100e+01 1.500529999999999973e+03
3.000000000000000062e-03 5.919300000000000672e-01 3.589389999999999942e-02 9.904070000000000107e+01 1.500539999999999964e+03
4.000000000000000083e-03 5.919794999999999918e-01 1.172276500000000166e-01 9.914015000000000555e+01 1.500574999999999818e+03
5.000000000000000104e-03 5.919969999999999954e-01 1.531143000000000087e-01 9.918715000000000259e+01 1.500589999999999918e+03
6.000000000000000125e-03 5.919685000000000086e-01 1.149370499999999989e-01 9.912215000000000487e+01 1.500575000000000045e+03
7.000000000000000146e-03 5.919280000000000097e-01 5.305199999999998806e-02 9.898539999999999850e+01 1.500545000000000073e+03
8.000000000000000167e-03 5.918924999999999326e-01 -2.243000000000050509e-03 9.881874999999999432e+01 1.500505000000000109e+03
9.000000000000001055e-03 5.918409999999999505e-01 -9.167649999999999411e-02 9.858535000000000537e+01 1.500445000000000164e+03
1.000000000000000194e-02 5.917550000000000310e-01 -2.508735000000000270e-01 9.823580000000001178e+01 1.500360000000000127e+03
1.099999999999999936e-02 5.916274999999999729e-01 -4.903249999999998998e-01 9.773834999999999695e+01 1.500240000000000009e+03
1.200000000000000025e-02 5.914494999999999614e-01 -8.223499999999999144e-01 9.705615000000000236e+01 1.500070000000000164e+03
1.300000000000000114e-02 5.912110000000000420e-01 -1.255479999999999929e+00 9.615305000000000746e+01 1.499839999999999918e+03
1.400000000000000203e-02 5.909189999999999721e-01 -1.766710000000000225e+00 9.502809999999999491e+01 1.499555000000000064e+03
1.499999999999999944e-02 5.905979999999999563e-01 -2.293359999999999843e+00 9.373480000000000700e+01 1.499215000000000146e+03
1.600000000000000033e-02 5.902844999999999898e-01 -2.754515000000000047e+00 9.236504999999999654e+01 1.498849999999999909e+03
1.700000000000000122e-02 5.900035000000000140e-01 -3.081802999999999848e+00 9.101330000000000098e+01 1.498465000000000146e+03
1.800000000000000211e-02 5.897649999999999837e-01 -3.239180500000000240e+00 8.974564999999999770e+01 1.498095000000000027e+03
1.900000000000000300e-02 5.895645000000000469e-01 -3.225973999999999897e+00 8.858695000000000164e+01 1.497740000000000009e+03
2.000000000000000042e-02 5.893829999999999902e-01 -3.068008999999999986e+00 8.752389999999999759e+01 1.497394999999999982e+03
2.100000000000000130e-02 5.892024999999999624e-01 -2.803920000000000190e+00 8.651810000000000400e+01 1.497065000000000055e+03
2.200000000000000219e-02 5.890060000000000295e-01 -2.471817500000000223e+00 8.552299999999999613e+01 1.496724999999999909e+03
2.299999999999999961e-02 5.887830000000000563e-01 -2.099469999999999725e+00 8.449885000000000446e+01 1.496380000000000109e+03
2.400000000000000050e-02 5.885329999999999728e-01 -1.699524999999999952e+00 8.342324999999999591e+01 1.496025000000000091e+03
2.500000000000000139e-02 5.882620000000000626e-01 -1.270254999999999912e+00 8.229510000000000502e+01 1.495655000000000200e+03
2.600000000000000228e-02 5.879799999999999471e-01 -8.009749999999997705e-01 8.113054999999999950e+01 1.495269999999999982e+03
2.700000000000000316e-02 5.876970000000000249e-01 -2.800400000000000666e-01 7.995484999999999332e+01 1.494884999999999991e+03
2.800000000000000058e-02 5.874200000000000532e-01 2.975050000000001305e-01 7.879149999999999920e+01 1.494494999999999891e+03
2.900000000000000147e-02 5.871494999999999909e-01 9.248350000000000737e-01 7.765314999999999657e+01 1.494115000000000009e+03
3.000000000000000236e-02 5.868805000000000271e-01 1.581909999999999927e+00 7.653679999999999950e+01 1.493735000000000127e+03
3.099999999999999978e-02 5.866050000000000431e-01 2.237690000000000179e+00 7.542310000000000514e+01 1.493360000000000127e+03
3.200000000000000067e-02 5.863095000000000390e-01 2.854940000000000033e+00 7.428030000000001110e+01 1.492974999999999909e+03
3.300000000000000155e-02 5.859834999999999905e-01 3.396614999999999718e+00 7.307134999999999536e+01 1.492575000000000045e+03
3.400000000000000244e-02 5.856190000000000007e-01 3.832314999999999472e+00 7.176239999999999952e+01 1.492154999999999973e+03
3.500000000000000333e-02 5.852129999999999832e-01 4.143600000000000172e+00 7.033144999999998959e+01 1.491710000000000036e+03
3.600000000000000422e-02 5.847694999999999421e-01 4.327020000000000088e+00 6.877449999999998909e+01 1.491230000000000018e+03
3.700000000000000511e-02 5.842985000000000539e-01 4.394214999999999982e+00 6.710845000000000482e+01 1.490730000000000018e+03
3.799999999999999906e-02 5.838145000000000140e-01 4.369134999999999991e+00 6.537000000000000455e+01 1.490204999999999927e+03
3.899999999999999994e-02 5.833349999999999369e-01 4.283685000000000187e+00 6.361110000000000753e+01 1.489674999999999955e+03
4.000000000000000083e-02 5.828774999999999373e-01 4.172444999999999737e+00 6.189195000000000135e+01 1.489159999999999854e+03
4.100000000000000172e-02 5.824570000000000025e-01 4.067910000000000359e+00 6.027445000000000164e+01 1.488664999999999964e+03
4.200000000000000261e-02 5.820870000000000211e-01 3.997605000000000075e+00 5.881589999999999918e+01 1.488210000000000036e+03
4.300000000000000350e-02 5.817759999999999598e-01 3.982480000000000242e+00 5.756475000000000364e+01 1.487799999999999955e+03
4.400000000000000439e-02 5.815310000000000201e-01 4.036997000000000391e+00 5.655854999999999677e+01 1.487465000000000146e+03
4.499999999999999833e-02 5.813549999999999551e-01 4.170296999999999699e+00 5.582379999999999853e+01 1.487204999999999927e+03
4.599999999999999922e-02 5.812505000000000033e-01 4.388020000000000032e+00 5.537744999999999607e+01 1.487025000000000091e+03
4.700000000000000011e-02 5.812169999999999837e-01 4.694139999999999979e+00 5.522865000000000180e+01 1.486925000000000182e+03
4.800000000000000100e-02 5.812559999999999949e-01 5.092470000000000496e+00 5.538165000000000049e+01 1.486914999999999964e+03
4.900000000000000189e-02 5.813665000000000083e-01 5.587530000000000108e+00 5.583745000000000402e+01 1.487000000000000000e+03
5.000000000000000278e-02 5.815500000000000114e-01 6.184639999999999915e+00 5.659550000000000125e+01 1.487170000000000073e+03
5.100000000000000366e-02 5.818075000000000330e-01 6.889369999999999550e+00 5.765384999999999849e+01 1.487429999999999836e+03
5.200000000000000455e-02 5.821374999999999744e-01 7.706495000000000317e+00 5.900900000000000034e+01 1.487784999999999854e+03
5.300000000000000544e-02 5.825390000000000290e-01 8.638804999999999623e+00 6.065500000000000114e+01 1.488220000000000027e+03
5.399999999999999939e-02 5.830104999999999871e-01 9.685975000000000890e+00 6.258220000000000027e+01 1.488750000000000000e+03
5.500000000000000028e-02 5.835470000000000379e-01 1.084386999999999901e+01 6.477629999999999200e+01 1.489355000000000018e+03
5.600000000000000117e-02 5.841425000000000090e-01 1.210428999999999888e+01 6.721795000000000186e+01 1.490039999999999964e+03
5.700000000000000205e-02 5.847915000000000196e-01 1.345495000000000019e+01 6.988224999999999909e+01 1.490799999999999955e+03
5.800000000000000294e-02 5.854844999999999633e-01 1.488048000000000037e+01 7.273975000000000080e+01 1.491619999999999891e+03
5.900000000000000383e-02 5.862135000000000540e-01 1.636304000000000158e+01 7.575730000000000075e+01 1.492490000000000009e+03
6.000000000000000472e-02 5.869685000000000041e-01 1.788363000000000014e+01 7.889955000000000496e+01 1.493409999999999854e+03
6.099999999999999867e-02 5.877414999999999168e-01 1.942299999999999827e+01 8.213044999999999618e+01 1.494365000000000009e+03
6.199999999999999956e-02 5.885240000000000471e-01 2.096274999999999977e+01 8.541489999999998872e+01 1.495349999999999909e+03
6.300000000000000044e-02 5.893079999999999430e-01 2.248620000000000019e+01 8.872065000000000623e+01 1.496340000000000146e+03
6.400000000000000133e-02 5.900874999999999870e-01 2.397869999999999635e+01 9.201890000000000214e+01 1.497345000000000027e+03
6.500000000000000222e-02 5.908584999999999532e-01 2.542819999999999681e+01 9.528444999999999254e+01 1.498349999999999909e+03
6.600000000000000311e-02 5.916169999999999485e-01 2.682499999999999929e+01 9.849899999999999523e+01 1.499339999999999918e+03
6.700000000000000400e-02 5.923599999999999977e-01 2.816189999999999927e+01 1.016463999999999999e+02 1.500324999999999818e+03
6.800000000000000488e-02 5.930860000000000021e-01 2.943374999999999986e+01 1.047179999999999893e+02 1.501289999999999964e+03
6.900000000000000577e-02 5.937945000000000029e-01 3.063705000000000211e+01 1.077066499999999962e+02 1.502240000000000009e+03
7.000000000000000666e-02 5.944844999999999713e-01 3.176984999999999815e+01 1.106105000000000018e+02 1.503164999999999964e+03
7.100000000000000755e-02 5.951569999999999361e-01 3.283095000000000141e+01 1.134279999999999973e+02 1.504065000000000055e+03
7.200000000000000844e-02 5.958120000000000083e-01 3.382009999999999650e+01 1.161620000000000061e+02 1.504944999999999936e+03
7.300000000000000933e-02 5.964500000000000357e-01 3.473720000000000141e+01 1.188139999999999930e+02 1.505805000000000064e+03
7.399999999999999634e-02 5.970710000000000184e-01 3.558235000000000525e+01 1.213859999999999957e+02 1.506639999999999873e+03
7.499999999999999722e-02 5.976764999999999439e-01 3.635549999999999926e+01 1.238814999999999884e+02 1.507449999999999818e+03
7.599999999999999811e-02 5.982650000000000468e-01 3.705655000000000143e+01 1.263000000000000114e+02 1.508244999999999891e+03
7.699999999999999900e-02 5.988360000000000349e-01 3.768474999999999397e+01 1.286424999999999841e+02 1.509009999999999991e+03
7.799999999999999989e-02 5.993899999999999784e-01 3.823949999999999960e+01 1.309074999999999989e+02 1.509755000000000109e+03
7.900000000000000078e-02 5.999244999999999717e-01 3.871979999999999933e+01 1.330910000000000082e+02 1.510474999999999909e+03
8.000000000000000167e-02 6.004389999999999450e-01 3.912449999999999761e+01 1.351889999999999930e+02 1.511175000000000182e+03
8.100000000000000255e-02 6.009320000000000217e-01 3.945264999999999844e+01 1.371974999999999909e+02 1.511840000000000146e+03
8.200000000000000344e-02 6.014009999999999634e-01 3.970335000000000036e+01 1.391100000000000136e+02 1.512485000000000127e+03
8.300000000000000433e-02 6.018464999999999510e-01 3.987615000000000265e+01 1.409205000000000041e+02 1.513095000000000027e+03
8.400000000000000522e-02 6.022659999999999680e-01 3.997105000000000530e+01 1.426239999999999952e+02 1.513674999999999955e+03
8.500000000000000611e-02 6.026574999999999571e-01 3.998855000000000359e+01 1.442144999999999868e+02 1.514219999999999800e+03
8.600000000000000699e-02 6.030214999999999881e-01 3.992969999999999686e+01 1.456885000000000048e+02 1.514730000000000018e+03
8.700000000000000788e-02 6.033569999999999212e-01 3.979630000000000223e+01 1.470414999999999850e+02 1.515200000000000045e+03
8.800000000000000877e-02 6.036635000000000195e-01 3.959044999999999703e+01 1.482719999999999914e+02 1.515630000000000109e+03
8.899999999999999578e-02 6.039399999999999213e-01 3.931490000000000151e+01 1.493779999999999859e+02 1.516029999999999973e+03
8.999999999999999667e-02 6.041879999999999473e-01 3.897284999999999400e+01 1.503609999999999900e+02 1.516384999999999991e+03
9.099999999999999756e-02 6.044065000000000687e-01 3.856779999999999831e+01 1.512214999999999918e+02 1.516704999999999927e+03
9.199999999999999845e-02 6.045964999999999812e-01 3.810365000000000180e+01 1.519604999999999961e+02 1.516980000000000018e+03
9.299999999999999933e-02 6.047595000000000054e-01 3.758464999999999634e+01 1.525824999999999818e+02 1.517220000000000027e+03
9.400000000000000022e-02 6.048949999999999605e-01 3.701534999999999798e+01 1.530914999999999964e+02 1.517429999999999836e+03
9.500000000000000111e-02 6.050050000000000150e-01 3.640070000000000050e+01 1.534915000000000020e+02 1.517595000000000027e+03
9.600000000000000200e-02 6.050904999999999756e-01 3.574580000000000268e+01 1.537895000000000039e+02 1.517730000000000018e+03
9.700000000000000289e-02 6.051539999999999697e-01 3.505630000000000024e+01 1.539915000000000020e+02 1.517835000000000036e+03
9.800000000000000377e-02 6.051965000000000261e-01 3.433794999999999931e+01 1.541064999999999827e+02 1.517904999999999973e+03
9.900000000000000466e-02 6.052204999999999391e-01 3.359669999999999845e+01 1.541410000000000196e+02 1.517950000000000045e+03
1.000000000000000056e-01 6.052269999999999595e-01 3.283865000000000123e+01 1.541055000000000064e+02 1.517970000000000027e+03
1.010000000000000064e-01 6.052195000000000213e-01 3.206990000000000407e+01 1.540085000000000264e+02 1.517965000000000146e+03
1.020000000000000073e-01 6.051999999999999602e-01 3.129625000000000057e+01 1.538590000000000089e+02 1.517944999999999936e+03
1.030000000000000082e-01 6.051699999999999857e-01 3.052340000000000231e+01 1.536675000000000182e+02 1.517909999999999854e+03
1.040000000000000091e-01 6.051320000000000032e-01 2.975635000000000119e+01 1.534424999999999955e+02 1.517855000000000018e+03
1.050000000000000100e-01 6.050879999999999592e-01 2.899949999999999761e+01 1.531920000000000073e+02 1.517795000000000073e+03
1.059999999999999970e-01 6.050394999999999524e-01 2.825649999999999906e+01 1.529234999999999900e+02 1.517715000000000146e+03
1.069999999999999979e-01 6.049875000000000114e-01 2.753000000000000114e+01 1.526435000000000173e+02 1.517639999999999873e+03
1.079999999999999988e-01 6.049324999999999841e-01 2.682169999999999987e+01 1.523559999999999945e+02 1.517559999999999945e+03
1.089999999999999997e-01 6.048759999999999692e-01 2.613250000000000028e+01 1.520654999999999859e+02 1.517470000000000027e+03
1.100000000000000006e-01 6.048180000000000778e-01 2.546209999999999951e+01 1.517735000000000127e+02 1.517380000000000109e+03
1.110000000000000014e-01 6.047580000000000178e-01 2.480944999999999823e+01 1.514814999999999827e+02 1.517285000000000082e+03
1.120000000000000023e-01 6.046964999999999701e-01 2.417275000000000063e+01 1.511870000000000118e+02 1.517190000000000055e+03
1.130000000000000032e-01 6.046320000000000583e-01 2.354950000000000188e+01 1.508894999999999982e+02 1.517099999999999909e+03
1.140000000000000041e-01 6.045639999999999903e-01 2.293674999999999997e+01 1.505854999999999961e+02 1.517000000000000000e+03
1.150000000000000050e-01 6.044924999999999882e-01 2.233129999999999882e+01 1.502725000000000080e+02 1.516900000000000091e+03
1.160000000000000059e-01 6.044154999999999944e-01 2.172959999999999781e+01 1.499460000000000264e+02 1.516795000000000073e+03
1.170000000000000068e-01 6.043330000000000091e-01 2.112839999999999918e+01 1.496014999999999873e+02 1.516679999999999836e+03
1.180000000000000077e-01 6.042434999999999334e-01 2.052424999999999855e+01 1.492375000000000114e+02 1.516569999999999936e+03
1.190000000000000085e-01 6.041469999999999896e-01 1.991420000000000101e+01 1.488489999999999895e+02 1.516445000000000164e+03
1.200000000000000094e-01 6.040425000000000377e-01 1.929560000000000031e+01 1.484334999999999809e+02 1.516320000000000164e+03
1.209999999999999964e-01 6.039304999999999257e-01 1.866645000000000110e+01 1.479895000000000209e+02 1.516179999999999836e+03
1.219999999999999973e-01 6.038105000000000278e-01 1.802505000000000024e+01 1.475160000000000196e+02 1.516030000000000200e+03
1.229999999999999982e-01 6.036825000000000108e-01 1.737059999999999960e+01 1.470124999999999886e+02 1.515880000000000109e+03
1.239999999999999991e-01 6.035475000000000145e-01 1.670270000000000010e+01 1.464805000000000064e+02 1.515715000000000146e+03
1.250000000000000000e-01 6.034064999999999568e-01 1.602185000000000059e+01 1.459220000000000255e+02 1.515545000000000073e+03
1.260000000000000009e-01 6.032595000000000596e-01 1.532910000000000039e+01 1.453400000000000034e+02 1.515369999999999891e+03
1.270000000000000018e-01 6.031079999999999774e-01 1.462625000000000064e+01 1.447384999999999877e+02 1.515184999999999945e+03
1.280000000000000027e-01 6.029539999999999900e-01 1.391555999999999926e+01 1.441225000000000023e+02 1.514994999999999891e+03
1.290000000000000036e-01 6.027979999999999450e-01 1.319987499999999869e+01 1.434979999999999905e+02 1.514805000000000064e+03
1.300000000000000044e-01 6.026424999999999699e-01 1.248250499999999974e+01 1.428704999999999927e+02 1.514610000000000127e+03
1.310000000000000053e-01 6.024890000000000523e-01 1.176702000000000048e+01 1.422470000000000141e+02 1.514414999999999964e+03
1.320000000000000062e-01 6.023389999999999578e-01 1.105734499999999976e+01 1.416345000000000027e+02 1.514224999999999909e+03
1.330000000000000071e-01 6.021939999999998960e-01 1.035729000000000077e+01 1.410399999999999920e+02 1.514039999999999964e+03
1.340000000000000080e-01 6.020559999999999246e-01 9.670880000000000365e+00 1.404689999999999941e+02 1.513860000000000127e+03
1.350000000000000089e-01 6.019265000000000310e-01 9.001854999999999052e+00 1.399284999999999854e+02 1.513684999999999945e+03
1.360000000000000098e-01 6.018060000000000631e-01 8.353690000000000282e+00 1.394234999999999900e+02 1.513519999999999982e+03
1.370000000000000107e-01 6.016964999999999675e-01 7.729540000000000077e+00 1.389594999999999914e+02 1.513369999999999891e+03
1.380000000000000115e-01 6.015985000000000360e-01 7.132114999999999760e+00 1.385389999999999873e+02 1.513235000000000127e+03
1.390000000000000124e-01 6.015120000000000466e-01 6.563530000000000086e+00 1.381655000000000086e+02 1.513105000000000018e+03
1.400000000000000133e-01 6.014380000000000281e-01 6.025380000000000180e+00 1.378405000000000200e+02 1.512994999999999891e+03
1.410000000000000142e-01 6.013760000000000217e-01 5.518634999999999735e+00 1.375634999999999764e+02 1.512900000000000091e+03
1.420000000000000151e-01 6.013254999999999573e-01 5.043684999999999974e+00 1.373349999999999795e+02 1.512809999999999945e+03
1.430000000000000160e-01 6.012855000000000283e-01 4.600309999999999455e+00 1.371519999999999868e+02 1.512744999999999891e+03
1.440000000000000169e-01 6.012564999999999715e-01 4.187775000000000247e+00 1.370124999999999886e+02 1.512684999999999945e+03
1.450000000000000178e-01 6.012364999999999515e-01 3.804875000000000007e+00 1.369120000000000061e+02 1.512639999999999873e+03
1.459999999999999909e-01 6.012239999999999807e-01 3.449990000000000112e+00 1.368464999999999918e+02 1.512610000000000127e+03
1.469999999999999918e-01 6.012189999999999479e-01 3.121210000000000040e+00 1.368110000000000070e+02 1.512590000000000146e+03
1.479999999999999927e-01 6.012195000000000178e-01 2.816405000000000047e+00 1.368004999999999995e+02 1.512569999999999936e+03
1.489999999999999936e-01 6.012239999999999807e-01 2.533294999999999852e+00 1.368100000000000023e+02 1.512565000000000055e+03
1.499999999999999944e-01 6.012319999999999887e-01 2.269565000000000055e+00 1.368330000000000268e+02 1.512565000000000055e+03
1.509999999999999953e-01 6.012409999999999144e-01 2.022924999999999862e+00 1.368654999999999973e+02 1.512559999999999945e+03
1.519999999999999962e-01 6.012509999999999799e-01 1.791174999999999962e+00 1.369019999999999868e+02 1.512565000000000055e+03
1.529999999999999971e-01 6.012615000000000043e-01 1.572219999999999951e+00 1.369389999999999930e+02 1.512569999999999936e+03
1.539999999999999980e-01 6.012699999999999712e-01 1.364170000000000105e+00 1.369714999999999918e+02 1.512579999999999927e+03
1.549999999999999989e-01 6.012764999999999915e-01 1.165309999999999846e+00 1.369979999999999905e+02 1.512579999999999927e+03
1.559999999999999998e-01 6.012809999999999544e-01 9.741334999999999855e-01 1.370144999999999982e+02 1.512579999999999927e+03
1.570000000000000007e-01 6.012830000000000119e-01 7.893449999999999633e-01 1.370190000000000055e+02 1.512585000000000036e+03
1.580000000000000016e-01 6.012809999999999544e-01 6.098660000000000192e-01 1.370099999999999909e+02 1.512579999999999927e+03
1.590000000000000024e-01 6.012764999999999915e-01 4.348159999999999803e-01 1.369875000000000114e+02 1.512570000000000164e+03
