# t [s], A [cm^2], U [cm/s], P [cPa], c [cm/s]
1.000000000000000021e-03 2.065609999999999946e-01 3.198995000000000033e-01 1.007378499999999946e+02 2.097650000000000091e+03
2.000000000000000042e-03 2.065000000000000169e-01 1.926848499999999742e+00 9.725275000000000603e+01 2.097250000000000000e+03
3.000000000000000062e-03 2.063379999999999936e-01 3.922222000000000541e+00 9.237069999999999936e+01 2.096230000000000018e+03
4.000000000000000083e-03 2.061189999999999967e-01 6.174023000000000039e+00 8.706719999999999970e+01 2.094869999999999891e+03
5.000000000000000104e-03 2.058860000000000134e-01 8.595219999999999416e+00 8.234510000000000218e+01 2.093430000000000291e+03
6.000000000000000125e-03 2.056634999999999991e-01 1.097443000000000168e+01 7.849684999999999491e+01 2.092079999999999927e+03
7.000000000000000146e-03 2.054564999999999864e-01 1.306734999999999935e+01 7.520984999999998877e+01 2.090845000000000255e+03
8.000000000000000167e-03 2.052684999999999926e-01 1.479950499999999991e+01 7.225424999999999898e+01 2.089750000000000000e+03
9.000000000000001055e-03 2.051060000000000105e-01 1.622374999999999901e+01 6.972440000000000282e+01 2.088805000000000291e+03
1.000000000000000194e-02 2.049699999999999855e-01 1.737800000000000011e+01 6.769749999999999091e+01 2.088034999999999854e+03
1.099999999999999936e-02 2.048615000000000019e-01 1.828314999999999912e+01 6.613779999999999859e+01 2.087425000000000182e+03
1.200000000000000025e-02 2.047780000000000156e-01 1.895985000000000298e+01 6.497579999999999245e+01 2.086960000000000036e+03
1.300000000000000114e-02 2.047130000000000061e-01 1.941425000000000267e+01 6.409165000000000134e+01 2.086610000000000127e+03
1.400000000000000203e-02 2.046614999999999962e-01 1.966454999999999842e+01 6.335589999999999122e+01 2.086335000000000036e+03
1.499999999999999944e-02 2.046224999999999850e-01 1.979834999999999923e+01 6.280164999999999509e+01 2.086130000000000109e+03
1.600000000000000033e-02 2.046020000000000061e-01 1.997769999999999868e+01 6.272100000000000364e+01 2.086034999999999854e+03
1.700000000000000122e-02 2.046129999999999893e-01 2.036489999999999867e+01 6.351994999999999436e+01 2.086109999999999673e+03
1.800000000000000211e-02 2.046644999999999992e-01 2.102740000000000009e+01 6.543010000000001014e+01 2.086404999999999745e+03
1.900000000000000300e-02 2.047549999999999926e-01 2.189310000000000045e+01 6.829919999999999902e+01 2.086925000000000182e+03
2.000000000000000042e-02 2.048714999999999842e-01 2.277920000000000300e+01 7.159454999999999814e+01 2.087595000000000255e+03
2.100000000000000130e-02 2.049910000000000065e-01 2.346990000000000265e+01 7.459850000000000136e+01 2.088300000000000182e+03
2.200000000000000219e-02 2.050915000000000099e-01 2.380079999999999885e+01 7.667839999999999634e+01 2.088899999999999636e+03
2.299999999999999961e-02 2.051574999999999926e-01 2.371330000000000027e+01 7.750454999999999472e+01 2.089305000000000291e+03
2.400000000000000050e-02 2.051815000000000166e-01 2.326279999999999859e+01 7.713290000000000646e+01 2.089474999999999909e+03
2.500000000000000139e-02 2.051709999999999923e-01 2.258210000000000051e+01 7.593410000000000082e+01 2.089434999999999945e+03
2.600000000000000228e-02 2.051385000000000014e-01 2.182155000000000200e+01 7.441405000000000314e+01 2.089260000000000218e+03
2.700000000000000316e-02 2.050980000000000025e-01 2.109304999999999808e+01 7.301370000000000005e+01 2.089024999999999636e+03
2.800000000000000058e-02 2.050599999999999923e-01 2.043834999999999980e+01 7.196670000000000300e+01 2.088809999999999945e+03
2.900000000000000147e-02 2.050294999999999757e-01 1.983044999999999902e+01 7.126009999999999422e+01 2.088625000000000000e+03
3.000000000000000236e-02 2.050029999999999908e-01 1.920009999999999906e+01 7.069249999999999545e+01 2.088470000000000255e+03
3.099999999999999978e-02 2.049739999999999895e-01 1.847465000000000046e+01 6.999330000000000496e+01 2.088305000000000291e+03
3.200000000000000067e-02 2.049354999999999927e-01 1.761514999999999986e+01 6.895345000000000368e+01 2.088090000000000146e+03
3.300000000000000155e-02 2.048850000000000116e-01 1.663984999999999914e+01 6.752455000000000496e+01 2.087800000000000182e+03
3.400000000000000244e-02 2.048234999999999917e-01 1.562640000000000029e+01 6.585554999999999382e+01 2.087449999999999818e+03
3.500000000000000333e-02 2.047599999999999976e-01 1.469350000000000023e+01 6.425700000000000500e+01 2.087085000000000036e+03
3.600000000000000422e-02 2.047054999999999847e-01 1.396760000000000090e+01 6.310779999999999745e+01 2.086765000000000327e+03
3.700000000000000511e-02 2.046725000000000072e-01 1.354615000000000080e+01 6.273729999999999762e+01 2.086560000000000400e+03
3.799999999999999906e-02 2.046709999999999918e-01 1.347039999999999971e+01 6.332285000000000252e+01 2.086534999999999854e+03
3.899999999999999994e-02 2.047030000000000238e-01 1.371385000000000076e+01 6.483554999999999779e+01 2.086704999999999927e+03
4.000000000000000083e-02 2.047660000000000036e-01 1.418919999999999959e+01 6.704359999999999786e+01 2.087045000000000073e+03
4.100000000000000172e-02 2.048490000000000033e-01 1.476810000000000045e+01 6.956749999999999545e+01 2.087515000000000327e+03
4.200000000000000261e-02 2.049385000000000234e-01 1.530799999999999983e+01 7.196399999999999864e+01 2.088029999999999745e+03
4.300000000000000350e-02 2.050194999999999934e-01 1.567745000000000033e+01 7.381470000000000198e+01 2.088500000000000000e+03
4.400000000000000439e-02 2.050784999999999969e-01 1.577599999999999980e+01 7.479785000000001105e+01 2.088849999999999909e+03
4.499999999999999833e-02 2.051044999999999952e-01 1.554429999999999978e+01 7.473000000000000398e+01 2.089010000000000218e+03
4.599999999999999922e-02 2.050919999999999965e-01 1.496545000000000059e+01 7.357480000000001041e+01 2.088954999999999927e+03
4.700000000000000011e-02 2.050400000000000000e-01 1.405874999999999986e+01 7.142284999999999684e+01 2.088670000000000073e+03
4.800000000000000100e-02 2.049524999999999819e-01 1.286901999999999902e+01 6.845279999999999632e+01 2.088175000000000182e+03
4.900000000000000189e-02 2.048339999999999883e-01 1.145516999999999896e+01 6.488694999999999879e+01 2.087500000000000000e+03
5.000000000000000278e-02 2.046930000000000138e-01 9.880544999999999689e+00 6.095154999999999745e+01 2.086690000000000055e+03
5.100000000000000366e-02 2.045369999999999966e-01 8.206384999999999152e+00 5.685025000000000261e+01 2.085789999999999964e+03
5.200000000000000455e-02 2.043729999999999991e-01 6.489630000000000010e+00 5.275209999999999866e+01 2.084840000000000146e+03
5.300000000000000544e-02 2.042074999999999863e-01 4.782900000000000595e+00 4.879250000000000398e+01 2.083880000000000109e+03
5.399999999999999939e-02 2.040460000000000051e-01 3.136357499999999909e+00 4.508239999999999981e+01 2.082940000000000055e+03
5.500000000000000028e-02 2.038925000000000043e-01 1.599744999999999973e+00 4.171999999999999886e+01 2.082045000000000073e+03
5.600000000000000117e-02 2.037535000000000041e-01 2.233349999999998392e-01 3.880030000000000001e+01 2.081230000000000018e+03
5.700000000000000205e-02 2.036319999999999797e-01 -9.425100000000000700e-01 3.641965000000000430e+01 2.080514999999999873e+03
5.800000000000000294e-02 2.035319999999999907e-01 -1.849352999999999803e+00 3.467459999999999809e+01 2.079920000000000073e+03
5.900000000000000383e-02 2.034590000000000010e-01 -2.453825000000000145e+00 3.365534999999999854e+01 2.079484999999999673e+03
6.000000000000000472e-02 2.034159999999999857e-01 -2.721194999999999808e+00 3.343619999999999948e+01 2.079215000000000146e+03
6.099999999999999867e-02 2.034050000000000025e-01 -2.628684999999999938e+00 3.406575000000000131e+01 2.079130000000000109e+03
6.199999999999999956e-02 2.034295000000000131e-01 -2.167819999999999858e+00 3.555894999999999584e+01 2.079255000000000109e+03
6.300000000000000044e-02 2.034884999999999888e-01 -1.345465499999999981e+00 3.789300000000000068e+01 2.079570000000000164e+03
6.400000000000000133e-02 2.035819999999999852e-01 -1.834299999999999820e-01 4.100730000000000075e+01 2.080090000000000146e+03
6.500000000000000222e-02 2.037069999999999992e-01 1.283149999999999791e+00 4.480769999999999698e+01 2.080795000000000073e+03
6.600000000000000311e-02 2.038599999999999857e-01 3.008355000000000334e+00 4.917395000000000493e+01 2.081664999999999964e+03
6.700000000000000400e-02 2.040359999999999951e-01 4.938468999999999554e+00 5.396804999999999808e+01 2.082675000000000182e+03
6.800000000000000488e-02 2.042305000000000093e-01 7.015224999999999156e+00 5.904415000000000191e+01 2.083789999999999964e+03
6.900000000000000577e-02 2.044370000000000076e-01 9.178889999999999105e+00 6.425709999999999411e+01 2.084985000000000127e+03
7.000000000000000666e-02 2.046499999999999986e-01 1.137138500000000008e+01 6.947075000000000955e+01 2.086220000000000255e+03
7.100000000000000755e-02 2.048650000000000193e-01 1.353904999999999959e+01 7.456465000000000032e+01 2.087475000000000364e+03
7.200000000000000844e-02 2.050759999999999805e-01 1.563504999999999967e+01 7.944004999999999939e+01 2.088710000000000036e+03
7.300000000000000933e-02 2.052804999999999769e-01 1.762150000000000105e+01 8.402405000000000257e+01 2.089904999999999745e+03
7.399999999999999634e-02 2.054739999999999900e-01 1.947090000000000032e+01 8.827254999999999541e+01 2.091050000000000182e+03
7.499999999999999722e-02 2.056565000000000198e-01 2.116689999999999827e+01 9.217060000000000741e+01 2.092125000000000000e+03
7.599999999999999811e-02 2.058254999999999946e-01 2.270420000000000016e+01 9.573130000000000450e+01 2.093125000000000000e+03
7.699999999999999900e-02 2.059819999999999984e-01 2.408749999999999858e+01 9.899094999999999800e+01 2.094059999999999945e+03
7.799999999999999989e-02 2.061284999999999923e-01 2.532995000000000019e+01 1.020061499999999910e+02 2.094934999999999945e+03
7.900000000000000078e-02 2.062654999999999905e-01 2.645080000000000098e+01 1.048427000000000078e+02 2.095750000000000000e+03
8.000000000000000167e-02 2.063964999999999828e-01 2.747285000000000110e+01 1.075715000000000003e+02 2.096529999999999745e+03
8.100000000000000255e-02 2.065224999999999977e-01 2.842000000000000171e+01 1.102609999999999957e+02 2.097284999999999854e+03
8.200000000000000344e-02 2.066474999999999840e-01 2.931484999999999985e+01 1.129679999999999893e+02 2.098030000000000200e+03
8.300000000000000433e-02 2.067724999999999980e-01 3.017689999999999984e+01 1.157385000000000019e+02 2.098774999999999636e+03
8.400000000000000522e-02 2.068995000000000140e-01 3.102090000000000103e+01 1.185990000000000038e+02 2.099529999999999745e+03
8.500000000000000611e-02 2.070299999999999918e-01 3.185630000000000095e+01 1.215594999999999999e+02 2.100305000000000291e+03
8.600000000000000699e-02 2.071635000000000004e-01 3.268670000000000186e+01 1.246119999999999948e+02 2.101095000000000255e+03
8.700000000000000788e-02 2.072994999999999977e-01 3.351000000000000512e+01 1.277335000000000065e+02 2.101904999999999745e+03
8.800000000000000877e-02 2.074380000000000113e-01 3.431904999999999717e+01 1.308870000000000005e+02 2.102730000000000018e+03
8.899999999999999578e-02 2.075770000000000115e-01 3.510249999999999915e+01 1.340264999999999986e+02 2.103550000000000182e+03
8.999999999999999667e-02 2.077144999999999964e-01 3.584555000000000291e+01 1.371009999999999991e+02 2.104369999999999891e+03
9.099999999999999756e-02 2.078490000000000060e-01 3.653140000000000498e+01 1.400539999999999736e+02 2.105164999999999964e+03
9.199999999999999845e-02 2.079779999999999962e-01 3.714209999999999923e+01 1.428315000000000055e+02 2.105934999999999945e+03
9.299999999999999933e-02 2.080994999999999928e-01 3.765994999999999493e+01 1.453829999999999814e+02 2.106659999999999854e+03
9.400000000000000022e-02 2.082114999999999938e-01 3.806824999999999903e+01 1.476619999999999777e+02 2.107329999999999927e+03
9.500000000000000111e-02 2.083119999999999972e-01 3.835285000000000366e+01 1.496315000000000168e+02 2.107929999999999836e+03
9.600000000000000200e-02 2.083995000000000153e-01 3.850234999999999985e+01 1.512635000000000218e+02 2.108465000000000146e+03
9.700000000000000289e-02 2.084730000000000194e-01 3.850929999999999609e+01 1.525409999999999968e+02 2.108909999999999854e+03
9.800000000000000377e-02 2.085319999999999951e-01 3.837040000000000362e+01 1.534579999999999984e+02 2.109265000000000327e+03
9.900000000000000466e-02 2.085759999999999836e-01 3.808679999999999666e+01 1.540199999999999818e+02 2.109539999999999964e+03
1.000000000000000056e-01 2.086049999999999849e-01 3.766434999999999889e+01 1.542454999999999927e+02 2.109720000000000255e+03
1.010000000000000064e-01 2.086204999999999865e-01 3.711310000000000286e+01 1.541599999999999966e+02 2.109824999999999818e+03
1.020000000000000073e-01 2.086230000000000029e-01 3.644679999999999609e+01 1.538000000000000114e+02 2.109849999999999909e+03
1.030000000000000082e-01 2.086145000000000083e-01 3.568245000000000289e+01 1.532085000000000150e+02 2.109805000000000291e+03
1.040000000000000091e-01 2.085954999999999893e-01 3.483915000000000362e+01 1.524325000000000045e+02 2.109699999999999818e+03
1.050000000000000100e-01 2.085684999999999900e-01 3.393764999999999787e+01 1.515199999999999818e+02 2.109550000000000182e+03
1.059999999999999970e-01 2.085354999999999848e-01 3.299884999999999735e+01 1.505204999999999984e+02 2.109359999999999673e+03
1.069999999999999979e-01 2.084985000000000033e-01 3.204339999999999833e+01 1.494795000000000016e+02 2.109140000000000327e+03
1.079999999999999988e-01 2.084584999999999910e-01 3.109039999999999893e+01 1.484399999999999977e+02 2.108909999999999854e+03
1.089999999999999997e-01 2.084190000000000209e-01 3.015700000000000003e+01 1.474370000000000118e+02 2.108675000000000182e+03
1.100000000000000006e-01 2.083794999999999953e-01 2.925775000000000148e+01 1.464995000000000118e+02 2.108445000000000164e+03
1.110000000000000014e-01 2.083424999999999860e-01 2.840395000000000181e+01 1.456490000000000009e+02 2.108220000000000255e+03
1.120000000000000023e-01 2.083075000000000065e-01 2.760325000000000273e+01 1.448954999999999984e+02 2.108010000000000218e+03
1.130000000000000032e-01 2.082765000000000033e-01 2.685989999999999966e+01 1.442445000000000164e+02 2.107824999999999818e+03
1.140000000000000041e-01 2.082494999999999763e-01 2.617439999999999856e+01 1.436909999999999741e+02 2.107654999999999745e+03
1.150000000000000050e-01 2.082249999999999934e-01 2.554370000000000118e+01 1.432214999999999918e+02 2.107510000000000218e+03
1.160000000000000059e-01 2.082040000000000002e-01 2.496144999999999925e+01 1.428174999999999955e+02 2.107380000000000109e+03
1.170000000000000068e-01 2.081850000000000089e-01 2.441884999999999906e+01 1.424524999999999864e+02 2.107264999999999873e+03
1.180000000000000077e-01 2.081675000000000053e-01 2.390490000000000137e+01 1.420980000000000132e+02 2.107154999999999745e+03
1.190000000000000085e-01 2.081500000000000017e-01 2.340704999999999814e+01 1.417235000000000014e+02 2.107045000000000073e+03
1.200000000000000094e-01 2.081310000000000104e-01 2.291244999999999976e+01 1.412959999999999923e+02 2.106934999999999945e+03
1.209999999999999964e-01 2.081105000000000038e-01 2.240820000000000078e+01 1.407855000000000132e+02 2.106809999999999945e+03
1.219999999999999973e-01 2.080855000000000066e-01 2.188224999999999909e+01 1.401655000000000086e+02 2.106664999999999964e+03
1.229999999999999982e-01 2.080569999999999919e-01 2.132450000000000045e+01 1.394139999999999873e+02 2.106494999999999891e+03
1.239999999999999991e-01 2.080230000000000135e-01 2.072684999999999889e+01 1.385155000000000030e+02 2.106289999999999964e+03
1.250000000000000000e-01 2.079830000000000012e-01 2.008419999999999916e+01 1.374615000000000009e+02 2.106054999999999836e+03
1.260000000000000009e-01 2.079364999999999963e-01 1.939434999999999931e+01 1.362520000000000095e+02 2.105784999999999854e+03
1.270000000000000018e-01 2.078840000000000132e-01 1.865854999999999819e+01 1.348960000000000150e+02 2.105474999999999909e+03
1.280000000000000027e-01 2.078260000000000107e-01 1.788119999999999976e+01 1.334089999999999918e+02 2.105130000000000109e+03
1.290000000000000036e-01 2.077620000000000022e-01 1.706984999999999886e+01 1.318140000000000214e+02 2.104760000000000218e+03
1.300000000000000044e-01 2.076945000000000041e-01 1.623470000000000013e+01 1.301410000000000196e+02 2.104355000000000018e+03
1.310000000000000053e-01 2.076235000000000164e-01 1.538824999999999932e+01 1.284239999999999782e+02 2.103940000000000055e+03
1.320000000000000062e-01 2.075504999999999989e-01 1.454429999999999978e+01 1.266999999999999886e+02 2.103515000000000327e+03
1.330000000000000071e-01 2.074779999999999958e-01 1.371754999999999924e+01 1.250064999999999884e+02 2.103079999999999927e+03
1.340000000000000080e-01 2.074064999999999936e-01 1.292290000000000028e+01 1.233815000000000026e+02 2.102659999999999854e+03
1.350000000000000089e-01 2.073375000000000079e-01 1.217452499999999915e+01 1.218580000000000041e+02 2.102250000000000000e+03
1.360000000000000098e-01 2.072729999999999850e-01 1.148515500000000067e+01 1.204679999999999893e+02 2.101860000000000127e+03
1.370000000000000107e-01 2.072129999999999805e-01 1.086574999999999847e+01 1.192360000000000042e+02 2.101505000000000109e+03
1.380000000000000115e-01 2.071600000000000108e-01 1.032493999999999978e+01 1.181790000000000020e+02 2.101190000000000055e+03
1.390000000000000124e-01 2.071135000000000059e-01 9.868529999999999802e+00 1.173094999999999999e+02 2.100909999999999854e+03
1.400000000000000133e-01 2.070744999999999947e-01 9.499679999999999680e+00 1.166320000000000050e+02 2.100675000000000182e+03
1.410000000000000142e-01 2.070440000000000058e-01 9.218664999999999665e+00 1.161440000000000055e+02 2.100484999999999673e+03
1.420000000000000151e-01 2.070204999999999962e-01 9.023125000000000284e+00 1.158365000000000009e+02 2.100345000000000255e+03
1.430000000000000160e-01 2.070044999999999802e-01 8.908220000000000027e+00 1.156954999999999956e+02 2.100239999999999782e+03
1.440000000000000169e-01 2.069949999999999846e-01 8.867034999999999556e+00 1.157025000000000006e+02 2.100179999999999836e+03
1.450000000000000178e-01 2.069924999999999959e-01 8.890965000000001339e+00 1.158360000000000127e+02 2.100154999999999745e+03
1.459999999999999909e-01 2.069944999999999979e-01 8.970164999999999722e+00 1.160720000000000027e+02 2.100164999999999964e+03
1.469999999999999918e-01 2.070009999999999906e-01 9.093989999999999796e+00 1.163855000000000075e+02 2.100199999999999818e+03
1.479999999999999927e-01 2.070120000000000016e-01 9.251445000000000363e+00 1.167530000000000001e+02 2.100255000000000109e+03
1.489999999999999936e-01 2.070245000000000002e-01 9.431640000000001578e+00 1.171490000000000009e+02 2.100329999999999927e+03
1.499999999999999944e-01 2.070379999999999998e-01 9.624119999999999564e+00 1.175529999999999973e+02 2.100404999999999745e+03
1.509999999999999953e-01 2.070529999999999871e-01 9.819255000000000067e+00 1.179445000000000050e+02 2.100489999999999782e+03
1.519999999999999962e-01 2.070675000000000154e-01 1.000844500000000004e+01 1.183089999999999975e+02 2.100579999999999927e+03
1.529999999999999971e-01 2.070815000000000017e-01 1.018450499999999970e+01 1.186310000000000002e+02 2.100655000000000200e+03
1.539999999999999980e-01 2.070934999999999859e-01 1.034165000000000134e+01 1.189029999999999916e+02 2.100730000000000018e+03
1.549999999999999989e-01 2.071044999999999969e-01 1.047550000000000026e+01 1.191179999999999950e+02 2.100795000000000073e+03
1.559999999999999998e-01 2.071129999999999916e-01 1.058360000000000056e+01 1.192729999999999961e+02 2.100844999999999800e+03
1.570000000000000007e-01 2.071189999999999976e-01 1.066479999999999961e+01 1.193704999999999927e+02 2.100885000000000218e+03
1.580000000000000016e-01 2.071230000000000016e-01 1.071940000000000026e+01 1.194129999999999967e+02 2.100909999999999854e+03
1.590000000000000024e-01 2.071255000000000179e-01 1.074915000000000020e+01 1.194080000000000013e+02 2.100925000000000182e+03
