# t [s], A [cm^2], U [cm/s], P [cPa], c [cm/s]
1.000000000000000021e-03 5.034110000000000529e-01 3.355150000000001187e-03 9.628255000000000052e+01 1.446894999999999982e+03
2.000000000000000042e-03 5.034035000000000037e-01 -1.240224500000000011e-03 9.626354999999999507e+01 1.446889999999999873e+03
3.000000000000000062e-03 5.034374999999999822e-01 6.571285000000000320e-02 9.632349999999999568e+01 1.446909999999999854e+03
4.000000000000000083e-03 5.034840000000000426e-01 1.580063000000000162e-01 9.642919999999999447e+01 1.446940000000000055e+03
5.000000000000000104e-03 5.034840000000000426e-01 1.680754999999999888e-01 9.643725000000000591e+01 1.446949999999999818e+03
6.000000000000000125e-03 5.034425000000000150e-01 9.608849999999999336e-02 9.631045000000000300e+01 1.446914999999999964e+03
7.000000000000000146e-03 5.033980000000000121e-01 1.211800000000001765e-02 9.611239999999999384e+01 1.446869999999999891e+03
8.000000000000000167e-03 5.033469999999999889e-01 -9.046550000000003200e-02 9.584839999999999804e+01 1.446795000000000073e+03
9.000000000000001055e-03 5.032604999999999995e-01 -2.724449999999999372e-01 9.544995000000000118e+01 1.446694999999999936e+03
1.000000000000000194e-02 5.031289999999999374e-01 -5.522650000000000059e-01 9.487160000000000082e+01 1.446539999999999964e+03
1.099999999999999936e-02 5.029500000000000082e-01 -9.297049999999998926e-01 9.408559999999999945e+01 1.446329999999999927e+03
1.200000000000000025e-02 5.027110000000000190e-01 -1.417504999999999793e+00 9.304975000000000307e+01 1.446045000000000073e+03
1.300000000000000114e-02 5.024060000000000192e-01 -2.014014999999999667e+00 9.173449999999999704e+01 1.445675000000000182e+03
1.400000000000000203e-02 5.020504999999999551e-01 -2.666675000000000129e+00 9.017079999999999984e+01 1.445230000000000018e+03
1.499999999999999944e-02 5.016835000000000599e-01 -3.274675000000000225e+00 8.846295000000000641e+01 1.444724999999999909e+03
1.600000000000000033e-02 5.013465000000000282e-01 -3.728034999999999766e+00 8.675300000000000011e+01 1.444199999999999818e+03
1.700000000000000122e-02 5.010660000000000114e-01 -3.949426000000000325e+00 8.516800000000000637e+01 1.443694999999999936e+03
1.800000000000000211e-02 5.008464999999999723e-01 -3.915003199999999683e+00 8.378100000000000591e+01 1.443220000000000027e+03
1.900000000000000300e-02 5.006724999999999648e-01 -3.651987999999999790e+00 8.259890000000000043e+01 1.442789999999999964e+03
2.000000000000000042e-02 5.005180000000000184e-01 -3.221483000000000096e+00 8.157224999999999682e+01 1.442400000000000091e+03
2.100000000000000130e-02 5.003545000000000353e-01 -2.695776500000000020e+00 8.061894999999999811e+01 1.442025000000000091e+03
2.200000000000000219e-02 5.001619999999999955e-01 -2.137029000000000067e+00 7.965309999999999491e+01 1.441644999999999982e+03
2.299999999999999961e-02 4.999289999999999567e-01 -1.582545000000000091e+00 7.861025000000000773e+01 1.441255000000000109e+03
2.400000000000000050e-02 4.996599999999999930e-01 -1.040174999999999850e+00 7.746245000000000402e+01 1.440829999999999927e+03
2.500000000000000139e-02 4.993665000000000465e-01 -4.945149999999998158e-01 7.621939999999999316e+01 1.440384999999999991e+03
2.600000000000000228e-02 4.990640000000000076e-01 7.951499999999978030e-02 7.491620000000000346e+01 1.439920000000000073e+03
2.700000000000000316e-02 4.987644999999999995e-01 7.015400000000000524e-01 7.359510000000000218e+01 1.439445000000000164e+03
2.800000000000000058e-02 4.984739999999999727e-01 1.374299999999999855e+00 7.228710000000000946e+01 1.438974999999999909e+03
2.900000000000000147e-02 4.981885000000000341e-01 2.078654999999999919e+00 7.100005000000000166e+01 1.438505000000000109e+03
3.000000000000000236e-02 4.978974999999999929e-01 2.775290000000000035e+00 6.971414999999998940e+01 1.438035000000000082e+03
3.099999999999999978e-02 4.975849999999999995e-01 3.411585000000000090e+00 6.838535000000000252e+01 1.437555000000000064e+03
3.200000000000000067e-02 4.972339999999999538e-01 3.931695000000000384e+00 6.695600000000000307e+01 1.437045000000000073e+03
3.300000000000000155e-02 4.968319999999999403e-01 4.287474999999999703e+00 6.536790000000000589e+01 1.436500000000000000e+03
3.400000000000000244e-02 4.963715000000000210e-01 4.448294999999999888e+00 6.357739999999999725e+01 1.435900000000000091e+03
3.500000000000000333e-02 4.958544999999999758e-01 4.407350000000000101e+00 6.156780000000000541e+01 1.435244999999999891e+03
3.600000000000000422e-02 4.952914999999999957e-01 4.183410000000000295e+00 5.935634999999999906e+01 1.434534999999999854e+03
3.700000000000000511e-02 4.947015000000000162e-01 3.817194999999999894e+00 5.699455000000000382e+01 1.433780000000000200e+03
3.799999999999999906e-02 4.941094999999999793e-01 3.364595000000000002e+00 5.456260000000000332e+01 1.433000000000000000e+03
3.899999999999999994e-02 4.935390000000000055e-01 2.887830000000000119e+00 5.215834999999999866e+01 1.432220000000000027e+03
4.000000000000000083e-02 4.930149999999999810e-01 2.447144999999999904e+00 4.988569999999999993e+01 1.431470000000000027e+03
4.100000000000000172e-02 4.925570000000000226e-01 2.094519999999999715e+00 4.784329999999999927e+01 1.430779999999999973e+03
4.200000000000000261e-02 4.921800000000000064e-01 1.869940000000000158e+00 4.611565000000000225e+01 1.430175000000000182e+03
4.300000000000000350e-02 4.918955000000000410e-01 1.800585000000000102e+00 4.476760000000000161e+01 1.429674999999999955e+03
4.400000000000000439e-02 4.917070000000000052e-01 1.901724999999999888e+00 4.384244999999999948e+01 1.429295000000000073e+03
4.499999999999999833e-02 4.916169999999999707e-01 2.179305499999999896e+00 4.336285000000000167e+01 1.429054999999999836e+03
4.599999999999999922e-02 4.916234999999999911e-01 2.633020000000000138e+00 4.333370000000000033e+01 1.428950000000000045e+03
4.700000000000000011e-02 4.917239999999999944e-01 3.259260000000000268e+00 4.374689999999999657e+01 1.428990000000000009e+03
4.800000000000000100e-02 4.919139999999999624e-01 4.053345000000000198e+00 4.458539999999999992e+01 1.429170000000000073e+03
4.900000000000000189e-02 4.921889999999999876e-01 5.010650000000000048e+00 4.582729999999999393e+01 1.429474999999999909e+03
5.000000000000000278e-02 4.925455000000000250e-01 6.126615000000000144e+00 4.744794999999999874e+01 1.429914999999999964e+03
5.100000000000000366e-02 4.929780000000000273e-01 7.395959999999999646e+00 4.942130000000000223e+01 1.430469999999999800e+03
5.200000000000000455e-02 4.934815000000000174e-01 8.811299999999999244e+00 5.171954999999999814e+01 1.431139999999999873e+03
5.300000000000000544e-02 4.940489999999999604e-01 1.036188000000000109e+01 5.431239999999999668e+01 1.431909999999999854e+03
5.399999999999999939e-02 4.946739999999999471e-01 1.203268999999999878e+01 5.716620000000000346e+01 1.432779999999999973e+03
5.500000000000000028e-02 4.953465000000000229e-01 1.380429999999999957e+01 6.024329999999999785e+01 1.433724999999999909e+03
5.600000000000000117e-02 4.960575000000000401e-01 1.565347000000000044e+01 6.350220000000000198e+01 1.434744999999999891e+03
5.700000000000000205e-02 4.967960000000000154e-01 1.755390999999999835e+01 6.689855000000000018e+01 1.435819999999999936e+03
5.800000000000000294e-02 4.975519999999999943e-01 1.947810000000000130e+01 7.038649999999999807e+01 1.436929999999999836e+03
5.900000000000000383e-02 4.983149999999999524e-01 2.139864999999999995e+01 7.392085000000000150e+01 1.438079999999999927e+03
6.000000000000000472e-02 4.990759999999999641e-01 2.328999999999999915e+01 7.745900000000000318e+01 1.439235000000000127e+03
6.099999999999999867e-02 4.998274999999999801e-01 2.512965000000000160e+01 8.096309999999999718e+01 1.440400000000000091e+03
6.199999999999999956e-02 5.005634999999999390e-01 2.689900000000000091e+01 8.440139999999999532e+01 1.441555000000000064e+03
6.300000000000000044e-02 5.012794999999999890e-01 2.858389999999999986e+01 8.774950000000001182e+01 1.442684999999999945e+03
6.400000000000000133e-02 5.019730000000000025e-01 3.017464999999999975e+01 9.099164999999999281e+01 1.443799999999999955e+03
6.500000000000000222e-02 5.026435000000000208e-01 3.166590000000000060e+01 9.411759999999999593e+01 1.444884999999999991e+03
6.600000000000000311e-02 5.032910000000000439e-01 3.305584999999999951e+01 9.712694999999999368e+01 1.445934999999999945e+03
6.700000000000000400e-02 5.039170000000000593e-01 3.434605000000000530e+01 1.000236500000000035e+02 1.446954999999999927e+03
6.800000000000000488e-02 5.045250000000000012e-01 3.554044999999999987e+01 1.028169000000000040e+02 1.447945000000000164e+03
6.900000000000000577e-02 5.051164999999999683e-01 3.664489999999999981e+01 1.055196500000000128e+02 1.448904999999999973e+03
7.000000000000000666e-02 5.056955000000000755e-01 3.766639999999999588e+01 1.081465000000000032e+02 1.449849999999999909e+03
7.100000000000000755e-02 5.062659999999999938e-01 3.861249999999999716e+01 1.107145000000000010e+02 1.450769999999999982e+03
7.200000000000000844e-02 5.068295000000000439e-01 3.949099999999999966e+01 1.132385000000000019e+02 1.451670000000000073e+03
7.300000000000000933e-02 5.073900000000000077e-01 4.030919999999999703e+01 1.157325000000000017e+02 1.452565000000000055e+03
7.399999999999999634e-02 5.079485000000000250e-01 4.107345000000000113e+01 1.182079999999999984e+02 1.453450000000000045e+03
7.499999999999999722e-02 5.085070000000000423e-01 4.178875000000000028e+01 1.206740000000000066e+02 1.454329999999999927e+03
7.599999999999999811e-02 5.090654999999999486e-01 4.245844999999999914e+01 1.231340000000000003e+02 1.455204999999999927e+03
7.699999999999999900e-02 5.096229999999999372e-01 4.308400000000000318e+01 1.255875000000000057e+02 1.456079999999999927e+03
7.799999999999999989e-02 5.101790000000000491e-01 4.366474999999999795e+01 1.280300000000000011e+02 1.456945000000000164e+03
7.900000000000000078e-02 5.107300000000000173e-01 4.419839999999999947e+01 1.304515000000000100e+02 1.457809999999999945e+03
8.000000000000000167e-02 5.112725000000000186e-01 4.468070000000000164e+01 1.328394999999999868e+02 1.458664999999999964e+03
8.100000000000000255e-02 5.118024999999999380e-01 4.510599999999999454e+01 1.351765000000000043e+02 1.459500000000000000e+03
8.200000000000000344e-02 5.123164999999999525e-01 4.546804999999999808e+01 1.374449999999999932e+02 1.460315000000000055e+03
8.300000000000000433e-02 5.128090000000000703e-01 4.575979999999999848e+01 1.396240000000000236e+02 1.461105000000000018e+03
8.400000000000000522e-02 5.132765000000000244e-01 4.597440000000000282e+01 1.416929999999999836e+02 1.461855000000000018e+03
8.500000000000000611e-02 5.137144999999999628e-01 4.610564999999999714e+01 1.436334999999999980e+02 1.462569999999999936e+03
8.600000000000000699e-02 5.141189999999999927e-01 4.614804999999999779e+01 1.454269999999999925e+02 1.463235000000000127e+03
8.700000000000000788e-02 5.144874999999999865e-01 4.609759999999999991e+01 1.470589999999999975e+02 1.463855000000000018e+03
8.800000000000000877e-02 5.148174999999999280e-01 4.595175000000000409e+01 1.485169999999999959e+02 1.464414999999999964e+03
8.899999999999999578e-02 5.151075000000000514e-01 4.570964999999999634e+01 1.497934999999999945e+02 1.464920000000000073e+03
8.999999999999999667e-02 5.153564999999999952e-01 4.537229999999999563e+01 1.508855000000000075e+02 1.465355000000000018e+03
9.099999999999999756e-02 5.155659999999999688e-01 4.494249999999999545e+01 1.517914999999999850e+02 1.465730000000000018e+03
9.199999999999999845e-02 5.157359999999999722e-01 4.442475000000000307e+01 1.525165000000000077e+02 1.466045000000000073e+03
9.299999999999999933e-02 5.158685000000000631e-01 4.382529999999999859e+01 1.530670000000000073e+02 1.466305000000000064e+03
9.400000000000000022e-02 5.159664999999999946e-01 4.315180000000000149e+01 1.534540000000000077e+02 1.466505000000000109e+03
9.500000000000000111e-02 5.160325000000000051e-01 4.241299999999999670e+01 1.536920000000000073e+02 1.466644999999999982e+03
9.600000000000000200e-02 5.160704999999999876e-01 4.161894999999999811e+01 1.537964999999999804e+02 1.466740000000000009e+03
9.700000000000000289e-02 5.160834999999999173e-01 4.078010000000000446e+01 1.537839999999999918e+02 1.466795000000000073e+03
9.800000000000000377e-02 5.160759999999999792e-01 3.990749999999999886e+01 1.536744999999999948e+02 1.466804999999999836e+03
9.900000000000000466e-02 5.160519999999999552e-01 3.901214999999999833e+01 1.534859999999999900e+02 1.466785000000000082e+03
1.000000000000000056e-01 5.160160000000000302e-01 3.810490000000000066e+01 1.532379999999999995e+02 1.466740000000000009e+03
1.010000000000000064e-01 5.159704999999999986e-01 3.719590000000000174e+01 1.529474999999999909e+02 1.466674999999999955e+03
1.020000000000000073e-01 5.159194999999999753e-01 3.629464999999999719e+01 1.526320000000000050e+02 1.466590000000000146e+03
1.030000000000000082e-01 5.158659999999999357e-01 3.540925000000000011e+01 1.523050000000000068e+02 1.466500000000000000e+03
1.040000000000000091e-01 5.158130000000000770e-01 3.454655000000000342e+01 1.519800000000000182e+02 1.466404999999999973e+03
1.050000000000000100e-01 5.157614999999999839e-01 3.371179999999999666e+01 1.516664999999999850e+02 1.466304999999999836e+03
1.059999999999999970e-01 5.157129999999999770e-01 3.290859999999999985e+01 1.513714999999999975e+02 1.466210000000000036e+03
1.069999999999999979e-01 5.156680000000000152e-01 3.213885000000000502e+01 1.510980000000000132e+02 1.466115000000000009e+03
1.079999999999999988e-01 5.156275000000000164e-01 3.140264999999999773e+01 1.508480000000000132e+02 1.466030000000000200e+03
1.089999999999999997e-01 5.155899999999999928e-01 3.069865000000000066e+01 1.506195000000000164e+02 1.465950000000000045e+03
1.100000000000000006e-01 5.155545000000000266e-01 3.002410000000000068e+01 1.504089999999999918e+02 1.465869999999999891e+03
1.110000000000000014e-01 5.155190000000000605e-01 2.937505000000000166e+01 1.502090000000000032e+02 1.465789999999999964e+03
1.120000000000000023e-01 5.154830000000000245e-01 2.874660000000000082e+01 1.500135000000000218e+02 1.465720000000000027e+03
1.130000000000000032e-01 5.154434999999999434e-01 2.813325000000000031e+01 1.498120000000000118e+02 1.465644999999999982e+03
1.140000000000000041e-01 5.153995000000000104e-01 2.752900000000000347e+01 1.495960000000000036e+02 1.465565000000000055e+03
1.150000000000000050e-01 5.153480000000000283e-01 2.692804999999999893e+01 1.493545000000000016e+02 1.465480000000000018e+03
1.160000000000000059e-01 5.152875000000000094e-01 2.632444999999999879e+01 1.490790000000000077e+02 1.465385000000000218e+03
1.170000000000000068e-01 5.152160000000000073e-01 2.571294999999999931e+01 1.487609999999999957e+02 1.465279999999999973e+03
1.180000000000000077e-01 5.151330000000000631e-01 2.508885000000000076e+01 1.483930000000000007e+02 1.465150000000000091e+03
1.190000000000000085e-01 5.150359999999999383e-01 2.444835000000000136e+01 1.479685000000000059e+02 1.465009999999999991e+03
1.200000000000000094e-01 5.149259999999999948e-01 2.378849999999999909e+01 1.474840000000000089e+02 1.464855000000000018e+03
1.209999999999999964e-01 5.148015000000000230e-01 2.310754999999999981e+01 1.469375000000000000e+02 1.464674999999999955e+03
1.219999999999999973e-01 5.146629999999999816e-01 2.240489999999999782e+01 1.463290000000000077e+02 1.464474999999999909e+03
1.229999999999999982e-01 5.145119999999999694e-01 2.168114999999999881e+01 1.456599999999999966e+02 1.464255000000000109e+03
1.239999999999999991e-01 5.143484999999999863e-01 2.093799999999999883e+01 1.449340000000000259e+02 1.464025000000000091e+03
1.250000000000000000e-01 5.141740000000000199e-01 2.017830000000000013e+01 1.441574999999999989e+02 1.463769999999999982e+03
1.260000000000000009e-01 5.139905000000000168e-01 1.940590000000000259e+01 1.433380000000000223e+02 1.463500000000000000e+03
1.270000000000000018e-01 5.138004999999999933e-01 1.862555000000000049e+01 1.424830000000000041e+02 1.463220000000000027e+03
1.280000000000000027e-01 5.136060000000000070e-01 1.784270000000000067e+01 1.416045000000000016e+02 1.462924999999999955e+03
1.290000000000000036e-01 5.134099999999999220e-01 1.706350000000000122e+01 1.407125000000000057e+02 1.462630000000000109e+03
1.300000000000000044e-01 5.132134999999999891e-01 1.629420000000000002e+01 1.398180000000000121e+02 1.462325000000000045e+03
1.310000000000000053e-01 5.130204999999999904e-01 1.554139999999999944e+01 1.389329999999999927e+02 1.462025000000000091e+03
1.320000000000000062e-01 5.128329999999999833e-01 1.481159500000000051e+01 1.380685000000000002e+02 1.461730000000000018e+03
1.330000000000000071e-01 5.126530000000000253e-01 1.411103500000000111e+01 1.372355000000000018e+02 1.461440000000000055e+03
1.340000000000000080e-01 5.124824999999999520e-01 1.344548499999999969e+01 1.364435000000000002e+02 1.461159999999999854e+03
1.350000000000000089e-01 5.123235000000000428e-01 1.281992999999999938e+01 1.357005000000000052e+02 1.460894999999999982e+03
1.360000000000000098e-01 5.121775000000000633e-01 1.223878000000000021e+01 1.350144999999999982e+02 1.460650000000000091e+03
1.370000000000000107e-01 5.120455000000000423e-01 1.170533000000000001e+01 1.343915000000000077e+02 1.460425000000000182e+03
1.380000000000000115e-01 5.119274999999999798e-01 1.122189999999999976e+01 1.338335000000000150e+02 1.460215000000000146e+03
1.390000000000000124e-01 5.118249999999999744e-01 1.078972999999999871e+01 1.333430000000000177e+02 1.460025000000000091e+03
1.400000000000000133e-01 5.117365000000000386e-01 1.040890999999999877e+01 1.329209999999999923e+02 1.459860000000000127e+03
1.410000000000000142e-01 5.116624999999999091e-01 1.007855499999999971e+01 1.325639999999999930e+02 1.459714999999999918e+03
1.420000000000000151e-01 5.116015000000000423e-01 9.796734999999999971e+00 1.322694999999999936e+02 1.459590000000000146e+03
1.430000000000000160e-01 5.115524999999999656e-01 9.560679999999999623e+00 1.320324999999999989e+02 1.459485000000000127e+03
1.440000000000000169e-01 5.115129999999999955e-01 9.366680000000000561e+00 1.318464999999999918e+02 1.459400000000000091e+03
1.450000000000000178e-01 5.114830000000000210e-01 9.210599999999999454e+00 1.317044999999999959e+02 1.459329999999999927e+03
1.459999999999999909e-01 5.114600000000000257e-01 9.087844999999999729e+00 1.315985000000000014e+02 1.459269999999999982e+03
1.469999999999999918e-01 5.114425000000000221e-01 8.993420000000000414e+00 1.315204999999999984e+02 1.459224999999999909e+03
1.479999999999999927e-01 5.114279999999999937e-01 8.922344999999999970e+00 1.314635000000000105e+02 1.459184999999999945e+03
1.489999999999999936e-01 5.114155000000000229e-01 8.869650000000000034e+00 1.314180000000000064e+02 1.459154999999999973e+03
1.499999999999999944e-01 5.114039999999999697e-01 8.830534999999999357e+00 1.313779999999999859e+02 1.459130000000000109e+03
1.509999999999999953e-01 5.113914999999999988e-01 8.800580000000000069e+00 1.313360000000000127e+02 1.459099999999999909e+03
1.519999999999999962e-01 5.113765000000000116e-01 8.775734999999999175e+00 1.312869999999999777e+02 1.459075000000000045e+03
1.529999999999999971e-01 5.113585000000000491e-01 8.752590000000001424e+00 1.312259999999999991e+02 1.459045000000000073e+03
1.539999999999999980e-01 5.113375000000000004e-01 8.728080000000000283e+00 1.311499999999999773e+02 1.459014999999999873e+03
1.549999999999999989e-01 5.113119999999999887e-01 8.699925000000000352e+00 1.310559999999999832e+02 1.458980000000000018e+03
1.559999999999999998e-01 5.112829999999999320e-01 8.666335000000000122e+00 1.309429999999999836e+02 1.458940000000000055e+03
1.570000000000000007e-01 5.112494999999999123e-01 8.626139999999999475e+00 1.308110000000000070e+02 1.458894999999999982e+03
1.580000000000000016e-01 5.112125000000000696e-01 8.578659999999999286e+00 1.306605000000000132e+02 1.458845000000000027e+03
1.590000000000000024e-01 5.111715000000000009e-01 8.523735000000000284e+00 1.304925000000000068e+02 1.458784999999999854e+03
