# t [s], A [cm^2], U [cm/s], P [cPa], c [cm/s]
1.000000000000000021e-03 6.319204999999999961e-01 4.617349999999999233e-03 9.630494999999999095e+01 1.637494999999999891e+03
2.000000000000000042e-03 6.319110000000000005e-01 -9.414149999999999168e-04 9.627909999999999968e+01 1.637490000000000009e+03
3.000000000000000062e-03 6.319639999999999702e-01 9.353179999999999827e-02 9.638115000000000521e+01 1.637514999999999873e+03
4.000000000000000083e-03 6.320105000000000306e-01 1.866945999999999883e-01 9.649975000000000591e+01 1.637550000000000182e+03
5.000000000000000104e-03 6.319869999999999655e-01 1.628923500000000191e-01 9.644735000000000014e+01 1.637534999999999854e+03
6.000000000000000125e-03 6.319259999999999877e-01 6.926200000000001800e-02 9.623869999999999436e+01 1.637489999999999782e+03
7.000000000000000146e-03 6.318715000000000304e-01 -2.117900000000000338e-02 9.596815000000000850e+01 1.637424999999999955e+03
8.000000000000000167e-03 6.317874999999999464e-01 -1.760030000000000205e-01 9.556929999999999836e+01 1.637329999999999927e+03
9.000000000000001055e-03 6.316454999999999709e-01 -4.501850000000000573e-01 9.495210000000000150e+01 1.637175000000000182e+03
1.000000000000000194e-02 6.314400000000000013e-01 -8.512449999999999184e-01 9.406925000000001091e+01 1.636960000000000036e+03
1.099999999999999936e-02 6.311530000000000751e-01 -1.400630000000000042e+00 9.285495000000000232e+01 1.636660000000000082e+03
1.200000000000000025e-02 6.307765000000000732e-01 -2.099595000000000322e+00 9.126210000000000377e+01 1.636259999999999991e+03
1.300000000000000114e-02 6.303400000000000114e-01 -2.869549999999999823e+00 8.935124999999999318e+01 1.635769999999999982e+03
1.400000000000000203e-02 6.299075000000000646e-01 -3.565415000000000223e+00 8.730039999999999623e+01 1.635230000000000018e+03
1.499999999999999944e-02 6.295370000000000132e-01 -4.046940499999999830e+00 8.532429999999999382e+01 1.634679999999999836e+03
1.600000000000000033e-02 6.292530000000000623e-01 -4.239016499999999965e+00 8.358034999999999570e+01 1.634170000000000073e+03
1.700000000000000122e-02 6.290439999999999365e-01 -4.147519499999999582e+00 8.211984999999999957e+01 1.633710000000000036e+03
1.800000000000000211e-02 6.288734999999999742e-01 -3.838940000000000019e+00 8.089305000000000234e+01 1.633304999999999836e+03
1.900000000000000300e-02 6.286994999999999667e-01 -3.404373999999999789e+00 7.978770000000000095e+01 1.632920000000000073e+03
2.000000000000000042e-02 6.284895000000000342e-01 -2.924361499999999836e+00 7.868019999999999925e+01 1.632539999999999964e+03
2.100000000000000130e-02 6.282304999999999140e-01 -2.444907999999999859e+00 7.748005000000000564e+01 1.632139999999999873e+03
2.200000000000000219e-02 6.279274999999999718e-01 -1.970769999999999911e+00 7.615479999999999450e+01 1.631710000000000036e+03
2.299999999999999961e-02 6.276009999999999645e-01 -1.476465000000000138e+00 7.472854999999999848e+01 1.631259999999999991e+03
2.400000000000000050e-02 6.272729999999999695e-01 -9.283250000000000668e-01 7.325769999999999982e+01 1.630799999999999955e+03
2.500000000000000139e-02 6.269569999999999865e-01 -3.071600000000000996e-01 7.179765000000000441e+01 1.630329999999999927e+03
2.600000000000000228e-02 6.266540000000000443e-01 3.771749999999998160e-01 7.037444999999999595e+01 1.629869999999999891e+03
2.700000000000000316e-02 6.263520000000000199e-01 1.082770000000000010e+00 6.897034999999999627e+01 1.629409999999999854e+03
2.800000000000000058e-02 6.260250000000000536e-01 1.743210000000000148e+00 6.752450000000000330e+01 1.628945000000000164e+03
2.900000000000000147e-02 6.256490000000000107e-01 2.282230000000000203e+00 6.594799999999999329e+01 1.628444999999999936e+03
3.000000000000000236e-02 6.252005000000000479e-01 2.631299999999999528e+00 6.414764999999999873e+01 1.627900000000000091e+03
3.099999999999999978e-02 6.246669999999999723e-01 2.745920000000000361e+00 6.205250000000000199e+01 1.627279999999999973e+03
3.200000000000000067e-02 6.240529999999999688e-01 2.616135000000000321e+00 5.963604999999999734e+01 1.626585000000000036e+03
3.300000000000000155e-02 6.233750000000000124e-01 2.268625000000000114e+00 5.692759999999999820e+01 1.625815000000000055e+03
3.400000000000000244e-02 6.226629999999999665e-01 1.759875000000000078e+00 5.401054999999999495e+01 1.624990000000000009e+03
3.500000000000000333e-02 6.219520000000000604e-01 1.163439999999999586e+00 5.100775000000000148e+01 1.624134999999999991e+03
3.600000000000000422e-02 6.212770000000000792e-01 5.560299999999998022e-01 4.806149999999999523e+01 1.623284999999999854e+03
3.700000000000000511e-02 6.206674999999999276e-01 5.555000000000198668e-03 4.531194999999999595e+01 1.622480000000000018e+03
3.799999999999999906e-02 6.201449999999999463e-01 -4.359449999999998049e-01 4.288049999999999784e+01 1.621744999999999891e+03
3.899999999999999994e-02 6.197239999999999416e-01 -7.345600000000001017e-01 4.085929999999999751e+01 1.621110000000000127e+03
4.000000000000000083e-02 6.194100000000000161e-01 -8.728250000000001840e-01 3.930754999999999910e+01 1.620595000000000027e+03
4.100000000000000172e-02 6.192035000000000178e-01 -8.454150000000000276e-01 3.825365000000000038e+01 1.620214999999999918e+03
4.200000000000000261e-02 6.191020000000000412e-01 -6.539819999999999522e-01 3.770139999999999958e+01 1.619974999999999909e+03
4.300000000000000350e-02 6.191014999999999713e-01 -3.024224999999999830e-01 3.763799999999999812e+01 1.619869999999999891e+03
4.400000000000000439e-02 6.191969999999999974e-01 2.062549999999999661e-01 3.804164999999999708e+01 1.619904999999999973e+03
4.499999999999999833e-02 6.193840000000000456e-01 8.710099999999999509e-01 3.888710000000000377e+01 1.620065000000000055e+03
4.599999999999999922e-02 6.196604999999999475e-01 1.691899999999999959e+00 4.014849999999999852e+01 1.620355000000000018e+03
4.700000000000000011e-02 6.200200000000000156e-01 2.667839999999999989e+00 4.179925000000000068e+01 1.620759999999999991e+03
4.800000000000000100e-02 6.204579999999999540e-01 3.794054999999999733e+00 4.381015000000000015e+01 1.621275000000000091e+03
4.900000000000000189e-02 6.209664999999999768e-01 5.060035000000000061e+00 4.614699999999999847e+01 1.621884999999999991e+03
5.000000000000000278e-02 6.215355000000000185e-01 6.448502500000000026e+00 4.876874999999999716e+01 1.622590000000000146e+03
5.100000000000000366e-02 6.221535000000000259e-01 7.935806499999999986e+00 5.162709999999999866e+01 1.623369999999999891e+03
5.200000000000000455e-02 6.228074999999999584e-01 9.493410000000000792e+00 5.466745000000000232e+01 1.624214999999999918e+03
5.300000000000000544e-02 6.234834999999999683e-01 1.108998500000000043e+01 5.783150000000000546e+01 1.625105000000000018e+03
5.399999999999999939e-02 6.241680000000000561e-01 1.269423499999999905e+01 6.106054999999999922e+01 1.626019999999999982e+03
5.500000000000000028e-02 6.248504999999999754e-01 1.427693000000000012e+01 6.429949999999999477e+01 1.626954999999999927e+03
5.600000000000000117e-02 6.255205000000000348e-01 1.581332000000000093e+01 6.750020000000000664e+01 1.627894999999999982e+03
5.700000000000000205e-02 6.261719999999999509e-01 1.728389999999999915e+01 7.062415000000000020e+01 1.628820000000000164e+03
5.800000000000000294e-02 6.268000000000000238e-01 1.867544999999999789e+01 7.364430000000000121e+01 1.629724999999999909e+03
5.900000000000000383e-02 6.274039999999999617e-01 1.998035000000000139e+01 7.654540000000000077e+01 1.630605000000000018e+03
6.000000000000000472e-02 6.279835000000000278e-01 2.119655000000000200e+01 7.932349999999999568e+01 1.631454999999999927e+03
6.099999999999999867e-02 6.285414999999999752e-01 2.232614999999999839e+01 8.198409999999999798e+01 1.632279999999999973e+03
6.199999999999999956e-02 6.290824999999999889e-01 2.337444999999999951e+01 8.454070000000000107e+01 1.633075000000000045e+03
6.300000000000000044e-02 6.296089999999999742e-01 2.434904999999999831e+01 8.701214999999999122e+01 1.633849999999999909e+03
6.400000000000000133e-02 6.301274999999999515e-01 2.525849999999999795e+01 8.942005000000000337e+01 1.634605000000000018e+03
6.500000000000000222e-02 6.306419999999999249e-01 2.611159999999999926e+01 9.178659999999999286e+01 1.635349999999999909e+03
6.600000000000000311e-02 6.311554999999999804e-01 2.691644999999999754e+01 9.413214999999999577e+01 1.636079999999999927e+03
6.700000000000000400e-02 6.316714999999999414e-01 2.767970000000000041e+01 9.647390000000000043e+01 1.636809999999999945e+03
6.800000000000000488e-02 6.321919999999999762e-01 2.840614999999999668e+01 9.882339999999999236e+01 1.637545000000000073e+03
6.900000000000000577e-02 6.327165000000000150e-01 2.909825000000000017e+01 1.011871000000000009e+02 1.638280000000000200e+03
7.000000000000000666e-02 6.332450000000000578e-01 2.975605000000000189e+01 1.035627000000000066e+02 1.639014999999999873e+03
7.100000000000000755e-02 6.337745000000000184e-01 3.037709999999999866e+01 1.059440000000000026e+02 1.639755000000000109e+03
7.200000000000000844e-02 6.343015000000000736e-01 3.095694999999999908e+01 1.083174999999999955e+02 1.640490000000000009e+03
7.300000000000000933e-02 6.348205000000000098e-01 3.148955000000000126e+01 1.106645000000000039e+02 1.641220000000000027e+03
7.399999999999999634e-02 6.353280000000000038e-01 3.196755000000000280e+01 1.129629999999999939e+02 1.641940000000000055e+03
7.499999999999999722e-02 6.358179999999999943e-01 3.238344999999999629e+01 1.151889999999999930e+02 1.642639999999999873e+03
7.599999999999999811e-02 6.362849999999999895e-01 3.272960000000000491e+01 1.173180000000000121e+02 1.643309999999999945e+03
7.699999999999999900e-02 6.367244999999999155e-01 3.299904999999999688e+01 1.193264999999999958e+02 1.643954999999999927e+03
7.799999999999999989e-02 6.371329999999999494e-01 3.318604999999999450e+01 1.211935000000000002e+02 1.644554999999999836e+03
7.900000000000000078e-02 6.375055000000000582e-01 3.328605000000000302e+01 1.229000000000000057e+02 1.645110000000000127e+03
8.000000000000000167e-02 6.378405000000000324e-01 3.329635000000000389e+01 1.244335000000000093e+02 1.645619999999999891e+03
8.100000000000000255e-02 6.381354999999999666e-01 3.321580000000000155e+01 1.257835000000000036e+02 1.646074999999999818e+03
8.200000000000000344e-02 6.383905000000000829e-01 3.304529999999999745e+01 1.269454999999999956e+02 1.646474999999999909e+03
8.300000000000000433e-02 6.386054999999999371e-01 3.278750000000000142e+01 1.279184999999999945e+02 1.646820000000000164e+03
8.400000000000000522e-02 6.387819999999999609e-01 3.244684999999999775e+01 1.287074999999999818e+02 1.647115000000000009e+03
8.500000000000000611e-02 6.389209999999999612e-01 3.202955000000000041e+01 1.293199999999999932e+02 1.647349999999999909e+03
8.600000000000000699e-02 6.390270000000000117e-01 3.154339999999999833e+01 1.297690000000000055e+02 1.647539999999999964e+03
8.700000000000000788e-02 6.391014999999999890e-01 3.099734999999999729e+01 1.300695000000000050e+02 1.647674999999999955e+03
8.800000000000000877e-02 6.391489999999999672e-01 3.040150000000000219e+01 1.302390000000000043e+02 1.647775000000000091e+03
8.899999999999999578e-02 6.391744999999999788e-01 2.976679999999999993e+01 1.302980000000000018e+02 1.647829999999999927e+03
8.999999999999999667e-02 6.391820000000000279e-01 2.910439999999999827e+01 1.302660000000000196e+02 1.647860000000000127e+03
9.099999999999999756e-02 6.391750000000000487e-01 2.842539999999999978e+01 1.301645000000000039e+02 1.647860000000000127e+03
9.199999999999999845e-02 6.391584999999999628e-01 2.774045000000000272e+01 1.300140000000000100e+02 1.647845000000000027e+03
9.299999999999999933e-02 6.391364999999999963e-01 2.705915000000000248e+01 1.298329999999999984e+02 1.647809999999999945e+03
9.400000000000000022e-02 6.391120000000000134e-01 2.639000000000000057e+01 1.296390000000000100e+02 1.647769999999999982e+03
9.500000000000000111e-02 6.390869999999999607e-01 2.573980000000000246e+01 1.294439999999999884e+02 1.647720000000000027e+03
9.600000000000000200e-02 6.390644999999999243e-01 2.511325000000000074e+01 1.292599999999999909e+02 1.647674999999999955e+03
9.700000000000000289e-02 6.390445000000000153e-01 2.451344999999999885e+01 1.290919999999999845e+02 1.647625000000000000e+03
9.800000000000000377e-02 6.390275000000000816e-01 2.394129999999999825e+01 1.289445000000000050e+02 1.647585000000000036e+03
9.900000000000000466e-02 6.390130000000000532e-01 2.339585000000000292e+01 1.288160000000000025e+02 1.647539999999999964e+03
1.000000000000000056e-01 6.389994999999999425e-01 2.287450000000000117e+01 1.287030000000000030e+02 1.647505000000000109e+03
1.010000000000000064e-01 6.389869999999999717e-01 2.237330000000000041e+01 1.285980000000000132e+02 1.647470000000000027e+03
1.020000000000000073e-01 6.389709999999999557e-01 2.188714999999999833e+01 1.284920000000000186e+02 1.647434999999999945e+03
1.030000000000000082e-01 6.389504999999999768e-01 2.141029999999999944e+01 1.283760000000000048e+02 1.647400000000000091e+03
1.040000000000000091e-01 6.389234999999999776e-01 2.093659999999999854e+01 1.282375000000000114e+02 1.647355000000000018e+03
1.050000000000000100e-01 6.388875000000000526e-01 2.045990000000000109e+01 1.280660000000000025e+02 1.647304999999999836e+03
1.059999999999999970e-01 6.388400000000000745e-01 1.997455000000000069e+01 1.278504999999999967e+02 1.647240000000000009e+03
1.069999999999999979e-01 6.387800000000000145e-01 1.947540000000000049e+01 1.275825000000000102e+02 1.647159999999999854e+03
1.079999999999999988e-01 6.387049999999999672e-01 1.895834999999999937e+01 1.272554999999999978e+02 1.647070000000000164e+03
1.089999999999999997e-01 6.386155000000000026e-01 1.842029999999999745e+01 1.268624999999999972e+02 1.646954999999999927e+03
1.100000000000000006e-01 6.385115000000000096e-01 1.785979999999999990e+01 1.264039999999999964e+02 1.646824999999999818e+03
1.110000000000000014e-01 6.383924999999999184e-01 1.727650000000000219e+01 1.258785000000000025e+02 1.646675000000000182e+03
1.120000000000000023e-01 6.382600000000000495e-01 1.667180000000000106e+01 1.252905000000000086e+02 1.646505000000000109e+03
1.130000000000000032e-01 6.381164999999999754e-01 1.604850000000000065e+01 1.246469999999999914e+02 1.646325000000000045e+03
1.140000000000000041e-01 6.379630000000000578e-01 1.541080000000000005e+01 1.239555000000000007e+02 1.646125000000000000e+03
1.150000000000000050e-01 6.378034999999999677e-01 1.476405000000000101e+01 1.232290000000000134e+02 1.645914999999999964e+03
1.160000000000000059e-01 6.376394999999999147e-01 1.411465000000000103e+01 1.224799999999999898e+02 1.645694999999999936e+03
1.170000000000000068e-01 6.374754999999999727e-01 1.346976499999999888e+01 1.217240000000000038e+02 1.645474999999999909e+03
1.180000000000000077e-01 6.373150000000000759e-01 1.283696499999999929e+01 1.209754999999999967e+02 1.645250000000000000e+03
1.190000000000000085e-01 6.371605000000000185e-01 1.222399000000000058e+01 1.202494999999999976e+02 1.645029999999999973e+03
1.200000000000000094e-01 6.370160000000000267e-01 1.163817500000000038e+01 1.195625000000000000e+02 1.644819999999999936e+03
1.209999999999999964e-01 6.368834999999999358e-01 1.108658499999999947e+01 1.189279999999999973e+02 1.644625000000000000e+03
1.219999999999999973e-01 6.367659999999999432e-01 1.057526499999999992e+01 1.183575000000000017e+02 1.644445000000000164e+03
1.229999999999999982e-01 6.366650000000000365e-01 1.010922000000000054e+01 1.178610000000000042e+02 1.644284999999999854e+03
1.239999999999999991e-01 6.365825000000000511e-01 9.692249999999999588e+00 1.174465000000000003e+02 1.644139999999999873e+03
1.250000000000000000e-01 6.365190000000000570e-01 9.326699999999998880e+00 1.171185000000000116e+02 1.644029999999999973e+03
1.260000000000000009e-01 6.364734999999999143e-01 9.013394999999999158e+00 1.168774999999999977e+02 1.643940000000000055e+03
1.270000000000000018e-01 6.364469999999999850e-01 8.751870000000000260e+00 1.167229999999999990e+02 1.643869999999999891e+03
1.280000000000000027e-01 6.364369999999999195e-01 8.540285000000000792e+00 1.166504999999999939e+02 1.643824999999999818e+03
1.290000000000000036e-01 6.364425000000000221e-01 8.375545000000000684e+00 1.166544999999999987e+02 1.643805000000000064e+03
1.300000000000000044e-01 6.364624999999999311e-01 8.253614999999999924e+00 1.167259999999999991e+02 1.643809999999999945e+03
1.310000000000000053e-01 6.364929999999999755e-01 8.169674999999999798e+00 1.168550000000000040e+02 1.643829999999999927e+03
1.320000000000000062e-01 6.365330000000000155e-01 8.118394999999999584e+00 1.170314999999999941e+02 1.643865000000000009e+03
1.330000000000000071e-01 6.365795000000000758e-01 8.094150000000000844e+00 1.172439999999999998e+02 1.643909999999999854e+03
1.340000000000000080e-01 6.366305000000000991e-01 8.091255000000000308e+00 1.174814999999999969e+02 1.643970000000000027e+03
1.350000000000000089e-01 6.366834999999999578e-01 8.104205000000000325e+00 1.177335000000000065e+02 1.644029999999999973e+03
1.360000000000000098e-01 6.367369999999999974e-01 8.127774999999999750e+00 1.179904999999999973e+02 1.644099999999999909e+03
1.370000000000000107e-01 6.367884999999999796e-01 8.157244999999999635e+00 1.182435000000000116e+02 1.644170000000000073e+03
1.380000000000000115e-01 6.368380000000000152e-01 8.188430000000000319e+00 1.184865000000000066e+02 1.644240000000000009e+03
1.390000000000000124e-01 6.368835000000000468e-01 8.217784999999999229e+00 1.187135000000000105e+02 1.644299999999999955e+03
1.400000000000000133e-01 6.369245000000000045e-01 8.242435000000000400e+00 1.189194999999999993e+02 1.644360000000000127e+03
1.410000000000000142e-01 6.369605000000000405e-01 8.260175000000000267e+00 1.191030000000000086e+02 1.644420000000000073e+03
1.420000000000000151e-01 6.369914999999999328e-01 8.269474999999999909e+00 1.192620000000000005e+02 1.644464999999999918e+03
1.430000000000000160e-01 6.370180000000000842e-01 8.269429999999999836e+00 1.193975000000000080e+02 1.644510000000000218e+03
1.440000000000000169e-01 6.370394999999999808e-01 8.259699999999998710e+00 1.195095000000000027e+02 1.644545000000000073e+03
1.450000000000000178e-01 6.370575000000000543e-01 8.240489999999999426e+00 1.195999999999999943e+02 1.644579999999999927e+03
1.459999999999999909e-01 6.370715000000000128e-01 8.212429999999999453e+00 1.196724999999999994e+02 1.644605000000000018e+03
1.469999999999999918e-01 6.370824999999999960e-01 8.176550000000000651e+00 1.197289999999999992e+02 1.644630000000000109e+03
1.479999999999999927e-01 6.370919999999999916e-01 8.134124999999999162e+00 1.197740000000000009e+02 1.644644999999999982e+03
1.489999999999999936e-01 6.370994999999999298e-01 8.086639999999999162e+00 1.198094999999999999e+02 1.644659999999999854e+03
1.499999999999999944e-01 6.371065000000000200e-01 8.035669999999999646e+00 1.198404999999999916e+02 1.644674999999999955e+03
1.509999999999999953e-01 6.371139999999999581e-01 7.982784999999999798e+00 1.198684999999999974e+02 1.644684999999999945e+03
1.519999999999999962e-01 6.371219999999999661e-01 7.929494999999999294e+00 1.198979999999999961e+02 1.644694999999999936e+03
1.529999999999999971e-01 6.371299999999999741e-01 7.877129999999999299e+00 1.199300000000000068e+02 1.644710000000000036e+03
1.539999999999999980e-01 6.371404999999999985e-01 7.826819999999999666e+00 1.199670000000000130e+02 1.644724999999999909e+03
1.549999999999999989e-01 6.371519999999999406e-01 7.779424999999999812e+00 1.200099999999999909e+02 1.644735000000000127e+03
1.559999999999999998e-01 6.371649999999999814e-01 7.735524999999999984e+00 1.200585000000000093e+02 1.644750000000000000e+03
1.570000000000000007e-01 6.371784999999999810e-01 7.695405000000000051e+00 1.201129999999999995e+02 1.644764999999999873e+03
1.580000000000000016e-01 6.371940000000000381e-01 7.659080000000000332e+00 1.201724999999999994e+02 1.644784999999999854e+03
1.590000000000000024e-01 6.372094999999999843e-01 7.626319999999999766e+00 1.202359999999999900e+02 1.644804999999999836e+03
