# t [s], A [cm^2], U [cm/s], P [cPa], c [cm/s]
1.000000000000000021e-03 1.831820000000000115e-01 3.642067500000000235e-01 1.001829500000000053e+02 2.238279999999999745e+03
2.000000000000000042e-03 1.831170000000000020e-01 2.026601499999999945e+00 9.626064999999999827e+01 2.237734999999999673e+03
3.000000000000000062e-03 1.829629999999999868e-01 4.089511500000000410e+00 9.074150000000000205e+01 2.236494999999999891e+03
4.000000000000000083e-03 1.827664999999999984e-01 6.432290000000000063e+00 8.499549999999999272e+01 2.234944999999999709e+03
5.000000000000000104e-03 1.825694999999999957e-01 8.925689999999999458e+00 8.015510000000000446e+01 2.233390000000000327e+03
6.000000000000000125e-03 1.823875000000000079e-01 1.126519499999999852e+01 7.629394999999999527e+01 2.231984999999999673e+03
7.000000000000000146e-03 1.822205000000000075e-01 1.319594000000000023e+01 7.289979999999999905e+01 2.230724999999999909e+03
8.000000000000000167e-03 1.820745000000000002e-01 1.473229999999999862e+01 6.990729999999999222e+01 2.229644999999999982e+03
9.000000000000001055e-03 1.819545000000000190e-01 1.594894999999999996e+01 6.750395000000000323e+01 2.228765000000000327e+03
1.000000000000000194e-02 1.818595000000000073e-01 1.687594999999999956e+01 6.568925000000000125e+01 2.228085000000000036e+03
1.099999999999999936e-02 1.817885000000000195e-01 1.754939999999999856e+01 6.439815000000000111e+01 2.227579999999999927e+03
1.200000000000000025e-02 1.817370000000000096e-01 1.798525000000000063e+01 6.350844999999999629e+01 2.227224999999999909e+03
1.300000000000000114e-02 1.816979999999999984e-01 1.818605000000000160e+01 6.280859999999999843e+01 2.226960000000000036e+03
1.400000000000000203e-02 1.816689999999999972e-01 1.824269999999999925e+01 6.227150000000000318e+01 2.226775000000000091e+03
1.499999999999999944e-02 1.816574999999999995e-01 1.837399999999999878e+01 6.230254999999999654e+01 2.226710000000000036e+03
1.600000000000000033e-02 1.816790000000000072e-01 1.881194999999999951e+01 6.353260000000000218e+01 2.226869999999999891e+03
1.700000000000000122e-02 1.817440000000000166e-01 1.963605000000000089e+01 6.629349999999999454e+01 2.227344999999999800e+03
1.800000000000000211e-02 1.818480000000000096e-01 2.069969999999999999e+01 7.024699999999999989e+01 2.228109999999999673e+03
1.900000000000000300e-02 1.819704999999999795e-01 2.169644999999999868e+01 7.444380000000001019e+01 2.229015000000000327e+03
2.000000000000000042e-02 1.820824999999999805e-01 2.230705000000000027e+01 7.773859999999999104e+01 2.229864999999999782e+03
2.100000000000000130e-02 1.821579999999999866e-01 2.234165000000000134e+01 7.929529999999999745e+01 2.230454999999999927e+03
2.200000000000000219e-02 1.821840000000000126e-01 2.180930000000000035e+01 7.892079999999999984e+01 2.230694999999999709e+03
2.299999999999999961e-02 1.821650000000000214e-01 2.089155000000000229e+01 7.708320000000000505e+01 2.230579999999999927e+03
2.400000000000000050e-02 1.821170000000000011e-01 1.984315000000000140e+01 7.463804999999999268e+01 2.230244999999999891e+03
2.500000000000000139e-02 1.820614999999999872e-01 1.887639999999999674e+01 7.242265000000000441e+01 2.229835000000000036e+03
2.600000000000000228e-02 1.820140000000000091e-01 1.808389999999999986e+01 7.092340000000000089e+01 2.229480000000000018e+03
2.700000000000000316e-02 1.819819999999999771e-01 1.742650000000000077e+01 7.014789999999999281e+01 2.229230000000000018e+03
2.800000000000000058e-02 1.819600000000000106e-01 1.677769999999999939e+01 6.971670000000000300e+01 2.229060000000000400e+03
2.900000000000000147e-02 1.819365000000000010e-01 1.599845000000000006e+01 6.909945000000000448e+01 2.228885000000000218e+03
3.000000000000000236e-02 1.819014999999999938e-01 1.500934999999999953e+01 6.788409999999998945e+01 2.228635000000000218e+03
3.099999999999999978e-02 1.818494999999999973e-01 1.383670000000000044e+01 6.597880000000000678e+01 2.228255000000000109e+03
3.200000000000000067e-02 1.817834999999999868e-01 1.261439999999999984e+01 6.367680000000000007e+01 2.227774999999999636e+03
3.300000000000000155e-02 1.817170000000000174e-01 1.154289999999999949e+01 6.156199999999999761e+01 2.227279999999999745e+03
3.400000000000000244e-02 1.816654999999999798e-01 1.082020500000000141e+01 6.029610000000000269e+01 2.226890000000000327e+03
3.500000000000000333e-02 1.816464999999999885e-01 1.057396999999999920e+01 6.037600000000000477e+01 2.226724999999999909e+03
3.600000000000000422e-02 1.816674999999999818e-01 1.081990000000000052e+01 6.195610000000000639e+01 2.226855000000000018e+03
3.700000000000000511e-02 1.817285000000000150e-01 1.145710000000000051e+01 6.479330000000000211e+01 2.227274999999999636e+03
3.799999999999999906e-02 1.818180000000000074e-01 1.229769999999999897e+01 6.831790000000000873e+01 2.227925000000000182e+03
3.899999999999999994e-02 1.819184999999999830e-01 1.311475000000000080e+01 7.178945000000000221e+01 2.228659999999999854e+03
4.000000000000000083e-02 1.820089999999999764e-01 1.369294999999999973e+01 7.447905000000000086e+01 2.229335000000000036e+03
4.100000000000000172e-02 1.820714999999999972e-01 1.386885000000000012e+01 7.582335000000000491e+01 2.229815000000000055e+03
4.200000000000000261e-02 1.820930000000000049e-01 1.355194999999999972e+01 7.551709999999999923e+01 2.229994999999999891e+03
4.300000000000000350e-02 1.820669999999999789e-01 1.272769999999999868e+01 7.353264999999998963e+01 2.229824999999999818e+03
4.400000000000000439e-02 1.819935000000000025e-01 1.144387500000000024e+01 7.007519999999999527e+01 2.229300000000000182e+03
4.499999999999999833e-02 1.818794999999999995e-01 9.788619999999999877e+00 6.549844999999999118e+01 2.228469999999999800e+03
4.599999999999999922e-02 1.817340000000000066e-01 7.867700000000000138e+00 6.021105000000000018e+01 2.227404999999999745e+03
4.700000000000000011e-02 1.815685000000000215e-01 5.786475000000000257e+00 5.459940000000000282e+01 2.226184999999999945e+03
4.800000000000000100e-02 1.813934999999999853e-01 3.640204999999999913e+00 4.898319999999999652e+01 2.224885000000000218e+03
4.900000000000000189e-02 1.812170000000000170e-01 1.512325000000000141e+00 4.360419999999999874e+01 2.223574999999999818e+03
5.000000000000000278e-02 1.810464999999999991e-01 -5.225900000000001100e-01 3.864119999999999777e+01 2.222304999999999836e+03
5.100000000000000366e-02 1.808885000000000076e-01 -2.393864999999999910e+00 3.423575000000000301e+01 2.221119999999999891e+03
5.200000000000000455e-02 1.807479999999999920e-01 -4.031108500000000205e+00 3.051754999999999995e+01 2.220065000000000055e+03
5.300000000000000544e-02 1.806300000000000128e-01 -5.363704999999999501e+00 2.761919999999999931e+01 2.219170000000000073e+03
5.399999999999999939e-02 1.805390000000000050e-01 -6.323705000000000354e+00 2.567680000000000007e+01 2.218474999999999909e+03
5.500000000000000028e-02 1.804794999999999872e-01 -6.851480000000000459e+00 2.481830000000000069e+01 2.218010000000000218e+03
5.600000000000000117e-02 1.804560000000000053e-01 -6.902359999999999829e+00 2.514430000000000121e+01 2.217809999999999945e+03
5.700000000000000205e-02 1.804709999999999925e-01 -6.452574999999999505e+00 2.670830000000000126e+01 2.217885000000000218e+03
5.800000000000000294e-02 1.805249999999999910e-01 -5.502855000000000274e+00 2.950254999999999939e+01 2.218260000000000218e+03
5.900000000000000383e-02 1.806185000000000151e-01 -4.079089999999999883e+00 3.345270000000000010e+01 2.218920000000000073e+03
6.000000000000000472e-02 1.807479999999999920e-01 -2.230010000000000048e+00 3.842275000000000063e+01 2.219850000000000364e+03
6.099999999999999867e-02 1.809089999999999865e-01 -2.276500000000014623e-02 4.422785000000000366e+01 2.221025000000000091e+03
6.199999999999999956e-02 1.810964999999999936e-01 2.462534999999999918e+00 5.065135000000000076e+01 2.222400000000000091e+03
6.300000000000000044e-02 1.813024999999999776e-01 5.138499449999999413e+00 5.746274999999999977e+01 2.223920000000000073e+03
6.400000000000000133e-02 1.815209999999999879e-01 7.915600000000000414e+00 6.443359999999999843e+01 2.225539999999999964e+03
6.500000000000000222e-02 1.817455000000000043e-01 1.070689499999999938e+01 7.135084999999999411e+01 2.227210000000000036e+03
6.600000000000000311e-02 1.819680000000000186e-01 1.343211000000000155e+01 7.802709999999999013e+01 2.228875000000000000e+03
6.700000000000000400e-02 1.821840000000000126e-01 1.602165000000000106e+01 8.430985000000001151e+01 2.230500000000000000e+03
6.800000000000000488e-02 1.823879999999999946e-01 1.842000000000000171e+01 9.008835000000000548e+01 2.232039999999999964e+03
6.900000000000000577e-02 1.825769999999999893e-01 2.058869999999999933e+01 9.529970000000000141e+01 2.233475000000000364e+03
7.000000000000000666e-02 1.827499999999999958e-01 2.250764999999999816e+01 9.992965000000000941e+01 2.234795000000000073e+03
7.100000000000000755e-02 1.829060000000000130e-01 2.417535000000000167e+01 1.040129000000000019e+02 2.235984999999999673e+03
7.200000000000000844e-02 1.830459999999999865e-01 2.560745000000000005e+01 1.076264999999999930e+02 2.237060000000000400e+03
7.300000000000000933e-02 1.831725000000000159e-01 2.683310000000000173e+01 1.108780000000000001e+02 2.238034999999999854e+03
7.399999999999999634e-02 1.832884999999999931e-01 2.789099999999999824e+01 1.138924999999999983e+02 2.238930000000000291e+03
7.499999999999999722e-02 1.833985000000000198e-01 2.882424999999999926e+01 1.167994999999999948e+02 2.239779999999999745e+03
7.599999999999999811e-02 1.835060000000000024e-01 2.967555000000000121e+01 1.197150000000000034e+02 2.240600000000000364e+03
7.699999999999999900e-02 1.836129999999999984e-01 3.048284999999999911e+01 1.227344999999999970e+02 2.241425000000000182e+03
7.799999999999999989e-02 1.837234999999999840e-01 3.127605000000000146e+01 1.259199999999999875e+02 2.242265000000000327e+03
7.900000000000000078e-02 1.838385000000000158e-01 3.207489999999999952e+01 1.293019999999999925e+02 2.243144999999999982e+03
8.000000000000000167e-02 1.839590000000000114e-01 3.288819999999999766e+01 1.328720000000000141e+02 2.244064999999999600e+03
8.100000000000000255e-02 1.840839999999999976e-01 3.371380000000000621e+01 1.365939999999999941e+02 2.245014999999999873e+03
8.200000000000000344e-02 1.842125000000000012e-01 3.454000000000000625e+01 1.404039999999999964e+02 2.245989999999999782e+03
8.300000000000000433e-02 1.843429999999999791e-01 3.534689999999999799e+01 1.442194999999999823e+02 2.246984999999999673e+03
8.400000000000000522e-02 1.844719999999999971e-01 3.610885000000000389e+01 1.479459999999999980e+02 2.247969999999999800e+03
8.500000000000000611e-02 1.845975000000000255e-01 3.679689999999999372e+01 1.514875000000000114e+02 2.248925000000000182e+03
8.600000000000000699e-02 1.847159999999999913e-01 3.738069999999999737e+01 1.547489999999999952e+02 2.249835000000000036e+03
8.700000000000000788e-02 1.848250000000000171e-01 3.783135000000000048e+01 1.576454999999999984e+02 2.250670000000000073e+03
8.800000000000000877e-02 1.849210000000000020e-01 3.812314999999999543e+01 1.601059999999999945e+02 2.251409999999999854e+03
8.899999999999999578e-02 1.850030000000000008e-01 3.823539999999999850e+01 1.620769999999999982e+02 2.252050000000000182e+03
8.999999999999999667e-02 1.850694999999999979e-01 3.815384999999999849e+01 1.635244999999999891e+02 2.252564999999999600e+03
9.099999999999999756e-02 1.851185000000000191e-01 3.787160000000000082e+01 1.644370000000000118e+02 2.252949999999999818e+03
9.199999999999999845e-02 1.851510000000000100e-01 3.738954999999999984e+01 1.648229999999999791e+02 2.253210000000000036e+03
9.299999999999999933e-02 1.851659999999999973e-01 3.671640000000000015e+01 1.647115000000000009e+02 2.253340000000000146e+03
9.400000000000000022e-02 1.851654999999999829e-01 3.586799999999999500e+01 1.641504999999999939e+02 2.253349999999999909e+03
9.500000000000000111e-02 1.851500000000000090e-01 3.486650000000000205e+01 1.632004999999999768e+02 2.253250000000000000e+03
9.600000000000000200e-02 1.851225000000000231e-01 3.373890000000000100e+01 1.619345000000000141e+02 2.253050000000000182e+03
9.700000000000000289e-02 1.850849999999999995e-01 3.251545000000000130e+01 1.604294999999999902e+02 2.252775000000000091e+03
9.800000000000000377e-02 1.850394999999999956e-01 3.122830000000000084e+01 1.587655000000000030e+02 2.252434999999999945e+03
9.900000000000000466e-02 1.849890000000000145e-01 2.990975000000000250e+01 1.570199999999999818e+02 2.252054999999999836e+03
1.000000000000000056e-01 1.849350000000000160e-01 2.859074999999999989e+01 1.552660000000000196e+02 2.251650000000000091e+03
1.010000000000000064e-01 1.848810000000000175e-01 2.729974999999999952e+01 1.535664999999999907e+02 2.251234999999999673e+03
1.020000000000000073e-01 1.848275000000000057e-01 2.606150000000000233e+01 1.519749999999999943e+02 2.250835000000000036e+03
1.030000000000000082e-01 1.847779999999999978e-01 2.489605000000000246e+01 1.505324999999999989e+02 2.250449999999999818e+03
1.040000000000000091e-01 1.847320000000000073e-01 2.381804999999999950e+01 1.492659999999999911e+02 2.250099999999999909e+03
1.050000000000000100e-01 1.846919999999999951e-01 2.283639999999999759e+01 1.481890000000000214e+02 2.249784999999999854e+03
1.059999999999999970e-01 1.846569999999999878e-01 2.195365000000000322e+01 1.472990000000000066e+02 2.249510000000000218e+03
1.069999999999999979e-01 1.846269999999999856e-01 2.116659999999999897e+01 1.465799999999999841e+02 2.249279999999999745e+03
1.079999999999999988e-01 1.846019999999999883e-01 2.046614999999999895e+01 1.460020000000000095e+02 2.249085000000000036e+03
1.089999999999999997e-01 1.845809999999999951e-01 1.983854999999999791e+01 1.455260000000000105e+02 2.248914999999999964e+03
1.100000000000000006e-01 1.845629999999999771e-01 1.926599999999999824e+01 1.451030000000000086e+02 2.248774999999999636e+03
1.110000000000000014e-01 1.845459999999999878e-01 1.872825000000000273e+01 1.446794999999999902e+02 2.248635000000000218e+03
1.120000000000000023e-01 1.845289999999999986e-01 1.820354999999999990e+01 1.441999999999999886e+02 2.248500000000000000e+03
1.130000000000000032e-01 1.845090000000000063e-01 1.767074999999999818e+01 1.436119999999999948e+02 2.248350000000000364e+03
1.140000000000000041e-01 1.844864999999999977e-01 1.711015000000000086e+01 1.428695000000000164e+02 2.248175000000000182e+03
1.150000000000000050e-01 1.844580000000000108e-01 1.650519999999999854e+01 1.419354999999999905e+02 2.247954999999999927e+03
1.160000000000000059e-01 1.844235000000000180e-01 1.584355000000000047e+01 1.407855000000000132e+02 2.247699999999999818e+03
1.170000000000000068e-01 1.843825000000000047e-01 1.511769999999999925e+01 1.394074999999999989e+02 2.247389999999999873e+03
1.180000000000000077e-01 1.843339999999999979e-01 1.432569999999999943e+01 1.378059999999999832e+02 2.247024999999999636e+03
1.190000000000000085e-01 1.842789999999999984e-01 1.347139999999999915e+01 1.360000000000000000e+02 2.246610000000000127e+03
1.200000000000000094e-01 1.842179999999999929e-01 1.256374999999999886e+01 1.340215000000000032e+02 2.246150000000000091e+03
1.209999999999999964e-01 1.841520000000000101e-01 1.161670999999999943e+01 1.319145000000000039e+02 2.245650000000000091e+03
1.219999999999999973e-01 1.840815000000000090e-01 1.064790999999999954e+01 1.297305000000000064e+02 2.245119999999999891e+03
1.229999999999999982e-01 1.840094999999999925e-01 9.677830000000000155e+00 1.275289999999999964e+02 2.244570000000000164e+03
1.239999999999999991e-01 1.839370000000000172e-01 8.728320000000000078e+00 1.253689999999999998e+02 2.244025000000000091e+03
1.250000000000000000e-01 1.838660000000000017e-01 7.821309999999999540e+00 1.233085000000000093e+02 2.243484999999999673e+03
1.260000000000000009e-01 1.837984999999999758e-01 6.977495000000000225e+00 1.214004999999999939e+02 2.242975000000000364e+03
1.270000000000000018e-01 1.837360000000000104e-01 6.215244999999999465e+00 1.196899999999999977e+02 2.242494999999999891e+03
1.280000000000000027e-01 1.836800000000000099e-01 5.549574999999999925e+00 1.182125000000000057e+02 2.242059999999999945e+03
1.290000000000000036e-01 1.836309999999999887e-01 4.991514999999999702e+00 1.169920000000000044e+02 2.241690000000000055e+03
1.300000000000000044e-01 1.835900000000000032e-01 4.547690000000000232e+00 1.160395000000000039e+02 2.241375000000000000e+03
1.310000000000000053e-01 1.835579999999999989e-01 4.220169999999999533e+00 1.153549999999999898e+02 2.241119999999999891e+03
1.320000000000000062e-01 1.835344999999999893e-01 4.006645000000000678e+00 1.149274999999999949e+02 2.240930000000000291e+03
1.330000000000000071e-01 1.835189999999999877e-01 3.900729999999999809e+00 1.147369999999999948e+02 2.240804999999999836e+03
1.340000000000000080e-01 1.835104999999999931e-01 3.892504999999999882e+00 1.147539999999999907e+02 2.240734999999999673e+03
1.350000000000000089e-01 1.835090000000000054e-01 3.969204999999999650e+00 1.149454999999999956e+02 2.240715000000000146e+03
1.360000000000000098e-01 1.835124999999999951e-01 4.115895000000000081e+00 1.152725000000000080e+02 2.240735000000000127e+03
1.370000000000000107e-01 1.835215000000000041e-01 4.316264999999999574e+00 1.156939999999999884e+02 2.240795000000000073e+03
1.380000000000000115e-01 1.835324999999999873e-01 4.553369999999999251e+00 1.161709999999999923e+02 2.240875000000000000e+03
1.390000000000000124e-01 1.835455000000000003e-01 4.810370000000000701e+00 1.166645000000000039e+02 2.240970000000000255e+03
1.400000000000000133e-01 1.835594999999999866e-01 5.071210000000000662e+00 1.171380000000000052e+02 2.241069999999999709e+03
1.410000000000000142e-01 1.835729999999999862e-01 5.321204999999999963e+00 1.175605000000000047e+02 2.241170000000000073e+03
1.420000000000000151e-01 1.835844999999999838e-01 5.547575000000000145e+00 1.179064999999999941e+02 2.241260000000000218e+03
1.430000000000000160e-01 1.835940000000000072e-01 5.739874999999999616e+00 1.181555000000000035e+02 2.241335000000000036e+03
1.440000000000000169e-01 1.836010000000000142e-01 5.890304999999999680e+00 1.182930000000000064e+02 2.241385000000000218e+03
1.450000000000000178e-01 1.836045000000000038e-01 5.993875000000000064e+00 1.183149999999999977e+02 2.241414999999999964e+03
1.459999999999999909e-01 1.836045000000000038e-01 6.048470000000000013e+00 1.182189999999999941e+02 2.241420000000000073e+03
1.469999999999999918e-01 1.836010000000000142e-01 6.054725000000000357e+00 1.180134999999999934e+02 2.241389999999999873e+03
1.479999999999999927e-01 1.835935000000000206e-01 6.015779999999999461e+00 1.177085000000000008e+02 2.241345000000000255e+03
1.489999999999999936e-01 1.835835000000000106e-01 5.936894999999999811e+00 1.173220000000000027e+02 2.241269999999999982e+03
1.499999999999999944e-01 1.835714999999999986e-01 5.824955000000000105e+00 1.168730000000000047e+02 2.241180000000000291e+03
1.509999999999999953e-01 1.835574999999999846e-01 5.687895000000000145e+00 1.163815000000000026e+02 2.241074999999999818e+03
1.519999999999999962e-01 1.835414999999999963e-01 5.534139999999999837e+00 1.158704999999999927e+02 2.240960000000000036e+03
1.529999999999999971e-01 1.835255000000000081e-01 5.372004999999999697e+00 1.153589999999999947e+02 2.240840000000000146e+03
1.539999999999999980e-01 1.835090000000000054e-01 5.209175000000000111e+00 1.148640000000000043e+02 2.240715000000000146e+03
1.549999999999999989e-01 1.834935000000000038e-01 5.052284999999999471e+00 1.143990000000000009e+02 2.240595000000000255e+03
1.559999999999999998e-01 1.834784999999999888e-01 4.906575000000000131e+00 1.139745000000000061e+02 2.240484999999999673e+03
1.570000000000000007e-01 1.834649999999999892e-01 4.775745000000000573e+00 1.135955000000000013e+02 2.240380000000000109e+03
1.580000000000000016e-01 1.834525000000000183e-01 4.661860000000000781e+00 1.132620000000000005e+02 2.240289999999999964e+03
1.590000000000000024e-01 1.834414999999999796e-01 4.565409999999999968e+00 1.129720000000000084e+02 2.240199999999999818e+03
