# t [s], A [cm^2], U [cm/s], P [cPa], c [cm/s]
1.000000000000000021e-03 7.669055000000000177e-01 3.778349999999999764e-03 9.117965000000000941e+01 1.584059999999999945e+03
2.000000000000000042e-03 7.668939999999999646e-01 -2.272100500000000158e-03 9.115755000000000052e+01 1.584055000000000064e+03
3.000000000000000062e-03 7.669439999999999591e-01 6.823395000000000155e-02 9.122929999999999495e+01 1.584074999999999818e+03
4.000000000000000083e-03 7.670055000000000067e-01 1.603979500000000114e-01 9.134430000000000405e+01 1.584105000000000018e+03
5.000000000000000104e-03 7.669995000000000562e-01 1.658000000000000029e-01 9.134340000000000259e+01 1.584105000000000018e+03
6.000000000000000125e-03 7.669394999999999962e-01 9.461749999999999328e-02 9.120120000000000005e+01 1.584075000000000045e+03
7.000000000000000146e-03 7.668825000000000225e-01 2.223649999999999238e-02 9.100060000000000571e+01 1.584030000000000200e+03
8.000000000000000167e-03 7.668139999999999956e-01 -7.445799999999996865e-02 9.073085000000000377e+01 1.583969999999999800e+03
9.000000000000001055e-03 7.666930000000000689e-01 -2.572499999999999787e-01 9.031345000000000312e+01 1.583875000000000000e+03
1.000000000000000194e-02 7.665075000000000083e-01 -5.452249999999999597e-01 8.969929999999999382e+01 1.583735000000000127e+03
1.099999999999999936e-02 7.662450000000000649e-01 -9.516099999999999559e-01 8.884225000000000705e+01 1.583539999999999964e+03
1.200000000000000025e-02 7.658890000000000420e-01 -1.490585000000000271e+00 8.769145000000000323e+01 1.583275000000000091e+03
1.300000000000000114e-02 7.654490000000000460e-01 -2.134445000000000370e+00 8.624549999999999272e+01 1.582930000000000064e+03
1.400000000000000203e-02 7.649704999999999977e-01 -2.795920000000000183e+00 8.458955000000000268e+01 1.582529999999999973e+03
1.499999999999999944e-02 7.645144999999999857e-01 -3.361150000000000304e+00 8.286950000000000216e+01 1.582099999999999909e+03
1.600000000000000033e-02 7.641260000000000829e-01 -3.738896999999999693e+00 8.123015000000000896e+01 1.581670000000000073e+03
1.700000000000000122e-02 7.638169999999999682e-01 -3.889812500000000117e+00 7.976399999999999579e+01 1.581264999999999873e+03
1.800000000000000211e-02 7.635720000000000285e-01 -3.827495499999999939e+00 7.849299999999999500e+01 1.580900000000000091e+03
1.900000000000000300e-02 7.633570000000000633e-01 -3.601158000000000303e+00 7.737864999999999327e+01 1.580555000000000064e+03
2.000000000000000042e-02 7.631379999999999830e-01 -3.272245499999999918e+00 7.634810000000000230e+01 1.580235000000000127e+03
2.100000000000000130e-02 7.628880000000000106e-01 -2.893518000000000256e+00 7.532480000000001041e+01 1.579909999999999854e+03
2.200000000000000219e-02 7.625969999999999693e-01 -2.495577500000000004e+00 7.425339999999999918e+01 1.579570000000000164e+03
2.299999999999999961e-02 7.622694999999999332e-01 -2.083654999999999813e+00 7.311320000000000618e+01 1.579224999999999909e+03
2.400000000000000050e-02 7.619225000000000581e-01 -1.644390000000000018e+00 7.191674999999999329e+01 1.578865000000000009e+03
2.500000000000000139e-02 7.615724999999999856e-01 -1.159015000000000128e+00 7.069620000000000459e+01 1.578500000000000000e+03
2.600000000000000228e-02 7.612315000000000609e-01 -6.172949999999999271e-01 6.948410000000001219e+01 1.578130000000000109e+03
2.700000000000000316e-02 7.609004999999999797e-01 -2.706499999999989470e-02 6.829635000000000389e+01 1.577769999999999982e+03
2.800000000000000058e-02 7.605695000000000094e-01 5.830100000000000282e-01 6.712215000000000487e+01 1.577404999999999973e+03
2.900000000000000147e-02 7.602189999999999781e-01 1.167250000000000121e+00 6.592379999999999995e+01 1.577039999999999964e+03
3.000000000000000236e-02 7.598255000000000425e-01 1.671620000000000106e+00 6.464395000000000380e+01 1.576659999999999854e+03
3.099999999999999978e-02 7.593689999999999607e-01 2.044680000000000497e+00 6.321984999999999388e+01 1.576244999999999891e+03
3.200000000000000067e-02 7.588359999999999550e-01 2.248344999999999594e+00 6.159855000000000302e+01 1.575789999999999964e+03
3.300000000000000155e-02 7.582254999999999967e-01 2.265734999999999388e+00 5.975199999999999534e+01 1.575275000000000091e+03
3.400000000000000244e-02 7.575475000000000403e-01 2.104419999999999735e+00 5.768595000000000539e+01 1.574724999999999909e+03
3.500000000000000333e-02 7.568245000000000111e-01 1.794284999999999908e+00 5.544225000000000136e+01 1.574119999999999891e+03
3.600000000000000422e-02 7.560875000000000234e-01 1.380984999999999907e+00 5.309279999999999688e+01 1.573490000000000009e+03
3.700000000000000511e-02 7.553654999999999120e-01 9.172899999999999388e-01 5.072920000000000584e+01 1.572855000000000018e+03
3.799999999999999906e-02 7.546895000000000131e-01 4.546950000000000713e-01 4.844920000000000471e+01 1.572230000000000018e+03
3.899999999999999994e-02 7.540830000000000588e-01 3.719999999999989981e-02 4.634529999999999461e+01 1.571644999999999982e+03
4.000000000000000083e-02 7.535640000000000116e-01 -3.019600000000002282e-01 4.449575000000000102e+01 1.571119999999999891e+03
4.100000000000000172e-02 7.531434999999999658e-01 -5.407750000000000057e-01 4.295955000000000013e+01 1.570659999999999854e+03
4.200000000000000261e-02 7.528269999999999129e-01 -6.667499999999999538e-01 4.177594999999999459e+01 1.570295000000000073e+03
4.300000000000000350e-02 7.526154999999999928e-01 -6.740199999999998415e-01 4.096604999999999563e+01 1.570019999999999982e+03
4.400000000000000439e-02 7.525085000000000246e-01 -5.601514999999999134e-01 4.053704999999999359e+01 1.569845000000000027e+03
4.499999999999999833e-02 7.525045000000000206e-01 -3.235755000000000159e-01 4.048664999999999736e+01 1.569769999999999982e+03
4.599999999999999922e-02 7.526014999999999233e-01 3.798849999999998062e-02 4.080715000000000003e+01 1.569789999999999964e+03
4.700000000000000011e-02 7.527979999999999672e-01 5.277749999999999941e-01 4.148829999999999529e+01 1.569914999999999964e+03
4.800000000000000100e-02 7.530915000000000248e-01 1.149140000000000050e+00 4.251810000000000400e+01 1.570134999999999991e+03
4.900000000000000189e-02 7.534790000000000099e-01 1.903985000000000039e+00 4.388259999999999650e+01 1.570450000000000045e+03
5.000000000000000278e-02 7.539569999999999883e-01 2.791054999999999620e+00 4.556454999999999700e+01 1.570849999999999909e+03
5.100000000000000366e-02 7.545180000000000220e-01 3.804579999999999629e+00 4.754189999999999827e+01 1.571335000000000036e+03
5.200000000000000455e-02 7.551539999999999919e-01 4.933550000000000324e+00 4.978659999999999997e+01 1.571900000000000091e+03
5.300000000000000544e-02 7.558529999999999971e-01 6.161789999999999878e+00 5.226415000000000077e+01 1.572529999999999973e+03
5.399999999999999939e-02 7.566025000000000666e-01 7.468859499999999763e+00 5.493444999999999823e+01 1.573220000000000027e+03
5.500000000000000028e-02 7.573889999999999789e-01 8.831469500000000750e+00 5.775300000000000011e+01 1.573960000000000036e+03
5.600000000000000117e-02 7.581995000000000262e-01 1.022497000000000078e+01 6.067350000000000421e+01 1.574735000000000127e+03
5.700000000000000205e-02 7.590200000000000280e-01 1.162529500000000127e+01 6.364990000000000236e+01 1.575529999999999973e+03
5.800000000000000294e-02 7.598389999999999311e-01 1.301027000000000022e+01 6.663929999999999154e+01 1.576339999999999918e+03
5.900000000000000383e-02 7.606475000000000319e-01 1.436078999999999972e+01 6.960394999999999754e+01 1.577154999999999973e+03
6.000000000000000472e-02 7.614384999999999071e-01 1.566161999999999921e+01 7.251285000000000025e+01 1.577965000000000146e+03
6.099999999999999867e-02 7.622065000000000090e-01 1.690155000000000030e+01 7.534295000000000186e+01 1.578759999999999991e+03
6.199999999999999956e-02 7.629494999999999472e-01 1.807319999999999993e+01 7.807904999999999518e+01 1.579534999999999854e+03
6.300000000000000044e-02 7.636665000000000258e-01 1.917285000000000039e+01 8.071354999999999791e+01 1.580289999999999964e+03
6.400000000000000133e-02 7.643580000000000929e-01 2.019969999999999999e+01 8.324559999999999604e+01 1.581019999999999982e+03
6.500000000000000222e-02 7.650265000000000537e-01 2.115520000000000067e+01 8.567969999999999686e+01 1.581735000000000127e+03
6.600000000000000311e-02 7.656745000000000356e-01 2.204230000000000089e+01 8.802445000000000164e+01 1.582420000000000073e+03
6.700000000000000400e-02 7.663065000000000015e-01 2.286495000000000033e+01 9.029075000000000273e+01 1.583085000000000036e+03
6.800000000000000488e-02 7.669234999999999802e-01 2.362744999999999962e+01 9.249039999999999395e+01 1.583735000000000127e+03
6.900000000000000577e-02 7.675294999999999757e-01 2.433370000000000033e+01 9.463470000000000937e+01 1.584365000000000009e+03
7.000000000000000666e-02 7.681255000000000166e-01 2.498709999999999809e+01 9.673295000000000243e+01 1.584985000000000127e+03
7.100000000000000755e-02 7.687140000000000084e-01 2.558995000000000175e+01 9.879259999999999309e+01 1.585595000000000027e+03
7.200000000000000844e-02 7.692939999999999223e-01 2.614349999999999952e+01 1.008164500000000032e+02 1.586190000000000055e+03
7.300000000000000933e-02 7.698650000000000215e-01 2.664754999999999896e+01 1.028044500000000028e+02 1.586779999999999973e+03
7.399999999999999634e-02 7.704254999999999853e-01 2.710105000000000075e+01 1.047530000000000001e+02 1.587360000000000127e+03
7.499999999999999722e-02 7.709725000000000605e-01 2.750169999999999959e+01 1.066545000000000130e+02 1.587924999999999955e+03
7.599999999999999811e-02 7.715030000000000499e-01 2.784680000000000177e+01 1.084994999999999976e+02 1.588470000000000027e+03
7.699999999999999900e-02 7.720135000000000192e-01 2.813305000000000078e+01 1.102764999999999986e+02 1.589000000000000000e+03
7.799999999999999989e-02 7.724995000000000056e-01 2.835715000000000074e+01 1.119714999999999918e+02 1.589514999999999873e+03
7.900000000000000078e-02 7.729584999999999928e-01 2.851624999999999943e+01 1.135720000000000027e+02 1.589994999999999891e+03
8.000000000000000167e-02 7.733860000000000179e-01 2.860775000000000290e+01 1.150655000000000001e+02 1.590454999999999927e+03
8.100000000000000255e-02 7.737800000000000233e-01 2.862975000000000136e+01 1.164399999999999977e+02 1.590880000000000109e+03
8.200000000000000344e-02 7.741374999999999229e-01 2.858145000000000024e+01 1.176864999999999952e+02 1.591269999999999982e+03
8.300000000000000433e-02 7.744569999999999510e-01 2.846245000000000047e+01 1.187969999999999970e+02 1.591619999999999891e+03
8.400000000000000522e-02 7.747375000000000789e-01 2.827384999999999948e+01 1.197655000000000030e+02 1.591934999999999945e+03
8.500000000000000611e-02 7.749770000000000270e-01 2.801709999999999923e+01 1.205895000000000010e+02 1.592210000000000036e+03
8.600000000000000699e-02 7.751770000000000049e-01 2.769494999999999862e+01 1.212694999999999936e+02 1.592444999999999936e+03
8.700000000000000788e-02 7.753379999999999717e-01 2.731109999999999971e+01 1.218070000000000022e+02 1.592634999999999991e+03
8.800000000000000877e-02 7.754609999999999559e-01 2.686994999999999933e+01 1.222059999999999889e+02 1.592789999999999964e+03
8.899999999999999578e-02 7.755480000000000151e-01 2.637689999999999912e+01 1.224735000000000014e+02 1.592904999999999973e+03
8.999999999999999667e-02 7.756015000000000548e-01 2.583814999999999884e+01 1.226189999999999998e+02 1.592985000000000127e+03
9.099999999999999756e-02 7.756250000000000089e-01 2.526059999999999661e+01 1.226525000000000034e+02 1.593030000000000200e+03
9.199999999999999845e-02 7.756210000000000049e-01 2.465174999999999983e+01 1.225859999999999985e+02 1.593045000000000073e+03
9.299999999999999933e-02 7.755940000000000056e-01 2.401944999999999908e+01 1.224339999999999975e+02 1.593034999999999854e+03
9.400000000000000022e-02 7.755480000000000151e-01 2.337185000000000201e+01 1.222104999999999961e+02 1.592994999999999891e+03
9.500000000000000111e-02 7.754864999999999675e-01 2.271689999999999898e+01 1.219295000000000044e+02 1.592940000000000055e+03
9.600000000000000200e-02 7.754144999999998955e-01 2.206235000000000213e+01 1.216059999999999945e+02 1.592869999999999891e+03
9.700000000000000289e-02 7.753345000000000375e-01 2.141514999999999702e+01 1.212545000000000073e+02 1.592785000000000082e+03
9.800000000000000377e-02 7.752499999999999947e-01 2.078150000000000119e+01 1.208874999999999886e+02 1.592690000000000055e+03
9.900000000000000466e-02 7.751639999999999642e-01 2.016645000000000110e+01 1.205165000000000077e+02 1.592594999999999800e+03
1.000000000000000056e-01 7.750795000000000323e-01 1.957375000000000043e+01 1.201504999999999939e+02 1.592500000000000000e+03
1.010000000000000064e-01 7.749970000000000470e-01 1.900584999999999880e+01 1.197969999999999970e+02 1.592400000000000091e+03
1.020000000000000073e-01 7.749179999999999957e-01 1.846385000000000076e+01 1.194600000000000080e+02 1.592299999999999955e+03
1.030000000000000082e-01 7.748420000000000307e-01 1.794729999999999848e+01 1.191419999999999959e+02 1.592210000000000036e+03
1.040000000000000091e-01 7.747699999999999587e-01 1.745470000000000255e+01 1.188435000000000059e+02 1.592119999999999891e+03
1.050000000000000100e-01 7.747005000000000141e-01 1.698335000000000150e+01 1.185614999999999952e+02 1.592034999999999854e+03
1.059999999999999970e-01 7.746314999999999173e-01 1.652980000000000160e+01 1.182930000000000064e+02 1.591954999999999927e+03
1.069999999999999979e-01 7.745625000000000426e-01 1.608990000000000009e+01 1.180329999999999870e+02 1.591875000000000000e+03
1.079999999999999988e-01 7.744919999999999582e-01 1.565915000000000035e+01 1.177745000000000033e+02 1.591795000000000073e+03
1.089999999999999997e-01 7.744180000000000508e-01 1.523290000000000077e+01 1.175125000000000028e+02 1.591715000000000146e+03
1.100000000000000006e-01 7.743385000000000407e-01 1.480654999999999966e+01 1.172395000000000067e+02 1.591634999999999991e+03
1.110000000000000014e-01 7.742529999999999690e-01 1.437580000000000169e+01 1.169500000000000028e+02 1.591549999999999955e+03
1.120000000000000023e-01 7.741595000000000004e-01 1.393694999999999951e+01 1.166394999999999982e+02 1.591454999999999927e+03
1.130000000000000032e-01 7.740575000000000649e-01 1.348685000000000045e+01 1.163029999999999973e+02 1.591360000000000127e+03
1.140000000000000041e-01 7.739469999999999406e-01 1.302311500000000066e+01 1.159389999999999930e+02 1.591255000000000109e+03
1.150000000000000050e-01 7.738270000000000426e-01 1.254427499999999895e+01 1.155455000000000041e+02 1.591144999999999982e+03
1.160000000000000059e-01 7.736990000000000256e-01 1.204987999999999992e+01 1.151229999999999905e+02 1.591034999999999854e+03
1.170000000000000068e-01 7.735640000000000294e-01 1.154031000000000162e+01 1.146735000000000042e+02 1.590905000000000200e+03
1.180000000000000077e-01 7.734225000000000128e-01 1.101702500000000029e+01 1.142019999999999982e+02 1.590775000000000091e+03
1.190000000000000085e-01 7.732769999999999921e-01 1.048227500000000134e+01 1.137125000000000057e+02 1.590639999999999873e+03
1.200000000000000094e-01 7.731289999999999552e-01 9.939220000000000610e+00 1.132125000000000057e+02 1.590500000000000000e+03
1.209999999999999964e-01 7.729820000000000579e-01 9.391664999999999708e+00 1.127090000000000032e+02 1.590365000000000009e+03
1.219999999999999973e-01 7.728369999999999962e-01 8.844010000000000815e+00 1.122115000000000009e+02 1.590224999999999909e+03
1.229999999999999982e-01 7.726984999999999548e-01 8.300985000000000724e+00 1.117280000000000086e+02 1.590090000000000146e+03
1.239999999999999991e-01 7.725675000000000736e-01 7.767554999999999765e+00 1.112685000000000031e+02 1.589954999999999927e+03
1.250000000000000000e-01 7.724474999999999536e-01 7.248734999999999928e+00 1.108410000000000082e+02 1.589835000000000036e+03
1.260000000000000009e-01 7.723400000000000265e-01 6.749235000000000539e+00 1.104555000000000007e+02 1.589724999999999909e+03
1.270000000000000018e-01 7.722485000000000044e-01 6.273479999999999279e+00 1.101185000000000116e+02 1.589619999999999891e+03
1.280000000000000027e-01 7.721724999999999284e-01 5.825319999999999609e+00 1.098365000000000009e+02 1.589534999999999854e+03
1.290000000000000036e-01 7.721150000000001068e-01 5.407939999999999969e+00 1.096149999999999949e+02 1.589460000000000036e+03
1.300000000000000044e-01 7.720759999999999845e-01 5.023710000000000342e+00 1.094560000000000031e+02 1.589404999999999973e+03
1.310000000000000053e-01 7.720549999999999358e-01 4.674150000000000027e+00 1.093619999999999948e+02 1.589369999999999891e+03
1.320000000000000062e-01 7.720529999999999893e-01 4.359874999999999723e+00 1.093325000000000102e+02 1.589345000000000027e+03
1.330000000000000071e-01 7.720679999999999765e-01 4.080619999999999692e+00 1.093654999999999973e+02 1.589345000000000027e+03
1.340000000000000080e-01 7.720994999999999386e-01 3.835300000000000153e+00 1.094569999999999936e+02 1.589355000000000018e+03
1.350000000000000089e-01 7.721454999999999291e-01 3.622069999999999901e+00 1.096020000000000039e+02 1.589384999999999991e+03
1.360000000000000098e-01 7.722040000000000015e-01 3.438470000000000137e+00 1.097940000000000111e+02 1.589429999999999836e+03
1.370000000000000107e-01 7.722729999999999873e-01 3.281534999999999869e+00 1.100259999999999962e+02 1.589480000000000018e+03
1.380000000000000115e-01 7.723500000000000920e-01 3.147930000000000117e+00 1.102895000000000039e+02 1.589539999999999964e+03
1.390000000000000124e-01 7.724329999999999252e-01 3.034114999999999895e+00 1.105765000000000100e+02 1.589615000000000009e+03
1.400000000000000133e-01 7.725199999999999845e-01 2.936469999999999914e+00 1.108790000000000049e+02 1.589690000000000055e+03
1.410000000000000142e-01 7.726079999999999615e-01 2.851384999999999614e+00 1.111885000000000048e+02 1.589775000000000091e+03
1.420000000000000151e-01 7.726954999999999796e-01 2.775419999999999998e+00 1.114985000000000070e+02 1.589855000000000018e+03
1.430000000000000160e-01 7.727800000000000225e-01 2.705334999999999823e+00 1.118004999999999995e+02 1.589940000000000055e+03
1.440000000000000169e-01 7.728614999999999791e-01 2.638195000000000068e+00 1.120900000000000034e+02 1.590014999999999873e+03
1.450000000000000178e-01 7.729369999999999852e-01 2.571374999999999744e+00 1.123609999999999900e+02 1.590089999999999918e+03
1.459999999999999909e-01 7.730065000000000408e-01 2.502629999999999910e+00 1.126089999999999947e+02 1.590160000000000082e+03
1.469999999999999918e-01 7.730684999999999363e-01 2.430080000000000240e+00 1.128309999999999889e+02 1.590224999999999909e+03
1.479999999999999927e-01 7.731230000000000047e-01 2.352209999999999912e+00 1.130250000000000057e+02 1.590284999999999854e+03
1.489999999999999936e-01 7.731684999999999253e-01 2.267900000000000027e+00 1.131885000000000048e+02 1.590340000000000146e+03
1.499999999999999944e-01 7.732060000000000599e-01 2.176364999999999661e+00 1.133209999999999980e+02 1.590375000000000000e+03
1.509999999999999953e-01 7.732354999999999645e-01 2.077155000000000307e+00 1.134224999999999994e+02 1.590409999999999854e+03
1.519999999999999962e-01 7.732559999999999434e-01 1.970130000000000159e+00 1.134929999999999950e+02 1.590440000000000055e+03
1.529999999999999971e-01 7.732689999999999841e-01 1.855424999999999880e+00 1.135329999999999870e+02 1.590454999999999927e+03
1.539999999999999980e-01 7.732734999999999470e-01 1.733430000000000026e+00 1.135440000000000111e+02 1.590465000000000146e+03
1.549999999999999989e-01 7.732710000000000417e-01 1.604729999999999990e+00 1.135279999999999916e+02 1.590465000000000146e+03
1.559999999999999998e-01 7.732620000000000049e-01 1.470085000000000086e+00 1.134859999999999900e+02 1.590460000000000036e+03
1.570000000000000007e-01 7.732459999999999889e-01 1.330365999999999937e+00 1.134209999999999923e+02 1.590450000000000045e+03
1.580000000000000016e-01 7.732244999999999813e-01 1.186550999999999911e+00 1.133329999999999984e+02 1.590430000000000064e+03
1.590000000000000024e-01 7.731980000000000519e-01 1.039651000000000103e+00 1.132249999999999943e+02 1.590404999999999973e+03
