# t [s], A [cm^2], U [cm/s], P [cPa], c [cm/s]
1.000000000000000021e-03 5.960749999999999105e-01 4.382049999999998446e-03 1.099405000000000001e+02 1.523519999999999982e+03
2.000000000000000042e-03 5.960665000000000546e-01 2.597199999999999596e-04 1.099189999999999969e+02 1.523514999999999873e+03
3.000000000000000062e-03 5.961149999999999505e-01 8.292269999999998809e-02 1.100030000000000001e+02 1.523539999999999964e+03
4.000000000000000083e-03 5.961650000000000560e-01 1.728584999999999983e-01 1.101149999999999949e+02 1.523570000000000164e+03
5.000000000000000104e-03 5.961524999999999741e-01 1.616623999999999839e-01 1.100914999999999964e+02 1.523570000000000164e+03
6.000000000000000125e-03 5.960980000000000167e-01 7.623499999999999721e-02 1.099209999999999923e+02 1.523534999999999854e+03
7.000000000000000146e-03 5.960459999999999647e-01 -1.180449999999999555e-02 1.096814999999999998e+02 1.523480000000000018e+03
8.000000000000000167e-03 5.959729999999999750e-01 -1.436340000000000394e-01 1.093400000000000034e+02 1.523404999999999973e+03
9.000000000000001055e-03 5.958474999999999744e-01 -3.797200000000000575e-01 1.088130000000000024e+02 1.523280000000000200e+03
1.000000000000000194e-02 5.956635000000000124e-01 -7.281799999999999384e-01 1.080559999999999974e+02 1.523099999999999909e+03
1.099999999999999936e-02 5.954099999999999948e-01 -1.196355000000000057e+00 1.070234999999999985e+02 1.522860000000000127e+03
1.200000000000000025e-02 5.950725000000000042e-01 -1.794985000000000053e+00 1.056649999999999920e+02 1.522525000000000091e+03
1.300000000000000114e-02 5.946595000000000075e-01 -2.489410000000000345e+00 1.039817500000000052e+02 1.522110000000000127e+03
1.400000000000000203e-02 5.942104999999999748e-01 -3.179395000000000415e+00 1.020677000000000021e+02 1.521615000000000009e+03
1.499999999999999944e-02 5.937814999999999621e-01 -3.734754999999999825e+00 1.000865000000000009e+02 1.521089999999999918e+03
1.600000000000000033e-02 5.934144999999999559e-01 -4.050680500000000350e+00 9.820310000000000628e+01 1.520570000000000164e+03
1.700000000000000122e-02 5.931210000000000093e-01 -4.082465000000000011e+00 9.652510000000000900e+01 1.520074999999999818e+03
1.800000000000000211e-02 5.928875000000000117e-01 -3.848772700000000047e+00 9.507880000000000109e+01 1.519625000000000000e+03
1.900000000000000300e-02 5.926815000000000833e-01 -3.412939999999999863e+00 9.381659999999999400e+01 1.519210000000000036e+03
2.000000000000000042e-02 5.924674999999999248e-01 -2.855360000000000120e+00 9.264660000000000650e+01 1.518809999999999945e+03
2.100000000000000130e-02 5.922190000000000509e-01 -2.246935000000000127e+00 9.146889999999999077e+01 1.518414999999999964e+03
2.200000000000000219e-02 5.919229999999999769e-01 -1.630544999999999911e+00 9.020879999999999654e+01 1.518000000000000000e+03
2.299999999999999961e-02 5.915844999999999576e-01 -1.015519999999999756e+00 8.883554999999999779e+01 1.517555000000000064e+03
2.400000000000000050e-02 5.912180000000000213e-01 -3.856099999999997863e-01 8.736260000000000048e+01 1.517090000000000146e+03
2.500000000000000139e-02 5.908430000000000071e-01 2.840200000000003833e-01 8.583150000000000546e+01 1.516610000000000127e+03
2.600000000000000228e-02 5.904719999999999969e-01 1.008739999999999970e+00 8.428729999999998768e+01 1.516119999999999891e+03
2.700000000000000316e-02 5.901089999999999947e-01 1.781929999999999792e+00 8.275679999999999836e+01 1.515634999999999991e+03
2.800000000000000058e-02 5.897449999999999637e-01 2.571124999999999439e+00 8.123539999999999850e+01 1.515144999999999982e+03
2.900000000000000147e-02 5.893629999999999702e-01 3.322409999999999641e+00 7.968495000000000061e+01 1.514644999999999982e+03
3.000000000000000236e-02 5.889415000000000067e-01 3.970769999999999911e+00 7.804230000000001155e+01 1.514134999999999991e+03
3.099999999999999978e-02 5.884595000000000242e-01 4.453560000000000407e+00 7.623454999999999870e+01 1.513579999999999927e+03
3.200000000000000067e-02 5.879050000000000109e-01 4.723665000000000447e+00 7.419839999999999236e+01 1.512974999999999909e+03
3.300000000000000155e-02 5.872744999999999216e-01 4.759750000000000369e+00 7.189824999999999022e+01 1.512309999999999945e+03
3.400000000000000244e-02 5.865785000000000027e-01 4.570920000000000094e+00 6.933830000000000382e+01 1.511579999999999927e+03
3.500000000000000333e-02 5.858375000000000110e-01 4.194770000000000110e+00 6.656694999999999141e+01 1.510800000000000182e+03
3.600000000000000422e-02 5.850809999999999622e-01 3.690059999999999896e+00 6.367105000000000103e+01 1.509980000000000018e+03
3.700000000000000511e-02 5.843409999999999993e-01 3.126190000000000246e+00 6.076380000000000337e+01 1.509154999999999973e+03
3.799999999999999906e-02 5.836489999999999734e-01 2.572375000000000078e+00 5.796944999999999482e+01 1.508355000000000018e+03
3.899999999999999994e-02 5.830319999999999947e-01 2.089504999999999946e+00 5.540760000000000218e+01 1.507595000000000027e+03
4.000000000000000083e-02 5.825089999999999435e-01 1.724805000000000366e+00 5.318165000000000475e+01 1.506925000000000182e+03
4.100000000000000172e-02 5.820935000000000414e-01 1.510545000000000027e+00 5.137089999999999890e+01 1.506344999999999800e+03
4.200000000000000261e-02 5.817930000000000046e-01 1.465039999999999898e+00 5.002799999999999869e+01 1.505894999999999982e+03
4.300000000000000350e-02 5.816090000000000426e-01 1.595845000000000180e+00 4.917964999999999520e+01 1.505569999999999936e+03
4.400000000000000439e-02 5.815394999999999870e-01 1.903510499999999883e+00 4.883155000000000001e+01 1.505384999999999991e+03
4.499999999999999833e-02 5.815810000000000146e-01 2.385130000000000194e+00 4.897319999999999851e+01 1.505335000000000036e+03
4.599999999999999922e-02 5.817280000000000229e-01 3.036880000000000024e+00 4.958424999999999727e+01 1.505420000000000073e+03
4.700000000000000011e-02 5.819754999999999789e-01 3.855103999999999864e+00 5.063870000000000005e+01 1.505634999999999991e+03
4.800000000000000100e-02 5.823180000000000023e-01 4.836056000000000132e+00 5.210774999999999579e+01 1.505964999999999918e+03
4.900000000000000189e-02 5.827504999999999491e-01 5.974646499999999527e+00 5.396059999999999945e+01 1.506420000000000073e+03
5.000000000000000278e-02 5.832640000000000047e-01 7.262735000000000163e+00 5.616415000000000646e+01 1.506980000000000018e+03
5.100000000000000366e-02 5.838514999999999677e-01 8.687810000000000699e+00 5.868149999999999977e+01 1.507630000000000109e+03
5.200000000000000455e-02 5.845015000000000072e-01 1.023201000000000072e+01 6.147145000000000437e+01 1.508369999999999891e+03
5.300000000000000544e-02 5.852040000000000575e-01 1.187251999999999974e+01 6.448760000000000048e+01 1.509184999999999945e+03
5.399999999999999939e-02 5.859444999999999792e-01 1.358217999999999925e+01 6.767949999999999022e+01 1.510055000000000064e+03
5.500000000000000028e-02 5.867105000000000237e-01 1.533149500000000032e+01 7.099384999999999479e+01 1.510974999999999909e+03
5.600000000000000117e-02 5.874889999999999279e-01 1.709023499999999984e+01 7.437709999999999866e+01 1.511925000000000182e+03
5.700000000000000205e-02 5.882684999999999720e-01 1.882954999999999757e+01 7.777809999999999491e+01 1.512900000000000091e+03
5.800000000000000294e-02 5.890385000000000204e-01 2.052380000000000138e+01 8.115064999999999884e+01 1.513875000000000000e+03
5.900000000000000383e-02 5.897904999999999953e-01 2.215165000000000006e+01 8.445609999999999218e+01 1.514840000000000146e+03
6.000000000000000472e-02 5.905190000000000161e-01 2.369689999999999941e+01 8.766450000000000387e+01 1.515789999999999964e+03
6.099999999999999867e-02 5.912209999999999965e-01 2.514880000000000138e+01 9.075600000000000023e+01 1.516714999999999918e+03
6.199999999999999956e-02 5.918959999999999777e-01 2.650159999999999982e+01 9.371999999999999886e+01 1.517619999999999891e+03
6.300000000000000044e-02 5.925439999999999596e-01 2.775410000000000110e+01 9.655554999999999666e+01 1.518485000000000127e+03
6.400000000000000133e-02 5.931675000000000697e-01 2.890894999999999726e+01 9.926924999999999955e+01 1.519320000000000164e+03
6.500000000000000222e-02 5.937704999999999789e-01 2.997175000000000011e+01 1.018742000000000019e+02 1.520134999999999991e+03
6.600000000000000311e-02 5.943574999999999831e-01 3.094989999999999952e+01 1.043873999999999995e+02 1.520920000000000073e+03
6.700000000000000400e-02 5.949324999999999752e-01 3.185220000000000340e+01 1.068284999999999911e+02 1.521684999999999945e+03
6.800000000000000488e-02 5.954995000000000704e-01 3.268789999999999907e+01 1.092175000000000011e+02 1.522434999999999945e+03
6.900000000000000577e-02 5.960630000000000095e-01 3.346580000000000155e+01 1.115745000000000005e+02 1.523174999999999955e+03
7.000000000000000666e-02 5.966264999999999485e-01 3.419400000000000261e+01 1.139149999999999920e+02 1.523904999999999973e+03
7.100000000000000755e-02 5.971919999999999451e-01 3.487900000000000489e+01 1.162530000000000001e+02 1.524634999999999991e+03
7.200000000000000844e-02 5.977609999999999868e-01 3.552555000000000263e+01 1.185970000000000084e+02 1.525360000000000127e+03
7.300000000000000933e-02 5.983325000000000449e-01 3.613595000000000113e+01 1.209484999999999957e+02 1.526090000000000146e+03
7.399999999999999634e-02 5.989065000000000083e-01 3.671039999999999992e+01 1.233054999999999950e+02 1.526819999999999936e+03
7.499999999999999722e-02 5.994794999999999430e-01 3.724649999999999750e+01 1.256589999999999918e+02 1.527545000000000073e+03
7.599999999999999811e-02 6.000469999999999970e-01 3.774004999999999654e+01 1.279950000000000045e+02 1.528269999999999982e+03
7.699999999999999900e-02 6.006044999999999856e-01 3.818495000000000061e+01 1.302949999999999875e+02 1.528985000000000127e+03
7.799999999999999989e-02 6.011474999999999458e-01 3.857385000000000019e+01 1.325384999999999991e+02 1.529690000000000055e+03
7.900000000000000078e-02 6.016700000000000381e-01 3.889884999999999593e+01 1.347019999999999982e+02 1.530365000000000009e+03
8.000000000000000167e-02 6.021670000000000078e-01 3.915194999999999936e+01 1.367615000000000123e+02 1.531019999999999982e+03
8.100000000000000255e-02 6.026320000000000565e-01 3.932559999999999434e+01 1.386940000000000168e+02 1.531634999999999991e+03
8.200000000000000344e-02 6.030609999999999582e-01 3.941324999999999790e+01 1.404780000000000086e+02 1.532210000000000036e+03
8.300000000000000433e-02 6.034500000000000419e-01 3.940975000000000250e+01 1.420969999999999800e+02 1.532740000000000009e+03
8.400000000000000522e-02 6.037965000000000693e-01 3.931170000000000186e+01 1.435344999999999800e+02 1.533224999999999909e+03
8.500000000000000611e-02 6.040980000000000238e-01 3.911740000000000350e+01 1.447824999999999989e+02 1.533650000000000091e+03
8.600000000000000699e-02 6.043534999999999879e-01 3.882729999999999393e+01 1.458344999999999914e+02 1.534019999999999982e+03
8.700000000000000788e-02 6.045639999999999903e-01 3.844380000000000308e+01 1.466899999999999977e+02 1.534335000000000036e+03
8.800000000000000877e-02 6.047294999999999199e-01 3.797129999999999939e+01 1.473530000000000086e+02 1.534589999999999918e+03
8.899999999999999578e-02 6.048530000000000850e-01 3.741599999999999682e+01 1.478319999999999936e+02 1.534789999999999964e+03
8.999999999999999667e-02 6.049370000000000580e-01 3.678569999999999851e+01 1.481380000000000052e+02 1.534934999999999945e+03
9.099999999999999756e-02 6.049860000000000237e-01 3.608959999999999724e+01 1.482860000000000014e+02 1.535035000000000082e+03
9.199999999999999845e-02 6.050024999999999986e-01 3.533800000000000097e+01 1.482950000000000159e+02 1.535090000000000146e+03
9.299999999999999933e-02 6.049919999999999742e-01 3.454214999999999947e+01 1.481835000000000093e+02 1.535099999999999909e+03
9.400000000000000022e-02 6.049594999999999834e-01 3.371345000000000169e+01 1.479725000000000250e+02 1.535085000000000036e+03
9.500000000000000111e-02 6.049090000000000300e-01 3.286355000000000359e+01 1.476829999999999927e+02 1.535035000000000082e+03
9.600000000000000200e-02 6.048465000000000646e-01 3.200379999999999825e+01 1.473350000000000080e+02 1.534960000000000036e+03
9.700000000000000289e-02 6.047744999999999926e-01 3.114474999999999838e+01 1.469495000000000005e+02 1.534875000000000000e+03
9.800000000000000377e-02 6.046985000000000277e-01 3.029605000000000103e+01 1.465434999999999945e+02 1.534769999999999982e+03
9.900000000000000466e-02 6.046209999999999640e-01 2.946584999999999965e+01 1.461334999999999980e+02 1.534664999999999964e+03
1.000000000000000056e-01 6.045449999999999990e-01 2.866080000000000183e+01 1.457314999999999827e+02 1.534554999999999836e+03
1.010000000000000064e-01 6.044724999999999682e-01 2.788569999999999993e+01 1.453469999999999800e+02 1.534444999999999936e+03
1.020000000000000073e-01 6.044050000000000811e-01 2.714339999999999975e+01 1.449869999999999948e+02 1.534340000000000146e+03
1.030000000000000082e-01 6.043414999999999759e-01 2.643499999999999872e+01 1.446539999999999964e+02 1.534240000000000009e+03
1.040000000000000091e-01 6.042834999999999734e-01 2.575965000000000060e+01 1.443475000000000250e+02 1.534144999999999982e+03
1.050000000000000100e-01 6.042279999999999873e-01 2.511480000000000246e+01 1.440640000000000214e+02 1.534054999999999836e+03
1.059999999999999970e-01 6.041750000000000176e-01 2.449660000000000082e+01 1.437970000000000255e+02 1.533964999999999918e+03
1.069999999999999979e-01 6.041214999999999780e-01 2.389994999999999692e+01 1.435389999999999873e+02 1.533884999999999991e+03
1.079999999999999988e-01 6.040655000000000330e-01 2.331904999999999717e+01 1.432789999999999964e+02 1.533799999999999955e+03
1.089999999999999997e-01 6.040039999999999853e-01 2.274755000000000038e+01 1.430070000000000050e+02 1.533715000000000146e+03
1.100000000000000006e-01 6.039354999999999585e-01 2.217889999999999873e+01 1.427125000000000057e+02 1.533619999999999891e+03
1.110000000000000014e-01 6.038569999999999771e-01 2.160694999999999766e+01 1.423834999999999980e+02 1.533519999999999982e+03
1.120000000000000023e-01 6.037665000000000948e-01 2.102584999999999837e+01 1.420104999999999791e+02 1.533409999999999854e+03
1.130000000000000032e-01 6.036630000000000607e-01 2.043059999999999832e+01 1.415860000000000127e+02 1.533279999999999973e+03
1.140000000000000041e-01 6.035444999999999283e-01 1.981729999999999947e+01 1.411039999999999850e+02 1.533139999999999873e+03
1.150000000000000050e-01 6.034100000000000019e-01 1.918314999999999770e+01 1.405590000000000259e+02 1.532985000000000127e+03
1.160000000000000059e-01 6.032610000000000472e-01 1.852665000000000006e+01 1.399499999999999886e+02 1.532815000000000055e+03
1.170000000000000068e-01 6.030964999999999243e-01 1.784789999999999921e+01 1.392785000000000082e+02 1.532619999999999891e+03
1.180000000000000077e-01 6.029189999999999827e-01 1.714829999999999899e+01 1.385475000000000136e+02 1.532409999999999854e+03
1.190000000000000085e-01 6.027290000000000703e-01 1.643064999999999998e+01 1.377634999999999934e+02 1.532184999999999945e+03
1.200000000000000094e-01 6.025289999999999813e-01 1.569914999999999949e+01 1.369339999999999975e+02 1.531945000000000164e+03
1.209999999999999964e-01 6.023220000000000240e-01 1.495910999999999902e+01 1.360709999999999980e+02 1.531699999999999818e+03
1.219999999999999973e-01 6.021115000000000217e-01 1.421687500000000171e+01 1.351860000000000070e+02 1.531440000000000055e+03
1.229999999999999982e-01 6.018999999999999906e-01 1.347945500000000152e+01 1.342930000000000064e+02 1.531179999999999836e+03
1.239999999999999991e-01 6.016909999999999759e-01 1.275439000000000078e+01 1.334055000000000177e+02 1.530914999999999964e+03
1.250000000000000000e-01 6.014885000000000925e-01 1.204952999999999896e+01 1.325384999999999991e+02 1.530654999999999973e+03
1.260000000000000009e-01 6.012950000000000239e-01 1.137248999999999910e+01 1.317060000000000173e+02 1.530404999999999973e+03
1.270000000000000018e-01 6.011139999999999262e-01 1.073056000000000054e+01 1.309219999999999970e+02 1.530164999999999964e+03
1.280000000000000027e-01 6.009484999999999966e-01 1.013036999999999921e+01 1.301979999999999791e+02 1.529940000000000055e+03
1.290000000000000036e-01 6.008005000000000706e-01 9.577690000000000481e+00 1.295450000000000159e+02 1.529735000000000127e+03
1.300000000000000044e-01 6.006709999999999550e-01 9.077144999999999797e+00 1.289714999999999918e+02 1.529545000000000073e+03
1.310000000000000053e-01 6.005624999999999991e-01 8.632089999999999819e+00 1.284824999999999875e+02 1.529384999999999991e+03
1.320000000000000062e-01 6.004745000000000221e-01 8.244585000000000719e+00 1.280829999999999984e+02 1.529244999999999891e+03
1.330000000000000071e-01 6.004070000000000240e-01 7.915104999999999613e+00 1.277719999999999914e+02 1.529130000000000109e+03
1.340000000000000080e-01 6.003600000000000048e-01 7.642965000000000231e+00 1.275494999999999948e+02 1.529039999999999964e+03
1.350000000000000089e-01 6.003319999999999768e-01 7.425980000000000913e+00 1.274099999999999966e+02 1.528969999999999800e+03
1.360000000000000098e-01 6.003209999999999935e-01 7.260864999999999903e+00 1.273479999999999848e+02 1.528930000000000064e+03
1.370000000000000107e-01 6.003255000000000674e-01 7.143325000000000813e+00 1.273545000000000016e+02 1.528909999999999854e+03
1.380000000000000115e-01 6.003430000000000710e-01 7.068239999999999412e+00 1.274215000000000089e+02 1.528905000000000200e+03
1.390000000000000124e-01 6.003709999999999880e-01 7.029904999999999404e+00 1.275370000000000061e+02 1.528924999999999955e+03
1.400000000000000133e-01 6.004064999999999541e-01 7.022285000000000110e+00 1.276914999999999907e+02 1.528945000000000164e+03
1.410000000000000142e-01 6.004475000000000229e-01 7.039204999999999934e+00 1.278729999999999905e+02 1.528985000000000127e+03
1.420000000000000151e-01 6.004914999999999559e-01 7.074569999999999581e+00 1.280715000000000146e+02 1.529025000000000091e+03
1.430000000000000160e-01 6.005365000000000286e-01 7.122569999999999624e+00 1.282764999999999986e+02 1.529079999999999927e+03
1.440000000000000169e-01 6.005800000000000027e-01 7.177844999999999587e+00 1.284795000000000016e+02 1.529130000000000109e+03
1.450000000000000178e-01 6.006215000000000304e-01 7.235590000000000188e+00 1.286740000000000066e+02 1.529179999999999836e+03
1.459999999999999909e-01 6.006584999999999841e-01 7.291665000000000063e+00 1.288520000000000039e+02 1.529224999999999909e+03
1.469999999999999918e-01 6.006905000000000161e-01 7.342665000000000219e+00 1.290099999999999909e+02 1.529269999999999982e+03
1.479999999999999927e-01 6.007175000000000153e-01 7.385925000000000296e+00 1.291449999999999818e+02 1.529305000000000064e+03
1.489999999999999936e-01 6.007385000000000641e-01 7.419559999999999711e+00 1.292540000000000191e+02 1.529340000000000146e+03
1.499999999999999944e-01 6.007540000000000102e-01 7.442389999999999617e+00 1.293385000000000105e+02 1.529365000000000009e+03
1.509999999999999953e-01 6.007644999999999236e-01 7.453924999999999912e+00 1.293980000000000246e+02 1.529384999999999991e+03
1.519999999999999962e-01 6.007700000000000262e-01 7.454290000000000305e+00 1.294350000000000023e+02 1.529404999999999973e+03
1.529999999999999971e-01 6.007715000000000138e-01 7.444124999999999659e+00 1.294519999999999982e+02 1.529414999999999964e+03
1.539999999999999980e-01 6.007694999999999563e-01 7.424534999999999663e+00 1.294524999999999864e+02 1.529414999999999964e+03
1.549999999999999989e-01 6.007655000000000634e-01 7.396945000000000547e+00 1.294399999999999977e+02 1.529420000000000073e+03
1.559999999999999998e-01 6.007594999999998908e-01 7.363000000000000433e+00 1.294184999999999945e+02 1.529414999999999964e+03
1.570000000000000007e-01 6.007529999999999815e-01 7.324505000000000265e+00 1.293919999999999959e+02 1.529409999999999854e+03
1.580000000000000016e-01 6.007465000000000721e-01 7.283265000000000100e+00 1.293639999999999759e+02 1.529404999999999973e+03
1.590000000000000024e-01 6.007415000000000393e-01 7.241049999999999542e+00 1.293379999999999939e+02 1.529400000000000091e+03
