# t [s], A [cm^2], U [cm/s], P [cPa], c [cm/s]
1.000000000000000021e-03 2.087859999999999994e-01 3.914199999999999902e-01 9.801104999999999734e+01 1.986269999999999982e+03
2.000000000000000042e-03 2.087195000000000022e-01 2.089064999999999728e+00 9.449324999999998909e+01 1.985809999999999945e+03
3.000000000000000062e-03 2.085430000000000061e-01 4.146062999999999832e+00 8.969159999999999400e+01 1.984634999999999991e+03
4.000000000000000083e-03 2.083059999999999912e-01 6.437779499999999544e+00 8.461029999999999518e+01 1.983089999999999918e+03
5.000000000000000104e-03 2.080555000000000043e-01 8.875640000000000640e+00 8.020889999999999986e+01 1.981460000000000036e+03
6.000000000000000125e-03 2.078180000000000027e-01 1.124338499999999996e+01 7.671150000000000091e+01 1.979934999999999945e+03
7.000000000000000146e-03 2.075985000000000191e-01 1.330465500000000034e+01 7.377815000000001078e+01 1.978559999999999945e+03
8.000000000000000167e-03 2.074004999999999876e-01 1.499379000000000062e+01 7.117305000000000348e+01 1.977335000000000036e+03
9.000000000000001055e-03 2.072299999999999975e-01 1.636860000000000070e+01 6.897905000000000086e+01 1.976299999999999955e+03
1.000000000000000194e-02 2.070895000000000097e-01 1.746829999999999927e+01 6.726120000000000232e+01 1.975454999999999927e+03
1.099999999999999936e-02 2.069785000000000097e-01 1.831380000000000052e+01 6.597464999999999691e+01 1.974795000000000073e+03
1.200000000000000025e-02 2.068935000000000080e-01 1.893175000000000097e+01 6.505969999999999231e+01 1.974295000000000073e+03
1.300000000000000114e-02 2.068305000000000005e-01 1.933579999999999899e+01 6.442560000000000286e+01 1.973940000000000055e+03
1.400000000000000203e-02 2.067829999999999946e-01 1.953925000000000267e+01 6.395050000000000523e+01 1.973684999999999945e+03
1.499999999999999944e-02 2.067490000000000161e-01 1.961084999999999923e+01 6.362454999999999927e+01 1.973505000000000109e+03
1.600000000000000033e-02 2.067319999999999991e-01 1.969715000000000060e+01 6.367535000000000167e+01 1.973425000000000182e+03
1.700000000000000122e-02 2.067454999999999987e-01 1.996495000000000175e+01 6.448380000000000223e+01 1.973525000000000091e+03
1.800000000000000211e-02 2.068004999999999982e-01 2.050670000000000215e+01 6.632720000000000482e+01 1.973860000000000127e+03
1.900000000000000300e-02 2.068984999999999852e-01 2.128014999999999901e+01 6.914600000000000080e+01 1.974454999999999927e+03
2.000000000000000042e-02 2.070285000000000042e-01 2.211829999999999785e+01 7.249330000000000496e+01 1.975244999999999891e+03
2.100000000000000130e-02 2.071689999999999920e-01 2.279720000000000013e+01 7.568164999999999054e+01 1.976110000000000127e+03
2.200000000000000219e-02 2.072930000000000050e-01 2.312194999999999823e+01 7.803534999999999400e+01 1.976884999999999991e+03
2.299999999999999961e-02 2.073804999999999954e-01 2.299429999999999907e+01 7.912720000000000198e+01 1.977449999999999818e+03
2.400000000000000050e-02 2.074205000000000076e-01 2.243755000000000166e+01 7.890670000000000073e+01 1.977724999999999909e+03
2.500000000000000139e-02 2.074155000000000026e-01 2.157435000000000258e+01 7.767869999999999209e+01 1.977720000000000027e+03
2.600000000000000228e-02 2.073780000000000068e-01 2.057209999999999894e+01 7.595699999999999363e+01 1.977514999999999873e+03
2.700000000000000316e-02 2.073260000000000103e-01 1.958075000000000188e+01 7.426394999999999413e+01 1.977210000000000036e+03
2.800000000000000058e-02 2.072745000000000004e-01 1.868865000000000265e+01 7.295895000000000152e+01 1.976894999999999982e+03
2.900000000000000147e-02 2.072340000000000015e-01 1.790769999999999840e+01 7.215510000000000446e+01 1.976644999999999982e+03
3.000000000000000236e-02 2.072060000000000013e-01 1.718869999999999720e+01 7.173460000000000036e+01 1.976465000000000146e+03
3.099999999999999978e-02 2.071844999999999937e-01 1.645429999999999993e+01 7.144060000000000343e+01 1.976335000000000036e+03
3.200000000000000067e-02 2.071624999999999994e-01 1.563745000000000118e+01 7.100030000000000996e+01 1.976200000000000045e+03
3.300000000000000155e-02 2.071319999999999828e-01 1.471170000000000044e+01 7.023810000000000286e+01 1.976019999999999982e+03
3.400000000000000244e-02 2.070899999999999963e-01 1.370655000000000001e+01 6.914529999999999177e+01 1.975764999999999873e+03
3.500000000000000333e-02 2.070385000000000142e-01 1.270340000000000025e+01 6.789029999999999632e+01 1.975460000000000036e+03
3.600000000000000422e-02 2.069880000000000053e-01 1.181414999999999971e+01 6.676834999999999809e+01 1.975150000000000091e+03
3.700000000000000511e-02 2.069475000000000064e-01 1.114968500000000162e+01 6.611020000000000607e+01 1.974900000000000091e+03
3.799999999999999906e-02 2.069309999999999761e-01 1.078824999999999967e+01 6.618009999999999593e+01 1.974779999999999973e+03
3.899999999999999994e-02 2.069444999999999757e-01 1.075329999999999941e+01 6.709414999999999907e+01 1.974845000000000027e+03
4.000000000000000083e-02 2.069909999999999806e-01 1.100600000000000023e+01 6.878300000000000125e+01 1.975110000000000127e+03
4.100000000000000172e-02 2.070649999999999991e-01 1.145339999999999847e+01 7.100325000000000841e+01 1.975550000000000182e+03
4.200000000000000261e-02 2.071574999999999944e-01 1.196705000000000041e+01 7.339045000000000130e+01 1.976099999999999909e+03
4.300000000000000350e-02 2.072519999999999918e-01 1.240729999999999933e+01 7.553374999999999773e+01 1.976675000000000182e+03
4.400000000000000439e-02 2.073335000000000039e-01 1.264649999999999963e+01 7.705270000000000152e+01 1.977170000000000073e+03
4.499999999999999833e-02 2.073880000000000168e-01 1.258670000000000044e+01 7.765850000000000364e+01 1.977514999999999873e+03
4.599999999999999922e-02 2.074050000000000060e-01 1.216965000000000074e+01 7.719050000000000011e+01 1.977630000000000109e+03
4.700000000000000011e-02 2.073770000000000058e-01 1.137847499999999989e+01 7.562364999999999782e+01 1.977474999999999909e+03
4.800000000000000100e-02 2.073045000000000027e-01 1.023320999999999970e+01 7.305190000000000339e+01 1.977045000000000073e+03
4.900000000000000189e-02 2.071899999999999853e-01 8.781544999999999490e+00 6.965540000000000020e+01 1.976365000000000009e+03
5.000000000000000278e-02 2.070404999999999884e-01 7.088404999999999845e+00 6.566114999999999213e+01 1.975460000000000036e+03
5.100000000000000366e-02 2.068645000000000067e-01 5.226923999999999459e+00 6.130774999999999864e+01 1.974394999999999982e+03
5.200000000000000455e-02 2.066719999999999946e-01 3.271274999999999711e+00 5.681874999999999432e+01 1.973224999999999909e+03
5.300000000000000544e-02 2.064710000000000156e-01 1.293055000000000287e+00 5.238884999999999792e+01 1.972000000000000000e+03
5.399999999999999939e-02 2.062700000000000089e-01 -6.401100000000001788e-01 4.818090000000000117e+01 1.970769999999999982e+03
5.500000000000000028e-02 2.060770000000000102e-01 -2.464364999999999917e+00 4.433020000000000493e+01 1.969585000000000036e+03
5.600000000000000117e-02 2.058984999999999843e-01 -4.118936999999999848e+00 4.095230000000000103e+01 1.968490000000000009e+03
5.700000000000000205e-02 2.057390000000000052e-01 -5.545894999999999797e+00 3.815014999999999645e+01 1.967505000000000109e+03
5.800000000000000294e-02 2.056060000000000110e-01 -6.690929999999999822e+00 3.601769999999999783e+01 1.966679999999999836e+03
5.900000000000000383e-02 2.055019999999999902e-01 -7.505209999999999937e+00 3.463965000000000316e+01 1.966030000000000200e+03
6.000000000000000472e-02 2.054330000000000045e-01 -7.948140000000000427e+00 3.408675000000000210e+01 1.965585000000000036e+03
6.099999999999999867e-02 2.054015000000000146e-01 -7.990459999999999674e+00 3.440899999999999892e+01 1.965369999999999891e+03
6.199999999999999956e-02 2.054100000000000092e-01 -7.617045000000000066e+00 3.562774999999999892e+01 1.965394999999999982e+03
6.300000000000000044e-02 2.054595000000000171e-01 -6.828739999999999810e+00 3.773024999999999807e+01 1.965670000000000073e+03
6.400000000000000133e-02 2.055500000000000105e-01 -5.642965000000000231e+00 4.066689999999999827e+01 1.966190000000000055e+03
6.500000000000000222e-02 2.056775000000000131e-01 -4.092786000000000257e+00 4.435269999999999868e+01 1.966949999999999818e+03
6.600000000000000311e-02 2.058404999999999818e-01 -2.224744999999999973e+00 4.867274999999999352e+01 1.967914999999999964e+03
6.700000000000000400e-02 2.060325000000000073e-01 -9.574499999999996902e-02 5.349014999999999986e+01 1.969065000000000055e+03
6.800000000000000488e-02 2.062490000000000157e-01 2.230535000000000156e+00 5.865604999999999336e+01 1.970369999999999891e+03
6.900000000000000577e-02 2.064825000000000133e-01 4.687238000000000682e+00 6.401930000000000121e+01 1.971789999999999964e+03
7.000000000000000666e-02 2.067265000000000075e-01 7.207650000000000112e+00 6.943514999999999304e+01 1.973275000000000091e+03
7.100000000000000755e-02 2.069749999999999923e-01 9.728040000000000020e+00 7.477215000000001055e+01 1.974795000000000073e+03
7.200000000000000844e-02 2.072225000000000039e-01 1.219011000000000067e+01 7.991740000000000066e+01 1.976319999999999936e+03
7.300000000000000933e-02 2.074630000000000085e-01 1.454299999999999926e+01 8.478014999999999191e+01 1.977804999999999836e+03
7.399999999999999634e-02 2.076930000000000165e-01 1.674484999999999957e+01 8.929364999999999952e+01 1.979224999999999909e+03
7.499999999999999722e-02 2.079094999999999971e-01 1.876415000000000077e+01 9.341730000000001155e+01 1.980575000000000045e+03
7.599999999999999811e-02 2.081100000000000172e-01 2.058044999999999902e+01 9.713544999999999163e+01 1.981824999999999818e+03
7.699999999999999900e-02 2.082930000000000059e-01 2.218484999999999729e+01 1.004583000000000084e+02 1.982974999999999909e+03
7.799999999999999989e-02 2.084599999999999786e-01 2.357970000000000255e+01 1.034201999999999941e+02 1.984025000000000091e+03
7.900000000000000078e-02 2.086120000000000196e-01 2.477725000000000222e+01 1.060729999999999933e+02 1.984985000000000127e+03
8.000000000000000167e-02 2.087499999999999911e-01 2.579864999999999853e+01 1.084865000000000066e+02 1.985859999999999900e+03
8.100000000000000255e-02 2.088774999999999937e-01 2.667130000000000223e+01 1.107375000000000114e+02 1.986675000000000182e+03
8.200000000000000344e-02 2.089984999999999760e-01 2.742644999999999911e+01 1.129074999999999989e+02 1.987440000000000055e+03
8.300000000000000433e-02 2.091155000000000097e-01 2.809675000000000011e+01 1.150745000000000005e+02 1.988184999999999945e+03
8.400000000000000522e-02 2.092320000000000013e-01 2.871324999999999861e+01 1.173064999999999998e+02 1.988920000000000073e+03
8.500000000000000611e-02 2.093510000000000093e-01 2.930355000000000132e+01 1.196580000000000013e+02 1.989674999999999955e+03
8.600000000000000699e-02 2.094739999999999935e-01 2.988964999999999961e+01 1.221640000000000015e+02 1.990450000000000045e+03
8.700000000000000788e-02 2.096034999999999981e-01 3.048649999999999949e+01 1.248414999999999964e+02 1.991264999999999873e+03
8.800000000000000877e-02 2.097400000000000098e-01 3.110164999999999935e+01 1.276845000000000141e+02 1.992125000000000000e+03
8.899999999999999578e-02 2.098824999999999996e-01 3.173499999999999943e+01 1.306705000000000041e+02 1.993019999999999982e+03
8.999999999999999667e-02 2.100310000000000232e-01 3.237915000000000276e+01 1.337584999999999980e+02 1.993950000000000045e+03
9.099999999999999756e-02 2.101830000000000087e-01 3.302055000000000007e+01 1.368935000000000173e+02 1.994904999999999973e+03
9.199999999999999845e-02 2.103369999999999962e-01 3.364065000000000083e+01 1.400124999999999886e+02 1.995865000000000009e+03
9.299999999999999933e-02 2.104889999999999817e-01 3.421744999999999948e+01 1.430475000000000136e+02 1.996824999999999818e+03
9.400000000000000022e-02 2.106375000000000053e-01 3.472724999999999795e+01 1.459300000000000068e+02 1.997759999999999991e+03
9.500000000000000111e-02 2.107785000000000075e-01 3.514594999999999914e+01 1.485945000000000107e+02 1.998644999999999982e+03
9.600000000000000200e-02 2.109094999999999998e-01 3.545094999999999885e+01 1.509814999999999827e+02 1.999480000000000018e+03
9.700000000000000289e-02 2.110279999999999934e-01 3.562220000000000653e+01 1.530439999999999827e+02 2.000230000000000018e+03
9.800000000000000377e-02 2.111314999999999997e-01 3.564329999999999643e+01 1.547439999999999998e+02 2.000884999999999991e+03
9.900000000000000466e-02 2.112180000000000168e-01 3.550265000000000271e+01 1.560575000000000045e+02 2.001445000000000164e+03
1.000000000000000056e-01 2.112875000000000170e-01 3.519364999999999810e+01 1.569739999999999895e+02 2.001894999999999982e+03
1.010000000000000064e-01 2.113389999999999991e-01 3.471545000000000414e+01 1.574959999999999809e+02 2.002224999999999909e+03
1.020000000000000073e-01 2.113720000000000043e-01 3.407235000000000014e+01 1.576390000000000100e+02 2.002445000000000164e+03
1.030000000000000082e-01 2.113875000000000060e-01 3.327429999999999666e+01 1.574304999999999950e+02 2.002559999999999945e+03
1.040000000000000091e-01 2.113860000000000183e-01 3.233574999999999733e+01 1.569069999999999823e+02 2.002565000000000055e+03
1.050000000000000100e-01 2.113705000000000167e-01 3.127535000000000309e+01 1.561120000000000232e+02 2.002480000000000018e+03
1.059999999999999970e-01 2.113410000000000011e-01 3.011495000000000033e+01 1.550964999999999918e+02 2.002305000000000064e+03
1.069999999999999979e-01 2.113014999999999755e-01 2.887854999999999706e+01 1.539130000000000109e+02 2.002065000000000055e+03
1.079999999999999988e-01 2.112534999999999830e-01 2.759154999999999802e+01 1.526165000000000020e+02 2.001769999999999982e+03
1.089999999999999997e-01 2.111989999999999978e-01 2.627939999999999898e+01 1.512590000000000146e+02 2.001434999999999945e+03
1.100000000000000006e-01 2.111409999999999954e-01 2.496699999999999875e+01 1.498904999999999745e+02 2.001074999999999818e+03
1.110000000000000014e-01 2.110819999999999919e-01 2.367735000000000056e+01 1.485550000000000068e+02 2.000704999999999927e+03
1.120000000000000023e-01 2.110230000000000161e-01 2.243110000000000070e+01 1.472914999999999850e+02 2.000335000000000036e+03
1.130000000000000032e-01 2.109665000000000012e-01 2.124579999999999913e+01 1.461304999999999836e+02 1.999980000000000018e+03
1.140000000000000041e-01 2.109135000000000038e-01 2.013535000000000252e+01 1.450939999999999941e+02 1.999644999999999982e+03
1.150000000000000050e-01 2.108654999999999835e-01 1.910944999999999894e+01 1.441949999999999932e+02 1.999340000000000146e+03
1.160000000000000059e-01 2.108230000000000104e-01 1.817364999999999853e+01 1.434385000000000048e+02 1.999070000000000164e+03
1.170000000000000068e-01 2.107864999999999878e-01 1.732925000000000182e+01 1.428195000000000050e+02 1.998829999999999927e+03
1.180000000000000077e-01 2.107554999999999845e-01 1.657329999999999970e+01 1.423249999999999886e+02 1.998630000000000109e+03
1.190000000000000085e-01 2.107295000000000140e-01 1.589924999999999855e+01 1.419350000000000023e+02 1.998460000000000036e+03
1.200000000000000094e-01 2.107080000000000064e-01 1.529705000000000048e+01 1.416225000000000023e+02 1.998315000000000055e+03
1.209999999999999964e-01 2.106899999999999884e-01 1.475415000000000099e+01 1.413569999999999993e+02 1.998194999999999936e+03
1.219999999999999973e-01 2.106740000000000002e-01 1.425600000000000023e+01 1.411045000000000016e+02 1.998085000000000036e+03
1.229999999999999982e-01 2.106574999999999975e-01 1.378700000000000081e+01 1.408304999999999723e+02 1.997974999999999909e+03
1.239999999999999991e-01 2.106409999999999949e-01 1.333109999999999928e+01 1.404995000000000118e+02 1.997869999999999891e+03
1.250000000000000000e-01 2.106219999999999759e-01 1.287294999999999945e+01 1.400815000000000055e+02 1.997744999999999891e+03
1.260000000000000009e-01 2.105984999999999940e-01 1.239855000000000018e+01 1.395480000000000018e+02 1.997599999999999909e+03
1.270000000000000018e-01 2.105704999999999938e-01 1.189590000000000103e+01 1.388789999999999907e+02 1.997420000000000073e+03
1.280000000000000027e-01 2.105360000000000009e-01 1.135594000000000037e+01 1.380589999999999975e+02 1.997204999999999927e+03
1.290000000000000036e-01 2.104955000000000020e-01 1.077262999999999948e+01 1.370815000000000055e+02 1.996945000000000164e+03
1.300000000000000044e-01 2.104475000000000096e-01 1.014350500000000110e+01 1.359495000000000005e+02 1.996650000000000091e+03
1.310000000000000053e-01 2.103929999999999967e-01 9.469735000000000014e+00 1.346725000000000136e+02 1.996305000000000064e+03
1.320000000000000062e-01 2.103320000000000189e-01 8.756059999999999732e+00 1.332685000000000173e+02 1.995924999999999955e+03
1.330000000000000071e-01 2.102650000000000075e-01 8.010505000000000209e+00 1.317624999999999886e+02 1.995509999999999991e+03
1.340000000000000080e-01 2.101939999999999920e-01 7.244004999999999583e+00 1.301860000000000070e+02 1.995065000000000055e+03
1.350000000000000089e-01 2.101194999999999868e-01 6.469719999999999693e+00 1.285734999999999957e+02 1.994599999999999909e+03
1.360000000000000098e-01 2.100430000000000075e-01 5.702384999999999593e+00 1.269619999999999891e+02 1.994125000000000000e+03
1.370000000000000107e-01 2.099665000000000004e-01 4.957559999999999967e+00 1.253894999999999982e+02 1.993644999999999982e+03
1.380000000000000115e-01 2.098919999999999952e-01 4.250810000000000421e+00 1.238930000000000007e+02 1.993180000000000064e+03
1.390000000000000124e-01 2.098205000000000209e-01 3.596940000000000026e+00 1.225054999999999978e+02 1.992730000000000018e+03
1.400000000000000133e-01 2.097534999999999816e-01 3.009310000000000151e+00 1.212570000000000050e+02 1.992309999999999945e+03
1.410000000000000142e-01 2.096929999999999905e-01 2.499194999999999833e+00 1.201700000000000017e+02 1.991929999999999836e+03
1.420000000000000151e-01 2.096394999999999786e-01 2.075295500000000182e+00 1.192609999999999957e+02 1.991585000000000036e+03
1.430000000000000160e-01 2.095940000000000025e-01 1.743414500000000089e+00 1.185409999999999968e+02 1.991299999999999955e+03
1.440000000000000169e-01 2.095569999999999933e-01 1.506241500000000233e+00 1.180109999999999957e+02 1.991059999999999945e+03
1.450000000000000178e-01 2.095285000000000064e-01 1.363336000000000103e+00 1.176670000000000016e+02 1.990869999999999891e+03
1.459999999999999909e-01 2.095084999999999864e-01 1.311216500000000007e+00 1.174975000000000023e+02 1.990740000000000009e+03
1.469999999999999918e-01 2.094960000000000155e-01 1.343630000000000102e+00 1.174860000000000042e+02 1.990659999999999854e+03
1.479999999999999927e-01 2.094914999999999972e-01 1.451864999999999961e+00 1.176105000000000018e+02 1.990614999999999782e+03
1.489999999999999936e-01 2.094929999999999848e-01 1.625245000000000051e+00 1.178454999999999870e+02 1.990619999999999891e+03
1.499999999999999944e-01 2.094995000000000052e-01 1.851589999999999847e+00 1.181645000000000039e+02 1.990654999999999973e+03
1.509999999999999953e-01 2.095100000000000018e-01 2.117779999999999774e+00 1.185380000000000109e+02 1.990720000000000027e+03
1.519999999999999962e-01 2.095239999999999880e-01 2.410255000000000258e+00 1.189385000000000048e+02 1.990799999999999955e+03
1.529999999999999971e-01 2.095390000000000030e-01 2.715559999999999974e+00 1.193379999999999939e+02 1.990889999999999873e+03
1.539999999999999980e-01 2.095549999999999913e-01 3.020814999999999806e+00 1.197125000000000057e+02 1.990985000000000127e+03
1.549999999999999989e-01 2.095699999999999785e-01 3.314095000000000013e+00 1.200399999999999920e+02 1.991075000000000045e+03
1.559999999999999998e-01 2.095830000000000193e-01 3.584859999999999935e+00 1.203004999999999995e+02 1.991154999999999973e+03
1.570000000000000007e-01 2.095934999999999881e-01 3.824139999999999873e+00 1.204814999999999969e+02 1.991224999999999909e+03
1.580000000000000016e-01 2.096009999999999818e-01 4.024809999999999555e+00 1.205720000000000027e+02 1.991269999999999982e+03
1.590000000000000024e-01 2.096044999999999991e-01 4.181675000000000253e+00 1.205655000000000001e+02 1.991295000000000073e+03
