# t [s], A [cm^2], U [cm/s], P [cPa], c [cm/s]
1.000000000000000021e-03 7.695285000000000597e-01 5.557849999999996127e-03 9.624394999999999811e+01 1.603340000000000146e+03
2.000000000000000042e-03 7.695134999999999614e-01 -5.192809999999999961e-03 9.621410000000000196e+01 1.603329999999999927e+03
3.000000000000000062e-03 7.695700000000000873e-01 7.515304999999999902e-02 9.629740000000001032e+01 1.603349999999999909e+03
4.000000000000000083e-03 7.696344999999999992e-01 1.787637499999999990e-01 9.642279999999999518e+01 1.603385000000000218e+03
5.000000000000000104e-03 7.696149999999999380e-01 1.753814999999999957e-01 9.639570000000000505e+01 1.603375000000000000e+03
6.000000000000000125e-03 7.695320000000001048e-01 7.916349999999999776e-02 9.619200000000000728e+01 1.603329999999999927e+03
7.000000000000000146e-03 7.694615000000000204e-01 -4.734000000000015973e-03 9.593909999999999627e+01 1.603269999999999982e+03
8.000000000000000167e-03 7.693710000000000271e-01 -1.305129999999999901e-01 9.559739999999999327e+01 1.603190000000000055e+03
9.000000000000001055e-03 7.692114999999999370e-01 -3.719050000000000411e-01 9.506645000000000323e+01 1.603065000000000055e+03
1.000000000000000194e-02 7.689840000000000009e-01 -7.292849999999999611e-01 9.431194999999999595e+01 1.602889999999999873e+03
1.099999999999999936e-02 7.686739999999999684e-01 -1.214990000000000236e+00 9.328520000000000323e+01 1.602650000000000091e+03
1.200000000000000025e-02 7.682554999999999801e-01 -1.851539999999999964e+00 9.191795000000000471e+01 1.602329999999999927e+03
1.300000000000000114e-02 7.677460000000000395e-01 -2.596225000000000005e+00 9.021819999999999595e+01 1.601920000000000073e+03
1.400000000000000203e-02 7.672145000000000215e-01 -3.319479999999999986e+00 8.832259999999999422e+01 1.601445000000000164e+03
1.499999999999999944e-02 7.667445000000000510e-01 -3.865407000000000259e+00 8.644034999999999513e+01 1.600960000000000036e+03
1.600000000000000033e-02 7.663854999999999418e-01 -4.127469500000000124e+00 8.475159999999999627e+01 1.600500000000000000e+03
1.700000000000000122e-02 7.661340000000000927e-01 -4.083566000000000251e+00 8.333820000000000050e+01 1.600090000000000146e+03
1.800000000000000211e-02 7.659484999999999211e-01 -3.786484999999999879e+00 8.217240000000001032e+01 1.599730000000000018e+03
1.900000000000000300e-02 7.657700000000000617e-01 -3.330114000000000019e+00 8.114719999999999800e+01 1.599400000000000091e+03
2.000000000000000042e-02 7.655450000000000310e-01 -2.810423999999999811e+00 8.012745000000001028e+01 1.599069999999999936e+03
2.100000000000000130e-02 7.652449999999999530e-01 -2.293761500000000009e+00 7.900104999999999222e+01 1.598720000000000027e+03
2.200000000000000219e-02 7.648705000000000087e-01 -1.800695000000000157e+00 7.771465000000000600e+01 1.598329999999999927e+03
2.299999999999999961e-02 7.644465000000000288e-01 -1.309639999999999693e+00 7.628329999999999700e+01 1.597909999999999854e+03
2.400000000000000050e-02 7.640095000000000081e-01 -7.770550000000002733e-01 7.477224999999999966e+01 1.597469999999999800e+03
2.500000000000000139e-02 7.635910000000000197e-01 -1.641550000000000509e-01 7.326215000000000543e+01 1.597025000000000091e+03
2.600000000000000228e-02 7.632039999999999935e-01 5.411549999999998306e-01 7.181295000000000073e+01 1.596589999999999918e+03
2.700000000000000316e-02 7.628429999999999378e-01 1.313935000000000075e+00 7.043919999999999959e+01 1.596170000000000073e+03
2.800000000000000058e-02 7.624794999999999767e-01 2.094265000000000043e+00 6.910229999999999961e+01 1.595759999999999991e+03
2.900000000000000147e-02 7.620780000000000332e-01 2.799195000000000100e+00 6.771845000000000425e+01 1.595340000000000146e+03
3.000000000000000236e-02 7.615979999999999972e-01 3.340835000000000221e+00 6.617974999999999852e+01 1.594884999999999991e+03
3.099999999999999978e-02 7.610105000000000341e-01 3.646400000000000308e+00 6.438280000000000314e+01 1.594384999999999991e+03
3.200000000000000067e-02 7.603054999999999675e-01 3.675679999999999836e+00 6.225790000000000646e+01 1.593805000000000064e+03
3.300000000000000155e-02 7.594929999999999737e-01 3.430610000000000159e+00 5.979115000000000180e+01 1.593150000000000091e+03
3.400000000000000244e-02 7.586045000000000149e-01 2.954400000000000581e+00 5.703255000000000052e+01 1.592420000000000073e+03
3.500000000000000333e-02 7.576869999999999994e-01 2.320500000000000007e+00 5.408785000000000309e+01 1.591644999999999982e+03
3.600000000000000422e-02 7.567895000000000039e-01 1.616079999999999739e+00 5.109879999999999711e+01 1.590849999999999909e+03
3.700000000000000511e-02 7.559595000000000065e-01 9.257249999999999091e-01 4.821860000000000213e+01 1.590065000000000055e+03
3.799999999999999906e-02 7.552319999999999034e-01 3.193599999999996442e-01 4.558924999999999983e+01 1.589335000000000036e+03
3.899999999999999994e-02 7.546314999999998996e-01 -1.536599999999999078e-01 4.332580000000000098e+01 1.588695000000000164e+03
4.000000000000000083e-02 7.541694999999999371e-01 -4.654850000000001486e-01 4.150759999999999650e+01 1.588150000000000091e+03
4.100000000000000172e-02 7.538469999999999338e-01 -6.062349999999998573e-01 4.017770000000000152e+01 1.587730000000000018e+03
4.200000000000000261e-02 7.536599999999999966e-01 -5.783300000000000107e-01 3.934725000000000250e+01 1.587440000000000055e+03
4.300000000000000350e-02 7.536000000000000476e-01 -3.899885000000000157e-01 3.900395000000000323e+01 1.587279999999999973e+03
4.400000000000000439e-02 7.536579999999999391e-01 -4.967299999999999494e-02 3.912229999999999563e+01 1.587240000000000009e+03
4.499999999999999833e-02 7.538264999999999549e-01 4.375599999999999490e-01 3.967204999999999870e+01 1.587319999999999936e+03
4.599999999999999922e-02 7.541005000000000624e-01 1.071074999999999999e+00 4.062420000000000186e+01 1.587515000000000100e+03
4.700000000000000011e-02 7.544764999999999944e-01 1.853205000000000213e+00 4.195349999999999824e+01 1.587819999999999936e+03
4.800000000000000100e-02 7.549505000000000798e-01 2.786179999999999879e+00 4.363719999999999999e+01 1.588219999999999800e+03
4.900000000000000189e-02 7.555164999999999242e-01 3.868599999999999817e+00 4.565165000000000362e+01 1.588720000000000027e+03
5.000000000000000278e-02 7.561679999999999513e-01 5.092609999999999637e+00 4.796875000000000000e+01 1.589299999999999955e+03
5.100000000000000366e-02 7.568920000000000092e-01 6.442382499999999901e+00 5.055315000000000225e+01 1.589960000000000036e+03
5.200000000000000455e-02 7.576745000000000285e-01 7.894423500000000260e+00 5.336054999999999637e+01 1.590690000000000055e+03
5.300000000000000544e-02 7.584990000000000343e-01 9.419174999999999187e+00 5.633910000000000196e+01 1.591474999999999909e+03
5.399999999999999939e-02 7.593464999999999243e-01 1.098336000000000112e+01 5.943139999999999645e+01 1.592295000000000073e+03
5.500000000000000028e-02 7.602014999999999745e-01 1.255329000000000050e+01 6.257885000000000275e+01 1.593139999999999873e+03
5.600000000000000117e-02 7.610479999999999468e-01 1.409742999999999924e+01 6.572520000000000095e+01 1.593994999999999891e+03
5.700000000000000205e-02 7.618734999999999813e-01 1.558882000000000012e+01 6.882089999999999463e+01 1.594849999999999909e+03
5.800000000000000294e-02 7.626690000000000413e-01 1.700639999999999930e+01 7.182595000000000596e+01 1.595690000000000055e+03
5.900000000000000383e-02 7.634290000000000243e-01 1.833579999999999899e+01 7.471174999999999500e+01 1.596505000000000109e+03
6.000000000000000472e-02 7.641519999999999424e-01 1.956889999999999930e+01 7.746174999999999500e+01 1.597295000000000073e+03
6.099999999999999867e-02 7.648384999999999767e-01 2.070335000000000036e+01 8.007070000000000221e+01 1.598049999999999955e+03
6.199999999999999956e-02 7.654924999999999091e-01 2.174139999999999873e+01 8.254330000000000211e+01 1.598769999999999982e+03
6.300000000000000044e-02 7.661175000000000068e-01 2.268869999999999720e+01 8.489234999999999332e+01 1.599460000000000036e+03
6.400000000000000133e-02 7.667205000000000270e-01 2.355339999999999989e+01 8.713630000000000564e+01 1.600119999999999891e+03
6.500000000000000222e-02 7.673075000000000312e-01 2.434510000000000218e+01 8.929710000000000036e+01 1.600759999999999991e+03
6.600000000000000311e-02 7.678840000000000110e-01 2.507379999999999853e+01 9.139815000000000111e+01 1.601380000000000109e+03
6.700000000000000400e-02 7.684569999999999457e-01 2.574954999999999927e+01 9.346219999999999573e+01 1.601990000000000009e+03
6.800000000000000488e-02 7.690295000000000325e-01 2.638134999999999764e+01 9.550950000000000273e+01 1.602590000000000146e+03
6.900000000000000577e-02 7.696060000000000123e-01 2.697650000000000148e+01 9.755639999999999645e+01 1.603190000000000055e+03
7.000000000000000666e-02 7.701884999999999426e-01 2.754025000000000034e+01 9.961324999999999363e+01 1.603789999999999964e+03
7.100000000000000755e-02 7.707770000000000454e-01 2.807529999999999859e+01 1.016851499999999930e+02 1.604394999999999982e+03
7.200000000000000844e-02 7.713685000000000125e-01 2.858145000000000024e+01 1.037690000000000055e+02 1.605000000000000000e+03
7.300000000000000933e-02 7.719610000000000083e-01 2.905590000000000117e+01 1.058569999999999993e+02 1.605599999999999909e+03
7.399999999999999634e-02 7.725484999999999713e-01 2.949365000000000236e+01 1.079329999999999927e+02 1.606210000000000036e+03
7.499999999999999722e-02 7.731240000000000334e-01 2.988779999999999859e+01 1.099784999999999968e+02 1.606799999999999955e+03
7.599999999999999811e-02 7.736830000000000096e-01 3.023055000000000092e+01 1.119705000000000013e+02 1.607384999999999991e+03
7.699999999999999900e-02 7.742175000000000029e-01 3.051355000000000217e+01 1.138840000000000003e+02 1.607945000000000164e+03
7.799999999999999989e-02 7.747204999999999231e-01 3.072905000000000086e+01 1.156954999999999956e+02 1.608480000000000018e+03
7.900000000000000078e-02 7.751865000000000006e-01 3.086995000000000289e+01 1.173824999999999932e+02 1.608985000000000127e+03
8.000000000000000167e-02 7.756110000000000504e-01 3.093074999999999974e+01 1.189234999999999900e+02 1.609454999999999927e+03
8.100000000000000255e-02 7.759899999999999576e-01 3.090755000000000052e+01 1.203040000000000020e+02 1.609880000000000109e+03
8.200000000000000344e-02 7.763204999999999689e-01 3.079820000000000135e+01 1.215125000000000028e+02 1.610255000000000109e+03
8.300000000000000433e-02 7.766020000000000145e-01 3.060259999999999891e+01 1.225399999999999920e+02 1.610585000000000036e+03
8.400000000000000522e-02 7.768334999999999546e-01 3.032244999999999635e+01 1.233859999999999957e+02 1.610865000000000009e+03
8.500000000000000611e-02 7.770170000000000687e-01 2.996140000000000114e+01 1.240525000000000091e+02 1.611095000000000027e+03
8.600000000000000699e-02 7.771544999999999703e-01 2.952494999999999692e+01 1.245449999999999875e+02 1.611275000000000091e+03
8.700000000000000788e-02 7.772485000000000088e-01 2.901995000000000147e+01 1.248750000000000000e+02 1.611405000000000200e+03
8.800000000000000877e-02 7.773039999999999949e-01 2.845499999999999829e+01 1.250559999999999974e+02 1.611494999999999891e+03
8.899999999999999578e-02 7.773250000000000437e-01 2.783960000000000079e+01 1.251055000000000064e+02 1.611539999999999964e+03
8.999999999999999667e-02 7.773164999999999658e-01 2.718440000000000012e+01 1.250415000000000134e+02 1.611554999999999836e+03
9.099999999999999756e-02 7.772854999999999626e-01 2.650039999999999907e+01 1.248845000000000027e+02 1.611539999999999964e+03
9.199999999999999845e-02 7.772364999999999968e-01 2.579879999999999995e+01 1.246550000000000011e+02 1.611500000000000000e+03
9.299999999999999933e-02 7.771749999999999492e-01 2.509060000000000201e+01 1.243750000000000000e+02 1.611444999999999936e+03
9.400000000000000022e-02 7.771065000000000333e-01 2.438620000000000232e+01 1.240625000000000000e+02 1.611369999999999891e+03
9.500000000000000111e-02 7.770360000000000600e-01 2.369474999999999909e+01 1.237364999999999924e+02 1.611295000000000073e+03
9.600000000000000200e-02 7.769660000000000455e-01 2.302404999999999902e+01 1.234124999999999943e+02 1.611210000000000036e+03
9.700000000000000289e-02 7.769004999999999939e-01 2.238009999999999877e+01 1.231034999999999968e+02 1.611125000000000000e+03
9.800000000000000377e-02 7.768420000000000325e-01 2.176699999999999946e+01 1.228185000000000002e+02 1.611049999999999955e+03
9.900000000000000466e-02 7.767895000000000216e-01 2.118684999999999974e+01 1.225619999999999976e+02 1.610980000000000018e+03
1.000000000000000056e-01 7.767450000000000188e-01 2.063954999999999984e+01 1.223375000000000057e+02 1.610909999999999854e+03
1.010000000000000064e-01 7.767055000000000486e-01 2.012344999999999828e+01 1.221419999999999959e+02 1.610849999999999909e+03
1.020000000000000073e-01 7.766714999999999591e-01 1.963499999999999801e+01 1.219710000000000036e+02 1.610789999999999964e+03
1.030000000000000082e-01 7.766389999999999683e-01 1.916935000000000144e+01 1.218174999999999955e+02 1.610744999999999891e+03
1.040000000000000091e-01 7.766060000000000185e-01 1.872070000000000078e+01 1.216719999999999970e+02 1.610695000000000164e+03
1.050000000000000100e-01 7.765690000000000648e-01 1.828255000000000052e+01 1.215229999999999961e+02 1.610650000000000091e+03
1.059999999999999970e-01 7.765250000000000208e-01 1.784795000000000087e+01 1.213599999999999994e+02 1.610595000000000027e+03
1.069999999999999979e-01 7.764710000000000223e-01 1.741019999999999968e+01 1.211700000000000017e+02 1.610539999999999964e+03
1.079999999999999988e-01 7.764044999999999419e-01 1.696274999999999977e+01 1.209424999999999955e+02 1.610474999999999909e+03
1.089999999999999997e-01 7.763229999999999853e-01 1.650000000000000000e+01 1.206680000000000064e+02 1.610400000000000091e+03
1.100000000000000006e-01 7.762245000000000950e-01 1.601709999999999923e+01 1.203389999999999986e+02 1.610309999999999945e+03
1.110000000000000014e-01 7.761080000000000201e-01 1.551069999999999993e+01 1.199484999999999957e+02 1.610200000000000045e+03
1.120000000000000023e-01 7.759730000000000238e-01 1.497864999999999824e+01 1.194954999999999927e+02 1.610085000000000036e+03
1.130000000000000032e-01 7.758205000000000240e-01 1.442055000000000042e+01 1.189784999999999968e+02 1.609940000000000055e+03
1.140000000000000041e-01 7.756520000000000081e-01 1.383770499999999970e+01 1.184004999999999939e+02 1.609789999999999964e+03
1.150000000000000050e-01 7.754685000000000050e-01 1.323290000000000077e+01 1.177680000000000007e+02 1.609615000000000009e+03
1.160000000000000059e-01 7.752740000000000187e-01 1.261063000000000045e+01 1.170904999999999916e+02 1.609434999999999945e+03
1.170000000000000068e-01 7.750719999999999832e-01 1.197663000000000011e+01 1.163780000000000001e+02 1.609244999999999891e+03
1.180000000000000077e-01 7.748660000000000547e-01 1.133792000000000044e+01 1.156450000000000102e+02 1.609039999999999964e+03
1.190000000000000085e-01 7.746604999999999741e-01 1.070228000000000002e+01 1.149054999999999893e+02 1.608835000000000036e+03
1.200000000000000094e-01 7.744604999999999961e-01 1.007805499999999910e+01 1.141769999999999925e+02 1.608635000000000218e+03
1.209999999999999964e-01 7.742700000000000138e-01 9.473610000000000753e+00 1.134739999999999895e+02 1.608440000000000055e+03
1.219999999999999973e-01 7.740929999999999200e-01 8.897165000000001100e+00 1.128135000000000048e+02 1.608244999999999891e+03
1.229999999999999982e-01 7.739344999999999697e-01 8.356439999999999202e+00 1.122085000000000008e+02 1.608075000000000045e+03
1.239999999999999991e-01 7.737960000000000393e-01 7.858100000000000307e+00 1.116735000000000042e+02 1.607914999999999964e+03
1.250000000000000000e-01 7.736810000000000631e-01 7.407700000000000173e+00 1.112179999999999893e+02 1.607775000000000091e+03
1.260000000000000009e-01 7.735909999999999176e-01 7.009434999999999860e+00 1.108495000000000061e+02 1.607655000000000200e+03
1.270000000000000018e-01 7.735265000000000057e-01 6.665945000000000675e+00 1.105734999999999957e+02 1.607565000000000055e+03
1.280000000000000027e-01 7.734879999999999534e-01 6.378280000000000172e+00 1.103915000000000077e+02 1.607494999999999891e+03
1.290000000000000036e-01 7.734750000000000236e-01 6.145894999999999442e+00 1.103015000000000043e+02 1.607454999999999927e+03
1.300000000000000044e-01 7.734849999999999781e-01 5.966784999999999783e+00 1.102994999999999948e+02 1.607429999999999836e+03
1.310000000000000053e-01 7.735164999999999402e-01 5.837579999999999991e+00 1.103785000000000025e+02 1.607440000000000055e+03
1.320000000000000062e-01 7.735654999999999060e-01 5.753795000000000215e+00 1.105304999999999893e+02 1.607464999999999918e+03
1.330000000000000071e-01 7.736304999999999987e-01 5.710050000000000736e+00 1.107435000000000116e+02 1.607509999999999991e+03
1.340000000000000080e-01 7.737070000000000336e-01 5.700329999999999231e+00 1.110060000000000002e+02 1.607565000000000055e+03
1.350000000000000089e-01 7.737920000000000353e-01 5.718289999999999651e+00 1.113059999999999974e+02 1.607634999999999991e+03
1.360000000000000098e-01 7.738825000000000287e-01 5.757445000000000590e+00 1.116310000000000002e+02 1.607715000000000146e+03
1.370000000000000107e-01 7.739745000000000097e-01 5.811455000000000481e+00 1.119689999999999941e+02 1.607799999999999955e+03
1.380000000000000115e-01 7.740659999999999208e-01 5.874299999999999855e+00 1.123094999999999999e+02 1.607889999999999873e+03
1.390000000000000124e-01 7.741540000000000088e-01 5.940459999999999852e+00 1.126424999999999983e+02 1.607974999999999909e+03
1.400000000000000133e-01 7.742370000000000640e-01 6.005034999999999457e+00 1.129585000000000008e+02 1.608065000000000055e+03
1.410000000000000142e-01 7.743130000000000290e-01 6.063830000000000275e+00 1.132524999999999977e+02 1.608144999999999982e+03
1.420000000000000151e-01 7.743805000000000271e-01 6.113424999999999443e+00 1.135174999999999983e+02 1.608220000000000027e+03
1.430000000000000160e-01 7.744400000000000173e-01 6.151164999999999772e+00 1.137514999999999930e+02 1.608284999999999854e+03
1.440000000000000169e-01 7.744900000000000118e-01 6.175219999999999487e+00 1.139525000000000006e+02 1.608349999999999909e+03
1.450000000000000178e-01 7.745310000000000805e-01 6.184504999999999697e+00 1.141189999999999998e+02 1.608400000000000091e+03
1.459999999999999909e-01 7.745630000000000015e-01 6.178644999999999499e+00 1.142519999999999953e+02 1.608440000000000055e+03
1.469999999999999918e-01 7.745874999999999844e-01 6.157935000000000159e+00 1.143539999999999992e+02 1.608474999999999909e+03
1.479999999999999927e-01 7.746049999999999880e-01 6.123250000000000526e+00 1.144279999999999973e+02 1.608500000000000000e+03
1.489999999999999936e-01 7.746159999999999712e-01 6.075944999999999929e+00 1.144765000000000015e+02 1.608519999999999982e+03
1.499999999999999944e-01 7.746224999999999916e-01 6.017775000000000318e+00 1.145045000000000073e+02 1.608535000000000082e+03
1.509999999999999953e-01 7.746254999999999669e-01 5.950770000000000337e+00 1.145164999999999935e+02 1.608545000000000073e+03
1.519999999999999962e-01 7.746260000000000367e-01 5.877134999999999998e+00 1.145159999999999911e+02 1.608549999999999955e+03
1.529999999999999971e-01 7.746250000000000080e-01 5.799129999999999896e+00 1.145080000000000098e+02 1.608549999999999955e+03
1.539999999999999980e-01 7.746230000000000615e-01 5.718960000000000043e+00 1.144959999999999951e+02 1.608549999999999955e+03
1.549999999999999989e-01 7.746224999999999916e-01 5.638679999999999914e+00 1.144840000000000089e+02 1.608549999999999955e+03
1.559999999999999998e-01 7.746230000000000615e-01 5.560109999999999886e+00 1.144745000000000061e+02 1.608549999999999955e+03
1.570000000000000007e-01 7.746250000000000080e-01 5.484745000000000203e+00 1.144689999999999941e+02 1.608549999999999955e+03
1.580000000000000016e-01 7.746290000000000120e-01 5.413740000000000663e+00 1.144699999999999989e+02 1.608554999999999836e+03
1.590000000000000024e-01 7.746345000000000036e-01 5.347850000000000215e+00 1.144770000000000039e+02 1.608554999999999836e+03
