# t [s], A [cm^2], U [cm/s], P [cPa], c [cm/s]
1.000000000000000021e-03 1.421800000000000008e-01 4.254874999999999630e-01 1.000362499999999955e+02 2.012880000000000109e+03
2.000000000000000042e-03 1.421429999999999916e-01 2.097662499999999763e+00 9.640879999999999939e+01 2.012500000000000000e+03
3.000000000000000062e-03 1.420374999999999832e-01 4.107177500000000592e+00 9.163864999999999839e+01 2.011454999999999927e+03
4.000000000000000083e-03 1.418915000000000037e-01 6.338045000000000151e+00 8.664234999999999332e+01 2.010030000000000200e+03
5.000000000000000104e-03 1.417329999999999979e-01 8.709519999999999484e+00 8.228200000000001069e+01 2.008500000000000000e+03
6.000000000000000125e-03 1.415784999999999960e-01 1.103636000000000017e+01 7.875235000000000696e+01 2.007019999999999982e+03
7.000000000000000146e-03 1.414320000000000022e-01 1.311915499999999923e+01 7.575140000000000384e+01 2.005644999999999982e+03
8.000000000000000167e-03 1.412964999999999915e-01 1.489518999999999949e+01 7.305395000000000039e+01 2.004389999999999873e+03
9.000000000000001055e-03 1.411764999999999826e-01 1.640470000000000184e+01 7.070985000000000298e+01 2.003285000000000082e+03
1.000000000000000194e-02 1.410724999999999896e-01 1.767794999999999916e+01 6.877575000000000216e+01 2.002349999999999909e+03
1.099999999999999936e-02 1.409849999999999992e-01 1.872455000000000069e+01 6.720865000000000578e+01 2.001565000000000055e+03
1.200000000000000025e-02 1.409130000000000105e-01 1.955409999999999826e+01 6.593475000000000819e+01 2.000929999999999836e+03
1.300000000000000114e-02 1.408530000000000060e-01 2.017325000000000301e+01 6.486384999999999934e+01 2.000409999999999854e+03
1.400000000000000203e-02 1.408030000000000115e-01 2.059915000000000163e+01 6.391089999999999804e+01 1.999980000000000018e+03
1.499999999999999944e-02 1.407605000000000106e-01 2.089614999999999867e+01 6.309935000000000116e+01 1.999619999999999891e+03
1.600000000000000033e-02 1.407295000000000074e-01 2.118404999999999916e+01 6.263569999999999993e+01 1.999359999999999900e+03
1.700000000000000122e-02 1.407149999999999790e-01 2.159530000000000172e+01 6.283449999999999847e+01 1.999250000000000000e+03
1.800000000000000211e-02 1.407240000000000157e-01 2.220759999999999934e+01 6.392699999999999960e+01 1.999335000000000036e+03
1.900000000000000300e-02 1.407579999999999942e-01 2.300189999999999912e+01 6.589119999999999777e+01 1.999644999999999982e+03
2.000000000000000042e-02 1.408129999999999937e-01 2.386805000000000021e+01 6.841270000000000095e+01 2.000144999999999982e+03
2.100000000000000130e-02 1.408794999999999908e-01 2.464914999999999878e+01 7.098474999999999113e+01 2.000755000000000109e+03
2.200000000000000219e-02 1.409449999999999870e-01 2.520009999999999906e+01 7.308510000000001128e+01 2.001360000000000127e+03
2.299999999999999961e-02 1.409980000000000122e-01 2.543424999999999869e+01 7.434515000000000384e+01 2.001859999999999900e+03
2.400000000000000050e-02 1.410319999999999907e-01 2.534335000000000093e+01 7.464715000000001055e+01 2.002190000000000055e+03
2.500000000000000139e-02 1.410444999999999893e-01 2.498794999999999789e+01 7.412405000000001110e+01 2.002329999999999927e+03
2.600000000000000228e-02 1.410399999999999987e-01 2.446560000000000201e+01 7.307505000000000450e+01 2.002304999999999836e+03
2.700000000000000316e-02 1.410230000000000095e-01 2.387300000000000111e+01 7.183924999999999272e+01 2.002164999999999964e+03
2.800000000000000058e-02 1.410005000000000008e-01 2.327599999999999980e+01 7.068004999999999427e+01 2.001970000000000027e+03
2.900000000000000147e-02 1.409770000000000190e-01 2.269685000000000130e+01 6.971829999999999927e+01 2.001759999999999991e+03
3.000000000000000236e-02 1.409549999999999970e-01 2.211965000000000003e+01 6.892980000000000018e+01 2.001559999999999945e+03
3.099999999999999978e-02 1.409334999999999893e-01 2.150890000000000057e+01 6.819274999999998954e+01 2.001364999999999782e+03
3.200000000000000067e-02 1.409100000000000075e-01 2.083220000000000027e+01 6.736285000000000878e+01 2.001154999999999973e+03
3.300000000000000155e-02 1.408824999999999938e-01 2.007975000000000065e+01 6.634604999999999109e+01 2.000909999999999854e+03
3.400000000000000244e-02 1.408495000000000164e-01 1.927515000000000001e+01 6.514690000000000225e+01 2.000619999999999891e+03
3.500000000000000333e-02 1.408139999999999947e-01 1.847409999999999997e+01 6.387990000000000634e+01 2.000300000000000182e+03
3.600000000000000422e-02 1.407780000000000142e-01 1.775270000000000081e+01 6.274280000000000257e+01 1.999980000000000018e+03
3.700000000000000511e-02 1.407479999999999842e-01 1.718795000000000073e+01 6.196159999999999712e+01 1.999699999999999818e+03
3.799999999999999906e-02 1.407285000000000064e-01 1.683840000000000003e+01 6.172545000000000215e+01 1.999519999999999982e+03
3.899999999999999994e-02 1.407235000000000014e-01 1.672820000000000107e+01 6.213165000000000049e+01 1.999460000000000036e+03
4.000000000000000083e-02 1.407344999999999846e-01 1.684104999999999919e+01 6.315520000000000067e+01 1.999549999999999955e+03
4.100000000000000172e-02 1.407614999999999839e-01 1.712235000000000085e+01 6.465024999999999977e+01 1.999779999999999973e+03
4.200000000000000261e-02 1.407990000000000075e-01 1.749049999999999727e+01 6.637899999999999068e+01 2.000110000000000127e+03
4.300000000000000350e-02 1.408424999999999816e-01 1.785114999999999696e+01 6.805799999999999272e+01 2.000494999999999891e+03
4.400000000000000439e-02 1.408844999999999958e-01 1.811305000000000121e+01 6.940919999999999845e+01 2.000875000000000000e+03
4.499999999999999833e-02 1.409185000000000021e-01 1.820029999999999859e+01 7.020384999999998854e+01 2.001179999999999836e+03
4.599999999999999922e-02 1.409374999999999933e-01 1.806044999999999945e+01 7.029099999999999682e+01 2.001360000000000127e+03
4.700000000000000011e-02 1.409394999999999953e-01 1.766769999999999996e+01 6.960880000000000223e+01 2.001380000000000109e+03
4.800000000000000100e-02 1.409205000000000041e-01 1.702080000000000126e+01 6.817849999999999966e+01 2.001220000000000027e+03
4.900000000000000189e-02 1.408820000000000072e-01 1.613889999999999958e+01 6.608684999999999832e+01 2.000880000000000109e+03
5.000000000000000278e-02 1.408250000000000057e-01 1.505519999999999925e+01 6.346260000000000190e+01 2.000375000000000000e+03
5.100000000000000366e-02 1.407525000000000026e-01 1.381125000000000114e+01 6.045390000000000441e+01 1.999720000000000027e+03
5.200000000000000455e-02 1.406669999999999865e-01 1.245240499999999884e+01 5.720929999999999893e+01 1.998960000000000036e+03
5.300000000000000544e-02 1.405740000000000045e-01 1.102478999999999942e+01 5.386674999999999613e+01 1.998114999999999782e+03
5.399999999999999939e-02 1.404765000000000041e-01 9.573900000000000077e+00 5.054925000000000068e+01 1.997234999999999900e+03
5.500000000000000028e-02 1.403774999999999884e-01 8.144664999999999822e+00 4.736534999999999940e+01 1.996340000000000146e+03
5.600000000000000117e-02 1.402805000000000024e-01 6.781369999999999898e+00 4.441304999999999836e+01 1.995460000000000036e+03
5.700000000000000205e-02 1.401890000000000081e-01 5.528209999999999624e+00 4.178399999999999892e+01 1.994625000000000000e+03
5.800000000000000294e-02 1.401054999999999939e-01 4.428549999999999542e+00 3.956595000000000084e+01 1.993865000000000009e+03
5.900000000000000383e-02 1.400339999999999918e-01 3.524245000000000072e+00 3.784319999999999595e+01 1.993210000000000036e+03
6.000000000000000472e-02 1.399759999999999893e-01 2.853848000000000162e+00 3.669405000000000427e+01 1.992674999999999955e+03
6.099999999999999867e-02 1.399345000000000172e-01 2.450549999999999784e+00 3.618630000000000280e+01 1.992284999999999854e+03
6.199999999999999956e-02 1.399119999999999808e-01 2.340060000000000251e+00 3.637170000000000414e+01 1.992065000000000055e+03
6.300000000000000044e-02 1.399095000000000200e-01 2.538710000000000022e+00 3.728099999999999881e+01 1.992029999999999973e+03
6.400000000000000133e-02 1.399289999999999978e-01 3.052145000000000330e+00 3.891955000000000098e+01 1.992184999999999945e+03
6.500000000000000222e-02 1.399699999999999833e-01 3.874785000000000146e+00 4.126590000000000202e+01 1.992539999999999964e+03
6.600000000000000311e-02 1.400325000000000042e-01 4.990129999999999733e+00 4.427219999999999800e+01 1.993085000000000036e+03
6.700000000000000400e-02 1.401155000000000039e-01 6.371784999999999144e+00 4.786674999999999613e+01 1.993819999999999936e+03
6.800000000000000488e-02 1.402169999999999805e-01 7.985185000000000421e+00 5.195929999999999893e+01 1.994720000000000027e+03
6.900000000000000577e-02 1.403340000000000143e-01 9.789584999999998871e+00 5.644639999999999702e+01 1.995769999999999982e+03
7.000000000000000666e-02 1.404650000000000065e-01 1.174055999999999855e+01 6.121809999999999974e+01 1.996945000000000164e+03
7.100000000000000755e-02 1.406054999999999944e-01 1.379220000000000113e+01 6.616460000000000719e+01 1.998215000000000146e+03
7.200000000000000844e-02 1.407535000000000036e-01 1.589944999999999808e+01 7.118179999999999552e+01 1.999559999999999945e+03
7.300000000000000933e-02 1.409060000000000035e-01 1.802019999999999911e+01 7.617680000000000007e+01 2.000940000000000055e+03
7.399999999999999634e-02 1.410595000000000043e-01 2.011720000000000041e+01 8.107189999999999941e+01 2.002340000000000146e+03
7.499999999999999722e-02 1.412120000000000042e-01 2.215919999999999845e+01 8.580750000000000455e+01 2.003739999999999782e+03
7.599999999999999811e-02 1.413619999999999877e-01 2.412219999999999942e+01 9.034380000000000166e+01 2.005110000000000127e+03
7.699999999999999900e-02 1.415075000000000083e-01 2.598975000000000080e+01 9.466094999999999970e+01 2.006454999999999927e+03
7.799999999999999989e-02 1.416479999999999961e-01 2.775305000000000177e+01 9.875854999999999961e+01 2.007744999999999891e+03
7.900000000000000078e-02 1.417825000000000057e-01 2.941019999999999968e+01 1.026511999999999887e+02 2.008994999999999891e+03
8.000000000000000167e-02 1.419124999999999970e-01 3.096529999999999916e+01 1.063686500000000024e+02 2.010199999999999818e+03
8.100000000000000255e-02 1.420375000000000110e-01 3.242719999999999914e+01 1.099474999999999909e+02 2.011365000000000009e+03
8.200000000000000344e-02 1.421584999999999932e-01 3.380785000000000196e+01 1.134295000000000044e+02 2.012490000000000009e+03
8.300000000000000433e-02 1.422775000000000012e-01 3.512069999999999936e+01 1.168549999999999898e+02 2.013595000000000027e+03
8.400000000000000522e-02 1.423939999999999928e-01 3.637935000000000230e+01 1.202630000000000052e+02 2.014680000000000064e+03
8.500000000000000611e-02 1.425099999999999978e-01 3.759595000000000198e+01 1.236809999999999974e+02 2.015760000000000218e+03
8.600000000000000699e-02 1.426255000000000162e-01 3.878025000000000233e+01 1.271310000000000002e+02 2.016835000000000036e+03
8.700000000000000788e-02 1.427415000000000211e-01 3.993894999999999840e+01 1.306200000000000045e+02 2.017925000000000182e+03
8.800000000000000877e-02 1.428590000000000138e-01 4.107489999999999952e+01 1.341469999999999914e+02 2.019014999999999873e+03
8.899999999999999578e-02 1.429765000000000064e-01 4.218739999999999668e+01 1.376974999999999909e+02 2.020110000000000127e+03
8.999999999999999667e-02 1.430945000000000134e-01 4.327199999999999847e+01 1.412489999999999952e+02 2.021210000000000036e+03
9.099999999999999756e-02 1.432124999999999926e-01 4.432110000000000127e+01 1.447710000000000150e+02 2.022309999999999945e+03
9.199999999999999845e-02 1.433284999999999976e-01 4.532444999999999879e+01 1.482264999999999873e+02 2.023404999999999973e+03
9.299999999999999933e-02 1.434429999999999872e-01 4.626985000000000525e+01 1.515749999999999886e+02 2.024474999999999909e+03
9.400000000000000022e-02 1.435540000000000149e-01 4.714385000000000048e+01 1.547760000000000105e+02 2.025509999999999991e+03
9.500000000000000111e-02 1.436609999999999832e-01 4.793259999999999366e+01 1.577880000000000109e+02 2.026514999999999873e+03
9.600000000000000200e-02 1.437620000000000009e-01 4.862259999999999849e+01 1.605734999999999957e+02 2.027464999999999918e+03
9.700000000000000289e-02 1.438570000000000126e-01 4.920139999999999958e+01 1.630995000000000061e+02 2.028355000000000018e+03
9.800000000000000377e-02 1.439435000000000020e-01 4.965834999999999866e+01 1.653365000000000009e+02 2.029170000000000073e+03
9.900000000000000466e-02 1.440214999999999967e-01 4.998494999999999777e+01 1.672644999999999982e+02 2.029909999999999854e+03
1.000000000000000056e-01 1.440899999999999959e-01 5.017555000000000121e+01 1.688695000000000164e+02 2.030565000000000055e+03
1.010000000000000064e-01 1.441489999999999994e-01 5.022755000000000081e+01 1.701469999999999914e+02 2.031119999999999891e+03
1.020000000000000073e-01 1.441979999999999928e-01 5.014154999999999518e+01 1.710980000000000132e+02 2.031590000000000146e+03
1.030000000000000082e-01 1.442364999999999897e-01 4.992159999999999798e+01 1.717355000000000018e+02 2.031965000000000146e+03
1.040000000000000091e-01 1.442650000000000043e-01 4.957469999999999999e+01 1.720760000000000218e+02 2.032244999999999891e+03
1.050000000000000100e-01 1.442849999999999966e-01 4.911104999999999876e+01 1.721449999999999818e+02 2.032440000000000055e+03
1.059999999999999970e-01 1.442960000000000076e-01 4.854330000000000211e+01 1.719735000000000014e+02 2.032554999999999836e+03
1.069999999999999979e-01 1.442984999999999962e-01 4.788599999999999568e+01 1.715954999999999870e+02 2.032585000000000036e+03
1.079999999999999988e-01 1.442950000000000066e-01 4.715519999999999357e+01 1.710484999999999900e+02 2.032565000000000055e+03
1.089999999999999997e-01 1.442849999999999966e-01 4.636769999999999925e+01 1.703704999999999927e+02 2.032474999999999909e+03
1.100000000000000006e-01 1.442700000000000093e-01 4.554030000000000200e+01 1.695994999999999777e+02 2.032344999999999800e+03
1.110000000000000014e-01 1.442519999999999913e-01 4.468925000000000125e+01 1.687699999999999818e+02 2.032180000000000064e+03
1.120000000000000023e-01 1.442309999999999981e-01 4.382959999999999923e+01 1.679144999999999754e+02 2.031985000000000127e+03
1.130000000000000032e-01 1.442084999999999895e-01 4.297464999999999691e+01 1.670595000000000141e+02 2.031780000000000200e+03
1.140000000000000041e-01 1.441844999999999932e-01 4.213564999999999827e+01 1.662269999999999754e+02 2.031559999999999945e+03
1.150000000000000050e-01 1.441609999999999836e-01 4.132135000000000247e+01 1.654325000000000045e+02 2.031335000000000036e+03
1.160000000000000059e-01 1.441375000000000017e-01 4.053790000000000049e+01 1.646854999999999905e+02 2.031115000000000009e+03
1.170000000000000068e-01 1.441144999999999787e-01 3.978869999999999862e+01 1.639889999999999759e+02 2.030904999999999973e+03
1.180000000000000077e-01 1.440934999999999855e-01 3.907455000000000211e+01 1.633404999999999916e+02 2.030699999999999818e+03
1.190000000000000085e-01 1.440730000000000066e-01 3.839374999999999716e+01 1.627314999999999827e+02 2.030500000000000000e+03
1.200000000000000094e-01 1.440529999999999866e-01 3.774240000000000350e+01 1.621504999999999939e+02 2.030315000000000055e+03
1.209999999999999964e-01 1.440335000000000087e-01 3.711469999999999914e+01 1.615790000000000077e+02 2.030130000000000109e+03
1.219999999999999973e-01 1.440139999999999754e-01 3.650355000000000416e+01 1.610010000000000048e+02 2.029945000000000164e+03
1.229999999999999982e-01 1.439944999999999975e-01 3.590075000000000216e+01 1.603940000000000055e+02 2.029759999999999991e+03
1.239999999999999991e-01 1.439739999999999909e-01 3.529769999999999897e+01 1.597384999999999877e+02 2.029570000000000164e+03
1.250000000000000000e-01 1.439525000000000110e-01 3.468580000000000041e+01 1.590149999999999864e+02 2.029360000000000127e+03
1.260000000000000009e-01 1.439280000000000004e-01 3.405700000000000216e+01 1.582055000000000007e+02 2.029134999999999991e+03
1.270000000000000018e-01 1.439019999999999744e-01 3.340420000000000300e+01 1.572959999999999923e+02 2.028884999999999991e+03
1.280000000000000027e-01 1.438725000000000143e-01 3.272180000000000177e+01 1.562754999999999939e+02 2.028615000000000009e+03
1.290000000000000036e-01 1.438395000000000090e-01 3.200565000000000282e+01 1.551384999999999934e+02 2.028309999999999945e+03
1.300000000000000044e-01 1.438035000000000008e-01 3.125379999999999825e+01 1.538824999999999932e+02 2.027969999999999800e+03
1.310000000000000053e-01 1.437645000000000173e-01 3.046640000000000015e+01 1.525129999999999768e+02 2.027605000000000018e+03
1.320000000000000062e-01 1.437209999999999877e-01 2.964555000000000007e+01 1.510384999999999991e+02 2.027204999999999927e+03
1.330000000000000071e-01 1.436749999999999972e-01 2.879570000000000363e+01 1.494724999999999966e+02 2.026775000000000091e+03
1.340000000000000080e-01 1.436260000000000037e-01 2.792314999999999969e+01 1.478344999999999914e+02 2.026324999999999818e+03
1.350000000000000089e-01 1.435750000000000082e-01 2.703584999999999994e+01 1.461465000000000032e+02 2.025844999999999800e+03
1.360000000000000098e-01 1.435220000000000107e-01 2.614329999999999998e+01 1.444325000000000045e+02 2.025349999999999909e+03
1.370000000000000107e-01 1.434679999999999844e-01 2.525570000000000093e+01 1.427199999999999989e+02 2.024849999999999909e+03
1.380000000000000115e-01 1.434139999999999859e-01 2.438385000000000247e+01 1.410349999999999966e+02 2.024339999999999918e+03
1.390000000000000124e-01 1.433605000000000018e-01 2.353860000000000241e+01 1.394055000000000177e+02 2.023844999999999800e+03
1.400000000000000133e-01 1.433079999999999909e-01 2.273040000000000305e+01 1.378545000000000016e+02 2.023360000000000127e+03
1.410000000000000142e-01 1.432574999999999821e-01 2.196869999999999834e+01 1.364050000000000011e+02 2.022884999999999991e+03
1.420000000000000151e-01 1.432100000000000040e-01 2.126180000000000092e+01 1.350749999999999886e+02 2.022444999999999936e+03
1.430000000000000160e-01 1.431660000000000155e-01 2.061645000000000039e+01 1.338799999999999955e+02 2.022030000000000200e+03
1.440000000000000169e-01 1.431254999999999888e-01 2.003744999999999976e+01 1.328290000000000077e+02 2.021650000000000091e+03
1.450000000000000178e-01 1.430895000000000084e-01 1.952794999999999703e+01 1.319259999999999877e+02 2.021304999999999836e+03
1.459999999999999909e-01 1.430575000000000041e-01 1.908895000000000053e+01 1.311734999999999900e+02 2.021005000000000109e+03
1.469999999999999918e-01 1.430299999999999905e-01 1.871965000000000146e+01 1.305649999999999977e+02 2.020744999999999891e+03
1.479999999999999927e-01 1.430064999999999809e-01 1.841750000000000043e+01 1.300944999999999823e+02 2.020525000000000091e+03
1.489999999999999936e-01 1.429885000000000184e-01 1.817844999999999800e+01 1.297500000000000000e+02 2.020344999999999800e+03
1.499999999999999944e-01 1.429730000000000167e-01 1.799709999999999965e+01 1.295185000000000173e+02 2.020200000000000045e+03
1.509999999999999953e-01 1.429620000000000057e-01 1.786710000000000065e+01 1.293834999999999980e+02 2.020090000000000146e+03
1.519999999999999962e-01 1.429539999999999977e-01 1.778134999999999977e+01 1.293290000000000077e+02 2.020005000000000109e+03
1.529999999999999971e-01 1.429479999999999917e-01 1.773259999999999792e+01 1.293389999999999986e+02 2.019954999999999927e+03
1.539999999999999980e-01 1.429455000000000031e-01 1.771325000000000216e+01 1.293965000000000032e+02 2.019924999999999955e+03
1.549999999999999989e-01 1.429440000000000155e-01 1.771605000000000274e+01 1.294859999999999900e+02 2.019904999999999973e+03
1.559999999999999998e-01 1.429440000000000155e-01 1.773409999999999798e+01 1.295949999999999989e+02 2.019904999999999973e+03
1.570000000000000007e-01 1.429449999999999887e-01 1.776115000000000066e+01 1.297094999999999914e+02 2.019909999999999854e+03
1.580000000000000016e-01 1.429464999999999764e-01 1.779180000000000206e+01 1.298205000000000098e+02 2.019920000000000073e+03
1.590000000000000024e-01 1.429484999999999784e-01 1.782130000000000081e+01 1.299205000000000041e+02 2.019940000000000055e+03
