# t [s], A [cm^2], U [cm/s], P [cPa], c [cm/s]
1.000000000000000021e-03 5.241934999999999789e-01 4.794300000000001338e-03 1.038460000000000036e+02 1.553014999999999873e+03
2.000000000000000042e-03 5.241850000000000120e-01 -1.610770999999999991e-03 1.038269999999999982e+02 1.553005000000000109e+03
3.000000000000000062e-03 5.242080000000000073e-01 4.018195000000000794e-02 1.038695000000000022e+02 1.553025000000000091e+03
4.000000000000000083e-03 5.242514999999999814e-01 1.262070000000000136e-01 1.039789999999999992e+02 1.553054999999999836e+03
5.000000000000000104e-03 5.242634999999999934e-01 1.587427000000000143e-01 1.040204999999999984e+02 1.553065000000000055e+03
6.000000000000000125e-03 5.242320000000000313e-01 1.090512499999999885e-01 1.039304999999999950e+02 1.553050000000000182e+03
7.000000000000000146e-03 5.241934999999999789e-01 4.261599999999998722e-02 1.037694999999999936e+02 1.553009999999999991e+03
8.000000000000000167e-03 5.241599999999999593e-01 -1.740500000000000380e-02 1.035785000000000053e+02 1.552960000000000036e+03
9.000000000000001055e-03 5.241074999999999484e-01 -1.246115000000000417e-01 1.033029999999999973e+02 1.552889999999999873e+03
1.000000000000000194e-02 5.240215000000000289e-01 -3.112165000000000625e-01 1.028914999999999935e+02 1.552784999999999854e+03
1.099999999999999936e-02 5.238970000000000571e-01 -5.857899999999999219e-01 1.023110000000000070e+02 1.552639999999999873e+03
1.200000000000000025e-02 5.237229999999999386e-01 -9.648549999999999072e-01 1.015147000000000048e+02 1.552440000000000055e+03
1.300000000000000114e-02 5.234920000000000684e-01 -1.453524999999999956e+00 1.004646000000000043e+02 1.552164999999999964e+03
1.400000000000000203e-02 5.232164999999999733e-01 -2.011235000000000106e+00 9.917859999999998877e+01 1.551825000000000045e+03
1.499999999999999944e-02 5.229279999999999484e-01 -2.553065000000000140e+00 9.774049999999999727e+01 1.551434999999999945e+03
1.600000000000000033e-02 5.226595000000000546e-01 -2.985095000000000276e+00 9.626810000000000400e+01 1.551019999999999982e+03
1.700000000000000122e-02 5.224314999999999376e-01 -3.241385499999999809e+00 9.486230000000000473e+01 1.550605000000000018e+03
1.800000000000000211e-02 5.222455000000000291e-01 -3.300564000000000053e+00 9.357724999999999227e+01 1.550204999999999927e+03
1.900000000000000300e-02 5.220865000000000089e-01 -3.181432850000000201e+00 9.241280000000000427e+01 1.549829999999999927e+03
2.000000000000000042e-02 5.219350000000000378e-01 -2.926944600000000118e+00 9.132800000000000296e+01 1.549464999999999918e+03
2.100000000000000130e-02 5.217700000000000671e-01 -2.585551999999999850e+00 9.026274999999999693e+01 1.549099999999999909e+03
2.200000000000000219e-02 5.215779999999999861e-01 -2.196029499999999857e+00 8.916084999999999638e+01 1.548719999999999800e+03
2.299999999999999961e-02 5.213554999999999717e-01 -1.778619999999999868e+00 8.798605000000000587e+01 1.548329999999999927e+03
2.400000000000000050e-02 5.211064999999999170e-01 -1.333709999999999951e+00 8.673095000000000709e+01 1.547910000000000082e+03
2.500000000000000139e-02 5.208424999999999860e-01 -8.474249999999998728e-01 8.541384999999999650e+01 1.547470000000000027e+03
2.600000000000000228e-02 5.205754999999999688e-01 -3.015349999999998865e-01 8.406909999999999172e+01 1.547019999999999982e+03
2.700000000000000316e-02 5.203145000000000131e-01 3.159149999999999459e-01 8.273220000000000596e+01 1.546570000000000164e+03
2.800000000000000058e-02 5.200624999999999831e-01 1.002834999999999699e+00 8.142660000000000764e+01 1.546125000000000000e+03
2.900000000000000147e-02 5.198154999999999859e-01 1.739955000000000140e+00 8.015550000000000352e+01 1.545690000000000055e+03
3.000000000000000236e-02 5.195644999999999847e-01 2.492605000000000182e+00 7.889965000000000828e+01 1.545250000000000000e+03
3.099999999999999978e-02 5.192974999999999675e-01 3.216404999999999959e+00 7.762125000000000341e+01 1.544815000000000055e+03
3.200000000000000067e-02 5.190019999999999634e-01 3.865284999999999638e+00 7.627309999999999945e+01 1.544360000000000127e+03
3.300000000000000155e-02 5.186675000000000590e-01 4.400135000000000574e+00 7.481045000000000300e+01 1.543884999999999991e+03
3.400000000000000244e-02 5.182915000000000161e-01 4.796180000000000554e+00 7.320195000000001073e+01 1.543369999999999891e+03
3.500000000000000333e-02 5.178770000000000318e-01 5.047509999999999941e+00 7.143959999999999866e+01 1.542815000000000055e+03
3.600000000000000422e-02 5.174339999999999495e-01 5.167304999999999815e+00 6.954249999999998977e+01 1.542230000000000018e+03
3.700000000000000511e-02 5.169775000000000897e-01 5.184490000000000265e+00 6.755535000000000423e+01 1.541625000000000000e+03
3.799999999999999906e-02 5.165250000000000119e-01 5.137304999999999566e+00 6.554205000000000325e+01 1.541005000000000109e+03
3.899999999999999994e-02 5.160949999999999704e-01 5.066485000000000127e+00 6.357604999999999507e+01 1.540394999999999982e+03
4.000000000000000083e-02 5.157019999999999937e-01 5.009215000000000195e+00 6.173094999999999999e+01 1.539820000000000164e+03
4.100000000000000172e-02 5.153575000000000239e-01 4.995205000000000339e+00 6.007264999999999588e+01 1.539295000000000073e+03
4.200000000000000261e-02 5.150700000000000278e-01 5.045449999999999768e+00 5.865449999999999875e+01 1.538824999999999818e+03
4.300000000000000350e-02 5.148439999999999683e-01 5.172877299999999678e+00 5.751500000000000057e+01 1.538429999999999836e+03
4.400000000000000439e-02 5.146804999999999852e-01 5.384115000000000428e+00 5.667880000000000251e+01 1.538130000000000109e+03
4.499999999999999833e-02 5.145804999999999962e-01 5.682360000000000078e+00 5.615914999999999679e+01 1.537914999999999964e+03
4.599999999999999922e-02 5.145440000000000014e-01 6.069900000000000517e+00 5.596139999999999759e+01 1.537799999999999955e+03
4.700000000000000011e-02 5.145705000000000418e-01 6.550015000000000143e+00 5.608650000000000091e+01 1.537780000000000200e+03
4.800000000000000100e-02 5.146604999999999652e-01 7.127980000000000871e+00 5.653359999999999985e+01 1.537860000000000127e+03
4.900000000000000189e-02 5.148144999999999527e-01 7.810914999999999608e+00 5.730199999999999960e+01 1.538034999999999854e+03
5.000000000000000278e-02 5.150334999999999219e-01 8.606725000000000847e+00 5.839095000000000368e+01 1.538315000000000055e+03
5.100000000000000366e-02 5.153185000000000127e-01 9.522494999999999266e+00 5.979885000000000161e+01 1.538690000000000055e+03
5.200000000000000455e-02 5.156689999999999330e-01 1.056281500000000051e+01 6.152160000000000650e+01 1.539160000000000082e+03
5.300000000000000544e-02 5.160820000000000407e-01 1.172815499999999922e+01 6.355070000000000618e+01 1.539730000000000018e+03
5.399999999999999939e-02 5.165545000000000275e-01 1.301415500000000058e+01 6.587180000000000746e+01 1.540389999999999873e+03
5.500000000000000028e-02 5.170810000000000128e-01 1.441142499999999949e+01 6.846405000000000030e+01 1.541130000000000109e+03
5.600000000000000117e-02 5.176549999999999763e-01 1.590586500000000036e+01 7.129989999999999384e+01 1.541960000000000036e+03
5.700000000000000205e-02 5.182679999999999509e-01 1.747981000000000051e+01 7.434650000000000603e+01 1.542855000000000018e+03
5.800000000000000294e-02 5.189129999999999576e-01 1.911345000000000027e+01 7.756690000000000396e+01 1.543809999999999945e+03
5.900000000000000383e-02 5.195809999999999595e-01 2.078589999999999804e+01 8.092214999999998781e+01 1.544815000000000055e+03
6.000000000000000472e-02 5.202645000000000186e-01 2.247695000000000221e+01 8.437359999999999616e+01 1.545865000000000009e+03
6.099999999999999867e-02 5.209565000000000445e-01 2.416789999999999949e+01 8.788454999999999018e+01 1.546934999999999945e+03
6.199999999999999956e-02 5.216509999999999758e-01 2.584250000000000114e+01 9.142285000000001105e+01 1.548029999999999973e+03
6.300000000000000044e-02 5.223435000000000716e-01 2.748720000000000141e+01 9.495990000000000464e+01 1.549130000000000109e+03
6.400000000000000133e-02 5.230310000000000237e-01 2.909125000000000227e+01 9.847445000000000448e+01 1.550235000000000127e+03
6.500000000000000222e-02 5.237100000000000088e-01 3.064659999999999940e+01 1.019490499999999997e+02 1.551335000000000036e+03
6.600000000000000311e-02 5.243805000000000271e-01 3.214744999999999919e+01 1.053724500000000006e+02 1.552425000000000182e+03
6.700000000000000400e-02 5.250409999999999799e-01 3.358995000000000175e+01 1.087382499999999936e+02 1.553500000000000000e+03
6.800000000000000488e-02 5.256909999999999084e-01 3.497135000000000105e+01 1.120425999999999931e+02 1.554569999999999936e+03
6.900000000000000577e-02 5.263314999999999522e-01 3.628999999999999915e+01 1.152849999999999966e+02 1.555619999999999891e+03
7.000000000000000666e-02 5.269615000000000826e-01 3.754444999999999766e+01 1.184660000000000082e+02 1.556654999999999973e+03
7.100000000000000755e-02 5.275819999999999954e-01 3.873354999999999393e+01 1.215859999999999843e+02 1.557675000000000182e+03
7.200000000000000844e-02 5.281934999999999825e-01 3.985594999999999999e+01 1.246475000000000080e+02 1.558675000000000182e+03
7.300000000000000933e-02 5.287935000000000274e-01 4.090990000000000038e+01 1.276494999999999891e+02 1.559660000000000082e+03
7.399999999999999634e-02 5.293835000000000068e-01 4.189320000000000022e+01 1.305910000000000082e+02 1.560630000000000109e+03
7.499999999999999722e-02 5.299610000000000154e-01 4.280315000000000225e+01 1.334669999999999845e+02 1.561579999999999927e+03
7.599999999999999811e-02 5.305254999999999832e-01 4.363669999999999760e+01 1.362735000000000127e+02 1.562509999999999991e+03
7.699999999999999900e-02 5.310740000000000460e-01 4.439039999999999964e+01 1.390024999999999977e+02 1.563420000000000073e+03
7.799999999999999989e-02 5.316054999999999531e-01 4.506095000000000539e+01 1.416459999999999866e+02 1.564299999999999955e+03
7.900000000000000078e-02 5.321175000000000210e-01 4.564504999999999768e+01 1.441940000000000168e+02 1.565159999999999854e+03
8.000000000000000167e-02 5.326079999999999703e-01 4.613984999999999559e+01 1.466365000000000123e+02 1.565980000000000018e+03
8.100000000000000255e-02 5.330759999999999943e-01 4.654309999999999548e+01 1.489644999999999868e+02 1.566775000000000091e+03
8.200000000000000344e-02 5.335189999999999655e-01 4.685340000000000060e+01 1.511680000000000064e+02 1.567525000000000091e+03
8.300000000000000433e-02 5.339350000000000485e-01 4.707014999999999816e+01 1.532395000000000209e+02 1.568240000000000009e+03
8.400000000000000522e-02 5.343244999999999800e-01 4.719364999999999810e+01 1.551730000000000018e+02 1.568914999999999964e+03
8.500000000000000611e-02 5.346849999999999659e-01 4.722509999999999764e+01 1.569629999999999939e+02 1.569539999999999964e+03
8.600000000000000699e-02 5.350175000000000347e-01 4.716639999999999588e+01 1.586065000000000111e+02 1.570119999999999891e+03
8.700000000000000788e-02 5.353210000000000468e-01 4.702044999999999675e+01 1.601020000000000039e+02 1.570655000000000200e+03
8.800000000000000877e-02 5.355955000000000021e-01 4.679050000000000153e+01 1.614499999999999886e+02 1.571139999999999873e+03
8.899999999999999578e-02 5.358424999999999994e-01 4.648055000000000092e+01 1.626514999999999986e+02 1.571579999999999927e+03
8.999999999999999667e-02 5.360604999999999398e-01 4.609519999999999840e+01 1.637105000000000246e+02 1.571974999999999909e+03
9.099999999999999756e-02 5.362529999999999797e-01 4.563954999999999984e+01 1.646304999999999836e+02 1.572324999999999818e+03
9.199999999999999845e-02 5.364185000000000203e-01 4.511914999999999765e+01 1.654175000000000182e+02 1.572630000000000109e+03
9.299999999999999933e-02 5.365604999999999958e-01 4.454014999999999702e+01 1.660785000000000196e+02 1.572894999999999982e+03
9.400000000000000022e-02 5.366794999999999760e-01 4.390919999999999845e+01 1.666210000000000093e+02 1.573115000000000009e+03
9.500000000000000111e-02 5.367775000000000185e-01 4.323340000000000316e+01 1.670550000000000068e+02 1.573295000000000073e+03
9.600000000000000200e-02 5.368564999999999587e-01 4.252009999999999934e+01 1.673890000000000100e+02 1.573449999999999818e+03
9.700000000000000289e-02 5.369185000000000763e-01 4.177689999999999770e+01 1.676349999999999909e+02 1.573569999999999936e+03
9.800000000000000377e-02 5.369654999999999845e-01 4.101154999999999973e+01 1.678025000000000091e+02 1.573655000000000200e+03
9.900000000000000466e-02 5.370000000000000329e-01 4.023125000000000284e+01 1.679044999999999845e+02 1.573720000000000027e+03
1.000000000000000056e-01 5.370245000000000157e-01 3.944324999999999903e+01 1.679499999999999886e+02 1.573764999999999873e+03
1.010000000000000064e-01 5.370399999999999618e-01 3.865370000000000061e+01 1.679499999999999886e+02 1.573785000000000082e+03
1.020000000000000073e-01 5.370485000000000397e-01 3.786840000000000117e+01 1.679134999999999991e+02 1.573795000000000073e+03
1.030000000000000082e-01 5.370509999999999451e-01 3.709174999999999756e+01 1.678480000000000132e+02 1.573789999999999964e+03
1.040000000000000091e-01 5.370485000000000397e-01 3.632724999999999937e+01 1.677604999999999791e+02 1.573779999999999973e+03
1.050000000000000100e-01 5.370420000000000194e-01 3.557719999999999771e+01 1.676539999999999964e+02 1.573755000000000109e+03
1.059999999999999970e-01 5.370319999999999538e-01 3.484275000000000233e+01 1.675330000000000155e+02 1.573724999999999909e+03
1.069999999999999979e-01 5.370174999999999255e-01 3.412404999999999688e+01 1.673969999999999914e+02 1.573690000000000055e+03
1.079999999999999988e-01 5.369994999999999630e-01 3.342024999999999579e+01 1.672465000000000259e+02 1.573650000000000091e+03
1.089999999999999997e-01 5.369764999999999677e-01 3.272974999999999568e+01 1.670790000000000077e+02 1.573595000000000027e+03
1.100000000000000006e-01 5.369475000000000220e-01 3.205039999999999623e+01 1.668919999999999959e+02 1.573539999999999964e+03
1.110000000000000014e-01 5.369129999999999736e-01 3.137950000000000017e+01 1.666810000000000116e+02 1.573470000000000027e+03
1.120000000000000023e-01 5.368709999999999871e-01 3.071414999999999651e+01 1.664424999999999955e+02 1.573400000000000091e+03
1.130000000000000032e-01 5.368214999999999515e-01 3.005144999999999911e+01 1.661719999999999970e+02 1.573315000000000055e+03
1.140000000000000041e-01 5.367640000000000189e-01 2.938844999999999885e+01 1.658654999999999973e+02 1.573224999999999909e+03
1.150000000000000050e-01 5.366965000000000208e-01 2.872259999999999991e+01 1.655199999999999818e+02 1.573110000000000127e+03
1.160000000000000059e-01 5.366199999999999859e-01 2.805140000000000100e+01 1.651320000000000050e+02 1.572994999999999891e+03
1.170000000000000068e-01 5.365330000000000377e-01 2.737299999999999756e+01 1.646990000000000123e+02 1.572860000000000127e+03
1.180000000000000077e-01 5.364370000000000527e-01 2.668599999999999994e+01 1.642214999999999918e+02 1.572715000000000146e+03
1.190000000000000085e-01 5.363310000000000022e-01 2.598949999999999960e+01 1.636984999999999957e+02 1.572549999999999955e+03
1.200000000000000094e-01 5.362160000000000259e-01 2.528329999999999700e+01 1.631304999999999836e+02 1.572375000000000000e+03
1.209999999999999964e-01 5.360924999999999718e-01 2.456779999999999831e+01 1.625215000000000032e+02 1.572190000000000055e+03
1.219999999999999973e-01 5.359610000000000207e-01 2.384405000000000285e+01 1.618734999999999786e+02 1.571984999999999900e+03
1.229999999999999982e-01 5.358229999999999382e-01 2.311379999999999768e+01 1.611915000000000191e+02 1.571775000000000091e+03
1.239999999999999991e-01 5.356794999999999751e-01 2.237934999999999874e+01 1.604809999999999945e+02 1.571555000000000064e+03
1.250000000000000000e-01 5.355320000000000080e-01 2.164359999999999928e+01 1.597484999999999786e+02 1.571325000000000045e+03
1.260000000000000009e-01 5.353820000000000245e-01 2.091000000000000014e+01 1.590010000000000048e+02 1.571090000000000146e+03
1.270000000000000018e-01 5.352310000000000123e-01 2.018215000000000003e+01 1.582454999999999927e+02 1.570849999999999909e+03
1.280000000000000027e-01 5.350810000000000288e-01 1.946424999999999983e+01 1.574909999999999854e+02 1.570610000000000127e+03
1.290000000000000036e-01 5.349334999999999507e-01 1.876034999999999897e+01 1.567450000000000045e+02 1.570369999999999891e+03
1.300000000000000044e-01 5.347899999999999876e-01 1.807460000000000022e+01 1.560155000000000030e+02 1.570139999999999873e+03
1.310000000000000053e-01 5.346520000000000161e-01 1.741114999999999924e+01 1.553095000000000141e+02 1.569909999999999854e+03
1.320000000000000062e-01 5.345204999999999540e-01 1.677360000000000184e+01 1.546349999999999909e+02 1.569690000000000055e+03
1.330000000000000071e-01 5.343970000000000109e-01 1.616549999999999798e+01 1.539975000000000023e+02 1.569474999999999909e+03
1.340000000000000080e-01 5.342824999999999935e-01 1.558965000000000067e+01 1.534025000000000034e+02 1.569275000000000091e+03
1.350000000000000089e-01 5.341780000000000417e-01 1.504834999999999923e+01 1.528534999999999968e+02 1.569085000000000036e+03
1.360000000000000098e-01 5.340835000000000443e-01 1.454319999999999879e+01 1.523539999999999850e+02 1.568914999999999964e+03
1.370000000000000107e-01 5.339985000000000426e-01 1.407519999999999882e+01 1.519044999999999845e+02 1.568759999999999991e+03
1.380000000000000115e-01 5.339234999999999953e-01 1.364464999999999861e+01 1.515054999999999836e+02 1.568615000000000009e+03
1.390000000000000124e-01 5.338589999999999725e-01 1.325106999999999857e+01 1.511564999999999941e+02 1.568490000000000009e+03
1.400000000000000133e-01 5.338024999999999576e-01 1.289348500000000008e+01 1.508549999999999898e+02 1.568380000000000109e+03
1.410000000000000142e-01 5.337549999999999795e-01 1.257035499999999928e+01 1.505969999999999800e+02 1.568279999999999973e+03
1.420000000000000151e-01 5.337145000000000916e-01 1.227967500000000101e+01 1.503790000000000191e+02 1.568199999999999818e+03
1.430000000000000160e-01 5.336809999999999610e-01 1.201918500000000023e+01 1.501959999999999980e+02 1.568119999999999891e+03
1.440000000000000169e-01 5.336524999999999741e-01 1.178638000000000119e+01 1.500444999999999993e+02 1.568059999999999945e+03
1.450000000000000178e-01 5.336290000000000200e-01 1.157861499999999921e+01 1.499170000000000016e+02 1.568005000000000109e+03
1.459999999999999909e-01 5.336080000000000823e-01 1.139325499999999991e+01 1.498110000000000070e+02 1.567965000000000146e+03
1.469999999999999918e-01 5.335904999999999676e-01 1.122784000000000049e+01 1.497210000000000036e+02 1.567920000000000073e+03
1.479999999999999927e-01 5.335744999999999516e-01 1.107987500000000125e+01 1.496419999999999959e+02 1.567884999999999991e+03
1.489999999999999936e-01 5.335600000000000342e-01 1.094723000000000113e+01 1.495709999999999980e+02 1.567855000000000018e+03
1.499999999999999944e-01 5.335464999999999236e-01 1.082779000000000025e+01 1.495045000000000073e+02 1.567825000000000045e+03
1.509999999999999953e-01 5.335330000000000350e-01 1.071986499999999864e+01 1.494415000000000191e+02 1.567795000000000073e+03
1.519999999999999962e-01 5.335189999999999655e-01 1.062189000000000050e+01 1.493785000000000025e+02 1.567769999999999982e+03
1.529999999999999971e-01 5.335054999999999659e-01 1.053239499999999929e+01 1.493145000000000095e+02 1.567744999999999891e+03
1.539999999999999980e-01 5.334915000000000074e-01 1.045021500000000003e+01 1.492495000000000118e+02 1.567720000000000027e+03
1.549999999999999989e-01 5.334769999999999790e-01 1.037435999999999936e+01 1.491814999999999998e+02 1.567695000000000164e+03
1.559999999999999998e-01 5.334615000000000329e-01 1.030388500000000107e+01 1.491109999999999900e+02 1.567664999999999964e+03
1.570000000000000007e-01 5.334465000000000456e-01 1.023794000000000004e+01 1.490384999999999991e+02 1.567644999999999982e+03
1.580000000000000016e-01 5.334305000000000296e-01 1.017592499999999944e+01 1.489629999999999939e+02 1.567615000000000009e+03
1.590000000000000024e-01 5.334145000000000136e-01 1.011714999999999876e+01 1.488855000000000075e+02 1.567590000000000146e+03
