# t [s], A [cm^2], U [cm/s], P [cPa], c [cm/s]
1.000000000000000021e-03 7.635210000000000052e-01 5.309299999999995967e-03 1.097659999999999911e+02 1.570404999999999973e+03
2.000000000000000042e-03 7.635089999999999932e-01 -7.483800000000000955e-04 1.097394999999999925e+02 1.570400000000000091e+03
3.000000000000000062e-03 7.635784999999999378e-01 9.668354999999999311e-02 1.098429999999999893e+02 1.570420000000000073e+03
4.000000000000000083e-03 7.636395000000000266e-01 1.911146999999999985e-01 1.099585000000000008e+02 1.570454999999999927e+03
5.000000000000000104e-03 7.636060000000000070e-01 1.633134749999999857e-01 1.098990000000000009e+02 1.570440000000000055e+03
6.000000000000000125e-03 7.635220000000000340e-01 6.089549999999999130e-02 1.096744999999999948e+02 1.570394999999999982e+03
7.000000000000000146e-03 7.634454999999999991e-01 -3.890650000000001052e-02 1.093834999999999980e+02 1.570335000000000036e+03
8.000000000000000167e-03 7.633265000000000189e-01 -2.105500000000000149e-01 1.089544999999999959e+02 1.570244999999999891e+03
9.000000000000001055e-03 7.631284999999999874e-01 -5.119699999999999251e-01 1.082940000000000111e+02 1.570099999999999909e+03
1.000000000000000194e-02 7.628489999999999993e-01 -9.405550000000000299e-01 1.073629999999999995e+02 1.569900000000000091e+03
1.099999999999999936e-02 7.624679999999999236e-01 -1.509905000000000053e+00 1.061034999999999968e+02 1.569625000000000000e+03
1.200000000000000025e-02 7.619685000000000485e-01 -2.226480000000000015e+00 1.044608499999999935e+02 1.569259999999999991e+03
1.300000000000000114e-02 7.613795000000000979e-01 -3.021665000000000045e+00 1.024739999999999895e+02 1.568800000000000182e+03
1.400000000000000203e-02 7.607775000000001064e-01 -3.749140000000000139e+00 1.003045000000000044e+02 1.568289999999999964e+03
1.499999999999999944e-02 7.602465000000000472e-01 -4.252062500000000078e+00 9.817410000000000991e+01 1.567769999999999982e+03
1.600000000000000033e-02 7.598300000000000054e-01 -4.432654949999999872e+00 9.626290000000000191e+01 1.567275000000000091e+03
1.700000000000000122e-02 7.595220000000000304e-01 -4.279790500000000719e+00 9.464924999999999500e+01 1.566829999999999927e+03
1.800000000000000211e-02 7.592780000000000085e-01 -3.855787000000000297e+00 9.330035000000000878e+01 1.566429999999999836e+03
1.900000000000000300e-02 7.590400000000000480e-01 -3.261785500000000226e+00 9.210495000000000232e+01 1.566059999999999945e+03
2.000000000000000042e-02 7.587544999999999984e-01 -2.598611000000000004e+00 9.092345000000000255e+01 1.565694999999999936e+03
2.100000000000000130e-02 7.583934999999999427e-01 -1.934944999999999915e+00 8.964025000000000887e+01 1.565315000000000055e+03
2.200000000000000219e-02 7.579584999999999795e-01 -1.292224999999999957e+00 8.819964999999999122e+01 1.564900000000000091e+03
2.299999999999999961e-02 7.574739999999999807e-01 -6.506700000000000816e-01 8.661410000000000764e+01 1.564454999999999927e+03
2.400000000000000050e-02 7.569740000000000357e-01 2.801000000000009038e-02 8.494315000000000282e+01 1.563990000000000009e+03
2.500000000000000139e-02 7.564850000000000740e-01 7.730700000000001459e-01 8.325755000000000905e+01 1.563510000000000218e+03
2.600000000000000228e-02 7.560160000000000213e-01 1.584274999999999878e+00 8.160389999999999588e+01 1.563039999999999964e+03
2.700000000000000316e-02 7.555549999999999766e-01 2.424204999999999721e+00 7.998250000000000171e+01 1.562579999999999927e+03
2.800000000000000058e-02 7.550729999999999942e-01 3.223444999999999894e+00 7.834279999999999688e+01 1.562110000000000127e+03
2.900000000000000147e-02 7.545315000000000216e-01 3.895094999999999530e+00 7.659489999999999554e+01 1.561615000000000009e+03
3.000000000000000236e-02 7.538955000000000517e-01 4.354230000000000267e+00 7.463320000000000221e+01 1.561079999999999927e+03
3.099999999999999978e-02 7.531399999999999206e-01 4.537594999999999601e+00 7.236554999999999893e+01 1.560480000000000018e+03
3.200000000000000067e-02 7.522625000000000561e-01 4.418829999999999814e+00 6.974074999999999136e+01 1.559815000000000055e+03
3.300000000000000155e-02 7.512805000000000177e-01 4.015055000000000263e+00 6.676734999999999332e+01 1.559059999999999945e+03
3.400000000000000244e-02 7.502314999999999401e-01 3.382850000000000357e+00 6.351749999999999829e+01 1.558250000000000000e+03
3.500000000000000333e-02 7.491654999999999287e-01 2.606139999999999901e+00 6.011699999999999733e+01 1.557394999999999982e+03
3.600000000000000422e-02 7.481364999999999821e-01 1.779704999999999870e+00 5.672419999999999618e+01 1.556535000000000082e+03
3.700000000000000511e-02 7.471920000000000783e-01 9.937700000000004863e-01 5.350600000000000023e+01 1.555699999999999818e+03
3.799999999999999906e-02 7.463724999999999943e-01 3.230050000000002086e-01 5.061565000000000225e+01 1.554934999999999945e+03
3.899999999999999994e-02 7.457034999999999636e-01 -1.791399999999998549e-01 4.817709999999999582e+01 1.554264999999999873e+03
4.000000000000000083e-02 7.452004999999999324e-01 -4.807800000000002072e-01 4.627670000000000528e+01 1.553720000000000027e+03
4.100000000000000172e-02 7.448669999999999458e-01 -5.682600000000002094e-01 4.496184999999999832e+01 1.553309999999999945e+03
4.200000000000000261e-02 7.447000000000000286e-01 -4.407099999999999351e-01 4.424604999999999677e+01 1.553039999999999964e+03
4.300000000000000350e-02 7.446920000000000206e-01 -1.041660000000000086e-01 4.411669999999999447e+01 1.552920000000000073e+03
4.400000000000000439e-02 7.448334999999999262e-01 4.333464999999999678e-01 4.454479999999999507e+01 1.552945000000000164e+03
4.499999999999999833e-02 7.451144999999999019e-01 1.164655000000000218e+00 4.549309999999999832e+01 1.553105000000000018e+03
4.599999999999999922e-02 7.455264999999999809e-01 2.083984999999999754e+00 4.692159999999999798e+01 1.553394999999999982e+03
4.700000000000000011e-02 7.460605000000000153e-01 3.185485000000000344e+00 4.878990000000000293e+01 1.553795000000000073e+03
4.800000000000000100e-02 7.467059999999999809e-01 4.460734999999999673e+00 5.105655000000000143e+01 1.554315000000000055e+03
4.900000000000000189e-02 7.474510000000000876e-01 5.896135000000000126e+00 5.367719999999999914e+01 1.554924999999999955e+03
5.000000000000000278e-02 7.482805000000000151e-01 7.471186499999999953e+00 5.660220000000000340e+01 1.555625000000000000e+03
5.100000000000000366e-02 7.491780000000000106e-01 9.158345499999999362e+00 5.977540000000000475e+01 1.556394999999999982e+03
5.200000000000000455e-02 7.501234999999999431e-01 1.092389499999999991e+01 6.313450000000000273e+01 1.557220000000000027e+03
5.300000000000000544e-02 7.510965000000000558e-01 1.273023000000000060e+01 6.661294999999999789e+01 1.558090000000000146e+03
5.399999999999999939e-02 7.520780000000000243e-01 1.453864000000000090e+01 7.014310000000000400e+01 1.558985000000000127e+03
5.500000000000000028e-02 7.530479999999999396e-01 1.631245499999999993e+01 7.366039999999999566e+01 1.559889999999999873e+03
5.600000000000000117e-02 7.539919999999999956e-01 1.801914999999999978e+01 7.710699999999999932e+01 1.560785000000000082e+03
5.700000000000000205e-02 7.548995000000000566e-01 1.963265000000000171e+01 8.043529999999999802e+01 1.561670000000000073e+03
5.800000000000000294e-02 7.557614999999999750e-01 2.113390000000000057e+01 8.361045000000000016e+01 1.562519999999999982e+03
5.900000000000000383e-02 7.565749999999999975e-01 2.251144999999999996e+01 8.661074999999999591e+01 1.563329999999999927e+03
6.000000000000000472e-02 7.573395000000000543e-01 2.376075000000000159e+01 8.942804999999999893e+01 1.564110000000000127e+03
6.099999999999999867e-02 7.580590000000000384e-01 2.488309999999999889e+01 9.206614999999999327e+01 1.564844999999999800e+03
6.199999999999999956e-02 7.587380000000000235e-01 2.588479999999999848e+01 9.453925000000000978e+01 1.565539999999999964e+03
6.300000000000000044e-02 7.593845000000000178e-01 2.677570000000000050e+01 9.686939999999999884e+01 1.566200000000000045e+03
6.400000000000000133e-02 7.600050000000000416e-01 2.756835000000000235e+01 9.908275000000000432e+01 1.566829999999999927e+03
6.500000000000000222e-02 7.606085000000000207e-01 2.827660000000000196e+01 1.012099499999999921e+02 1.567434999999999945e+03
6.600000000000000311e-02 7.612039999999999917e-01 2.891499999999999915e+01 1.032811999999999983e+02 1.568025000000000091e+03
6.700000000000000400e-02 7.617964999999999876e-01 2.949759999999999849e+01 1.053250000000000028e+02 1.568605000000000018e+03
6.800000000000000488e-02 7.623949999999999338e-01 3.003725000000000023e+01 1.073675000000000068e+02 1.569180000000000064e+03
6.900000000000000577e-02 7.630019999999999580e-01 3.054485000000000028e+01 1.094274999999999949e+02 1.569755000000000109e+03
7.000000000000000666e-02 7.636205000000000354e-01 3.102810000000000201e+01 1.115180000000000007e+02 1.570335000000000036e+03
7.100000000000000755e-02 7.642510000000000137e-01 3.149179999999999779e+01 1.136444999999999936e+02 1.570924999999999955e+03
7.200000000000000844e-02 7.648909999999999876e-01 3.193675000000000352e+01 1.158044999999999902e+02 1.571514999999999873e+03
7.300000000000000933e-02 7.655365000000000641e-01 3.236039999999999850e+01 1.179855000000000018e+02 1.572119999999999891e+03
7.399999999999999634e-02 7.661810000000000009e-01 3.275665000000000049e+01 1.201699999999999875e+02 1.572720000000000027e+03
7.499999999999999722e-02 7.668160000000000531e-01 3.311719999999999686e+01 1.223329999999999984e+02 1.573315000000000055e+03
7.599999999999999811e-02 7.674339999999999495e-01 3.343139999999999645e+01 1.244449999999999932e+02 1.573900000000000091e+03
7.699999999999999900e-02 7.680249999999999577e-01 3.368805000000000405e+01 1.264749999999999943e+02 1.574465000000000146e+03
7.799999999999999989e-02 7.685800000000000409e-01 3.387574999999999648e+01 1.283915000000000077e+02 1.575005000000000109e+03
7.900000000000000078e-02 7.690915000000000390e-01 3.398385000000000389e+01 1.301634999999999991e+02 1.575505000000000109e+03
8.000000000000000167e-02 7.695520000000000138e-01 3.400329999999999586e+01 1.317644999999999982e+02 1.575970000000000027e+03
8.100000000000000255e-02 7.699549999999999450e-01 3.392709999999999582e+01 1.331730000000000018e+02 1.576384999999999991e+03
8.200000000000000344e-02 7.702984999999999971e-01 3.375065000000000026e+01 1.343715000000000259e+02 1.576744999999999891e+03
8.300000000000000433e-02 7.705785000000000551e-01 3.347214999999999918e+01 1.353499999999999943e+02 1.577055000000000064e+03
8.400000000000000522e-02 7.707960000000000367e-01 3.309234999999999616e+01 1.361045000000000016e+02 1.577300000000000182e+03
8.500000000000000611e-02 7.709515000000000118e-01 3.261495000000000033e+01 1.366380000000000052e+02 1.577490000000000009e+03
8.600000000000000699e-02 7.710479999999999556e-01 3.204614999999999725e+01 1.369594999999999914e+02 1.577625000000000000e+03
8.700000000000000788e-02 7.710905000000000120e-01 3.139450000000000074e+01 1.370829999999999984e+02 1.577704999999999927e+03
8.800000000000000877e-02 7.710839999999999916e-01 3.067060000000000031e+01 1.370269999999999868e+02 1.577740000000000009e+03
8.899999999999999578e-02 7.710350000000000259e-01 2.988654999999999973e+01 1.368140000000000214e+02 1.577724999999999909e+03
8.999999999999999667e-02 7.709509999999999419e-01 2.905589999999999762e+01 1.364694999999999823e+02 1.577670000000000073e+03
9.099999999999999756e-02 7.708399999999999697e-01 2.819245000000000090e+01 1.360204999999999984e+02 1.577585000000000036e+03
9.199999999999999845e-02 7.707085000000000186e-01 2.731065000000000254e+01 1.354944999999999879e+02 1.577474999999999909e+03
9.299999999999999933e-02 7.705644999999999856e-01 2.642414999999999736e+01 1.349180000000000064e+02 1.577345000000000027e+03
9.400000000000000022e-02 7.704150000000000720e-01 2.554595000000000127e+01 1.343164999999999907e+02 1.577199999999999818e+03
9.500000000000000111e-02 7.702655000000000474e-01 2.468759999999999977e+01 1.337129999999999939e+02 1.577055000000000064e+03
9.600000000000000200e-02 7.701210000000000555e-01 2.385865000000000080e+01 1.331270000000000095e+02 1.576910000000000082e+03
9.700000000000000289e-02 7.699860000000000593e-01 2.306680000000000064e+01 1.325734999999999957e+02 1.576764999999999873e+03
9.800000000000000377e-02 7.698625000000000052e-01 2.231705000000000183e+01 1.320635000000000048e+02 1.576625000000000000e+03
9.900000000000000466e-02 7.697514999999999219e-01 2.161209999999999809e+01 1.316039999999999850e+02 1.576494999999999891e+03
1.000000000000000056e-01 7.696534999999999904e-01 2.095210000000000150e+01 1.311965000000000146e+02 1.576384999999999991e+03
1.010000000000000064e-01 7.695670000000000011e-01 2.033480000000000132e+01 1.308375000000000057e+02 1.576279999999999973e+03
1.020000000000000073e-01 7.694894999999999374e-01 1.975609999999999999e+01 1.305215000000000032e+02 1.576180000000000064e+03
1.030000000000000082e-01 7.694189999999999641e-01 1.920980000000000132e+01 1.302364999999999782e+02 1.576095000000000027e+03
1.040000000000000091e-01 7.693495000000000195e-01 1.868860000000000099e+01 1.299714999999999918e+02 1.576014999999999873e+03
1.050000000000000100e-01 7.692790000000000461e-01 1.818435000000000201e+01 1.297119999999999891e+02 1.575934999999999945e+03
1.059999999999999970e-01 7.692025000000000112e-01 1.768815000000000026e+01 1.294410000000000025e+02 1.575855000000000018e+03
1.069999999999999979e-01 7.691149999999999931e-01 1.719139999999999802e+01 1.291440000000000055e+02 1.575769999999999982e+03
1.079999999999999988e-01 7.690135000000000165e-01 1.668574999999999875e+01 1.288064999999999998e+02 1.575675000000000182e+03
1.089999999999999997e-01 7.688949999999999951e-01 1.616390000000000171e+01 1.284145000000000039e+02 1.575574999999999818e+03
1.100000000000000006e-01 7.687554999999999250e-01 1.561965000000000003e+01 1.279585000000000008e+02 1.575450000000000045e+03
1.110000000000000014e-01 7.685950000000000282e-01 1.504830000000000112e+01 1.274304999999999950e+02 1.575315000000000055e+03
1.120000000000000023e-01 7.684115000000000251e-01 1.444715000000000060e+01 1.268255000000000052e+02 1.575159999999999854e+03
1.130000000000000032e-01 7.682059999999999444e-01 1.381513500000000150e+01 1.261425000000000125e+02 1.574985000000000127e+03
1.140000000000000041e-01 7.679799999999999960e-01 1.315349499999999949e+01 1.253850000000000051e+02 1.574795000000000073e+03
1.150000000000000050e-01 7.677350000000000563e-01 1.246541500000000013e+01 1.245594999999999999e+02 1.574585000000000036e+03
1.160000000000000059e-01 7.674750000000000183e-01 1.175580000000000069e+01 1.236759999999999877e+02 1.574355000000000018e+03
1.170000000000000068e-01 7.672045000000000670e-01 1.103147500000000036e+01 1.227479999999999905e+02 1.574115000000000009e+03
1.180000000000000077e-01 7.669270000000000254e-01 1.030061500000000052e+01 1.217904999999999944e+02 1.573865000000000009e+03
1.190000000000000085e-01 7.666494999999999838e-01 9.572385000000000588e+00 1.208225000000000051e+02 1.573615000000000009e+03
1.200000000000000094e-01 7.663765000000000160e-01 8.856825000000000614e+00 1.198619999999999948e+02 1.573360000000000127e+03
1.209999999999999964e-01 7.661130000000000440e-01 8.164030000000000342e+00 1.189284999999999997e+02 1.573110000000000127e+03
1.219999999999999973e-01 7.658654999999999768e-01 7.504070000000000462e+00 1.180414999999999992e+02 1.572875000000000000e+03
1.229999999999999982e-01 7.656384999999999996e-01 6.886340000000000572e+00 1.172180000000000035e+02 1.572644999999999982e+03
1.239999999999999991e-01 7.654354999999999354e-01 6.319225000000000314e+00 1.164745000000000061e+02 1.572440000000000055e+03
1.250000000000000000e-01 7.652600000000000513e-01 5.809760000000000701e+00 1.158234999999999957e+02 1.572255000000000109e+03
1.260000000000000009e-01 7.651144999999999197e-01 5.363324999999999676e+00 1.152750000000000057e+02 1.572095000000000027e+03
1.270000000000000018e-01 7.650010000000000421e-01 4.983464999999999812e+00 1.148359999999999985e+02 1.571960000000000036e+03
1.280000000000000027e-01 7.649185000000000567e-01 4.671775000000000233e+00 1.145084999999999980e+02 1.571844999999999800e+03
1.290000000000000036e-01 7.648675000000000335e-01 4.427909999999999791e+00 1.142920000000000016e+02 1.571769999999999982e+03
1.300000000000000044e-01 7.648460000000000258e-01 4.249634999999999607e+00 1.141825000000000045e+02 1.571720000000000027e+03
1.310000000000000053e-01 7.648504999999999887e-01 4.133015000000000327e+00 1.141709999999999923e+02 1.571690000000000055e+03
1.320000000000000062e-01 7.648785000000000167e-01 4.072639999999999816e+00 1.142479999999999905e+02 1.571690000000000055e+03
1.330000000000000071e-01 7.649259999999999948e-01 4.061890000000000001e+00 1.144004999999999939e+02 1.571710000000000036e+03
1.340000000000000080e-01 7.649894999999999889e-01 4.093294999999999462e+00 1.146144999999999925e+02 1.571744999999999891e+03
1.350000000000000089e-01 7.650635000000000074e-01 4.158809999999999896e+00 1.148750000000000000e+02 1.571799999999999955e+03
1.360000000000000098e-01 7.651449999999999640e-01 4.250169999999999781e+00 1.151674999999999898e+02 1.571860000000000127e+03
1.370000000000000107e-01 7.652295000000000069e-01 4.359199999999999520e+00 1.154765000000000015e+02 1.571924999999999955e+03
1.380000000000000115e-01 7.653134999999999799e-01 4.478085000000000093e+00 1.157884999999999991e+02 1.572000000000000000e+03
1.390000000000000124e-01 7.653940000000000188e-01 4.599610000000000198e+00 1.160910000000000082e+02 1.572070000000000164e+03
1.400000000000000133e-01 7.654670000000000085e-01 4.717335000000000278e+00 1.163735000000000070e+02 1.572139999999999873e+03
1.410000000000000142e-01 7.655319999999999903e-01 4.825800000000000090e+00 1.166280000000000001e+02 1.572210000000000036e+03
1.420000000000000151e-01 7.655864999999999476e-01 4.920519999999999783e+00 1.168479999999999990e+02 1.572264999999999873e+03
1.430000000000000160e-01 7.656294999999999629e-01 4.998145000000000060e+00 1.170285000000000082e+02 1.572315000000000055e+03
1.440000000000000169e-01 7.656614999999999949e-01 5.056379999999999875e+00 1.171674999999999898e+02 1.572360000000000127e+03
1.450000000000000178e-01 7.656825000000000436e-01 5.094020000000000437e+00 1.172644999999999982e+02 1.572384999999999991e+03
1.459999999999999909e-01 7.656924999999999981e-01 5.110834999999999795e+00 1.173215000000000003e+02 1.572409999999999854e+03
1.469999999999999918e-01 7.656924999999999981e-01 5.107504999999999740e+00 1.173419999999999987e+02 1.572420000000000073e+03
1.479999999999999927e-01 7.656849999999999490e-01 5.085494999999999877e+00 1.173290000000000077e+02 1.572420000000000073e+03
1.489999999999999936e-01 7.656704999999999206e-01 5.046934999999999505e+00 1.172890000000000015e+02 1.572420000000000073e+03
1.499999999999999944e-01 7.656505000000000116e-01 4.994444999999999801e+00 1.172274999999999920e+02 1.572409999999999854e+03
1.509999999999999953e-01 7.656275000000000164e-01 4.931015000000000370e+00 1.171504999999999939e+02 1.572394999999999982e+03
1.519999999999999962e-01 7.656034999999999924e-01 4.859824999999999839e+00 1.170635000000000048e+02 1.572375000000000000e+03
1.529999999999999971e-01 7.655790000000000095e-01 4.784110000000000085e+00 1.169729999999999990e+02 1.572360000000000127e+03
1.539999999999999980e-01 7.655555000000000554e-01 4.706990000000000229e+00 1.168845000000000027e+02 1.572335000000000036e+03
1.549999999999999989e-01 7.655349999999999655e-01 4.631375000000000242e+00 1.168025000000000091e+02 1.572319999999999936e+03
1.559999999999999998e-01 7.655180000000000318e-01 4.559829999999999828e+00 1.167319999999999993e+02 1.572299999999999955e+03
1.570000000000000007e-01 7.655049999999999910e-01 4.494469999999999743e+00 1.166740000000000066e+02 1.572284999999999854e+03
1.580000000000000016e-01 7.654974999999999419e-01 4.436914999999999942e+00 1.166320000000000050e+02 1.572275000000000091e+03
1.590000000000000024e-01 7.654940000000000078e-01 4.388264999999999638e+00 1.166055000000000064e+02 1.572264999999999873e+03
