# t [s], A [cm^2], U [cm/s], P [cPa], c [cm/s]
1.000000000000000021e-03 2.028185000000000127e-01 3.528954999999999731e-01 1.047625000000000028e+02 1.977099999999999909e+03
2.000000000000000042e-03 2.027614999999999834e-01 2.066987500000000200e+00 1.012610499999999973e+02 1.976704999999999927e+03
3.000000000000000062e-03 2.025954999999999839e-01 4.173936499999999938e+00 9.645935000000000059e+01 1.975615000000000009e+03
4.000000000000000083e-03 2.023639999999999883e-01 6.530554500000000040e+00 9.121344999999999459e+01 1.974119999999999891e+03
5.000000000000000104e-03 2.021120000000000139e-01 9.057095000000000340e+00 8.646954999999999814e+01 1.972505000000000109e+03
6.000000000000000125e-03 2.018665000000000043e-01 1.156920000000000037e+01 8.256284999999999741e+01 1.970950000000000045e+03
7.000000000000000146e-03 2.016359999999999819e-01 1.383863000000000021e+01 7.926754999999999995e+01 1.969514999999999873e+03
8.000000000000000167e-03 2.014239999999999919e-01 1.576225000000000165e+01 7.632300000000000750e+01 1.968220000000000027e+03
9.000000000000001055e-03 2.012364999999999848e-01 1.737160000000000082e+01 7.375020000000000664e+01 1.967090000000000146e+03
1.000000000000000194e-02 2.010770000000000057e-01 1.870855000000000246e+01 7.163159999999999172e+01 1.966130000000000109e+03
1.099999999999999936e-02 2.009444999999999981e-01 1.979299999999999926e+01 6.995289999999999964e+01 1.965349999999999909e+03
1.200000000000000025e-02 2.008385000000000031e-01 2.064509999999999934e+01 6.865919999999999845e+01 1.964740000000000009e+03
1.300000000000000114e-02 2.007554999999999756e-01 2.127904999999999802e+01 6.767279999999999518e+01 1.964259999999999991e+03
1.400000000000000203e-02 2.006894999999999929e-01 2.170364999999999966e+01 6.688379999999999370e+01 1.963884999999999991e+03
1.499999999999999944e-02 2.006370000000000098e-01 2.196105000000000018e+01 6.623610000000000753e+01 1.963599999999999909e+03
1.600000000000000033e-02 2.005989999999999995e-01 2.215760000000000218e+01 6.584780000000000655e+01 1.963394999999999982e+03
1.700000000000000122e-02 2.005839999999999845e-01 2.243890000000000029e+01 6.600659999999999172e+01 1.963329999999999927e+03
1.800000000000000211e-02 2.006020000000000025e-01 2.292070000000000007e+01 6.700685000000000002e+01 1.963445000000000164e+03
1.900000000000000300e-02 2.006590000000000040e-01 2.362584999999999980e+01 6.894389999999999930e+01 1.963789999999999964e+03
2.000000000000000042e-02 2.007504999999999984e-01 2.446780000000000044e+01 7.160609999999999786e+01 1.964335000000000036e+03
2.100000000000000130e-02 2.008635000000000004e-01 2.528454999999999941e+01 7.452009999999999934e+01 1.965019999999999982e+03
2.200000000000000219e-02 2.009790000000000187e-01 2.590074999999999861e+01 7.711214999999999975e+01 1.965724999999999909e+03
2.299999999999999961e-02 2.010770000000000057e-01 2.618905000000000172e+01 7.890184999999999604e+01 1.966335000000000036e+03
2.400000000000000050e-02 2.011439999999999895e-01 2.610689999999999955e+01 7.964869999999999095e+01 1.966764999999999873e+03
2.500000000000000139e-02 2.011744999999999783e-01 2.570069999999999766e+01 7.940209999999999013e+01 1.966970000000000027e+03
2.600000000000000228e-02 2.011720000000000175e-01 2.507760000000000034e+01 7.844724999999999682e+01 1.966980000000000018e+03
2.700000000000000316e-02 2.011474999999999791e-01 2.436250000000000071e+01 7.717860000000000298e+01 1.966845000000000027e+03
2.800000000000000058e-02 2.011124999999999996e-01 2.365485000000000326e+01 7.595669999999999789e+01 1.966644999999999982e+03
2.900000000000000147e-02 2.010784999999999934e-01 2.300345000000000084e+01 7.500104999999999222e+01 1.966440000000000055e+03
3.000000000000000236e-02 2.010489999999999777e-01 2.240275000000000105e+01 7.435020000000000095e+01 1.966264999999999873e+03
3.099999999999999978e-02 2.010254999999999959e-01 2.180839999999999890e+01 7.388930000000000575e+01 1.966119999999999891e+03
3.200000000000000067e-02 2.010025000000000006e-01 2.116369999999999862e+01 7.342459999999999809e+01 1.965985000000000127e+03
3.300000000000000155e-02 2.009759999999999880e-01 2.042709999999999937e+01 7.277365000000000350e+01 1.965820000000000164e+03
3.400000000000000244e-02 2.009394999999999931e-01 1.959275000000000233e+01 7.184280000000001110e+01 1.965610000000000127e+03
3.500000000000000333e-02 2.008940000000000170e-01 1.869885000000000019e+01 7.067005000000000337e+01 1.965340000000000146e+03
3.600000000000000422e-02 2.008425000000000071e-01 1.782119999999999749e+01 6.942324999999999591e+01 1.965039999999999964e+03
3.700000000000000511e-02 2.007929999999999993e-01 1.705499999999999972e+01 6.835569999999999879e+01 1.964740000000000009e+03
3.799999999999999906e-02 2.007539999999999880e-01 1.649034999999999940e+01 6.773494999999999777e+01 1.964500000000000000e+03
3.899999999999999994e-02 2.007359999999999978e-01 1.618834999999999980e+01 6.776619999999999777e+01 1.964384999999999991e+03
4.000000000000000083e-02 2.007450000000000068e-01 1.616535000000000011e+01 6.853409999999999513e+01 1.964420000000000073e+03
4.100000000000000172e-02 2.007819999999999883e-01 1.638864999999999839e+01 6.997714999999999463e+01 1.964625000000000000e+03
4.200000000000000261e-02 2.008435000000000081e-01 1.678294999999999959e+01 7.189830000000000609e+01 1.964980000000000018e+03
4.300000000000000350e-02 2.009205000000000019e-01 1.724515000000000242e+01 7.400604999999998768e+01 1.965434999999999945e+03
4.400000000000000439e-02 2.010025000000000006e-01 1.766315000000000168e+01 7.597069999999999368e+01 1.965920000000000073e+03
4.499999999999999833e-02 2.010770000000000057e-01 1.793325000000000102e+01 7.748275000000001000e+01 1.966369999999999891e+03
4.599999999999999922e-02 2.011324999999999918e-01 1.797409999999999997e+01 7.830019999999998959e+01 1.966710000000000036e+03
4.700000000000000011e-02 2.011600000000000055e-01 1.773444999999999894e+01 7.827734999999999843e+01 1.966884999999999991e+03
4.800000000000000100e-02 2.011545000000000138e-01 1.719510000000000005e+01 7.737234999999999729e+01 1.966864999999999782e+03
4.900000000000000189e-02 2.011135000000000006e-01 1.636520000000000152e+01 7.563670000000000471e+01 1.966630000000000109e+03
5.000000000000000278e-02 2.010389999999999955e-01 1.527590000000000003e+01 7.319214999999999804e+01 1.966195000000000164e+03
5.100000000000000366e-02 2.009350000000000025e-01 1.397264999999999802e+01 7.020125000000000171e+01 1.965579999999999927e+03
5.200000000000000455e-02 2.008074999999999999e-01 1.250763500000000050e+01 6.684069999999999823e+01 1.964825000000000045e+03
5.300000000000000544e-02 2.006634999999999946e-01 1.093485499999999888e+01 6.328020000000000778e+01 1.963960000000000036e+03
5.399999999999999939e-02 2.005084999999999784e-01 9.306694999999999496e+00 5.967040000000000077e+01 1.963029999999999973e+03
5.500000000000000028e-02 2.003495000000000137e-01 7.673090000000000188e+00 5.613940000000000197e+01 1.962075000000000045e+03
5.600000000000000117e-02 2.001910000000000078e-01 6.081699999999999662e+00 5.279550000000000409e+01 1.961119999999999891e+03
5.700000000000000205e-02 2.000394999999999812e-01 4.578825499999999771e+00 4.973290000000000077e+01 1.960204999999999927e+03
5.800000000000000294e-02 1.998989999999999934e-01 3.209903999999999868e+00 4.703770000000000095e+01 1.959360000000000127e+03
5.900000000000000383e-02 1.997740000000000071e-01 2.019570499999999935e+00 4.479250000000000398e+01 1.958595000000000027e+03
6.000000000000000472e-02 1.996684999999999988e-01 1.050600000000000200e+00 4.307679999999999865e+01 1.957950000000000045e+03
6.099999999999999867e-02 1.995854999999999990e-01 3.421199999999999797e-01 4.196500000000000341e+01 1.957440000000000055e+03
6.199999999999999956e-02 1.995294999999999985e-01 -7.276949999999993146e-02 4.152105000000000246e+01 1.957090000000000146e+03
6.300000000000000044e-02 1.995044999999999735e-01 -1.694235000000000047e-01 4.179269999999999641e+01 1.956914999999999964e+03
6.400000000000000133e-02 1.995105000000000073e-01 6.625950000000002671e-02 4.280514999999999759e+01 1.956929999999999836e+03
6.500000000000000222e-02 1.995494999999999908e-01 6.364480000000000137e-01 4.455689999999999884e+01 1.957144999999999982e+03
6.600000000000000311e-02 1.996215000000000073e-01 1.530947500000000128e+00 4.701780000000000115e+01 1.957559999999999945e+03
6.700000000000000400e-02 1.997265000000000013e-01 2.727787500000000254e+00 5.012994999999999379e+01 1.958164999999999964e+03
6.800000000000000488e-02 1.998599999999999821e-01 4.194585000000000008e+00 5.381130000000000280e+01 1.958950000000000045e+03
6.900000000000000577e-02 2.000200000000000033e-01 5.890634999999999621e+00 5.796115000000000350e+01 1.959894999999999982e+03
7.000000000000000666e-02 2.002019999999999911e-01 7.769299999999999429e+00 6.246674999999999756e+01 1.960980000000000018e+03
7.100000000000000755e-02 2.004009999999999958e-01 9.780554999999999666e+00 6.721014999999999873e+01 1.962170000000000073e+03
7.200000000000000844e-02 2.006129999999999858e-01 1.187335500000000010e+01 7.207495000000000118e+01 1.963434999999999945e+03
7.300000000000000933e-02 2.008320000000000105e-01 1.399824999999999875e+01 7.695189999999999486e+01 1.964755000000000109e+03
7.399999999999999634e-02 2.010529999999999817e-01 1.610895000000000010e+01 8.174379999999999313e+01 1.966095000000000027e+03
7.499999999999999722e-02 2.012729999999999797e-01 1.816475000000000151e+01 8.636960000000000548e+01 1.967424999999999955e+03
7.599999999999999811e-02 2.014874999999999861e-01 2.013149999999999906e+01 9.076694999999999425e+01 1.968735000000000127e+03
7.699999999999999900e-02 2.016939999999999844e-01 2.198295000000000243e+01 9.489424999999999955e+01 1.969994999999999891e+03
7.799999999999999989e-02 2.018900000000000139e-01 2.370149999999999935e+01 9.873175000000000523e+01 1.971195000000000164e+03
7.900000000000000078e-02 2.020744999999999902e-01 2.527810000000000201e+01 1.022788000000000039e+02 1.972329999999999927e+03
8.000000000000000167e-02 2.022479999999999833e-01 2.671204999999999785e+01 1.055557499999999891e+02 1.973400000000000091e+03
8.100000000000000255e-02 2.024104999999999932e-01 2.801004999999999967e+01 1.085964999999999918e+02 1.974404999999999973e+03
8.200000000000000344e-02 2.025629999999999931e-01 2.918464999999999776e+01 1.114480000000000075e+02 1.975349999999999909e+03
8.300000000000000433e-02 2.027079999999999993e-01 3.025269999999999726e+01 1.141620000000000061e+02 1.976244999999999891e+03
8.400000000000000522e-02 2.028464999999999852e-01 3.123349999999999937e+01 1.167930000000000064e+02 1.977110000000000127e+03
8.500000000000000611e-02 2.029815000000000091e-01 3.214690000000000225e+01 1.193925000000000125e+02 1.977944999999999936e+03
8.600000000000000699e-02 2.031144999999999756e-01 3.301145000000000351e+01 1.220039999999999907e+02 1.978769999999999982e+03
8.700000000000000788e-02 2.032479999999999842e-01 3.384305000000000518e+01 1.246615000000000038e+02 1.979599999999999909e+03
8.800000000000000877e-02 2.033824999999999938e-01 3.465390000000000015e+01 1.273840000000000146e+02 1.980430000000000064e+03
8.899999999999999578e-02 2.035190000000000055e-01 3.545165000000000077e+01 1.301784999999999854e+02 1.981275000000000091e+03
8.999999999999999667e-02 2.036580000000000057e-01 3.623915000000000219e+01 1.330394999999999754e+02 1.982134999999999991e+03
9.099999999999999756e-02 2.037995000000000223e-01 3.701460000000000150e+01 1.359459999999999980e+02 1.983010000000000218e+03
9.199999999999999845e-02 2.039420000000000122e-01 3.777159999999999940e+01 1.388695000000000164e+02 1.983889999999999873e+03
9.299999999999999933e-02 2.040845000000000020e-01 3.850025000000000119e+01 1.417710000000000150e+02 1.984769999999999982e+03
9.400000000000000022e-02 2.042260000000000186e-01 3.918760000000000332e+01 1.446080000000000041e+02 1.985644999999999982e+03
9.500000000000000111e-02 2.043639999999999901e-01 3.981889999999999930e+01 1.473335000000000150e+02 1.986500000000000000e+03
9.600000000000000200e-02 2.044960000000000111e-01 4.037829999999999586e+01 1.499010000000000105e+02 1.987320000000000164e+03
9.700000000000000289e-02 2.046209999999999973e-01 4.084999999999999432e+01 1.522674999999999841e+02 1.988105000000000018e+03
9.800000000000000377e-02 2.047375000000000167e-01 4.121909999999999741e+01 1.543925000000000125e+02 1.988824999999999818e+03
9.900000000000000466e-02 2.048424999999999829e-01 4.147249999999999659e+01 1.562429999999999950e+02 1.989485000000000127e+03
1.000000000000000056e-01 2.049354999999999927e-01 4.159935000000000116e+01 1.577940000000000111e+02 1.990065000000000055e+03
1.010000000000000064e-01 2.050150000000000028e-01 4.159205000000000041e+01 1.590269999999999868e+02 1.990565000000000055e+03
1.020000000000000073e-01 2.050794999999999979e-01 4.144624999999999915e+01 1.599339999999999975e+02 1.990974999999999909e+03
1.030000000000000082e-01 2.051295000000000202e-01 4.116124999999999545e+01 1.605155000000000030e+02 1.991295000000000073e+03
1.040000000000000091e-01 2.051644999999999996e-01 4.074009999999999820e+01 1.607810000000000059e+02 1.991519999999999982e+03
1.050000000000000100e-01 2.051855000000000206e-01 4.018965000000000032e+01 1.607490000000000236e+02 1.991664999999999964e+03
1.059999999999999970e-01 2.051924999999999999e-01 3.951994999999999436e+01 1.604440000000000168e+02 1.991720000000000027e+03
1.069999999999999979e-01 2.051870000000000083e-01 3.874415000000000475e+01 1.598975000000000080e+02 1.991690000000000055e+03
1.079999999999999988e-01 2.051695000000000046e-01 3.787774999999999892e+01 1.591465000000000032e+02 1.991589999999999918e+03
1.089999999999999997e-01 2.051419999999999910e-01 3.693800000000000239e+01 1.582300000000000182e+02 1.991434999999999945e+03
1.100000000000000006e-01 2.051069999999999838e-01 3.594330000000000069e+01 1.571889999999999930e+02 1.991220000000000027e+03
1.110000000000000014e-01 2.050649999999999973e-01 3.491235000000000355e+01 1.560640000000000214e+02 1.990970000000000027e+03
1.120000000000000023e-01 2.050184999999999924e-01 3.386334999999999695e+01 1.548940000000000055e+02 1.990684999999999945e+03
1.130000000000000032e-01 2.049694999999999989e-01 3.281369999999999720e+01 1.537144999999999868e+02 1.990384999999999991e+03
1.140000000000000041e-01 2.049185000000000034e-01 3.177884999999999849e+01 1.525564999999999998e+02 1.990075000000000045e+03
1.150000000000000050e-01 2.048679999999999946e-01 3.077240000000000109e+01 1.514454999999999814e+02 1.989759999999999991e+03
1.160000000000000059e-01 2.048185000000000144e-01 2.980525000000000091e+01 1.504019999999999868e+02 1.989454999999999927e+03
1.170000000000000068e-01 2.047710000000000086e-01 2.888535000000000252e+01 1.494375000000000000e+02 1.989159999999999854e+03
1.180000000000000077e-01 2.047264999999999779e-01 2.801794999999999902e+01 1.485595000000000141e+02 1.988880000000000109e+03
1.190000000000000085e-01 2.046850000000000058e-01 2.720504999999999995e+01 1.477669999999999959e+02 1.988625000000000000e+03
1.200000000000000094e-01 2.046470000000000233e-01 2.644585000000000008e+01 1.470540000000000020e+02 1.988384999999999991e+03
1.209999999999999964e-01 2.046120000000000161e-01 2.573669999999999902e+01 1.464080000000000155e+02 1.988164999999999964e+03
1.219999999999999973e-01 2.045795000000000252e-01 2.507164999999999822e+01 1.458125000000000000e+02 1.987960000000000036e+03
1.229999999999999982e-01 2.045489999999999808e-01 2.444265000000000043e+01 1.452465000000000259e+02 1.987764999999999873e+03
1.239999999999999991e-01 2.045194999999999930e-01 2.384024999999999750e+01 1.446864999999999952e+02 1.987579999999999927e+03
1.250000000000000000e-01 2.044900000000000051e-01 2.325379999999999825e+01 1.441084999999999923e+02 1.987394999999999982e+03
1.260000000000000009e-01 2.044600000000000029e-01 2.267249999999999943e+01 1.434864999999999782e+02 1.987204999999999927e+03
1.270000000000000018e-01 2.044279999999999986e-01 2.208545000000000158e+01 1.427980000000000018e+02 1.987005000000000109e+03
1.280000000000000027e-01 2.043929999999999914e-01 2.148274999999999935e+01 1.420224999999999795e+02 1.986785000000000082e+03
1.290000000000000036e-01 2.043544999999999945e-01 2.085555000000000092e+01 1.411410000000000196e+02 1.986545000000000073e+03
1.300000000000000044e-01 2.043110000000000204e-01 2.019684999999999775e+01 1.401415000000000077e+02 1.986275000000000091e+03
1.310000000000000053e-01 2.042619999999999991e-01 1.950179999999999936e+01 1.390169999999999959e+02 1.985974999999999909e+03
1.320000000000000062e-01 2.042080000000000006e-01 1.876789999999999736e+01 1.377649999999999864e+02 1.985650000000000091e+03
1.330000000000000071e-01 2.041489999999999971e-01 1.799524999999999864e+01 1.363910000000000196e+02 1.985279999999999973e+03
1.340000000000000080e-01 2.040839999999999876e-01 1.718655000000000044e+01 1.349055000000000177e+02 1.984884999999999991e+03
1.350000000000000089e-01 2.040140000000000009e-01 1.634709999999999752e+01 1.333240000000000123e+02 1.984454999999999927e+03
1.360000000000000098e-01 2.039394999999999958e-01 1.548440000000000083e+01 1.316694999999999993e+02 1.984000000000000000e+03
1.370000000000000107e-01 2.038619999999999877e-01 1.460805000000000042e+01 1.299655000000000200e+02 1.983519999999999982e+03
1.380000000000000115e-01 2.037825000000000053e-01 1.372909999999999897e+01 1.282415000000000020e+02 1.983034999999999854e+03
1.390000000000000124e-01 2.037014999999999798e-01 1.285975000000000001e+01 1.265275000000000034e+02 1.982539999999999964e+03
1.400000000000000133e-01 2.036215000000000108e-01 1.201266999999999996e+01 1.248539999999999850e+02 1.982039999999999964e+03
1.410000000000000142e-01 2.035420000000000007e-01 1.120035999999999987e+01 1.232510000000000048e+02 1.981554999999999836e+03
1.420000000000000151e-01 2.034664999999999946e-01 1.043486500000000028e+01 1.217460000000000093e+02 1.981085000000000036e+03
1.430000000000000160e-01 2.033945000000000058e-01 9.727040000000000575e+00 1.203625000000000114e+02 1.980639999999999873e+03
1.440000000000000169e-01 2.033280000000000087e-01 9.086214999999999264e+00 1.191210000000000093e+02 1.980230000000000018e+03
1.450000000000000178e-01 2.032674999999999899e-01 8.519690000000000651e+00 1.180364999999999895e+02 1.979855000000000018e+03
1.459999999999999909e-01 2.032140000000000057e-01 8.032745000000000246e+00 1.171189999999999998e+02 1.979519999999999982e+03
1.469999999999999918e-01 2.031675000000000009e-01 7.628280000000000172e+00 1.163719999999999999e+02 1.979230000000000018e+03
1.479999999999999927e-01 2.031290000000000040e-01 7.306845000000000034e+00 1.157950000000000017e+02 1.978985000000000127e+03
1.489999999999999936e-01 2.030980000000000008e-01 7.066754999999999676e+00 1.153815000000000026e+02 1.978789999999999964e+03
1.499999999999999944e-01 2.030739999999999768e-01 6.904185000000000016e+00 1.151194999999999879e+02 1.978634999999999991e+03
1.509999999999999953e-01 2.030569999999999875e-01 6.813480000000000203e+00 1.149960000000000093e+02 1.978525000000000091e+03
1.519999999999999962e-01 2.030465000000000186e-01 6.787399999999999878e+00 1.149935000000000116e+02 1.978454999999999927e+03
1.529999999999999971e-01 2.030414999999999859e-01 6.817504999999999704e+00 1.150910000000000082e+02 1.978420000000000073e+03
1.539999999999999980e-01 2.030414999999999859e-01 6.894534999999999414e+00 1.152684999999999889e+02 1.978409999999999854e+03
1.549999999999999989e-01 2.030460000000000043e-01 7.008734999999999715e+00 1.155049999999999955e+02 1.978434999999999945e+03
1.559999999999999998e-01 2.030525000000000246e-01 7.150260000000000282e+00 1.157789999999999964e+02 1.978470000000000027e+03
1.570000000000000007e-01 2.030615000000000059e-01 7.309499999999999886e+00 1.160709999999999980e+02 1.978525000000000091e+03
1.580000000000000016e-01 2.030724999999999891e-01 7.477375000000000327e+00 1.163640000000000043e+02 1.978585000000000036e+03
1.590000000000000024e-01 2.030835000000000001e-01 7.645595000000000141e+00 1.166424999999999983e+02 1.978650000000000091e+03
