# t [s], A [cm^2], U [cm/s], P [cPa], c [cm/s]
1.000000000000000021e-03 7.022445000000000492e-01 5.338999999999996526e-03 9.474365000000000236e+01 1.853980000000000018e+03
2.000000000000000042e-03 7.022469999999999546e-01 2.785269999999999760e-02 9.472395000000000209e+01 1.853974999999999909e+03
3.000000000000000062e-03 7.023394999999998944e-01 2.225966999999999807e-01 9.495869999999999322e+01 1.854019999999999982e+03
4.000000000000000083e-03 7.023239999999999483e-01 2.439619000000000093e-01 9.493280000000000030e+01 1.854014999999999873e+03
5.000000000000000104e-03 7.022029999999999106e-01 6.153599999999997960e-02 9.448040000000000305e+01 1.853929999999999836e+03
6.000000000000000125e-03 7.020950000000000246e-01 -1.179599999999999538e-01 9.389275000000000659e+01 1.853809999999999945e+03
7.000000000000000146e-03 7.018979999999999109e-01 -4.934950000000000170e-01 9.293145000000001232e+01 1.853615000000000009e+03
8.000000000000000167e-03 7.015869999999999607e-01 -1.116239999999999899e+00 9.144124999999999659e+01 1.853325000000000045e+03
9.000000000000001055e-03 7.011685000000000834e-01 -1.958034999999999748e+00 8.938665000000000305e+01 1.852904999999999973e+03
1.000000000000000194e-02 7.005900000000000460e-01 -3.084349999999999703e+00 8.659860000000000468e+01 1.852340000000000146e+03
1.099999999999999936e-02 6.998895000000000532e-01 -4.389800000000000146e+00 8.313530000000000086e+01 1.851619999999999891e+03
1.200000000000000025e-02 6.992315000000000058e-01 -5.502282499999999743e+00 7.952979999999999450e+01 1.850840000000000146e+03
1.300000000000000114e-02 6.987784999999999691e-01 -6.044780000000000264e+00 7.647570000000000334e+01 1.850134999999999991e+03
1.400000000000000203e-02 6.985669999999999380e-01 -5.889239999999999142e+00 7.437144999999999584e+01 1.849589999999999918e+03
1.499999999999999944e-02 6.985075000000000589e-01 -5.189669999999999561e+00 7.313899999999999579e+01 1.849210000000000036e+03
1.600000000000000033e-02 6.984529999999999905e-01 -4.260769999999999946e+00 7.232999999999999829e+01 1.848924999999999955e+03
1.700000000000000122e-02 6.982764999999999667e-01 -3.407720000000000304e+00 7.138625000000000398e+01 1.848630000000000109e+03
1.800000000000000211e-02 6.979319999999999968e-01 -2.782287000000000177e+00 6.992414999999999736e+01 1.848255000000000109e+03
1.900000000000000300e-02 6.974629999999999441e-01 -2.337434999999999707e+00 6.789544999999999675e+01 1.847779999999999973e+03
2.000000000000000042e-02 6.969644999999999868e-01 -1.906144999999999756e+00 6.553600000000000136e+01 1.847224999999999909e+03
2.100000000000000130e-02 6.965135000000000076e-01 -1.338845000000000063e+00 6.316215000000000401e+01 1.846659999999999854e+03
2.200000000000000219e-02 6.961295000000000677e-01 -6.061449999999997118e-01 6.096379999999999910e+01 1.846115000000000009e+03
2.299999999999999961e-02 6.957664999999999544e-01 1.743899999999998229e-01 5.889605000000000246e+01 1.845590000000000146e+03
2.400000000000000050e-02 6.953355000000001063e-01 7.774550000000002292e-01 5.668654999999999688e+01 1.845039999999999964e+03
2.500000000000000139e-02 6.947399999999999132e-01 9.490100000000003533e-01 5.393619999999999948e+01 1.844400000000000091e+03
2.600000000000000228e-02 6.939119999999999733e-01 4.985149999999998194e-01 5.027495000000000402e+01 1.843579999999999927e+03
2.700000000000000316e-02 6.928440000000000154e-01 -6.261349999999996641e-01 4.551924999999999955e+01 1.842549999999999955e+03
2.800000000000000058e-02 6.915955000000000297e-01 -2.313760000000000261e+00 3.976709999999999923e+01 1.841315000000000055e+03
2.900000000000000147e-02 6.902749999999999719e-01 -4.326335000000000264e+00 3.338664999999999594e+01 1.839929999999999836e+03
3.000000000000000236e-02 6.890049999999999786e-01 -6.373894999999999200e+00 2.691599000000000075e+01 1.838500000000000000e+03
3.099999999999999978e-02 6.878964999999999108e-01 -8.188880000000001047e+00 2.092854999999999777e+01 1.837134999999999991e+03
3.200000000000000067e-02 6.870255000000000667e-01 -9.574047000000000196e+00 1.591705100000000073e+01 1.835940000000000055e+03
3.300000000000000155e-02 6.864320000000000421e-01 -1.041926000000000130e+01 1.222243500000000083e+01 1.835005000000000109e+03
3.400000000000000244e-02 6.861230000000000384e-01 -1.069278500000000065e+01 1.001081500000000091e+01 1.834375000000000000e+03
3.500000000000000333e-02 6.860815000000000108e-01 -1.041788500000000006e+01 9.291964999999999364e+00 1.834059999999999945e+03
3.600000000000000422e-02 6.862789999999999724e-01 -9.644415000000000404e+00 9.964895000000000280e+00 1.834065000000000055e+03
3.700000000000000511e-02 6.866844999999999200e-01 -8.424640000000000128e+00 1.187218499999999999e+01 1.834355000000000018e+03
3.799999999999999906e-02 6.872715000000000352e-01 -6.801020000000000287e+00 1.484531600000000040e+01 1.834904999999999973e+03
3.899999999999999994e-02 6.880189999999999362e-01 -4.807014999999999816e+00 1.872755499999999884e+01 1.835670000000000073e+03
4.000000000000000083e-02 6.889024999999999732e-01 -2.478184999999999860e+00 2.337444499999999792e+01 1.836630000000000109e+03
4.100000000000000172e-02 6.898984999999999701e-01 1.349499999999999034e-01 2.863981000000000066e+01 1.837750000000000000e+03
4.200000000000000261e-02 6.909739999999999771e-01 2.959120000000000417e+00 3.436084999999999923e+01 1.838984999999999900e+03
4.300000000000000350e-02 6.920895000000000241e-01 5.899424999999999031e+00 4.035235000000000127e+01 1.840305000000000064e+03
4.400000000000000439e-02 6.932035000000000835e-01 8.847445000000000448e+00 4.641259999999999764e+01 1.841659999999999854e+03
4.499999999999999833e-02 6.942775000000001029e-01 1.169481500000000018e+01 5.233979999999999677e+01 1.843019999999999982e+03
4.599999999999999922e-02 6.952785000000000215e-01 1.434644499999999923e+01 5.795355000000000700e+01 1.844325000000000045e+03
4.700000000000000011e-02 6.961859999999999715e-01 1.673105499999999779e+01 6.311459999999999582e+01 1.845549999999999955e+03
4.800000000000000100e-02 6.969895000000000396e-01 1.880630000000000024e+01 6.773815000000000452e+01 1.846675000000000182e+03
4.900000000000000189e-02 6.976899999999999213e-01 2.055849999999999866e+01 7.179760000000000275e+01 1.847690000000000055e+03
5.000000000000000278e-02 6.982990000000000030e-01 2.199869999999999948e+01 7.532019999999999982e+01 1.848585000000000036e+03
5.100000000000000366e-02 6.988334999999999964e-01 2.315615000000000023e+01 7.837550000000000239e+01 1.849380000000000109e+03
5.200000000000000455e-02 6.993129999999999624e-01 2.407219999999999871e+01 8.106280000000000996e+01 1.850085000000000036e+03
5.300000000000000544e-02 6.997590000000000199e-01 2.479589999999999961e+01 8.349830000000000041e+01 1.850724999999999909e+03
5.399999999999999939e-02 7.001939999999999831e-01 2.538074999999999903e+01 8.580549999999999500e+01 1.851335000000000036e+03
5.500000000000000028e-02 7.006399999999999295e-01 2.588230000000000075e+01 8.810745000000000005e+01 1.851924999999999955e+03
5.600000000000000117e-02 7.011175000000000601e-01 2.635580000000000211e+01 9.052015000000000100e+01 1.852529999999999973e+03
5.700000000000000205e-02 7.016439999999999344e-01 2.685269999999999868e+01 9.314529999999999177e+01 1.853170000000000073e+03
5.800000000000000294e-02 7.022325000000000372e-01 2.741584999999999894e+01 9.606210000000000093e+01 1.853869999999999891e+03
5.900000000000000383e-02 7.028894999999999449e-01 2.807504999999999740e+01 9.931915000000000759e+01 1.854639999999999873e+03
6.000000000000000472e-02 7.036139999999999617e-01 2.884299999999999997e+01 1.029280499999999989e+02 1.855480000000000018e+03
6.099999999999999867e-02 7.043964999999999810e-01 2.971354999999999791e+01 1.068574999999999875e+02 1.856389999999999873e+03
6.199999999999999956e-02 7.052205000000000279e-01 3.066225000000000023e+01 1.110380000000000109e+02 1.857365000000000009e+03
6.300000000000000044e-02 7.060640000000000249e-01 3.164965000000000117e+01 1.153644999999999925e+02 1.858375000000000000e+03
6.400000000000000133e-02 7.068999999999999728e-01 3.262595000000000312e+01 1.197085000000000008e+02 1.859394999999999982e+03
6.500000000000000222e-02 7.077024999999999011e-01 3.353655000000000541e+01 1.239304999999999950e+02 1.860394999999999982e+03
6.600000000000000311e-02 7.084460000000000202e-01 3.432770000000000010e+01 1.278905000000000030e+02 1.861349999999999909e+03
6.700000000000000400e-02 7.091079999999999606e-01 3.495100000000000051e+01 1.314639999999999986e+02 1.862224999999999909e+03
6.800000000000000488e-02 7.096715000000000106e-01 3.536749999999999972e+01 1.345475000000000136e+02 1.863005000000000109e+03
6.900000000000000577e-02 7.101264999999999938e-01 3.554984999999999928e+01 1.370690000000000168e+02 1.863659999999999854e+03
7.000000000000000666e-02 7.104665000000000008e-01 3.548375000000000057e+01 1.389875000000000114e+02 1.864184999999999945e+03
7.100000000000000755e-02 7.106945000000000068e-01 3.516825000000000045e+01 1.402980000000000018e+02 1.864570000000000164e+03
7.200000000000000844e-02 7.108164999999999623e-01 3.461525000000000318e+01 1.410260000000000105e+02 1.864820000000000164e+03
7.300000000000000933e-02 7.108440000000000314e-01 3.384805000000000064e+01 1.412249999999999943e+02 1.864940000000000055e+03
7.399999999999999634e-02 7.107930000000000081e-01 3.289965000000000117e+01 1.409735000000000014e+02 1.864954999999999927e+03
7.499999999999999722e-02 7.106820000000000359e-01 3.181029999999999802e+01 1.403650000000000091e+02 1.864885000000000218e+03
7.599999999999999811e-02 7.105299999999999949e-01 3.062490000000000023e+01 1.395034999999999741e+02 1.864735000000000127e+03
7.699999999999999900e-02 7.103565000000000573e-01 2.939020000000000010e+01 1.384939999999999998e+02 1.864545000000000073e+03
7.799999999999999989e-02 7.101804999999999923e-01 2.815165000000000006e+01 1.374405000000000143e+02 1.864329999999999927e+03
7.900000000000000078e-02 7.100180000000000380e-01 2.695100000000000051e+01 1.364354999999999905e+02 1.864115000000000009e+03
8.000000000000000167e-02 7.098824999999999719e-01 2.582359999999999900e+01 1.355554999999999950e+02 1.863909999999999854e+03
8.100000000000000255e-02 7.097830000000000528e-01 2.479684999999999917e+01 1.348600000000000136e+02 1.863750000000000000e+03
8.200000000000000344e-02 7.097249999999999392e-01 2.388929999999999865e+01 1.343855000000000075e+02 1.863625000000000000e+03
8.300000000000000433e-02 7.097099999999999520e-01 2.310979999999999990e+01 1.341490000000000009e+02 1.863550000000000182e+03
8.400000000000000522e-02 7.097359999999999225e-01 2.245805000000000007e+01 1.341450000000000102e+02 1.863519999999999982e+03
8.500000000000000611e-02 7.097979999999999290e-01 2.192500000000000071e+01 1.343509999999999991e+02 1.863545000000000073e+03
8.600000000000000699e-02 7.098869999999999347e-01 2.149414999999999765e+01 1.347259999999999991e+02 1.863610000000000127e+03
8.700000000000000788e-02 7.099925000000000264e-01 2.114264999999999972e+01 1.352194999999999823e+02 1.863699999999999818e+03
8.800000000000000877e-02 7.101029999999999287e-01 2.084319999999999951e+01 1.357699999999999818e+02 1.863809999999999945e+03
8.899999999999999578e-02 7.102060000000000040e-01 2.056595000000000084e+01 1.363110000000000070e+02 1.863920000000000073e+03
8.999999999999999667e-02 7.102895000000000181e-01 2.028025000000000233e+01 1.367779999999999916e+02 1.864019999999999982e+03
9.099999999999999756e-02 7.103425000000000988e-01 1.995705000000000240e+01 1.371084999999999923e+02 1.864099999999999909e+03
9.199999999999999845e-02 7.103555000000000286e-01 1.957115000000000293e+01 1.372500000000000000e+02 1.864139999999999873e+03
9.299999999999999933e-02 7.103230000000000377e-01 1.910245000000000104e+01 1.371620000000000061e+02 1.864130000000000109e+03
9.400000000000000022e-02 7.102409999999999002e-01 1.853800000000000026e+01 1.368190000000000168e+02 1.864070000000000164e+03
9.500000000000000111e-02 7.101089999999999902e-01 1.787235000000000085e+01 1.362129999999999939e+02 1.863949999999999818e+03
9.600000000000000200e-02 7.099305000000000199e-01 1.710849999999999937e+01 1.353530000000000086e+02 1.863769999999999982e+03
9.700000000000000289e-02 7.097115000000000506e-01 1.625719999999999743e+01 1.342655000000000030e+02 1.863545000000000073e+03
9.800000000000000377e-02 7.094624999999999959e-01 1.533619999999999983e+01 1.329935000000000116e+02 1.863269999999999982e+03
9.900000000000000466e-02 7.091925000000000034e-01 1.436943499999999929e+01 1.315914999999999964e+02 1.862964999999999918e+03
1.000000000000000056e-01 7.089145000000000030e-01 1.338472499999999954e+01 1.301229999999999905e+02 1.862634999999999991e+03
1.010000000000000064e-01 7.086425000000000640e-01 1.241224500000000042e+01 1.286550000000000011e+02 1.862295000000000073e+03
1.020000000000000073e-01 7.083880000000000177e-01 1.148250499999999974e+01 1.272560000000000002e+02 1.861969999999999800e+03
1.030000000000000082e-01 7.081625000000000281e-01 1.062415500000000002e+01 1.259890000000000043e+02 1.861670000000000073e+03
1.040000000000000091e-01 7.079759999999999387e-01 9.862065000000001191e+00 1.249085000000000036e+02 1.861404999999999973e+03
1.050000000000000100e-01 7.078344999999999221e-01 9.216110000000000468e+00 1.240564999999999998e+02 1.861179999999999836e+03
1.059999999999999970e-01 7.077424999999999411e-01 8.699654999999999916e+00 1.234604999999999961e+02 1.861019999999999982e+03
1.069999999999999979e-01 7.077009999999999135e-01 8.319169999999999732e+00 1.231340000000000003e+02 1.860909999999999854e+03
1.079999999999999988e-01 7.077085000000000736e-01 8.074080000000000368e+00 1.230720000000000027e+02 1.860865000000000009e+03
1.089999999999999997e-01 7.077599999999999447e-01 7.957220000000000404e+00 1.232560000000000002e+02 1.860880000000000109e+03
1.100000000000000006e-01 7.078484999999999916e-01 7.955555000000000376e+00 1.236574999999999989e+02 1.860934999999999945e+03
1.110000000000000014e-01 7.079670000000000130e-01 8.051324999999998511e+00 1.242340000000000089e+02 1.861039999999999964e+03
1.120000000000000023e-01 7.081055000000000543e-01 8.223310000000001452e+00 1.249389999999999930e+02 1.861179999999999836e+03
1.130000000000000032e-01 7.082539999999999392e-01 8.448229999999998796e+00 1.257219999999999942e+02 1.861344999999999800e+03
1.140000000000000041e-01 7.084044999999999925e-01 8.702059999999999462e+00 1.265314999999999941e+02 1.861509999999999991e+03
1.150000000000000050e-01 7.085470000000000379e-01 8.961359999999999104e+00 1.273199999999999932e+02 1.861684999999999945e+03
1.160000000000000059e-01 7.086744999999999850e-01 9.204390000000000072e+00 1.280434999999999945e+02 1.861849999999999909e+03
1.170000000000000068e-01 7.087810000000001054e-01 9.412089999999999179e+00 1.286659999999999968e+02 1.861994999999999891e+03
1.180000000000000077e-01 7.088615000000000332e-01 9.568860000000000809e+00 1.291595000000000084e+02 1.862119999999999891e+03
1.190000000000000085e-01 7.089134999999999742e-01 9.663035000000000707e+00 1.295045000000000073e+02 1.862210000000000036e+03
1.200000000000000094e-01 7.089360000000000106e-01 9.687374999999999403e+00 1.296920000000000073e+02 1.862269999999999982e+03
1.209999999999999964e-01 7.089290000000000314e-01 9.638930000000000220e+00 1.297214999999999918e+02 1.862289999999999964e+03
1.219999999999999973e-01 7.088955000000000117e-01 9.519054999999999822e+00 1.296005000000000109e+02 1.862284999999999854e+03
1.229999999999999982e-01 7.088380000000000791e-01 9.333009999999999806e+00 1.293449999999999989e+02 1.862240000000000009e+03
1.239999999999999991e-01 7.087615000000000443e-01 9.089560000000000528e+00 1.289770000000000039e+02 1.862174999999999955e+03
1.250000000000000000e-01 7.086715000000000098e-01 8.800104999999998512e+00 1.285219999999999914e+02 1.862079999999999927e+03
1.260000000000000009e-01 7.085734999999999673e-01 8.478125000000000355e+00 1.280109999999999957e+02 1.861974999999999909e+03
1.270000000000000018e-01 7.084729999999999084e-01 8.138040000000000163e+00 1.274730000000000132e+02 1.861855000000000018e+03
1.280000000000000027e-01 7.083755000000000468e-01 7.794439999999999813e+00 1.269375000000000000e+02 1.861740000000000009e+03
1.290000000000000036e-01 7.082859999999999712e-01 7.461039999999999672e+00 1.264330000000000069e+02 1.861630000000000109e+03
1.300000000000000044e-01 7.082079999999999487e-01 7.150059999999999860e+00 1.259810000000000088e+02 1.861519999999999982e+03
1.310000000000000053e-01 7.081444999999999546e-01 6.871315000000000062e+00 1.255989999999999895e+02 1.861429999999999836e+03
1.320000000000000062e-01 7.080965000000000176e-01 6.631829999999999892e+00 1.252980000000000018e+02 1.861355000000000018e+03
1.330000000000000071e-01 7.080644999999999856e-01 6.435589999999999478e+00 1.250824999999999960e+02 1.861295000000000073e+03
1.340000000000000080e-01 7.080480000000000107e-01 6.283455000000000013e+00 1.249495000000000005e+02 1.861255000000000109e+03
1.350000000000000089e-01 7.080450000000000355e-01 6.173379999999999868e+00 1.248919999999999959e+02 1.861230000000000018e+03
1.360000000000000098e-01 7.080515000000000558e-01 6.100789999999999935e+00 1.248954999999999984e+02 1.861224999999999909e+03
1.370000000000000107e-01 7.080649999999999444e-01 6.059070000000000178e+00 1.249424999999999955e+02 1.861224999999999909e+03
1.380000000000000115e-01 7.080815000000000303e-01 6.040205000000000268e+00 1.250150000000000006e+02 1.861235000000000127e+03
1.390000000000000124e-01 7.080964999999999065e-01 6.035379999999999967e+00 1.250919999999999987e+02 1.861244999999999891e+03
1.400000000000000133e-01 7.081070000000000420e-01 6.035639999999999894e+00 1.251530000000000058e+02 1.861255000000000109e+03
1.410000000000000142e-01 7.081104999999999761e-01 6.032484999999999431e+00 1.251814999999999998e+02 1.861259999999999991e+03
1.420000000000000151e-01 7.081029999999999269e-01 6.018369999999999997e+00 1.251620000000000061e+02 1.861259999999999991e+03
1.430000000000000160e-01 7.080834999999999768e-01 5.987154999999999561e+00 1.250835000000000008e+02 1.861235000000000127e+03
1.440000000000000169e-01 7.080515000000000558e-01 5.934459999999999624e+00 1.249399999999999977e+02 1.861210000000000036e+03
1.450000000000000178e-01 7.080064999999999831e-01 5.857855000000000700e+00 1.247284999999999968e+02 1.861164999999999964e+03
1.459999999999999909e-01 7.079495000000000093e-01 5.756980000000000430e+00 1.244525000000000006e+02 1.861099999999999909e+03
1.469999999999999918e-01 7.078820000000000112e-01 5.633549999999999613e+00 1.241195000000000022e+02 1.861029999999999973e+03
1.479999999999999927e-01 7.078065000000000051e-01 5.491220000000000212e+00 1.237404999999999973e+02 1.860944999999999936e+03
1.489999999999999936e-01 7.077264999999999251e-01 5.335304999999999964e+00 1.233290000000000077e+02 1.860855000000000018e+03
1.499999999999999944e-01 7.076439999999999397e-01 5.172500000000000320e+00 1.229035000000000082e+02 1.860755000000000109e+03
1.509999999999999953e-01 7.075644999999999296e-01 5.010410000000000252e+00 1.224815000000000111e+02 1.860654999999999973e+03
1.519999999999999962e-01 7.074899999999999523e-01 4.857070000000000221e+00 1.220825000000000102e+02 1.860565000000000055e+03
1.529999999999999971e-01 7.074245000000000116e-01 4.720480000000000231e+00 1.217249999999999943e+02 1.860480000000000018e+03
1.539999999999999980e-01 7.073715000000000419e-01 4.608100000000000307e+00 1.214260000000000019e+02 1.860404999999999973e+03
1.549999999999999989e-01 7.073320000000000718e-01 4.526394999999999946e+00 1.211989999999999981e+02 1.860349999999999909e+03
1.559999999999999998e-01 7.073095000000000354e-01 4.480495000000000339e+00 1.210559999999999974e+02 1.860304999999999836e+03
1.570000000000000007e-01 7.073045000000000027e-01 4.473885000000000112e+00 1.210035000000000025e+02 1.860285000000000082e+03
1.580000000000000016e-01 7.073169999999999735e-01 4.508245000000000502e+00 1.210444999999999993e+02 1.860279999999999973e+03
1.590000000000000024e-01 7.073469999999999480e-01 4.583389999999999631e+00 1.211784999999999997e+02 1.860304999999999836e+03
