# t [s], A [cm^2], U [cm/s], P [cPa], c [cm/s]
1.000000000000000021e-03 7.723379999999999690e-01 3.818800000000004136e-03 9.223754999999999882e+01 1.622369999999999891e+03
2.000000000000000042e-03 7.723290000000000433e-01 3.498199999999999921e-03 9.221209999999999241e+01 1.622359999999999900e+03
3.000000000000000062e-03 7.724104999999999999e-01 1.280077500000000035e-01 9.234389999999999077e+01 1.622394999999999982e+03
4.000000000000000083e-03 7.724575000000000191e-01 2.144028000000000045e-01 9.244634999999999536e+01 1.622420000000000073e+03
5.000000000000000104e-03 7.723994999999999056e-01 1.533815000000000039e-01 9.232314999999999827e+01 1.622394999999999982e+03
6.000000000000000125e-03 7.723094999999999821e-01 3.662100000000001465e-02 9.204170000000000584e+01 1.622335000000000036e+03
7.000000000000000146e-03 7.722165000000000834e-01 -9.532599999999996632e-02 9.166919999999998936e+01 1.622255000000000109e+03
8.000000000000000167e-03 7.720529999999999893e-01 -3.472099999999999076e-01 9.108334999999999582e+01 1.622130000000000109e+03
9.000000000000001055e-03 7.717974999999999142e-01 -7.520450000000000745e-01 9.020134999999999081e+01 1.621940000000000055e+03
1.000000000000000194e-02 7.714455000000000062e-01 -1.308815000000000062e+00 8.897889999999999588e+01 1.621664999999999964e+03
1.099999999999999936e-02 7.709690000000000154e-01 -2.040894999999999904e+00 8.734220000000000539e+01 1.621300000000000182e+03
1.200000000000000025e-02 7.703714999999999868e-01 -2.921674999999999578e+00 8.527439999999999998e+01 1.620829999999999927e+03
1.300000000000000114e-02 7.697229999999999350e-01 -3.816194999999999560e+00 8.291594999999999516e+01 1.620279999999999973e+03
1.400000000000000203e-02 7.691274999999999640e-01 -4.531222000000000527e+00 8.053419999999999845e+01 1.619704999999999927e+03
1.499999999999999944e-02 7.686614999999999975e-01 -4.914781500000000136e+00 7.839605000000000246e+01 1.619159999999999854e+03
1.600000000000000033e-02 7.683409999999999407e-01 -4.917555000000000121e+00 7.665574999999999761e+01 1.618684999999999945e+03
1.700000000000000122e-02 7.681274999999999631e-01 -4.593360000000000554e+00 7.531555000000000177e+01 1.618279999999999973e+03
1.800000000000000211e-02 7.679500000000000215e-01 -4.060270000000000046e+00 7.425239999999999441e+01 1.617940000000000055e+03
1.900000000000000300e-02 7.677415000000000767e-01 -3.448510000000000186e+00 7.328319999999999368e+01 1.617615000000000009e+03
2.000000000000000042e-02 7.674585000000000434e-01 -2.854018500000000014e+00 7.223945000000000505e+01 1.617289999999999964e+03
2.100000000000000130e-02 7.670945000000000125e-01 -2.312685000000000102e+00 7.102504999999999313e+01 1.616930000000000064e+03
2.200000000000000219e-02 7.666735000000000078e-01 -1.803875000000000117e+00 6.963509999999999422e+01 1.616534999999999854e+03
2.299999999999999961e-02 7.662340000000000817e-01 -1.278914999999999802e+00 6.813299999999999557e+01 1.616119999999999891e+03
2.400000000000000050e-02 7.658070000000000155e-01 -6.977850000000000996e-01 6.660139999999999816e+01 1.615695000000000164e+03
2.500000000000000139e-02 7.654004999999999281e-01 -5.690499999999998337e-02 6.509375000000000000e+01 1.615269999999999982e+03
2.600000000000000228e-02 7.649989999999999846e-01 6.008299999999997532e-01 6.360405000000000086e+01 1.614840000000000146e+03
2.700000000000000316e-02 7.645659999999999679e-01 1.193480000000000096e+00 6.206150000000000233e+01 1.614404999999999973e+03
2.800000000000000058e-02 7.640565000000000273e-01 1.619759999999999867e+00 6.034770000000000323e+01 1.613929999999999836e+03
2.900000000000000147e-02 7.634285000000000654e-01 1.784654999999999436e+00 5.832949999999999591e+01 1.613394999999999982e+03
3.000000000000000236e-02 7.626589999999999758e-01 1.624295000000000044e+00 5.589920000000000044e+01 1.612769999999999982e+03
3.099999999999999978e-02 7.617475000000000218e-01 1.123399999999999732e+00 5.300919999999999987e+01 1.612049999999999955e+03
3.200000000000000067e-02 7.607224999999999682e-01 3.203100000000000946e-01 4.969325000000000614e+01 1.611230000000000018e+03
3.300000000000000155e-02 7.596335000000000726e-01 -7.015599999999997394e-01 4.606579999999999586e+01 1.610335000000000036e+03
3.400000000000000244e-02 7.585414999999999797e-01 -1.832069999999999865e+00 4.230330000000000013e+01 1.609394999999999982e+03
3.500000000000000333e-02 7.575084999999999180e-01 -2.955384999999999707e+00 3.861335000000000406e+01 1.608465000000000146e+03
3.600000000000000422e-02 7.565884999999999971e-01 -3.968199999999999950e+00 3.520279999999999632e+01 1.607575000000000045e+03
3.700000000000000511e-02 7.558214999999999240e-01 -4.791120000000000267e+00 3.225069999999999482e+01 1.606784999999999854e+03
3.799999999999999906e-02 7.552324999999999733e-01 -5.372698500000000266e+00 2.989110000000000156e+01 1.606125000000000000e+03
3.899999999999999994e-02 7.548319999999999474e-01 -5.687539999999999374e+00 2.820635000000000048e+01 1.605610000000000127e+03
4.000000000000000083e-02 7.546200000000000685e-01 -5.730355000000000310e+00 2.722959999999999781e+01 1.605269999999999982e+03
4.100000000000000172e-02 7.545874999999999666e-01 -5.508404999999999774e+00 2.695425000000000182e+01 1.605099999999999909e+03
4.200000000000000261e-02 7.547235000000001026e-01 -5.034530000000000172e+00 2.734584999999999866e+01 1.605095000000000027e+03
4.300000000000000350e-02 7.550149999999999917e-01 -4.322383999999999560e+00 2.835459999999999781e+01 1.605255000000000109e+03
4.400000000000000439e-02 7.554484999999999673e-01 -3.384620000000000406e+00 2.992409999999999926e+01 1.605565000000000055e+03
4.499999999999999833e-02 7.560115000000000585e-01 -2.233874999999999833e+00 3.199624999999999631e+01 1.606005000000000109e+03
4.599999999999999922e-02 7.566910000000000025e-01 -8.854049999999999976e-01 3.451189999999999714e+01 1.606575000000000045e+03
4.700000000000000011e-02 7.574699999999999767e-01 6.398999999999994692e-01 3.740905000000000058e+01 1.607244999999999891e+03
4.800000000000000100e-02 7.583305000000000184e-01 2.313594999999999846e+00 4.062040000000000362e+01 1.608009999999999991e+03
4.900000000000000189e-02 7.592514999999999681e-01 4.099299999999999500e+00 4.407219999999999516e+01 1.608845000000000027e+03
5.000000000000000278e-02 7.602100000000000524e-01 5.954379999999999562e+00 4.768469999999999942e+01 1.609735000000000127e+03
5.100000000000000366e-02 7.611820000000000253e-01 7.832610000000000738e+00 5.137500000000000000e+01 1.610659999999999854e+03
5.200000000000000455e-02 7.621454999999999202e-01 9.687792999999999211e+00 5.506119999999999948e+01 1.611595000000000027e+03
5.300000000000000544e-02 7.630810000000000093e-01 1.147761500000000012e+01 5.866779999999999973e+01 1.612525000000000091e+03
5.399999999999999939e-02 7.639724999999999433e-01 1.316624999999999979e+01 6.213039999999999452e+01 1.613434999999999945e+03
5.500000000000000028e-02 7.648094999999999200e-01 1.472673999999999950e+01 6.539950000000000330e+01 1.614309999999999945e+03
5.600000000000000117e-02 7.655855000000000299e-01 1.614154999999999873e+01 6.844315000000000282e+01 1.615139999999999873e+03
5.700000000000000205e-02 7.662995000000000223e-01 1.740270000000000294e+01 7.124715000000000487e+01 1.615914999999999964e+03
5.800000000000000294e-02 7.669559999999999711e-01 1.851064999999999827e+01 7.381444999999999368e+01 1.616630000000000109e+03
5.900000000000000383e-02 7.675604999999999789e-01 1.947294999999999732e+01 7.616249999999999432e+01 1.617299999999999955e+03
6.000000000000000472e-02 7.681225000000000414e-01 2.030274999999999963e+01 7.832054999999999723e+01 1.617920000000000073e+03
6.099999999999999867e-02 7.686520000000000019e-01 2.101719999999999899e+01 8.032620000000000005e+01 1.618505000000000109e+03
6.199999999999999956e-02 7.691609999999999836e-01 2.163589999999999947e+01 8.222200000000000841e+01 1.619054999999999836e+03
6.300000000000000044e-02 7.696600000000000108e-01 2.217970000000000041e+01 8.405209999999999582e+01 1.619579999999999927e+03
6.400000000000000133e-02 7.701609999999999845e-01 2.266935000000000144e+01 8.585944999999999538e+01 1.620099999999999909e+03
6.500000000000000222e-02 7.706720000000000237e-01 2.312440000000000140e+01 8.768264999999999532e+01 1.620619999999999891e+03
6.600000000000000311e-02 7.712010000000000254e-01 2.356179999999999808e+01 8.955365000000000464e+01 1.621144999999999982e+03
6.700000000000000400e-02 7.717525000000000635e-01 2.399479999999999791e+01 9.149564999999999770e+01 1.621679999999999836e+03
6.800000000000000488e-02 7.723295000000000021e-01 2.443234999999999957e+01 9.352105000000000246e+01 1.622235000000000127e+03
6.900000000000000577e-02 7.729285000000000183e-01 2.487805000000000177e+01 9.563085000000000946e+01 1.622809999999999945e+03
7.000000000000000666e-02 7.735480000000000134e-01 2.533044999999999902e+01 9.781430000000000291e+01 1.623405000000000200e+03
7.100000000000000755e-02 7.741780000000000328e-01 2.578310000000000102e+01 1.000499999999999972e+02 1.624009999999999991e+03
7.200000000000000844e-02 7.748110000000000275e-01 2.622534999999999883e+01 1.023068999999999988e+02 1.624619999999999891e+03
7.300000000000000933e-02 7.754354999999999443e-01 2.664339999999999975e+01 1.045469999999999970e+02 1.625224999999999909e+03
7.399999999999999634e-02 7.760389999999999233e-01 2.702149999999999963e+01 1.067274999999999920e+02 1.625819999999999936e+03
7.499999999999999722e-02 7.766109999999999403e-01 2.734324999999999761e+01 1.088050000000000068e+02 1.626400000000000091e+03
7.599999999999999811e-02 7.771394999999999831e-01 2.759284999999999854e+01 1.107365000000000066e+02 1.626940000000000055e+03
7.699999999999999900e-02 7.776149999999999451e-01 2.775625000000000142e+01 1.124844999999999970e+02 1.627434999999999945e+03
7.799999999999999989e-02 7.780299999999999994e-01 2.782184999999999775e+01 1.140155000000000030e+02 1.627880000000000109e+03
7.900000000000000078e-02 7.783789999999999321e-01 2.778134999999999977e+01 1.153060000000000116e+02 1.628269999999999982e+03
8.000000000000000167e-02 7.786575000000000024e-01 2.763015000000000043e+01 1.163404999999999916e+02 1.628585000000000036e+03
8.100000000000000255e-02 7.788654999999999884e-01 2.736730000000000018e+01 1.171119999999999948e+02 1.628840000000000146e+03
8.200000000000000344e-02 7.790049999999999475e-01 2.699584999999999724e+01 1.176229999999999905e+02 1.629030000000000200e+03
8.300000000000000433e-02 7.790794999999999249e-01 2.652234999999999943e+01 1.178859999999999957e+02 1.629154999999999973e+03
8.400000000000000522e-02 7.790945000000000231e-01 2.595664999999999978e+01 1.179200000000000017e+02 1.629214999999999918e+03
8.500000000000000611e-02 7.790569999999999995e-01 2.531139999999999901e+01 1.177500000000000000e+02 1.629220000000000027e+03
8.600000000000000699e-02 7.789755000000000429e-01 2.460139999999999816e+01 1.174074999999999989e+02 1.629170000000000073e+03
8.700000000000000788e-02 7.788595000000000379e-01 2.384319999999999951e+01 1.169265000000000043e+02 1.629079999999999927e+03
8.800000000000000877e-02 7.787185000000000912e-01 2.305379999999999896e+01 1.163445000000000107e+02 1.628960000000000036e+03
8.899999999999999578e-02 7.785619999999999763e-01 2.225055000000000049e+01 1.156965000000000003e+02 1.628815000000000055e+03
8.999999999999999667e-02 7.783995000000000219e-01 2.145004999999999740e+01 1.150194999999999936e+02 1.628660000000000082e+03
9.099999999999999756e-02 7.782389999999999031e-01 2.066734999999999900e+01 1.143444999999999965e+02 1.628500000000000000e+03
9.199999999999999845e-02 7.780869999999999731e-01 1.991574999999999918e+01 1.137015000000000100e+02 1.628335000000000036e+03
9.299999999999999933e-02 7.779504999999999892e-01 1.920579999999999998e+01 1.131129999999999995e+02 1.628180000000000064e+03
9.400000000000000022e-02 7.778324999999999267e-01 1.854524999999999935e+01 1.125970000000000084e+02 1.628039999999999964e+03
9.500000000000000111e-02 7.777350000000000652e-01 1.793864999999999910e+01 1.121645000000000039e+02 1.627914999999999964e+03
9.600000000000000200e-02 7.776600000000000179e-01 1.738745000000000118e+01 1.118209999999999980e+02 1.627815000000000055e+03
9.700000000000000289e-02 7.776060000000000194e-01 1.689000000000000057e+01 1.115649999999999977e+02 1.627735000000000127e+03
9.800000000000000377e-02 7.775699999999999834e-01 1.644180000000000064e+01 1.113880000000000052e+02 1.627670000000000073e+03
9.900000000000000466e-02 7.775499999999999634e-01 1.603594999999999970e+01 1.112800000000000011e+02 1.627625000000000000e+03
1.000000000000000056e-01 7.775400000000000089e-01 1.566365000000000052e+01 1.112235000000000014e+02 1.627595000000000027e+03
1.010000000000000064e-01 7.775354999999999350e-01 1.531455000000000055e+01 1.112005000000000052e+02 1.627574999999999818e+03
1.020000000000000073e-01 7.775309999999999722e-01 1.497769999999999868e+01 1.111905000000000001e+02 1.627554999999999836e+03
1.030000000000000082e-01 7.775214999999999765e-01 1.464184999999999981e+01 1.111715000000000089e+02 1.627539999999999964e+03
1.040000000000000091e-01 7.775009999999999977e-01 1.429604999999999926e+01 1.111244999999999976e+02 1.627525000000000091e+03
1.050000000000000100e-01 7.774654999999999205e-01 1.393060000000000009e+01 1.110300000000000011e+02 1.627494999999999891e+03
1.059999999999999970e-01 7.774115000000000331e-01 1.353705000000000069e+01 1.108729999999999905e+02 1.627454999999999927e+03
1.069999999999999979e-01 7.773369999999999447e-01 1.310899999999999999e+01 1.106419999999999959e+02 1.627394999999999982e+03
1.079999999999999988e-01 7.772390000000000132e-01 1.264246999999999943e+01 1.103289999999999935e+02 1.627320000000000164e+03
1.089999999999999997e-01 7.771185000000000453e-01 1.213572500000000076e+01 1.099320000000000022e+02 1.627224999999999909e+03
1.100000000000000006e-01 7.769770000000000287e-01 1.158976000000000006e+01 1.094540000000000077e+02 1.627110000000000127e+03
1.110000000000000014e-01 7.768169999999999797e-01 1.100805500000000059e+01 1.089009999999999962e+02 1.626974999999999909e+03
1.120000000000000023e-01 7.766414999999999846e-01 1.039656000000000091e+01 1.082860000000000014e+02 1.626820000000000164e+03
1.130000000000000032e-01 7.764564999999999939e-01 9.763194999999999624e+00 1.076244999999999976e+02 1.626654999999999973e+03
1.140000000000000041e-01 7.762660000000000116e-01 9.117675000000000196e+00 1.069354999999999905e+02 1.626480000000000018e+03
1.150000000000000050e-01 7.760769999999999058e-01 8.470864999999999867e+00 1.062404999999999973e+02 1.626299999999999955e+03
1.160000000000000059e-01 7.758950000000000014e-01 7.834425000000000416e+00 1.055620000000000118e+02 1.626125000000000000e+03
1.170000000000000068e-01 7.757259999999999156e-01 7.220005000000000450e+00 1.049218500000000063e+02 1.625960000000000036e+03
1.180000000000000077e-01 7.755754999999999733e-01 6.638869999999999827e+00 1.043423500000000104e+02 1.625799999999999955e+03
1.190000000000000085e-01 7.754490000000000549e-01 6.101294999999999469e+00 1.038426999999999936e+02 1.625664999999999964e+03
1.200000000000000094e-01 7.753499999999999837e-01 5.616070000000000562e+00 1.034393499999999904e+02 1.625545000000000073e+03
1.209999999999999964e-01 7.752814999999999568e-01 5.190099999999999270e+00 1.031437999999999988e+02 1.625454999999999927e+03
1.219999999999999973e-01 7.752449999999999619e-01 4.828139999999999432e+00 1.029650000000000034e+02 1.625389999999999873e+03
1.229999999999999982e-01 7.752409999999999579e-01 4.532644999999999591e+00 1.029064999999999941e+02 1.625355000000000018e+03
1.239999999999999991e-01 7.752680000000000682e-01 4.303700000000000081e+00 1.029660000000000082e+02 1.625349999999999909e+03
1.250000000000000000e-01 7.753250000000000419e-01 4.139134999999999565e+00 1.031380000000000052e+02 1.625375000000000000e+03
1.260000000000000009e-01 7.754084999999999450e-01 4.034705000000000652e+00 1.034129999999999967e+02 1.625424999999999955e+03
1.270000000000000018e-01 7.755144999999999955e-01 3.984375000000000000e+00 1.037779999999999916e+02 1.625505000000000109e+03
1.280000000000000027e-01 7.756380000000000496e-01 3.980665000000000120e+00 1.042154999999999916e+02 1.625599999999999909e+03
1.290000000000000036e-01 7.757739999999999636e-01 4.015055000000000263e+00 1.047090000000000032e+02 1.625715000000000146e+03
1.300000000000000044e-01 7.759190000000000254e-01 4.078369999999999607e+00 1.052379999999999995e+02 1.625845000000000027e+03
1.310000000000000053e-01 7.760659999999999226e-01 4.161194999999999311e+00 1.057854999999999990e+02 1.625974999999999909e+03
1.320000000000000062e-01 7.762119999999999020e-01 4.254229999999999734e+00 1.063315000000000055e+02 1.626110000000000127e+03
1.330000000000000071e-01 7.763510000000000133e-01 4.348645000000000316e+00 1.068594999999999970e+02 1.626244999999999891e+03
1.340000000000000080e-01 7.764800000000000590e-01 4.436384999999999579e+00 1.073545000000000016e+02 1.626375000000000000e+03
1.350000000000000089e-01 7.765965000000000229e-01 4.510360000000000369e+00 1.078034999999999997e+02 1.626494999999999891e+03
1.360000000000000098e-01 7.766969999999999708e-01 4.564680000000000071e+00 1.081970000000000027e+02 1.626605000000000018e+03
1.370000000000000107e-01 7.767804999999999849e-01 4.594730000000000203e+00 1.085264999999999986e+02 1.626695000000000164e+03
1.380000000000000115e-01 7.768455000000000776e-01 4.597274999999999778e+00 1.087879999999999967e+02 1.626769999999999982e+03
1.390000000000000124e-01 7.768924999999999859e-01 4.570420000000000371e+00 1.089799999999999898e+02 1.626835000000000036e+03
1.400000000000000133e-01 7.769209999999999727e-01 4.513619999999999521e+00 1.091024999999999920e+02 1.626875000000000000e+03
1.410000000000000142e-01 7.769329999999999847e-01 4.427559999999999718e+00 1.091589999999999918e+02 1.626904999999999973e+03
1.420000000000000151e-01 7.769300000000000095e-01 4.314049999999999940e+00 1.091539999999999964e+02 1.626914999999999964e+03
1.430000000000000160e-01 7.769129999999999647e-01 4.175860000000000127e+00 1.090949999999999989e+02 1.626909999999999854e+03
1.440000000000000169e-01 7.768840000000000190e-01 4.016560000000000130e+00 1.089885000000000019e+02 1.626894999999999982e+03
1.450000000000000178e-01 7.768464999999999954e-01 3.840279999999999916e+00 1.088439999999999941e+02 1.626869999999999891e+03
1.459999999999999909e-01 7.768019999999999925e-01 3.651539999999999786e+00 1.086694999999999993e+02 1.626835000000000036e+03
1.469999999999999918e-01 7.767530000000000268e-01 3.455009999999999692e+00 1.084735000000000014e+02 1.626789999999999964e+03
1.479999999999999927e-01 7.767014999999999336e-01 3.255284999999999762e+00 1.082659999999999911e+02 1.626739999999999782e+03
1.489999999999999936e-01 7.766494999999999926e-01 3.056719999999999882e+00 1.080534999999999997e+02 1.626690000000000055e+03
1.499999999999999944e-01 7.765984999999999694e-01 2.863220000000000098e+00 1.078414999999999964e+02 1.626639999999999873e+03
1.509999999999999953e-01 7.765495000000000037e-01 2.678109999999999769e+00 1.076370000000000005e+02 1.626585000000000036e+03
1.519999999999999962e-01 7.765035000000000132e-01 2.504055000000000142e+00 1.074429999999999978e+02 1.626534999999999854e+03
1.529999999999999971e-01 7.764615000000000267e-01 2.342925000000000146e+00 1.072609999999999957e+02 1.626490000000000009e+03
1.539999999999999980e-01 7.764225000000000154e-01 2.195844999999999825e+00 1.070919999999999987e+02 1.626445000000000164e+03
1.549999999999999989e-01 7.763860000000000205e-01 2.063175000000000203e+00 1.069360000000000070e+02 1.626400000000000091e+03
1.559999999999999998e-01 7.763519999999999310e-01 1.944589999999999819e+00 1.067895000000000039e+02 1.626355000000000018e+03
1.570000000000000007e-01 7.763195000000000512e-01 1.839169999999999972e+00 1.066510000000000105e+02 1.626320000000000164e+03
1.580000000000000016e-01 7.762875000000000192e-01 1.745515000000000150e+00 1.065159999999999911e+02 1.626280000000000200e+03
1.590000000000000024e-01 7.762535000000000407e-01 1.661875000000000213e+00 1.063795000000000073e+02 1.626244999999999891e+03
