# t [s], A [cm^2], U [cm/s], P [cPa], c [cm/s]
1.000000000000000021e-03 1.327820000000000111e-01 2.601645000000000207e-01 9.259109999999999729e+01 1.980105000000000018e+03
2.000000000000000042e-03 1.327550000000000119e-01 1.663792000000000160e+00 8.969485000000000241e+01 1.979759999999999991e+03
3.000000000000000062e-03 1.326684999999999948e-01 3.406210500000000252e+00 8.573140000000000782e+01 1.978740000000000009e+03
4.000000000000000083e-03 1.325449999999999962e-01 5.359288999999999525e+00 8.130844999999999345e+01 1.977309999999999945e+03
5.000000000000000104e-03 1.324069999999999969e-01 7.467970000000000219e+00 7.720480000000000587e+01 1.975720000000000027e+03
6.000000000000000125e-03 1.322704999999999853e-01 9.603934999999999889e+00 7.377960000000000207e+01 1.974164999999999964e+03
7.000000000000000146e-03 1.321420000000000095e-01 1.157948999999999984e+01 7.091140000000000043e+01 1.972724999999999909e+03
8.000000000000000167e-03 1.320220000000000005e-01 1.327850999999999893e+01 6.834860000000000468e+01 1.971394999999999982e+03
9.000000000000001055e-03 1.319135000000000169e-01 1.470940500000000029e+01 6.605844999999999345e+01 1.970220000000000027e+03
1.000000000000000194e-02 1.318189999999999917e-01 1.591164999999999985e+01 6.412489999999999668e+01 1.969210000000000036e+03
1.099999999999999936e-02 1.317399999999999960e-01 1.690409999999999968e+01 6.256510000000000105e+01 1.968369999999999891e+03
1.200000000000000025e-02 1.316755000000000009e-01 1.769955000000000211e+01 6.134065000000000367e+01 1.967690000000000055e+03
1.300000000000000114e-02 1.316229999999999900e-01 1.830730000000000146e+01 6.039020000000000010e+01 1.967150000000000091e+03
1.400000000000000203e-02 1.315815000000000179e-01 1.872814999999999941e+01 5.961820000000000164e+01 1.966724999999999909e+03
1.499999999999999944e-02 1.315469999999999973e-01 1.897955000000000325e+01 5.894169999999999732e+01 1.966384999999999991e+03
1.600000000000000033e-02 1.315189999999999970e-01 1.912995000000000090e+01 5.839770000000000039e+01 1.966115000000000009e+03
1.700000000000000122e-02 1.315009999999999790e-01 1.929724999999999824e+01 5.819055000000000177e+01 1.965945000000000164e+03
1.800000000000000211e-02 1.314990000000000048e-01 1.960164999999999935e+01 5.860354999999999848e+01 1.965934999999999945e+03
1.900000000000000300e-02 1.315175000000000094e-01 2.010634999999999906e+01 5.982820000000000249e+01 1.966144999999999982e+03
2.000000000000000042e-02 1.315584999999999949e-01 2.078450000000000131e+01 6.182819999999999538e+01 1.966579999999999927e+03
2.100000000000000130e-02 1.316164999999999974e-01 2.152884999999999849e+01 6.431484999999999275e+01 1.967200000000000045e+03
2.200000000000000219e-02 1.316824999999999801e-01 2.219299999999999784e+01 6.683679999999999666e+01 1.967920000000000073e+03
2.299999999999999961e-02 1.317464999999999886e-01 2.264385000000000048e+01 6.893070000000000164e+01 1.968619999999999891e+03
2.400000000000000050e-02 1.317979999999999985e-01 2.280284999999999940e+01 7.026490000000001146e+01 1.969200000000000045e+03
2.500000000000000139e-02 1.318314999999999904e-01 2.266365000000000052e+01 7.072610000000000241e+01 1.969589999999999918e+03
2.600000000000000228e-02 1.318459999999999910e-01 2.228379999999999939e+01 7.042404999999999404e+01 1.969769999999999982e+03
2.700000000000000316e-02 1.318445000000000034e-01 2.175720000000000098e+01 6.962489999999999668e+01 1.969775000000000091e+03
2.800000000000000058e-02 1.318330000000000057e-01 2.117875000000000085e+01 6.864435000000000286e+01 1.969664999999999964e+03
2.900000000000000147e-02 1.318169999999999897e-01 2.061544999999999916e+01 6.774209999999999354e+01 1.969500000000000000e+03
3.000000000000000236e-02 1.318015000000000159e-01 2.009134999999999849e+01 6.705314999999998804e+01 1.969335000000000036e+03
3.099999999999999978e-02 1.317879999999999885e-01 1.958984999999999843e+01 6.657095000000001050e+01 1.969190000000000055e+03
3.200000000000000067e-02 1.317760000000000042e-01 1.906814999999999927e+01 6.617924999999999613e+01 1.969059999999999945e+03
3.300000000000000155e-02 1.317629999999999912e-01 1.847925000000000040e+01 6.571405000000000030e+01 1.968925000000000182e+03
3.400000000000000244e-02 1.317464999999999886e-01 1.779325000000000045e+01 6.503490000000000748e+01 1.968744999999999891e+03
3.500000000000000333e-02 1.317230000000000067e-01 1.701184999999999903e+01 6.408244999999999436e+01 1.968500000000000000e+03
3.600000000000000422e-02 1.316940000000000055e-01 1.617364999999999853e+01 6.290814999999999912e+01 1.968190000000000055e+03
3.700000000000000511e-02 1.316605000000000136e-01 1.534754999999999825e+01 6.166875000000000284e+01 1.967839999999999918e+03
3.799999999999999906e-02 1.316284999999999816e-01 1.461674999999999969e+01 6.058764999999999645e+01 1.967494999999999891e+03
3.899999999999999994e-02 1.316019999999999968e-01 1.405889999999999951e+01 5.989584999999999582e+01 1.967204999999999927e+03
4.000000000000000083e-02 1.315874999999999961e-01 1.372705000000000020e+01 5.977105000000000246e+01 1.967039999999999964e+03
4.100000000000000172e-02 1.315874999999999961e-01 1.363765000000000072e+01 6.029125000000000512e+01 1.967025000000000091e+03
4.200000000000000261e-02 1.316039999999999988e-01 1.376675000000000004e+01 6.141465000000000174e+01 1.967184999999999945e+03
4.300000000000000350e-02 1.316344999999999876e-01 1.405604999999999905e+01 6.298824999999999363e+01 1.967494999999999891e+03
4.400000000000000439e-02 1.316755000000000009e-01 1.442425000000000068e+01 6.477970000000000539e+01 1.967925000000000182e+03
4.499999999999999833e-02 1.317210000000000047e-01 1.478164999999999907e+01 6.652200000000000557e+01 1.968404999999999973e+03
4.599999999999999922e-02 1.317639999999999922e-01 1.504449999999999932e+01 6.795994999999999209e+01 1.968869999999999891e+03
4.700000000000000011e-02 1.317994999999999861e-01 1.514569999999999972e+01 6.888859999999999673e+01 1.969250000000000000e+03
4.800000000000000100e-02 1.318209999999999937e-01 1.504129999999999967e+01 6.917719999999999914e+01 1.969494999999999891e+03
4.900000000000000189e-02 1.318269999999999997e-01 1.471219999999999928e+01 6.877715000000000600e+01 1.969570000000000164e+03
5.000000000000000278e-02 1.318155000000000021e-01 1.416165000000000163e+01 6.771524999999999750e+01 1.969454999999999927e+03
5.100000000000000366e-02 1.317865000000000009e-01 1.340995000000000026e+01 6.607590000000000430e+01 1.969154999999999973e+03
5.200000000000000455e-02 1.317419999999999980e-01 1.248866499999999924e+01 6.397854999999999848e+01 1.968684999999999945e+03
5.300000000000000544e-02 1.316849999999999965e-01 1.143473499999999987e+01 6.155610000000000070e+01 1.968079999999999927e+03
5.399999999999999939e-02 1.316180000000000128e-01 1.028618499999999969e+01 5.893730000000000047e+01 1.967369999999999891e+03
5.500000000000000028e-02 1.315445000000000086e-01 9.080109999999999459e+00 5.623704999999999643e+01 1.966585000000000036e+03
5.600000000000000117e-02 1.314675000000000149e-01 7.851734999999999687e+00 5.355275000000000318e+01 1.965755000000000109e+03
5.700000000000000205e-02 1.313900000000000068e-01 6.635219999999999452e+00 5.096685000000000088e+01 1.964920000000000073e+03
5.800000000000000294e-02 1.313134999999999997e-01 5.464624999999999844e+00 4.855195000000000505e+01 1.964094999999999800e+03
5.900000000000000383e-02 1.312419999999999976e-01 4.374929999999999986e+00 4.637664999999999793e+01 1.963319999999999936e+03
6.000000000000000472e-02 1.311765000000000014e-01 3.402410000000000156e+00 4.451014999999999588e+01 1.962605000000000018e+03
6.099999999999999867e-02 1.311194999999999999e-01 2.584142500000000009e+00 4.302405000000000257e+01 1.961985000000000127e+03
6.199999999999999956e-02 1.310729999999999951e-01 1.956758999999999915e+00 4.199115000000000464e+01 1.961474999999999909e+03
6.300000000000000044e-02 1.310399999999999898e-01 1.554500500000000063e+00 4.148144999999999527e+01 1.961105000000000018e+03
6.400000000000000133e-02 1.310224999999999862e-01 1.406991499999999951e+00 4.155715000000000003e+01 1.960900000000000091e+03
6.500000000000000222e-02 1.310215000000000130e-01 1.537059999999999871e+00 4.226645000000000607e+01 1.960875000000000000e+03
6.600000000000000311e-02 1.310395000000000032e-01 1.958960000000000257e+00 4.363850000000000051e+01 1.961049999999999955e+03
6.700000000000000400e-02 1.310764999999999847e-01 2.677259999999999973e+00 4.567969999999999686e+01 1.961425000000000182e+03
6.800000000000000488e-02 1.311329999999999996e-01 3.686409999999999521e+00 4.837234999999999729e+01 1.962010000000000218e+03
6.900000000000000577e-02 1.312089999999999923e-01 4.971130000000000493e+00 5.167520000000000380e+01 1.962809999999999945e+03
7.000000000000000666e-02 1.313030000000000030e-01 6.507419999999999760e+00 5.552630000000000621e+01 1.963804999999999836e+03
7.100000000000000755e-02 1.314135000000000164e-01 8.264039999999999608e+00 5.984704999999999586e+01 1.964974999999999909e+03
7.200000000000000844e-02 1.315385000000000026e-01 1.020426999999999929e+01 6.454749999999999943e+01 1.966309999999999945e+03
7.300000000000000933e-02 1.316755000000000009e-01 1.228783499999999940e+01 6.953140000000000498e+01 1.967775000000000091e+03
7.399999999999999634e-02 1.318214999999999804e-01 1.447313499999999920e+01 7.470194999999999652e+01 1.969345000000000027e+03
7.499999999999999722e-02 1.319744999999999946e-01 1.671880000000000166e+01 7.996639999999999304e+01 1.970994999999999891e+03
7.599999999999999811e-02 1.321309999999999985e-01 1.898574999999999946e+01 8.524089999999999634e+01 1.972700000000000045e+03
7.699999999999999900e-02 1.322895000000000043e-01 2.123874999999999957e+01 9.045384999999998854e+01 1.974420000000000073e+03
7.799999999999999989e-02 1.324474999999999958e-01 2.344754999999999967e+01 9.554879999999999995e+01 1.976150000000000091e+03
7.900000000000000078e-02 1.326029999999999986e-01 2.558789999999999765e+01 1.004849999999999994e+02 1.977855000000000018e+03
8.000000000000000167e-02 1.327554999999999985e-01 2.764189999999999969e+01 1.052402000000000015e+02 1.979535000000000082e+03
8.100000000000000255e-02 1.329039999999999944e-01 2.959830000000000183e+01 1.098064999999999998e+02 1.981164999999999964e+03
8.200000000000000344e-02 1.330474999999999852e-01 3.145139999999999958e+01 1.141924999999999955e+02 1.982759999999999991e+03
8.300000000000000433e-02 1.331869999999999998e-01 3.320090000000000430e+01 1.184134999999999991e+02 1.984305000000000064e+03
8.400000000000000522e-02 1.333219999999999961e-01 3.485020000000000095e+01 1.224969999999999999e+02 1.985804999999999836e+03
8.500000000000000611e-02 1.334529999999999883e-01 3.640554999999999808e+01 1.264689999999999941e+02 1.987264999999999873e+03
8.600000000000000699e-02 1.335815000000000197e-01 3.787439999999999429e+01 1.303594999999999970e+02 1.988695000000000164e+03
8.700000000000000788e-02 1.337069999999999925e-01 3.926465000000000316e+01 1.341924999999999955e+02 1.990105000000000018e+03
8.800000000000000877e-02 1.338314999999999921e-01 4.058315000000000339e+01 1.379864999999999782e+02 1.991494999999999891e+03
8.899999999999999578e-02 1.339540000000000175e-01 4.183514999999999873e+01 1.417509999999999764e+02 1.992869999999999891e+03
8.999999999999999667e-02 1.340760000000000007e-01 4.302384999999999593e+01 1.454895000000000209e+02 1.994230000000000018e+03
9.099999999999999756e-02 1.341964999999999963e-01 4.415009999999999479e+01 1.491949999999999932e+02 1.995579999999999927e+03
9.199999999999999845e-02 1.343159999999999910e-01 4.521240000000000236e+01 1.528534999999999968e+02 1.996920000000000073e+03
9.299999999999999933e-02 1.344334999999999836e-01 4.620695000000000618e+01 1.564449999999999932e+02 1.998240000000000009e+03
9.400000000000000022e-02 1.345485000000000153e-01 4.712825000000000131e+01 1.599449999999999932e+02 1.999539999999999964e+03
9.500000000000000111e-02 1.346604999999999885e-01 4.796909999999999741e+01 1.633234999999999957e+02 2.000799999999999955e+03
9.600000000000000200e-02 1.347689999999999999e-01 4.872155000000000058e+01 1.665515000000000043e+02 2.002025000000000091e+03
9.700000000000000289e-02 1.348730000000000206e-01 4.937704999999999700e+01 1.695985000000000014e+02 2.003200000000000045e+03
9.800000000000000377e-02 1.349715000000000220e-01 4.992699999999999960e+01 1.724360000000000070e+02 2.004315000000000055e+03
9.900000000000000466e-02 1.350635000000000030e-01 5.036329999999999529e+01 1.750370000000000061e+02 2.005355000000000018e+03
1.000000000000000056e-01 1.351485000000000047e-01 5.067879999999999541e+01 1.773790000000000191e+02 2.006325000000000045e+03
1.010000000000000064e-01 1.352260000000000129e-01 5.086764999999999759e+01 1.794440000000000168e+02 2.007204999999999927e+03
1.020000000000000073e-01 1.352949999999999986e-01 5.092560000000000286e+01 1.812175000000000011e+02 2.007994999999999891e+03
1.030000000000000082e-01 1.353550000000000031e-01 5.085065000000000168e+01 1.826910000000000025e+02 2.008684999999999945e+03
1.040000000000000091e-01 1.354064999999999852e-01 5.064289999999999736e+01 1.838629999999999995e+02 2.009279999999999973e+03
1.050000000000000100e-01 1.354484999999999995e-01 5.030499999999999972e+01 1.847375000000000114e+02 2.009764999999999873e+03
1.059999999999999970e-01 1.354815000000000047e-01 4.984214999999999662e+01 1.853249999999999886e+02 2.010150000000000091e+03
1.069999999999999979e-01 1.355060000000000153e-01 4.926205000000000211e+01 1.856410000000000196e+02 2.010445000000000164e+03
1.079999999999999988e-01 1.355224999999999902e-01 4.857475000000000165e+01 1.857079999999999984e+02 2.010634999999999991e+03
1.089999999999999997e-01 1.355304999999999982e-01 4.779229999999999734e+01 1.855520000000000209e+02 2.010744999999999891e+03
1.100000000000000006e-01 1.355325000000000002e-01 4.692839999999999634e+01 1.852030000000000030e+02 2.010775000000000091e+03
1.110000000000000014e-01 1.355274999999999952e-01 4.599805000000000632e+01 1.846935000000000002e+02 2.010730000000000018e+03
1.120000000000000023e-01 1.355179999999999996e-01 4.501670000000000016e+01 1.840564999999999998e+02 2.010625000000000000e+03
1.130000000000000032e-01 1.355034999999999989e-01 4.400000000000000000e+01 1.833260000000000218e+02 2.010474999999999909e+03
1.140000000000000041e-01 1.354859999999999953e-01 4.296314999999999884e+01 1.825339999999999918e+02 2.010285000000000082e+03
1.150000000000000050e-01 1.354660000000000031e-01 4.192034999999999911e+01 1.817079999999999984e+02 2.010065000000000055e+03
1.160000000000000059e-01 1.354450000000000098e-01 4.088429999999999609e+01 1.808750000000000000e+02 2.009824999999999818e+03
1.170000000000000068e-01 1.354219999999999868e-01 3.986610000000000298e+01 1.800550000000000068e+02 2.009574999999999818e+03
1.180000000000000077e-01 1.353999999999999926e-01 3.887470000000000425e+01 1.792649999999999864e+02 2.009319999999999936e+03
1.190000000000000085e-01 1.353774999999999840e-01 3.791679999999999495e+01 1.785144999999999982e+02 2.009065000000000055e+03
1.200000000000000094e-01 1.353555000000000175e-01 3.699665000000000248e+01 1.778095000000000141e+02 2.008820000000000164e+03
1.209999999999999964e-01 1.353349999999999831e-01 3.611625000000000085e+01 1.771504999999999939e+02 2.008579999999999927e+03
1.219999999999999973e-01 1.353149999999999908e-01 3.527535000000000309e+01 1.765335000000000036e+02 2.008355000000000018e+03
1.229999999999999982e-01 1.352959999999999996e-01 3.447155000000000058e+01 1.759484999999999957e+02 2.008134999999999991e+03
1.239999999999999991e-01 1.352774999999999950e-01 3.370060000000000144e+01 1.753834999999999980e+02 2.007925000000000182e+03
1.250000000000000000e-01 1.352595000000000047e-01 3.295680000000000121e+01 1.748234999999999957e+02 2.007715000000000146e+03
1.260000000000000009e-01 1.352415000000000145e-01 3.223324999999999818e+01 1.742514999999999930e+02 2.007510000000000218e+03
1.270000000000000018e-01 1.352224999999999955e-01 3.152235000000000298e+01 1.736494999999999891e+02 2.007295000000000073e+03
1.280000000000000027e-01 1.352035000000000042e-01 3.081609999999999872e+01 1.729985000000000070e+02 2.007074999999999818e+03
1.290000000000000036e-01 1.351825000000000110e-01 3.010690000000000310e+01 1.722824999999999989e+02 2.006835000000000036e+03
1.300000000000000044e-01 1.351590000000000014e-01 2.938735000000000142e+01 1.714859999999999900e+02 2.006574999999999818e+03
1.310000000000000053e-01 1.351339999999999764e-01 2.865115000000000123e+01 1.705969999999999800e+02 2.006295000000000073e+03
1.320000000000000062e-01 1.351064999999999905e-01 2.789325000000000188e+01 1.696064999999999827e+02 2.005980000000000018e+03
1.330000000000000071e-01 1.350755000000000150e-01 2.711019999999999897e+01 1.685104999999999791e+02 2.005630000000000109e+03
1.340000000000000080e-01 1.350414999999999810e-01 2.630000000000000071e+01 1.673060000000000116e+02 2.005250000000000000e+03
1.350000000000000089e-01 1.350044999999999995e-01 2.546274999999999977e+01 1.659985000000000070e+02 2.004839999999999918e+03
1.360000000000000098e-01 1.349644999999999873e-01 2.460034999999999883e+01 1.645960000000000036e+02 2.004394999999999982e+03
1.370000000000000107e-01 1.349219999999999864e-01 2.371645000000000181e+01 1.631094999999999970e+02 2.003910000000000082e+03
1.380000000000000115e-01 1.348765000000000103e-01 2.281640000000000157e+01 1.615560000000000116e+02 2.003409999999999854e+03
1.390000000000000124e-01 1.348294999999999910e-01 2.190700000000000003e+01 1.599540000000000077e+02 2.002880000000000109e+03
1.400000000000000133e-01 1.347809999999999842e-01 2.099620000000000175e+01 1.583240000000000123e+02 2.002329999999999927e+03
1.410000000000000142e-01 1.347309999999999897e-01 2.009270000000000067e+01 1.566890000000000214e+02 2.001775000000000091e+03
1.420000000000000151e-01 1.346809999999999952e-01 1.920564999999999856e+01 1.550709999999999980e+02 2.001220000000000027e+03
1.430000000000000160e-01 1.346315000000000150e-01 1.834430000000000049e+01 1.534929999999999950e+02 2.000664999999999964e+03
1.440000000000000169e-01 1.345830000000000082e-01 1.751729999999999876e+01 1.519759999999999991e+02 2.000119999999999891e+03
1.450000000000000178e-01 1.345359999999999889e-01 1.673284999999999911e+01 1.505374999999999943e+02 1.999589999999999918e+03
1.459999999999999909e-01 1.344914999999999861e-01 1.599784999999999968e+01 1.491929999999999836e+02 1.999085000000000036e+03
1.469999999999999918e-01 1.344489999999999852e-01 1.531809999999999938e+01 1.479555000000000007e+02 1.998605000000000018e+03
1.479999999999999927e-01 1.344095000000000151e-01 1.469769999999999932e+01 1.468329999999999984e+02 1.998164999999999964e+03
1.489999999999999936e-01 1.343734999999999791e-01 1.413949999999999996e+01 1.458294999999999959e+02 1.997755000000000109e+03
1.499999999999999944e-01 1.343409999999999882e-01 1.364444999999999908e+01 1.449465000000000146e+02 1.997384999999999991e+03
1.509999999999999953e-01 1.343115000000000003e-01 1.321225000000000094e+01 1.441804999999999950e+02 1.997050000000000182e+03
1.519999999999999962e-01 1.342855000000000021e-01 1.284110000000000085e+01 1.435269999999999868e+02 1.996755000000000109e+03
1.529999999999999971e-01 1.342625000000000068e-01 1.252789999999999893e+01 1.429770000000000039e+02 1.996500000000000000e+03
1.539999999999999980e-01 1.342435000000000156e-01 1.226869999999999905e+01 1.425215000000000032e+02 1.996269999999999982e+03
1.549999999999999989e-01 1.342269999999999852e-01 1.205874999999999986e+01 1.421479999999999961e+02 1.996079999999999927e+03
1.559999999999999998e-01 1.342125000000000123e-01 1.189260000000000161e+01 1.418455000000000155e+02 1.995914999999999964e+03
1.570000000000000007e-01 1.342010000000000147e-01 1.176464999999999961e+01 1.416014999999999873e+02 1.995780000000000200e+03
1.580000000000000016e-01 1.341910000000000047e-01 1.166910000000000025e+01 1.414039999999999964e+02 1.995664999999999964e+03
1.590000000000000024e-01 1.341824999999999823e-01 1.160004999999999953e+01 1.412425000000000068e+02 1.995565000000000055e+03
