# t [s], A [cm^2], U [cm/s], P [cPa], c [cm/s]
1.000000000000000021e-03 7.438430000000000319e-01 5.618549999999999933e-03 9.121580000000000155e+01 1.743155000000000200e+03
2.000000000000000042e-03 7.438320000000000487e-01 -7.107750000000002955e-04 9.118385000000000673e+01 1.743144999999999982e+03
3.000000000000000062e-03 7.439004999999999646e-01 1.146368499999999985e-01 9.131665000000000987e+01 1.743175000000000182e+03
4.000000000000000083e-03 7.439459999999999962e-01 2.082236500000000101e-01 9.143534999999999968e+01 1.743204999999999927e+03
5.000000000000000104e-03 7.438960000000000017e-01 1.549995000000000123e-01 9.131745000000000800e+01 1.743179999999999836e+03
6.000000000000000125e-03 7.438180000000000902e-01 4.863400000000001056e-02 9.104179999999999495e+01 1.743119999999999891e+03
7.000000000000000146e-03 7.437464999999999771e-01 -5.772949999999998916e-02 9.070045000000000357e+01 1.743045000000000073e+03
8.000000000000000167e-03 7.436190000000000300e-01 -2.722750000000000448e-01 9.016320000000000334e+01 1.742934999999999945e+03
9.000000000000001055e-03 7.434145000000000891e-01 -6.323750000000000204e-01 8.934319999999999595e+01 1.742764999999999873e+03
1.000000000000000194e-02 7.431244999999999656e-01 -1.149950000000000028e+00 8.818004999999999427e+01 1.742514999999999873e+03
1.099999999999999936e-02 7.427209999999999646e-01 -1.855140000000000011e+00 8.658395000000000152e+01 1.742174999999999955e+03
1.200000000000000025e-02 7.422185000000000032e-01 -2.704919999999999991e+00 8.455779999999998608e+01 1.741735000000000127e+03
1.300000000000000114e-02 7.416949999999999932e-01 -3.542850000000000055e+00 8.228634999999999877e+01 1.741224999999999909e+03
1.400000000000000203e-02 7.412400000000000100e-01 -4.178883500000000417e+00 8.005684999999999718e+01 1.740704999999999927e+03
1.499999999999999944e-02 7.409040000000000070e-01 -4.492092500000000044e+00 7.810705000000000098e+01 1.740224999999999909e+03
1.600000000000000033e-02 7.406774999999999887e-01 -4.472080000000000055e+00 7.652864999999999895e+01 1.739804999999999836e+03
1.700000000000000122e-02 7.405090000000000838e-01 -4.197309999999999874e+00 7.526234999999999786e+01 1.739444999999999936e+03
1.800000000000000211e-02 7.403385000000000105e-01 -3.784034999999999815e+00 7.415475000000000705e+01 1.739119999999999891e+03
1.900000000000000300e-02 7.401185000000000125e-01 -3.334565000000000001e+00 7.303659999999999286e+01 1.738784999999999854e+03
2.000000000000000042e-02 7.398309999999999054e-01 -2.902327000000000101e+00 7.179210000000000491e+01 1.738440000000000055e+03
2.100000000000000130e-02 7.394914999999999683e-01 -2.483569000000000138e+00 7.039339999999999975e+01 1.738065000000000055e+03
2.200000000000000219e-02 7.391320000000000112e-01 -2.035985000000000156e+00 6.889190000000000680e+01 1.737664999999999964e+03
2.299999999999999961e-02 7.387839999999999963e-01 -1.512934999999999697e+00 6.737500000000000000e+01 1.737255000000000109e+03
2.400000000000000050e-02 7.384634999999999394e-01 -8.956449999999998024e-01 6.591325000000000500e+01 1.736855000000000018e+03
2.500000000000000139e-02 7.381630000000000136e-01 -2.104199999999998294e-01 6.452060000000000173e+01 1.736474999999999909e+03
2.600000000000000228e-02 7.378540000000000099e-01 4.725249999999998618e-01 6.314039999999999964e+01 1.736085000000000036e+03
2.700000000000000316e-02 7.374950000000000117e-01 1.055405000000000149e+00 6.165744999999999720e+01 1.735684999999999945e+03
2.800000000000000058e-02 7.370479999999999254e-01 1.438024999999999887e+00 5.993059999999999832e+01 1.735240000000000009e+03
2.900000000000000147e-02 7.364844999999999864e-01 1.544655000000000111e+00 5.783509999999999707e+01 1.734715000000000146e+03
3.000000000000000236e-02 7.358014999999999972e-01 1.344994999999999941e+00 5.530395000000000039e+01 1.734099999999999909e+03
3.099999999999999978e-02 7.350194999999999368e-01 8.623199999999999754e-01 5.235299999999999443e+01 1.733400000000000091e+03
3.200000000000000067e-02 7.341790000000000260e-01 1.663649999999998741e-01 4.908364999999999867e+01 1.732625000000000000e+03
3.300000000000000155e-02 7.333319999999999839e-01 -6.454950000000003740e-01 4.566169999999999618e+01 1.731809999999999945e+03
3.400000000000000244e-02 7.325300000000000145e-01 -1.470789999999999598e+00 4.228395000000000437e+01 1.730994999999999891e+03
3.500000000000000333e-02 7.318154999999999522e-01 -2.220520000000000049e+00 3.914289999999999736e+01 1.730215000000000146e+03
3.600000000000000422e-02 7.312159999999999771e-01 -2.830130000000000035e+00 3.639999999999999858e+01 1.729514999999999873e+03
3.700000000000000511e-02 7.307489999999999819e-01 -3.261870000000000047e+00 3.417000000000000171e+01 1.728920000000000073e+03
3.799999999999999906e-02 7.304174999999999418e-01 -3.500884000000000107e+00 3.251794999999999902e+01 1.728454999999999927e+03
3.899999999999999994e-02 7.302180000000000337e-01 -3.547635000000000094e+00 3.146540000000000248e+01 1.728130000000000109e+03
4.000000000000000083e-02 7.301440000000000152e-01 -3.409370000000000012e+00 3.100249999999999773e+01 1.727940000000000055e+03
4.100000000000000172e-02 7.301884999999999071e-01 -3.093024999999999913e+00 3.110224999999999795e+01 1.727889999999999873e+03
4.200000000000000261e-02 7.303454999999999808e-01 -2.601332999999999895e+00 3.173165000000000191e+01 1.727974999999999909e+03
4.300000000000000350e-02 7.306105000000000516e-01 -1.932605000000000128e+00 3.285920000000000130e+01 1.728179999999999836e+03
4.400000000000000439e-02 7.309795000000000043e-01 -1.083614999999999995e+00 3.445589999999999975e+01 1.728505000000000109e+03
4.499999999999999833e-02 7.314490000000000158e-01 -5.400500000000008072e-02 3.649255000000000138e+01 1.728944999999999936e+03
4.599999999999999922e-02 7.320104999999998974e-01 1.149445000000000050e+00 3.893455000000000155e+01 1.729490000000000009e+03
4.700000000000000011e-02 7.326529999999999987e-01 2.510225000000000151e+00 4.173749999999999716e+01 1.730119999999999891e+03
4.800000000000000100e-02 7.333609999999999296e-01 4.001719999999999722e+00 4.484469999999999601e+01 1.730844999999999800e+03
4.900000000000000189e-02 7.341169999999999085e-01 5.588834999999999553e+00 4.818769999999999953e+01 1.731625000000000000e+03
5.000000000000000278e-02 7.349014999999999853e-01 7.231396000000000157e+00 5.169004999999999939e+01 1.732454999999999927e+03
5.100000000000000366e-02 7.356955000000000577e-01 8.888074500000000100e+00 5.527240000000000464e+01 1.733319999999999936e+03
5.200000000000000455e-02 7.364824999999999289e-01 1.052011999999999858e+01 5.885880000000000223e+01 1.734199999999999818e+03
5.300000000000000544e-02 7.372484999999999733e-01 1.209470999999999918e+01 6.238259999999999650e+01 1.735074999999999818e+03
5.399999999999999939e-02 7.379845000000000432e-01 1.358650000000000091e+01 6.579085000000000605e+01 1.735934999999999945e+03
5.500000000000000028e-02 7.386840000000000073e-01 1.497874499999999998e+01 6.904715000000000202e+01 1.736764999999999873e+03
5.600000000000000117e-02 7.393460000000000587e-01 1.626285000000000025e+01 7.213200000000000500e+01 1.737559999999999945e+03
5.700000000000000205e-02 7.399725000000000330e-01 1.743730000000000047e+01 7.504200000000000159e+01 1.738320000000000164e+03
5.800000000000000294e-02 7.405664999999999054e-01 1.850609999999999999e+01 7.778730000000000189e+01 1.739049999999999955e+03
5.900000000000000383e-02 7.411349999999999882e-01 1.947755000000000081e+01 8.038845000000000596e+01 1.739735000000000127e+03
6.000000000000000472e-02 7.416840000000000099e-01 2.036249999999999716e+01 8.287299999999999045e+01 1.740400000000000091e+03
6.099999999999999867e-02 7.422204999999999497e-01 2.117280000000000229e+01 8.527174999999999727e+01 1.741039999999999964e+03
6.199999999999999956e-02 7.427504999999999802e-01 2.192045000000000243e+01 8.761530000000000484e+01 1.741659999999999854e+03
6.300000000000000044e-02 7.432799999999999407e-01 2.261599999999999966e+01 8.993115000000000236e+01 1.742279999999999973e+03
6.400000000000000133e-02 7.438115000000000698e-01 2.326794999999999902e+01 9.224074999999999136e+01 1.742889999999999873e+03
6.500000000000000222e-02 7.443480000000000096e-01 2.388179999999999836e+01 9.455769999999999698e+01 1.743505000000000109e+03
6.600000000000000311e-02 7.448879999999999946e-01 2.445980000000000132e+01 9.688644999999999641e+01 1.744110000000000127e+03
6.700000000000000400e-02 7.454304999999999959e-01 2.500079999999999814e+01 9.922169999999999845e+01 1.744730000000000018e+03
6.800000000000000488e-02 7.459700000000000220e-01 2.550065000000000026e+01 1.015499999999999972e+02 1.745335000000000036e+03
6.900000000000000577e-02 7.465009999999999701e-01 2.595289999999999964e+01 1.038499999999999943e+02 1.745940000000000055e+03
7.000000000000000666e-02 7.470175000000000010e-01 2.634955000000000069e+01 1.060954999999999870e+02 1.746534999999999854e+03
7.100000000000000755e-02 7.475125000000000242e-01 2.668205000000000027e+01 1.082560000000000002e+02 1.747110000000000127e+03
7.200000000000000844e-02 7.479784999999999906e-01 2.694190000000000040e+01 1.103024999999999949e+02 1.747654999999999973e+03
7.300000000000000933e-02 7.484105000000000896e-01 2.712169999999999703e+01 1.122060000000000031e+02 1.748170000000000073e+03
7.399999999999999634e-02 7.488034999999999553e-01 2.721540000000000248e+01 1.139414999999999907e+02 1.748644999999999982e+03
7.499999999999999722e-02 7.491529999999999578e-01 2.721880000000000166e+01 1.154874999999999972e+02 1.749075000000000045e+03
7.599999999999999811e-02 7.494560000000000111e-01 2.712955000000000183e+01 1.168294999999999959e+02 1.749449999999999818e+03
7.699999999999999900e-02 7.497104999999999464e-01 2.694754999999999967e+01 1.179574999999999960e+02 1.749779999999999973e+03
7.799999999999999989e-02 7.499169999999999447e-01 2.667479999999999762e+01 1.188679999999999950e+02 1.750049999999999955e+03
7.900000000000000078e-02 7.500759999999999650e-01 2.631540000000000035e+01 1.195639999999999930e+02 1.750275000000000091e+03
8.000000000000000167e-02 7.501900000000000235e-01 2.587559999999999860e+01 1.200525000000000091e+02 1.750440000000000055e+03
8.100000000000000255e-02 7.502619999999999845e-01 2.536364999999999981e+01 1.203479999999999990e+02 1.750555000000000064e+03
8.200000000000000344e-02 7.502960000000000740e-01 2.478954999999999842e+01 1.204675000000000011e+02 1.750625000000000000e+03
8.300000000000000433e-02 7.502975000000000616e-01 2.416494999999999749e+01 1.204335000000000093e+02 1.750654999999999973e+03
8.400000000000000522e-02 7.502720000000000500e-01 2.350240000000000151e+01 1.202699999999999960e+02 1.750644999999999982e+03
8.500000000000000611e-02 7.502254999999999896e-01 2.281520000000000081e+01 1.200045000000000073e+02 1.750605000000000018e+03
8.600000000000000699e-02 7.501634999999999831e-01 2.211680000000000135e+01 1.196645000000000039e+02 1.750539999999999964e+03
8.700000000000000788e-02 7.500925000000000509e-01 2.141985000000000028e+01 1.192759999999999962e+02 1.750464999999999918e+03
8.800000000000000877e-02 7.500179999999999625e-01 2.073610000000000042e+01 1.188659999999999997e+02 1.750369999999999891e+03
8.899999999999999578e-02 7.499445000000000139e-01 2.007529999999999859e+01 1.184559999999999889e+02 1.750279999999999973e+03
8.999999999999999667e-02 7.498744999999999994e-01 1.944510000000000005e+01 1.180644999999999953e+02 1.750184999999999945e+03
9.099999999999999756e-02 7.498120000000000340e-01 1.885064999999999813e+01 1.177055000000000007e+02 1.750095000000000027e+03
9.199999999999999845e-02 7.497570000000000068e-01 1.829455000000000098e+01 1.173870000000000005e+02 1.750009999999999991e+03
9.299999999999999933e-02 7.497110000000000163e-01 1.777655000000000030e+01 1.171140000000000043e+02 1.749934999999999945e+03
9.400000000000000022e-02 7.496720000000000050e-01 1.729424999999999812e+01 1.168829999999999956e+02 1.749869999999999891e+03
9.500000000000000111e-02 7.496389999999999443e-01 1.684309999999999974e+01 1.166895000000000095e+02 1.749815000000000055e+03
9.600000000000000200e-02 7.496085000000000109e-01 1.641680000000000206e+01 1.165224999999999937e+02 1.749764999999999873e+03
9.700000000000000289e-02 7.495789999999999953e-01 1.600789999999999935e+01 1.163709999999999951e+02 1.749715000000000146e+03
9.800000000000000377e-02 7.495469999999999633e-01 1.560834999999999972e+01 1.162210000000000036e+02 1.749670000000000073e+03
9.900000000000000466e-02 7.495085000000000219e-01 1.520980000000000132e+01 1.160570000000000022e+02 1.749625000000000000e+03
1.000000000000000056e-01 7.494615000000000027e-01 1.480420000000000158e+01 1.158649999999999949e+02 1.749565000000000055e+03
1.010000000000000064e-01 7.494024999999999714e-01 1.438445000000000107e+01 1.156320000000000050e+02 1.749509999999999991e+03
1.020000000000000073e-01 7.493305000000000105e-01 1.394435000000000002e+01 1.153485000000000014e+02 1.749434999999999945e+03
1.030000000000000082e-01 7.492445000000000910e-01 1.347944999999999993e+01 1.150064999999999884e+02 1.749349999999999909e+03
1.040000000000000091e-01 7.491430000000000033e-01 1.298691499999999976e+01 1.146009999999999991e+02 1.749255000000000109e+03
1.050000000000000100e-01 7.490269999999999984e-01 1.246603999999999957e+01 1.141330000000000098e+02 1.749139999999999873e+03
1.059999999999999970e-01 7.488985000000000225e-01 1.191808499999999960e+01 1.136055000000000064e+02 1.749014999999999873e+03
1.069999999999999979e-01 7.487589999999999524e-01 1.134632500000000022e+01 1.130270000000000010e+02 1.748869999999999891e+03
1.079999999999999988e-01 7.486125000000000140e-01 1.075592999999999932e+01 1.124085000000000036e+02 1.748724999999999909e+03
1.089999999999999997e-01 7.484610000000000429e-01 1.015371000000000024e+01 1.117650000000000006e+02 1.748569999999999936e+03
1.100000000000000006e-01 7.483104999999999896e-01 9.547605000000000786e+00 1.111134999999999877e+02 1.748405000000000200e+03
1.110000000000000014e-01 7.481644999999998991e-01 8.946490000000000720e+00 1.104720000000000084e+02 1.748244999999999891e+03
1.120000000000000023e-01 7.480269999999999975e-01 8.359549999999998704e+00 1.098605000000000018e+02 1.748089999999999918e+03
1.130000000000000032e-01 7.479029999999999845e-01 7.795899999999999608e+00 1.092965000000000089e+02 1.747945000000000164e+03
1.140000000000000041e-01 7.477955000000000574e-01 7.264170000000000016e+00 1.087985000000000042e+02 1.747815000000000055e+03
1.150000000000000050e-01 7.477084999999999981e-01 6.771855000000000402e+00 1.083815000000000026e+02 1.747704999999999927e+03
1.160000000000000059e-01 7.476435000000000164e-01 6.325174999999999770e+00 1.080579999999999927e+02 1.747610000000000127e+03
1.170000000000000068e-01 7.476019999999999888e-01 5.928659999999999819e+00 1.078350000000000080e+02 1.747539999999999964e+03
1.180000000000000077e-01 7.475849999999999440e-01 5.585039999999999338e+00 1.077185000000000059e+02 1.747500000000000000e+03
1.190000000000000085e-01 7.475920000000000343e-01 5.295139999999999958e+00 1.077085000000000008e+02 1.747480000000000018e+03
1.200000000000000094e-01 7.476220000000000088e-01 5.057925000000000004e+00 1.078015000000000043e+02 1.747485000000000127e+03
1.209999999999999964e-01 7.476724999999999621e-01 4.870659999999999989e+00 1.079894999999999925e+02 1.747519999999999982e+03
1.219999999999999973e-01 7.477405000000000301e-01 4.729134999999999422e+00 1.082624999999999886e+02 1.747569999999999936e+03
1.229999999999999982e-01 7.478240000000000443e-01 4.627964999999999662e+00 1.086075000000000017e+02 1.747639999999999873e+03
1.239999999999999991e-01 7.479184999999999306e-01 4.560925000000000118e+00 1.090095000000000027e+02 1.747730000000000018e+03
1.250000000000000000e-01 7.480210000000000470e-01 4.521270000000000344e+00 1.094535000000000053e+02 1.747829999999999927e+03
1.260000000000000009e-01 7.481280000000000152e-01 4.502125000000000377e+00 1.099230000000000018e+02 1.747940000000000055e+03
1.270000000000000018e-01 7.482359999999999012e-01 4.496700000000000585e+00 1.104035000000000082e+02 1.748050000000000182e+03
1.280000000000000027e-01 7.483420000000000627e-01 4.498615000000000030e+00 1.108799999999999955e+02 1.748170000000000073e+03
1.290000000000000036e-01 7.484439999999999982e-01 4.502064999999999984e+00 1.113414999999999964e+02 1.748285000000000082e+03
1.300000000000000044e-01 7.485395000000000243e-01 4.501960000000000406e+00 1.117769999999999868e+02 1.748394999999999982e+03
1.310000000000000053e-01 7.486264999999999725e-01 4.494055000000000355e+00 1.121775000000000091e+02 1.748494999999999891e+03
1.320000000000000062e-01 7.487049999999999539e-01 4.474970000000000780e+00 1.125379999999999967e+02 1.748590000000000146e+03
1.330000000000000071e-01 7.487729999999999109e-01 4.442235000000000156e+00 1.128530000000000086e+02 1.748675000000000182e+03
1.340000000000000080e-01 7.488304999999999545e-01 4.394239999999999924e+00 1.131225000000000023e+02 1.748750000000000000e+03
1.350000000000000089e-01 7.488785000000000025e-01 4.330239999999999867e+00 1.133444999999999965e+02 1.748809999999999945e+03
1.360000000000000098e-01 7.489164999999999850e-01 4.250244999999999607e+00 1.135210000000000008e+02 1.748860000000000127e+03
1.370000000000000107e-01 7.489455000000000418e-01 4.154955000000000176e+00 1.136539999999999964e+02 1.748904999999999973e+03
1.380000000000000115e-01 7.489664999999999795e-01 4.045665000000000511e+00 1.137480000000000047e+02 1.748934999999999945e+03
1.390000000000000124e-01 7.489799999999999791e-01 3.924129999999999896e+00 1.138070000000000022e+02 1.748954999999999927e+03
1.400000000000000133e-01 7.489875000000000282e-01 3.792460000000000164e+00 1.138360000000000127e+02 1.748974999999999909e+03
1.410000000000000142e-01 7.489905000000000035e-01 3.652944999999999887e+00 1.138394999999999868e+02 1.748980000000000018e+03
1.420000000000000151e-01 7.489889999999999048e-01 3.507970000000000255e+00 1.138234999999999957e+02 1.748985000000000127e+03
1.430000000000000160e-01 7.489844999999999420e-01 3.359844999999999970e+00 1.137904999999999944e+02 1.748974999999999909e+03
1.440000000000000169e-01 7.489784999999999915e-01 3.210694999999999855e+00 1.137464999999999975e+02 1.748969999999999800e+03
1.450000000000000178e-01 7.489704999999999835e-01 3.062374999999999847e+00 1.136935000000000002e+02 1.748964999999999918e+03
1.459999999999999909e-01 7.489609999999999879e-01 2.916385000000000005e+00 1.136340000000000003e+02 1.748949999999999818e+03
1.469999999999999918e-01 7.489504999999999635e-01 2.773830000000000240e+00 1.135685000000000002e+02 1.748934999999999945e+03
1.479999999999999927e-01 7.489390000000000214e-01 2.635435000000000194e+00 1.134985000000000070e+02 1.748924999999999955e+03
1.489999999999999936e-01 7.489259999999999806e-01 2.501524999999999999e+00 1.134230000000000018e+02 1.748900000000000091e+03
1.499999999999999944e-01 7.489109999999999934e-01 2.372110000000000163e+00 1.133410000000000082e+02 1.748884999999999991e+03
1.509999999999999953e-01 7.488945000000000185e-01 2.246945000000000192e+00 1.132510000000000048e+02 1.748860000000000127e+03
1.519999999999999962e-01 7.488744999999999985e-01 2.125614999999999810e+00 1.131500000000000057e+02 1.748835000000000036e+03
1.529999999999999971e-01 7.488520000000000731e-01 2.007629999999999804e+00 1.130370000000000061e+02 1.748815000000000055e+03
1.539999999999999980e-01 7.488259999999999916e-01 1.892504999999999882e+00 1.129099999999999966e+02 1.748779999999999973e+03
1.549999999999999989e-01 7.487954999999999472e-01 1.779840000000000089e+00 1.127675000000000125e+02 1.748744999999999891e+03
1.559999999999999998e-01 7.487610000000000099e-01 1.669385000000000119e+00 1.126080000000000041e+02 1.748704999999999927e+03
1.570000000000000007e-01 7.487230000000000274e-01 1.561064500000000077e+00 1.124309999999999974e+02 1.748664999999999964e+03
1.580000000000000016e-01 7.486805000000000820e-01 1.455032000000000103e+00 1.122374999999999972e+02 1.748615000000000009e+03
1.590000000000000024e-01 7.486344999999999805e-01 1.351638499999999965e+00 1.120279999999999916e+02 1.748565000000000055e+03
