# t [s], A [cm^2], U [cm/s], P [cPa], c [cm/s]
1.000000000000000021e-03 1.925724999999999798e-01 2.671985000000000054e-01 1.015837999999999965e+02 2.041250000000000000e+03
2.000000000000000042e-03 1.925209999999999977e-01 1.830594999999999972e+00 9.833490000000000464e+01 2.040855000000000018e+03
3.000000000000000062e-03 1.923735000000000028e-01 3.794718500000000549e+00 9.374240000000000350e+01 2.039779999999999973e+03
4.000000000000000083e-03 1.921680000000000055e-01 6.012850499999999876e+00 8.860705000000000098e+01 2.038319999999999936e+03
5.000000000000000104e-03 1.919450000000000045e-01 8.409499999999999531e+00 8.388209999999999411e+01 2.036734999999999900e+03
6.000000000000000125e-03 1.917289999999999828e-01 1.080935500000000005e+01 7.996254999999999313e+01 2.035230000000000018e+03
7.000000000000000146e-03 1.915275000000000172e-01 1.297648500000000027e+01 7.665639999999999077e+01 2.033845000000000027e+03
8.000000000000000167e-03 1.913424999999999987e-01 1.479444999999999943e+01 7.369724999999999682e+01 2.032599999999999909e+03
9.000000000000001055e-03 1.911795000000000022e-01 1.629374999999999929e+01 7.111209999999999809e+01 2.031519999999999982e+03
1.000000000000000194e-02 1.910425000000000040e-01 1.751914999999999978e+01 6.899790000000000134e+01 2.030619999999999891e+03
1.099999999999999936e-02 1.909310000000000174e-01 1.849399999999999977e+01 6.735115000000000407e+01 2.029905000000000200e+03
1.200000000000000025e-02 1.908445000000000003e-01 1.924214999999999876e+01 6.612399999999999523e+01 2.029349999999999909e+03
1.300000000000000114e-02 1.907780000000000031e-01 1.977700000000000102e+01 6.523380000000000223e+01 2.028934999999999945e+03
1.400000000000000203e-02 1.907274999999999943e-01 2.010269999999999868e+01 6.454874999999999829e+01 2.028619999999999891e+03
1.499999999999999944e-02 1.906875000000000098e-01 2.026069999999999993e+01 6.399535000000000196e+01 2.028389999999999873e+03
1.600000000000000033e-02 1.906614999999999838e-01 2.036605000000000132e+01 6.370154999999999745e+01 2.028240000000000009e+03
1.700000000000000122e-02 1.906565000000000065e-01 2.057710000000000150e+01 6.398850000000000193e+01 2.028224999999999909e+03
1.800000000000000211e-02 1.906840000000000201e-01 2.101545000000000130e+01 6.517780000000000484e+01 2.028414999999999964e+03
1.900000000000000300e-02 1.907484999999999875e-01 2.169689999999999941e+01 6.735845000000000482e+01 2.028835000000000036e+03
2.000000000000000042e-02 1.908434999999999993e-01 2.251715000000000089e+01 7.027394999999999925e+01 2.029464999999999918e+03
2.100000000000000130e-02 1.909569999999999879e-01 2.329484999999999673e+01 7.338749999999998863e+01 2.030220000000000027e+03
2.200000000000000219e-02 1.910669999999999868e-01 2.384360000000000213e+01 7.607354999999999734e+01 2.030960000000000036e+03
2.299999999999999961e-02 1.911559999999999926e-01 2.403885000000000005e+01 7.783705000000000496e+01 2.031575000000000045e+03
2.400000000000000050e-02 1.912110000000000198e-01 2.385425000000000040e+01 7.846835000000000093e+01 2.031974999999999909e+03
2.500000000000000139e-02 1.912314999999999987e-01 2.335869999999999891e+01 7.808080000000001064e+01 2.032134999999999991e+03
2.600000000000000228e-02 1.912224999999999897e-01 2.267954999999999899e+01 7.703064999999999429e+01 2.032094999999999800e+03
2.700000000000000316e-02 1.911964999999999915e-01 2.195064999999999955e+01 7.576220000000000709e+01 2.031940000000000055e+03
2.800000000000000058e-02 1.911654999999999882e-01 2.126684999999999803e+01 7.464594999999999914e+01 2.031735000000000127e+03
2.900000000000000147e-02 1.911380000000000023e-01 2.065984999999999872e+01 7.386939999999999884e+01 2.031549999999999955e+03
3.000000000000000236e-02 1.911174999999999957e-01 2.010065000000000168e+01 7.340940000000000509e+01 2.031410000000000082e+03
3.099999999999999978e-02 1.911014999999999797e-01 1.952295000000000158e+01 7.308159999999999457e+01 2.031299999999999955e+03
3.200000000000000067e-02 1.910830000000000028e-01 1.885589999999999833e+01 7.263820000000001187e+01 2.031184999999999945e+03
3.300000000000000155e-02 1.910565000000000180e-01 1.805679999999999907e+01 7.187635000000000218e+01 2.031014999999999873e+03
3.400000000000000244e-02 1.910179999999999934e-01 1.713234999999999886e+01 7.072495000000000687e+01 2.030764999999999873e+03
3.500000000000000333e-02 1.909675000000000122e-01 1.614365000000000094e+01 6.928305000000000291e+01 2.030434999999999945e+03
3.600000000000000422e-02 1.909124999999999850e-01 1.519334999999999880e+01 6.780109999999999104e+01 2.030069999999999936e+03
3.700000000000000511e-02 1.908614999999999895e-01 1.439879999999999960e+01 6.661129999999999995e+01 2.029735000000000127e+03
3.799999999999999906e-02 1.908265000000000100e-01 1.386035000000000039e+01 6.603114999999999668e+01 2.029494999999999891e+03
3.899999999999999994e-02 1.908159999999999856e-01 1.363470000000000049e+01 6.627185000000000059e+01 2.029405000000000200e+03
4.000000000000000083e-02 1.908360000000000056e-01 1.372100000000000009e+01 6.737905000000000655e+01 2.029514999999999873e+03
4.100000000000000172e-02 1.908849999999999991e-01 1.406114999999999959e+01 6.921899999999999409e+01 2.029820000000000164e+03
4.200000000000000261e-02 1.909555000000000002e-01 1.455385000000000062e+01 7.150989999999998759e+01 2.030280000000000200e+03
4.300000000000000350e-02 1.910385000000000000e-01 1.507509999999999906e+01 7.388360000000000127e+01 2.030815000000000055e+03
4.400000000000000439e-02 1.911209999999999853e-01 1.550114999999999910e+01 7.595895000000000152e+01 2.031365000000000009e+03
4.499999999999999833e-02 1.911895000000000122e-01 1.572765000000000057e+01 7.740909999999999513e+01 2.031820000000000164e+03
4.599999999999999922e-02 1.912340000000000151e-01 1.568244999999999933e+01 7.800884999999999536e+01 2.032130000000000109e+03
4.700000000000000011e-02 1.912479999999999736e-01 1.533050000000000068e+01 7.765614999999999668e+01 2.032240000000000009e+03
4.800000000000000100e-02 1.912274999999999947e-01 1.467164999999999964e+01 7.636830000000000496e+01 2.032119999999999891e+03
4.900000000000000189e-02 1.911740000000000106e-01 1.373339999999999961e+01 7.425749999999999318e+01 2.031775000000000091e+03
5.000000000000000278e-02 1.910899999999999821e-01 1.256107499999999888e+01 7.149580000000000268e+01 2.031234999999999900e+03
5.100000000000000366e-02 1.909830000000000139e-01 1.120828999999999986e+01 6.827864999999999895e+01 2.030529999999999973e+03
5.200000000000000455e-02 1.908579999999999999e-01 9.729784999999999684e+00 6.479510000000000502e+01 2.029710000000000036e+03
5.300000000000000544e-02 1.907214999999999883e-01 8.176845000000000141e+00 6.120929999999999893e+01 2.028804999999999836e+03
5.399999999999999939e-02 1.905804999999999860e-01 6.596330000000000027e+00 5.765425000000000466e+01 2.027865000000000009e+03
5.500000000000000028e-02 1.904379999999999962e-01 5.031610000000000582e+00 5.423510000000000275e+01 2.026924999999999955e+03
5.600000000000000117e-02 1.903005000000000113e-01 3.524305499999999647e+00 5.103804999999999836e+01 2.026000000000000000e+03
5.700000000000000205e-02 1.901700000000000057e-01 2.116365000000000052e+00 4.814079999999999870e+01 2.025130000000000109e+03
5.800000000000000294e-02 1.900509999999999977e-01 8.509000000000002117e-01 4.562069999999999936e+01 2.024329999999999927e+03
5.900000000000000383e-02 1.899474999999999913e-01 -2.282200000000000895e-01 4.355845000000000056e+01 2.023634999999999991e+03
6.000000000000000472e-02 1.898624999999999896e-01 -1.078072500000000211e+00 4.203679999999999950e+01 2.023054999999999836e+03
6.099999999999999867e-02 1.898000000000000242e-01 -1.659434999999999993e+00 4.113535000000000252e+01 2.022625000000000000e+03
6.199999999999999956e-02 1.897625000000000006e-01 -1.939929999999999932e+00 4.092210000000000036e+01 2.022355000000000018e+03
6.300000000000000044e-02 1.897530000000000050e-01 -1.896954999999999947e+00 4.144509999999999650e+01 2.022269999999999982e+03
6.400000000000000133e-02 1.897729999999999972e-01 -1.519905999999999979e+00 4.272540000000000049e+01 2.022384999999999991e+03
6.500000000000000222e-02 1.898235000000000061e-01 -8.112944999999999185e-01 4.475260000000000105e+01 2.022694999999999936e+03
6.600000000000000311e-02 1.899040000000000172e-01 2.133249999999999869e-01 4.748454999999999870e+01 2.023204999999999927e+03
6.700000000000000400e-02 1.900129999999999875e-01 1.526464999999999739e+00 5.084959999999999525e+01 2.023910000000000082e+03
6.800000000000000488e-02 1.901470000000000105e-01 3.090701999999999838e+00 5.475215000000000032e+01 2.024779999999999973e+03
6.900000000000000577e-02 1.903024999999999856e-01 4.861029999999999518e+00 5.907954999999999757e+01 2.025800000000000182e+03
7.000000000000000666e-02 1.904759999999999787e-01 6.787580000000000169e+00 6.370964999999999634e+01 2.026940000000000055e+03
7.100000000000000755e-02 1.906619999999999981e-01 8.818159999999998888e+00 6.851845000000000141e+01 2.028170000000000073e+03
7.200000000000000844e-02 1.908559999999999979e-01 1.090090999999999966e+01 7.338640000000000896e+01 2.029460000000000036e+03
7.300000000000000933e-02 1.910534999999999872e-01 1.298667999999999978e+01 7.820480000000000587e+01 2.030775000000000091e+03
7.399999999999999634e-02 1.912504999999999900e-01 1.503105000000000047e+01 8.288075000000000614e+01 2.032095000000000027e+03
7.499999999999999722e-02 1.914430000000000021e-01 1.699634999999999962e+01 8.734090000000000487e+01 2.033384999999999991e+03
7.599999999999999811e-02 1.916280000000000205e-01 1.885314999999999941e+01 9.153464999999999918e+01 2.034634999999999991e+03
7.699999999999999900e-02 1.918040000000000023e-01 2.058075000000000188e+01 9.543489999999999895e+01 2.035829999999999927e+03
7.799999999999999989e-02 1.919690000000000007e-01 2.216815000000000069e+01 9.903799999999999670e+01 2.036950000000000045e+03
7.900000000000000078e-02 1.921240000000000170e-01 2.361299999999999955e+01 1.023624499999999955e+02 2.038005000000000109e+03
8.000000000000000167e-02 1.922689999999999955e-01 2.492079999999999984e+01 1.054429000000000087e+02 2.038994999999999891e+03
8.100000000000000255e-02 1.924049999999999927e-01 2.610350000000000037e+01 1.083275000000000006e+02 2.039929999999999836e+03
8.200000000000000344e-02 1.925339999999999829e-01 2.717709999999999937e+01 1.110709999999999980e+02 2.040809999999999945e+03
8.300000000000000433e-02 1.926574999999999815e-01 2.815995000000000203e+01 1.137295000000000016e+02 2.041659999999999854e+03
8.400000000000000522e-02 1.927774999999999905e-01 2.907065000000000055e+01 1.163529999999999944e+02 2.042485000000000127e+03
8.500000000000000611e-02 1.928964999999999985e-01 2.992614999999999981e+01 1.189849999999999994e+02 2.043300000000000182e+03
8.600000000000000699e-02 1.930155000000000065e-01 3.074060000000000059e+01 1.216534999999999940e+02 2.044114999999999782e+03
8.700000000000000788e-02 1.931355000000000155e-01 3.152409999999999712e+01 1.243750000000000000e+02 2.044934999999999945e+03
8.800000000000000877e-02 1.932564999999999977e-01 3.228224999999999767e+01 1.271505000000000081e+02 2.045759999999999764e+03
8.899999999999999578e-02 1.933794999999999820e-01 3.301630000000000109e+01 1.299679999999999893e+02 2.046599999999999909e+03
8.999999999999999667e-02 1.935034999999999950e-01 3.372284999999999400e+01 1.328025000000000091e+02 2.047445000000000164e+03
9.099999999999999756e-02 1.936269999999999936e-01 3.439489999999999981e+01 1.356214999999999975e+02 2.048295000000000073e+03
9.199999999999999845e-02 1.937495000000000189e-01 3.502219999999999800e+01 1.383845000000000027e+02 2.049130000000000109e+03
9.299999999999999933e-02 1.938695000000000002e-01 3.559234999999999616e+01 1.410469999999999970e+02 2.049949999999999818e+03
9.400000000000000022e-02 1.939845000000000041e-01 3.609154999999999802e+01 1.435645000000000095e+02 2.050740000000000236e+03
9.500000000000000111e-02 1.940930000000000155e-01 3.650560000000000116e+01 1.458924999999999841e+02 2.051484999999999673e+03
9.600000000000000200e-02 1.941939999999999777e-01 3.682070000000000221e+01 1.479909999999999854e+02 2.052180000000000291e+03
9.700000000000000289e-02 1.942849999999999855e-01 3.702425000000000210e+01 1.498245000000000005e+02 2.052809999999999945e+03
9.800000000000000377e-02 1.943655000000000244e-01 3.710575000000000045e+01 1.513659999999999854e+02 2.053365000000000236e+03
9.900000000000000466e-02 1.944339999999999957e-01 3.705720000000000169e+01 1.525945000000000107e+02 2.053845000000000255e+03
1.000000000000000056e-01 1.944894999999999818e-01 3.687389999999999901e+01 1.534979999999999905e+02 2.054235000000000127e+03
1.010000000000000064e-01 1.945310000000000095e-01 3.655440000000000111e+01 1.540745000000000005e+02 2.054529999999999745e+03
1.020000000000000073e-01 1.945604999999999973e-01 3.610105000000000075e+01 1.543310000000000173e+02 2.054734999999999673e+03
1.030000000000000082e-01 1.945759999999999990e-01 3.552004999999999768e+01 1.542835000000000036e+02 2.054855000000000018e+03
1.040000000000000091e-01 1.945790000000000020e-01 3.482085000000000008e+01 1.539549999999999841e+02 2.054885000000000218e+03
1.050000000000000100e-01 1.945705000000000073e-01 3.401619999999999777e+01 1.533770000000000095e+02 2.054840000000000146e+03
1.059999999999999970e-01 1.945520000000000027e-01 3.312140000000000128e+01 1.525854999999999961e+02 2.054720000000000255e+03
1.069999999999999979e-01 1.945240000000000025e-01 3.215370000000000061e+01 1.516220000000000141e+02 2.054539999999999964e+03
1.079999999999999988e-01 1.944890000000000230e-01 3.113165000000000049e+01 1.505275000000000034e+02 2.054315000000000055e+03
1.089999999999999997e-01 1.944480000000000097e-01 3.007410000000000139e+01 1.493445000000000107e+02 2.054039999999999964e+03
1.100000000000000006e-01 1.944029999999999925e-01 2.899980000000000047e+01 1.481140000000000043e+02 2.053734999999999673e+03
1.110000000000000014e-01 1.943555000000000144e-01 2.792645000000000266e+01 1.468734999999999786e+02 2.053420000000000073e+03
1.120000000000000023e-01 1.943075000000000219e-01 2.687004999999999910e+01 1.456549999999999727e+02 2.053090000000000146e+03
1.130000000000000032e-01 1.942595000000000016e-01 2.584454999999999814e+01 1.444870000000000232e+02 2.052759999999999764e+03
1.140000000000000041e-01 1.942125000000000101e-01 2.486139999999999972e+01 1.433890000000000100e+02 2.052440000000000055e+03
1.150000000000000050e-01 1.941680000000000073e-01 2.392905000000000015e+01 1.423764999999999930e+02 2.052135000000000218e+03
1.160000000000000059e-01 1.941264999999999796e-01 2.305295000000000272e+01 1.414555000000000007e+02 2.051849999999999909e+03
1.170000000000000068e-01 1.940879999999999828e-01 2.223545000000000016e+01 1.406270000000000095e+02 2.051579999999999927e+03
1.180000000000000077e-01 1.940529999999999755e-01 2.147579999999999956e+01 1.398834999999999980e+02 2.051335000000000036e+03
1.190000000000000085e-01 1.940209999999999990e-01 2.077040000000000219e+01 1.392129999999999939e+02 2.051110000000000127e+03
1.200000000000000094e-01 1.939909999999999968e-01 2.011299999999999955e+01 1.385980000000000132e+02 2.050905000000000200e+03
1.209999999999999964e-01 1.939629999999999965e-01 1.949524999999999864e+01 1.380149999999999864e+02 2.050704999999999927e+03
1.219999999999999973e-01 1.939365000000000117e-01 1.890715000000000146e+01 1.374399999999999977e+02 2.050519999999999982e+03
1.229999999999999982e-01 1.939095000000000124e-01 1.833774999999999977e+01 1.368460000000000036e+02 2.050335000000000036e+03
1.239999999999999991e-01 1.938819999999999988e-01 1.777550000000000097e+01 1.362065000000000055e+02 2.050144999999999982e+03
1.250000000000000000e-01 1.938524999999999832e-01 1.720925000000000082e+01 1.354959999999999809e+02 2.049934999999999945e+03
1.260000000000000009e-01 1.938194999999999779e-01 1.662859999999999872e+01 1.346939999999999884e+02 2.049715000000000146e+03
1.270000000000000018e-01 1.937840000000000118e-01 1.602479999999999905e+01 1.337805000000000177e+02 2.049470000000000255e+03
1.280000000000000027e-01 1.937429999999999986e-01 1.539070000000000071e+01 1.327434999999999832e+02 2.049195000000000164e+03
1.290000000000000036e-01 1.936974999999999947e-01 1.472194999999999965e+01 1.315774999999999864e+02 2.048885000000000218e+03
1.300000000000000044e-01 1.936475000000000002e-01 1.401655000000000051e+01 1.302814999999999941e+02 2.048545000000000073e+03
1.310000000000000053e-01 1.935914999999999997e-01 1.327540000000000120e+01 1.288629999999999995e+02 2.048170000000000073e+03
1.320000000000000062e-01 1.935310000000000086e-01 1.250220000000000020e+01 1.273360000000000127e+02 2.047755000000000109e+03
1.330000000000000071e-01 1.934664999999999857e-01 1.170322499999999977e+01 1.257194999999999965e+02 2.047320000000000164e+03
1.340000000000000080e-01 1.933984999999999732e-01 1.088718000000000075e+01 1.240384999999999991e+02 2.046860000000000127e+03
1.350000000000000089e-01 1.933279999999999998e-01 1.006463499999999911e+01 1.223220000000000027e+02 2.046380000000000109e+03
1.360000000000000098e-01 1.932559999999999834e-01 9.247524999999999551e+00 1.206015000000000015e+02 2.045894999999999982e+03
1.370000000000000107e-01 1.931839999999999946e-01 8.448629999999999640e+00 1.189099999999999966e+02 2.045404999999999973e+03
1.380000000000000115e-01 1.931125000000000203e-01 7.680880000000000152e+00 1.172779999999999916e+02 2.044925000000000182e+03
1.390000000000000124e-01 1.930445000000000078e-01 6.956714999999999982e+00 1.157369999999999948e+02 2.044460000000000036e+03
1.400000000000000133e-01 1.929794999999999983e-01 6.287609999999999921e+00 1.143119999999999976e+02 2.044014999999999873e+03
1.410000000000000142e-01 1.929195000000000215e-01 5.683485000000000120e+00 1.130275000000000034e+02 2.043599999999999909e+03
1.420000000000000151e-01 1.928639999999999799e-01 5.152319999999999567e+00 1.118985000000000127e+02 2.043225000000000136e+03
1.430000000000000160e-01 1.928155000000000008e-01 4.699869999999999770e+00 1.109380000000000024e+02 2.042884999999999991e+03
1.440000000000000169e-01 1.927734999999999865e-01 4.329464999999999897e+00 1.101494999999999891e+02 2.042595000000000027e+03
1.450000000000000178e-01 1.927384999999999793e-01 4.042024999999999757e+00 1.095335000000000036e+02 2.042349999999999909e+03
1.459999999999999909e-01 1.927105000000000068e-01 3.836084999999999745e+00 1.090840000000000032e+02 2.042154999999999973e+03
1.469999999999999918e-01 1.926884999999999848e-01 3.707989999999999675e+00 1.087900000000000063e+02 2.042005000000000109e+03
1.479999999999999927e-01 1.926734999999999975e-01 3.652155000000000040e+00 1.086364999999999981e+02 2.041894999999999982e+03
1.489999999999999936e-01 1.926640000000000019e-01 3.661375000000000046e+00 1.086059999999999945e+02 2.041819999999999936e+03
1.499999999999999944e-01 1.926594999999999835e-01 3.727199999999999847e+00 1.086769999999999925e+02 2.041780000000000200e+03
1.509999999999999953e-01 1.926594999999999835e-01 3.840310000000000112e+00 1.088299999999999983e+02 2.041775000000000091e+03
1.519999999999999962e-01 1.926625000000000143e-01 3.990895000000000081e+00 1.090420000000000016e+02 2.041789999999999964e+03
1.529999999999999971e-01 1.926680000000000059e-01 4.169014999999999915e+00 1.092930000000000064e+02 2.041825000000000045e+03
1.539999999999999980e-01 1.926760000000000139e-01 4.364935000000000009e+00 1.095614999999999952e+02 2.041875000000000000e+03
1.549999999999999989e-01 1.926849999999999952e-01 4.569424999999999848e+00 1.098305000000000007e+02 2.041929999999999836e+03
1.559999999999999998e-01 1.926935000000000175e-01 4.774015000000000342e+00 1.100835000000000008e+02 2.041990000000000009e+03
1.570000000000000007e-01 1.927024999999999988e-01 4.971219999999999750e+00 1.103070000000000022e+02 2.042049999999999955e+03
1.580000000000000016e-01 1.927099999999999924e-01 5.154675000000000118e+00 1.104904999999999973e+02 2.042099999999999909e+03
1.590000000000000024e-01 1.927159999999999984e-01 5.319269999999999499e+00 1.106260000000000048e+02 2.042144999999999982e+03
