# t [s], A [cm^2], U [cm/s], P [cPa], c [cm/s]
1.000000000000000021e-03 1.643775000000000097e-01 3.974785000000000124e-01 9.761054999999998927e+01 1.918710000000000036e+03
2.000000000000000042e-03 1.643300000000000038e-01 2.093697500000000211e+00 9.418824999999999648e+01 1.918250000000000000e+03
3.000000000000000062e-03 1.641950000000000076e-01 4.141109499999999777e+00 8.959154999999999802e+01 1.917000000000000000e+03
4.000000000000000083e-03 1.640090000000000159e-01 6.412772999999999612e+00 8.469255000000001132e+01 1.915295000000000073e+03
5.000000000000000104e-03 1.638084999999999958e-01 8.832605000000000928e+00 8.037890000000000157e+01 1.913469999999999800e+03
6.000000000000000125e-03 1.636139999999999817e-01 1.121657499999999885e+01 7.691040000000000987e+01 1.911730000000000018e+03
7.000000000000000146e-03 1.634329999999999949e-01 1.334569499999999920e+01 7.401670000000000016e+01 1.910125000000000000e+03
8.000000000000000167e-03 1.632659999999999945e-01 1.513273500000000027e+01 7.143694999999999595e+01 1.908684999999999945e+03
9.000000000000001055e-03 1.631195000000000006e-01 1.661880000000000024e+01 6.920154999999999745e+01 1.907430000000000064e+03
1.000000000000000194e-02 1.629950000000000010e-01 1.784570000000000078e+01 6.738675000000000637e+01 1.906380000000000109e+03
1.099999999999999936e-02 1.628930000000000100e-01 1.883105000000000118e+01 6.596705000000000041e+01 1.905525000000000091e+03
1.200000000000000025e-02 1.628109999999999835e-01 1.959649999999999892e+01 6.489000000000000057e+01 1.904855000000000018e+03
1.300000000000000114e-02 1.627474999999999894e-01 2.015845000000000198e+01 6.409184999999999377e+01 1.904335000000000036e+03
1.400000000000000203e-02 1.626984999999999959e-01 2.052374999999999972e+01 6.347155000000000058e+01 1.903944999999999936e+03
1.499999999999999944e-02 1.626589999999999980e-01 2.072814999999999941e+01 6.296755000000000280e+01 1.903650000000000091e+03
1.600000000000000033e-02 1.626309999999999978e-01 2.087324999999999875e+01 6.268719999999999715e+01 1.903440000000000055e+03
1.700000000000000122e-02 1.626215000000000022e-01 2.110634999999999906e+01 6.291884999999999195e+01 1.903380000000000109e+03
1.800000000000000211e-02 1.626380000000000048e-01 2.154950000000000188e+01 6.397204999999999586e+01 1.903530000000000200e+03
1.900000000000000300e-02 1.626869999999999983e-01 2.223010000000000019e+01 6.596059999999999945e+01 1.903954999999999927e+03
2.000000000000000042e-02 1.627664999999999806e-01 2.305865000000000009e+01 6.867985000000000184e+01 1.904630000000000109e+03
2.100000000000000130e-02 1.628649999999999820e-01 2.386214999999999975e+01 7.164359999999999218e+01 1.905470000000000027e+03
2.200000000000000219e-02 1.629654999999999854e-01 2.444894999999999996e+01 7.424975000000000591e+01 1.906335000000000036e+03
2.299999999999999961e-02 1.630504999999999871e-01 2.467634999999999934e+01 7.598569999999999425e+01 1.907075000000000045e+03
2.400000000000000050e-02 1.631070000000000020e-01 2.449345000000000283e+01 7.659040000000000248e+01 1.907590000000000146e+03
2.500000000000000139e-02 1.631285000000000096e-01 2.394819999999999993e+01 7.611529999999999063e+01 1.907809999999999945e+03
2.600000000000000228e-02 1.631205000000000016e-01 2.316045000000000087e+01 7.487369999999999948e+01 1.907769999999999982e+03
2.700000000000000316e-02 1.630909999999999860e-01 2.227449999999999974e+01 7.330895000000001005e+01 1.907534999999999854e+03
2.800000000000000058e-02 1.630524999999999891e-01 2.141215000000000046e+01 7.183869999999998868e+01 1.907220000000000027e+03
2.900000000000000147e-02 1.630159999999999942e-01 2.064070000000000249e+01 7.073324999999999818e+01 1.906910000000000082e+03
3.000000000000000236e-02 1.629869999999999930e-01 1.996584999999999965e+01 7.006329999999999814e+01 1.906660000000000082e+03
3.099999999999999978e-02 1.629659999999999997e-01 1.934490000000000265e+01 6.972090000000000032e+01 1.906480000000000018e+03
3.200000000000000067e-02 1.629510000000000125e-01 1.871330000000000027e+01 6.949250000000000682e+01 1.906349999999999909e+03
3.300000000000000155e-02 1.629364999999999841e-01 1.801440000000000197e+01 6.915394999999999470e+01 1.906220000000000027e+03
3.400000000000000244e-02 1.629160000000000053e-01 1.722299999999999898e+01 6.855494999999999095e+01 1.906059999999999945e+03
3.500000000000000333e-02 1.628880000000000050e-01 1.635784999999999911e+01 6.767365000000000919e+01 1.905825000000000045e+03
3.600000000000000422e-02 1.628534999999999844e-01 1.547964999999999947e+01 6.662680000000000291e+01 1.905534999999999854e+03
3.700000000000000511e-02 1.628169999999999895e-01 1.467680000000000007e+01 6.563710000000000377e+01 1.905224999999999909e+03
3.799999999999999906e-02 1.627854999999999996e-01 1.404165000000000063e+01 6.496854999999999336e+01 1.904960000000000036e+03
3.899999999999999994e-02 1.627675000000000094e-01 1.364639999999999986e+01 6.485020000000000095e+01 1.904795000000000073e+03
4.000000000000000083e-02 1.627689999999999970e-01 1.352384999999999948e+01 6.541120000000000800e+01 1.904795000000000073e+03
4.100000000000000172e-02 1.627935000000000076e-01 1.365850000000000009e+01 6.664294999999999902e+01 1.904980000000000018e+03
4.200000000000000261e-02 1.628379999999999828e-01 1.398874999999999957e+01 6.839679999999999893e+01 1.905349999999999909e+03
4.300000000000000350e-02 1.628989999999999883e-01 1.441864999999999952e+01 7.041389999999999816e+01 1.905845000000000027e+03
4.400000000000000439e-02 1.629670000000000007e-01 1.483525000000000027e+01 7.237529999999999575e+01 1.906414999999999964e+03
4.499999999999999833e-02 1.630309999999999815e-01 1.512715000000000032e+01 7.396045000000000869e+01 1.906960000000000036e+03
4.599999999999999922e-02 1.630820000000000047e-01 1.519989999999999952e+01 7.489834999999999354e+01 1.907394999999999982e+03
4.700000000000000011e-02 1.631110000000000060e-01 1.498744999999999905e+01 7.500489999999999213e+01 1.907654999999999973e+03
4.800000000000000100e-02 1.631114999999999926e-01 1.445645000000000024e+01 7.419950000000000045e+01 1.907670000000000073e+03
4.900000000000000189e-02 1.630809999999999760e-01 1.360590000000000011e+01 7.250270000000000437e+01 1.907425000000000182e+03
5.000000000000000278e-02 1.630194999999999839e-01 1.246172499999999950e+01 7.001849999999998886e+01 1.906920000000000073e+03
5.100000000000000366e-02 1.629299999999999915e-01 1.106968499999999977e+01 6.690755000000000052e+01 1.906175000000000182e+03
5.200000000000000455e-02 1.628180000000000183e-01 9.487284999999999968e+00 6.335855000000000814e+01 1.905224999999999909e+03
5.300000000000000544e-02 1.626885000000000137e-01 7.777319999999999567e+00 5.956365000000000265e+01 1.904130000000000109e+03
5.399999999999999939e-02 1.625479999999999980e-01 6.002864999999999895e+00 5.570120000000000005e+01 1.902945000000000164e+03
5.500000000000000028e-02 1.624029999999999918e-01 4.224737100000000467e+00 5.192695000000000505e+01 1.901710000000000036e+03
5.600000000000000117e-02 1.622589999999999866e-01 2.500630000000000130e+00 4.837310000000000088e+01 1.900485000000000127e+03
5.700000000000000205e-02 1.621205000000000007e-01 8.850599999999999579e-01 4.515135000000000076e+01 1.899309999999999945e+03
5.800000000000000294e-02 1.619935000000000125e-01 -5.702099999999998836e-01 4.235835000000000150e+01 1.898220000000000027e+03
5.900000000000000383e-02 1.618804999999999827e-01 -1.816180000000000128e+00 4.008055000000000234e+01 1.897250000000000000e+03
6.000000000000000472e-02 1.617864999999999998e-01 -2.807285499999999878e+00 3.839650000000000318e+01 1.896440000000000055e+03
6.099999999999999867e-02 1.617149999999999976e-01 -3.502889999999999837e+00 3.737600000000000477e+01 1.895815000000000055e+03
6.199999999999999956e-02 1.616675000000000195e-01 -3.869340000000000224e+00 3.707685000000000031e+01 1.895394999999999982e+03
6.300000000000000044e-02 1.616485000000000005e-01 -3.882335000000000313e+00 3.753974999999999795e+01 1.895210000000000036e+03
6.400000000000000133e-02 1.616580000000000239e-01 -3.529014999999999791e+00 3.878255000000000052e+01 1.895264999999999873e+03
6.500000000000000222e-02 1.616974999999999940e-01 -2.809489999999999821e+00 4.079595000000000482e+01 1.895574999999999818e+03
6.600000000000000311e-02 1.617669999999999941e-01 -1.737317999999999918e+00 4.354139999999999588e+01 1.896134999999999991e+03
6.700000000000000400e-02 1.618649999999999811e-01 -3.390149999999998442e-01 4.695170000000000243e+01 1.896940000000000055e+03
6.800000000000000488e-02 1.619889999999999941e-01 1.347585000000000255e+00 5.093479999999999563e+01 1.897970000000000027e+03
6.900000000000000577e-02 1.621365000000000167e-01 3.275657000000000263e+00 5.537975000000000136e+01 1.899199999999999818e+03
7.000000000000000666e-02 1.623024999999999884e-01 5.392231999999999914e+00 6.016400000000000148e+01 1.900595000000000027e+03
7.100000000000000755e-02 1.624829999999999885e-01 7.641124999999999723e+00 6.516134999999999877e+01 1.902119999999999891e+03
7.200000000000000844e-02 1.626739999999999853e-01 9.965720000000001022e+00 7.024899999999999523e+01 1.903735000000000127e+03
7.300000000000000933e-02 1.628700000000000148e-01 1.231147499999999972e+01 7.531370000000001141e+01 1.905409999999999854e+03
7.399999999999999634e-02 1.630675000000000041e-01 1.462781999999999982e+01 8.025624999999999432e+01 1.907099999999999909e+03
7.499999999999999722e-02 1.632624999999999771e-01 1.686994999999999933e+01 8.499455000000000382e+01 1.908775000000000091e+03
7.599999999999999811e-02 1.634525000000000006e-01 1.900014999999999787e+01 8.946569999999999823e+01 1.910414999999999964e+03
7.699999999999999900e-02 1.636330000000000007e-01 2.098870000000000147e+01 9.362704999999999700e+01 1.911974999999999909e+03
7.799999999999999989e-02 1.638045000000000195e-01 2.281475000000000009e+01 9.745629999999999882e+01 1.913465000000000146e+03
7.900000000000000078e-02 1.639639999999999986e-01 2.446634999999999849e+01 1.009513499999999908e+02 1.914860000000000127e+03
8.000000000000000167e-02 1.641119999999999801e-01 2.594059999999999988e+01 1.041281500000000051e+02 1.916154999999999973e+03
8.100000000000000255e-02 1.642490000000000061e-01 2.724314999999999998e+01 1.070204999999999984e+02 1.917355000000000018e+03
8.200000000000000344e-02 1.643755000000000077e-01 2.838700000000000045e+01 1.096759999999999877e+02 1.918470000000000027e+03
8.300000000000000433e-02 1.644930000000000003e-01 2.939119999999999777e+01 1.121500000000000057e+02 1.919509999999999991e+03
8.400000000000000522e-02 1.646040000000000003e-01 3.027909999999999968e+01 1.145055000000000121e+02 1.920494999999999891e+03
8.500000000000000611e-02 1.647099999999999953e-01 3.107614999999999839e+01 1.168044999999999902e+02 1.921434999999999945e+03
8.600000000000000699e-02 1.648140000000000160e-01 3.180829999999999913e+01 1.191075000000000017e+02 1.922349999999999909e+03
8.700000000000000788e-02 1.649169999999999803e-01 3.249960000000000093e+01 1.214635000000000105e+02 1.923260000000000218e+03
8.800000000000000877e-02 1.650214999999999876e-01 3.317064999999999486e+01 1.239110000000000014e+02 1.924184999999999945e+03
8.899999999999999578e-02 1.651285000000000114e-01 3.383735000000000070e+01 1.264754999999999967e+02 1.925130000000000109e+03
8.999999999999999667e-02 1.652394999999999836e-01 3.450974999999999682e+01 1.291634999999999991e+02 1.926105000000000018e+03
9.099999999999999756e-02 1.653540000000000010e-01 3.519189999999999685e+01 1.319685000000000059e+02 1.927114999999999782e+03
9.199999999999999845e-02 1.654724999999999946e-01 3.588155000000000427e+01 1.348670000000000186e+02 1.928159999999999854e+03
9.299999999999999933e-02 1.655929999999999902e-01 3.657090000000000174e+01 1.378229999999999791e+02 1.929220000000000027e+03
9.400000000000000022e-02 1.657164999999999888e-01 3.724699999999999989e+01 1.407914999999999850e+02 1.930305000000000064e+03
9.500000000000000111e-02 1.658395000000000008e-01 3.789339999999999975e+01 1.437180000000000177e+02 1.931389999999999873e+03
9.600000000000000200e-02 1.659605000000000108e-01 3.849080000000000013e+01 1.465475000000000136e+02 1.932460000000000036e+03
9.700000000000000289e-02 1.660780000000000034e-01 3.901885000000000048e+01 1.492220000000000084e+02 1.933494999999999891e+03
9.800000000000000377e-02 1.661894999999999900e-01 3.945694999999999908e+01 1.516875000000000000e+02 1.934480000000000018e+03
9.900000000000000466e-02 1.662929999999999964e-01 3.978594999999999970e+01 1.538965000000000032e+02 1.935404999999999973e+03
1.000000000000000056e-01 1.663864999999999927e-01 3.998874999999999602e+01 1.558089999999999975e+02 1.936240000000000009e+03
1.010000000000000064e-01 1.664690000000000059e-01 4.005160000000000053e+01 1.573930000000000007e+02 1.936974999999999909e+03
1.020000000000000073e-01 1.665389999999999926e-01 3.996430000000000149e+01 1.586279999999999859e+02 1.937605000000000018e+03
1.030000000000000082e-01 1.665959999999999941e-01 3.972104999999999819e+01 1.595045000000000073e+02 1.938115000000000009e+03
1.040000000000000091e-01 1.666389999999999816e-01 3.932054999999999723e+01 1.600235000000000127e+02 1.938509999999999991e+03
1.050000000000000100e-01 1.666679999999999828e-01 3.876604999999999990e+01 1.601959999999999980e+02 1.938784999999999854e+03
1.059999999999999970e-01 1.666834999999999845e-01 3.806515000000000271e+01 1.600420000000000016e+02 1.938929999999999836e+03
1.069999999999999979e-01 1.666860000000000008e-01 3.722950000000000159e+01 1.595919999999999845e+02 1.938970000000000027e+03
1.079999999999999988e-01 1.666769999999999918e-01 3.627420000000000044e+01 1.588804999999999836e+02 1.938905000000000200e+03
1.089999999999999997e-01 1.666575000000000140e-01 3.521744999999999948e+01 1.579495000000000005e+02 1.938740000000000009e+03
1.100000000000000006e-01 1.666279999999999983e-01 3.407935000000000514e+01 1.568430000000000177e+02 1.938494999999999891e+03
1.110000000000000014e-01 1.665915000000000035e-01 3.288139999999999930e+01 1.556064999999999827e+02 1.938179999999999836e+03
1.120000000000000023e-01 1.665484999999999882e-01 3.164559999999999818e+01 1.542860000000000014e+02 1.937815000000000055e+03
1.130000000000000032e-01 1.665024999999999977e-01 3.039369999999999905e+01 1.529244999999999948e+02 1.937404999999999973e+03
1.140000000000000041e-01 1.664535000000000042e-01 2.914630000000000010e+01 1.515639999999999930e+02 1.936980000000000018e+03
1.150000000000000050e-01 1.664029999999999954e-01 2.792244999999999777e+01 1.502384999999999877e+02 1.936534999999999854e+03
1.160000000000000059e-01 1.663530000000000009e-01 2.673874999999999957e+01 1.489800000000000182e+02 1.936099999999999909e+03
1.170000000000000068e-01 1.663054999999999950e-01 2.560889999999999844e+01 1.478109999999999786e+02 1.935670000000000073e+03
1.180000000000000077e-01 1.662595000000000045e-01 2.454350000000000165e+01 1.467479999999999905e+02 1.935269999999999982e+03
1.190000000000000085e-01 1.662175000000000180e-01 2.354984999999999928e+01 1.458004999999999995e+02 1.934894999999999982e+03
1.200000000000000094e-01 1.661789999999999934e-01 2.263165000000000049e+01 1.449705000000000155e+02 1.934545000000000073e+03
1.209999999999999964e-01 1.661440000000000139e-01 2.178904999999999959e+01 1.442529999999999859e+02 1.934235000000000127e+03
1.219999999999999973e-01 1.661134999999999973e-01 2.101899999999999835e+01 1.436370000000000005e+02 1.933960000000000036e+03
1.229999999999999982e-01 1.660865000000000258e-01 2.031550000000000011e+01 1.431034999999999968e+02 1.933710000000000036e+03
1.239999999999999991e-01 1.660619999999999874e-01 1.966995000000000005e+01 1.426324999999999932e+02 1.933490000000000009e+03
1.250000000000000000e-01 1.660400000000000209e-01 1.907164999999999822e+01 1.421970000000000027e+02 1.933289999999999964e+03
1.260000000000000009e-01 1.660194999999999865e-01 1.850854999999999961e+01 1.417694999999999936e+02 1.933099999999999909e+03
1.270000000000000018e-01 1.659990000000000077e-01 1.796764999999999901e+01 1.413229999999999791e+02 1.932914999999999964e+03
1.280000000000000027e-01 1.659785000000000010e-01 1.743570000000000064e+01 1.408284999999999911e+02 1.932730000000000018e+03
1.290000000000000036e-01 1.659555000000000058e-01 1.690010000000000190e+01 1.402599999999999909e+02 1.932519999999999982e+03
1.300000000000000044e-01 1.659300000000000219e-01 1.634904999999999831e+01 1.395960000000000036e+02 1.932295000000000073e+03
1.310000000000000053e-01 1.659015000000000073e-01 1.577265000000000050e+01 1.388179999999999836e+02 1.932045000000000073e+03
1.320000000000000062e-01 1.658685000000000020e-01 1.516290000000000049e+01 1.379119999999999777e+02 1.931755000000000109e+03
1.330000000000000071e-01 1.658310000000000062e-01 1.451430000000000220e+01 1.368729999999999905e+02 1.931420000000000073e+03
1.340000000000000080e-01 1.657889999999999919e-01 1.382440000000000069e+01 1.356995000000000005e+02 1.931049999999999955e+03
1.350000000000000089e-01 1.657409999999999994e-01 1.309329999999999927e+01 1.343979999999999961e+02 1.930634999999999991e+03
1.360000000000000098e-01 1.656890000000000029e-01 1.232440000000000069e+01 1.329809999999999945e+02 1.930179999999999836e+03
1.370000000000000107e-01 1.656325000000000158e-01 1.152354500000000037e+01 1.314675000000000011e+02 1.929684999999999945e+03
1.380000000000000115e-01 1.655719999999999970e-01 1.069931000000000054e+01 1.298810000000000002e+02 1.929159999999999854e+03
1.390000000000000124e-01 1.655090000000000172e-01 9.862235000000000085e+00 1.282479999999999905e+02 1.928605000000000018e+03
1.400000000000000133e-01 1.654439999999999800e-01 9.024460000000001259e+00 1.265999999999999943e+02 1.928039999999999964e+03
1.410000000000000142e-01 1.653779999999999972e-01 8.199144999999999683e+00 1.249680000000000035e+02 1.927460000000000036e+03
1.420000000000000151e-01 1.653125000000000011e-01 7.399834999999999496e+00 1.233834999999999980e+02 1.926884999999999991e+03
1.430000000000000160e-01 1.652485000000000204e-01 6.639890000000000292e+00 1.218769999999999953e+02 1.926320000000000164e+03
1.440000000000000169e-01 1.651870000000000005e-01 5.931855000000000544e+00 1.204759999999999991e+02 1.925785000000000082e+03
1.450000000000000178e-01 1.651294999999999846e-01 5.286934999999999718e+00 1.192034999999999911e+02 1.925280000000000200e+03
1.459999999999999909e-01 1.650765000000000149e-01 4.714545000000000208e+00 1.180784999999999911e+02 1.924809999999999945e+03
1.469999999999999918e-01 1.650284999999999946e-01 4.221974999999999589e+00 1.171149999999999949e+02 1.924384999999999991e+03
1.479999999999999927e-01 1.649875000000000091e-01 3.814095000000000013e+00 1.163204999999999956e+02 1.924014999999999873e+03
1.489999999999999936e-01 1.649519999999999875e-01 3.493275000000000130e+00 1.156979999999999933e+02 1.923704999999999927e+03
1.499999999999999944e-01 1.649235000000000007e-01 3.259355000000000224e+00 1.152434999999999974e+02 1.923445000000000164e+03
1.509999999999999953e-01 1.649010000000000198e-01 3.109729999999999883e+00 1.149484999999999957e+02 1.923239999999999782e+03
1.519999999999999962e-01 1.648844999999999894e-01 3.039585000000000203e+00 1.148000000000000114e+02 1.923089999999999918e+03
1.529999999999999971e-01 1.648739999999999928e-01 3.042110000000000092e+00 1.147824999999999989e+02 1.922994999999999891e+03
1.539999999999999980e-01 1.648689999999999878e-01 3.108915000000000095e+00 1.148750000000000000e+02 1.922940000000000055e+03
1.549999999999999989e-01 1.648685000000000012e-01 3.230339999999999989e+00 1.150564999999999998e+02 1.922925000000000182e+03
1.559999999999999998e-01 1.648715000000000042e-01 3.395919999999999828e+00 1.153050000000000068e+02 1.922949999999999818e+03
1.570000000000000007e-01 1.648775000000000102e-01 3.594739999999999824e+00 1.155974999999999966e+02 1.922994999999999891e+03
1.580000000000000016e-01 1.648860000000000048e-01 3.815879999999999939e+00 1.159124999999999943e+02 1.923059999999999945e+03
1.590000000000000024e-01 1.648955000000000004e-01 4.048729999999999940e+00 1.162289999999999992e+02 1.923139999999999873e+03
