# t [s], A [cm^2], U [cm/s], P [cPa], c [cm/s]
1.000000000000000021e-03 6.188190000000000079e-01 4.263599999999999335e-03 1.026140000000000043e+02 1.523974999999999909e+03
2.000000000000000042e-03 6.188099999999999712e-01 2.569299999999998321e-04 1.025895000000000010e+02 1.523970000000000027e+03
3.000000000000000062e-03 6.188700000000000312e-01 1.037430000000000019e-01 1.026920000000000073e+02 1.524000000000000000e+03
4.000000000000000083e-03 6.189195000000000668e-01 1.978167499999999857e-01 1.028019999999999925e+02 1.524034999999999854e+03
5.000000000000000104e-03 6.188890000000000224e-01 1.648432499999999967e-01 1.027355000000000018e+02 1.524014999999999873e+03
6.000000000000000125e-03 6.188169999999999504e-01 5.531999999999998030e-02 1.025045000000000073e+02 1.523960000000000036e+03
7.000000000000000146e-03 6.187475000000000058e-01 -5.753749999999996367e-02 1.021974999999999909e+02 1.523884999999999991e+03
8.000000000000000167e-03 6.186389999999999390e-01 -2.491099999999999426e-01 1.017420000000000044e+02 1.523764999999999873e+03
9.000000000000001055e-03 6.184609999999999275e-01 -5.739500000000000712e-01 1.010475000000000136e+02 1.523589999999999918e+03
1.000000000000000194e-02 6.182149999999999590e-01 -1.023394999999999833e+00 1.000817000000000121e+02 1.523340000000000146e+03
1.099999999999999936e-02 6.178855000000000874e-01 -1.608105000000000118e+00 9.879589999999998895e+01 1.523005000000000109e+03
1.200000000000000025e-02 6.174545000000000172e-01 -2.339989999999999792e+00 9.713200000000000500e+01 1.522559999999999945e+03
1.300000000000000114e-02 6.169419999999999904e-01 -3.158865000000000034e+00 9.512004999999999200e+01 1.522005000000000109e+03
1.400000000000000203e-02 6.164140000000000175e-01 -3.918319999999999581e+00 9.291870000000000118e+01 1.521384999999999991e+03
1.499999999999999944e-02 6.159464999999999524e-01 -4.449950000000000294e+00 9.076035000000000252e+01 1.520755000000000109e+03
1.600000000000000033e-02 6.155850000000000488e-01 -4.640575100000000397e+00 8.884895000000000209e+01 1.520154999999999973e+03
1.700000000000000122e-02 6.153319999999999901e-01 -4.469162500000000371e+00 8.728515000000000157e+01 1.519630000000000109e+03
1.800000000000000211e-02 6.151515000000000732e-01 -3.998922499999999935e+00 8.604820000000000846e+01 1.519180000000000064e+03
1.900000000000000300e-02 6.149884999999999380e-01 -3.342930500000000027e+00 8.502199999999999136e+01 1.518784999999999854e+03
2.000000000000000042e-02 6.147910000000000874e-01 -2.621177449999999798e+00 8.404675000000000296e+01 1.518400000000000091e+03
2.100000000000000130e-02 6.145255000000000578e-01 -1.922575000000000145e+00 8.297724999999999795e+01 1.518000000000000000e+03
2.200000000000000219e-02 6.141870000000000385e-01 -1.283199999999999896e+00 8.172849999999999682e+01 1.517565000000000055e+03
2.299999999999999961e-02 6.137924999999999631e-01 -6.878699999999997594e-01 8.029290000000000305e+01 1.517079999999999927e+03
2.400000000000000050e-02 6.133724999999999872e-01 -9.221499999999993591e-02 7.872525000000000261e+01 1.516559999999999945e+03
2.500000000000000139e-02 6.129560000000000564e-01 5.468799999999998107e-01 7.710575000000000045e+01 1.516019999999999982e+03
2.600000000000000228e-02 6.125579999999999359e-01 1.246055000000000135e+00 7.550069999999999482e+01 1.515480000000000018e+03
2.700000000000000316e-02 6.121739999999999959e-01 1.983210000000000139e+00 7.393389999999999418e+01 1.514944999999999936e+03
2.800000000000000058e-02 6.117839999999999945e-01 2.699234999999999829e+00 7.237604999999999222e+01 1.514414999999999964e+03
2.900000000000000147e-02 6.113585000000000269e-01 3.310529999999999973e+00 7.075055000000000405e+01 1.513865000000000009e+03
3.000000000000000236e-02 6.108635000000000037e-01 3.727854999999999919e+00 6.895390000000000441e+01 1.513275000000000091e+03
3.099999999999999978e-02 6.102735000000000243e-01 3.877114999999999867e+00 6.688354999999999961e+01 1.512619999999999891e+03
3.200000000000000067e-02 6.095785000000000231e-01 3.716984999999999761e+00 6.446709999999998786e+01 1.511875000000000000e+03
3.300000000000000155e-02 6.087839999999999918e-01 3.249504999999999644e+00 6.168609999999999616e+01 1.511039999999999964e+03
3.400000000000000244e-02 6.079164999999999708e-01 2.520470000000000432e+00 5.858679999999999666e+01 1.510115000000000009e+03
3.500000000000000333e-02 6.070150000000000823e-01 1.610230000000000494e+00 5.527624999999999744e+01 1.509130000000000109e+03
3.600000000000000422e-02 6.061255000000000948e-01 6.184500000000001663e-01 5.190614999999999668e+01 1.508119999999999891e+03
3.700000000000000511e-02 6.052939999999999987e-01 -3.525049999999998462e-01 4.864945000000000164e+01 1.507125000000000000e+03
3.799999999999999906e-02 6.045614999999999739e-01 -1.211489999999999956e+00 4.567705000000000126e+01 1.506194999999999936e+03
3.899999999999999994e-02 6.039579999999999949e-01 -1.887075000000000280e+00 4.313779999999999859e+01 1.505369999999999891e+03
4.000000000000000083e-02 6.035034999999999705e-01 -2.331479999999999997e+00 4.114544999999999675e+01 1.504690000000000055e+03
4.100000000000000172e-02 6.032070000000000487e-01 -2.519305000000000128e+00 3.977284999999999826e+01 1.504174999999999955e+03
4.200000000000000261e-02 6.030695000000000361e-01 -2.443437999999999999e+00 3.905249999999999488e+01 1.503849999999999909e+03
4.300000000000000350e-02 6.030849999999999822e-01 -2.109325000000000117e+00 3.898239999999999839e+01 1.503715000000000146e+03
4.400000000000000439e-02 6.032450000000000312e-01 -1.529232999999999842e+00 3.953515000000000157e+01 1.503764999999999873e+03
4.499999999999999833e-02 6.035375000000000600e-01 -7.177699999999997971e-01 4.066729999999999734e+01 1.504000000000000000e+03
4.599999999999999922e-02 6.039520000000000444e-01 3.104500000000003368e-01 4.232704999999999984e+01 1.504394999999999982e+03
4.700000000000000011e-02 6.044760000000000133e-01 1.541039999999999743e+00 4.445985000000000298e+01 1.504949999999999818e+03
4.800000000000000100e-02 6.050990000000000535e-01 2.958314999999999806e+00 4.701014999999999588e+01 1.505639999999999873e+03
4.900000000000000189e-02 6.058075000000000543e-01 4.543124999999999858e+00 4.992109999999999559e+01 1.506449999999999818e+03
5.000000000000000278e-02 6.065875000000000572e-01 6.270985000000000475e+00 5.313325000000000387e+01 1.507369999999999891e+03
5.100000000000000366e-02 6.074224999999999763e-01 8.111139999999998906e+00 5.658320000000000505e+01 1.508369999999999891e+03
5.200000000000000455e-02 6.082959999999999479e-01 1.002703050000000040e+01 6.020324999999999704e+01 1.509440000000000055e+03
5.300000000000000544e-02 6.091889999999999805e-01 1.197826500000000038e+01 6.392265000000000441e+01 1.510554999999999836e+03
5.399999999999999939e-02 6.100840000000000707e-01 1.392272999999999961e+01 6.767024999999999579e+01 1.511690000000000055e+03
5.500000000000000028e-02 6.109634999999999927e-01 1.582001500000000149e+01 7.137790000000001100e+01 1.512835000000000036e+03
5.600000000000000117e-02 6.118140000000000800e-01 1.763385500000000050e+01 7.498430000000000462e+01 1.513964999999999918e+03
5.700000000000000205e-02 6.126240000000000574e-01 1.933455000000000013e+01 7.843885000000000218e+01 1.515065000000000055e+03
5.800000000000000294e-02 6.133874999999999744e-01 2.090010000000000190e+01 8.170374999999999943e+01 1.516119999999999891e+03
5.900000000000000383e-02 6.140995000000000203e-01 2.231705000000000183e+01 8.475569999999999027e+01 1.517119999999999891e+03
6.000000000000000472e-02 6.147605000000000430e-01 2.357995000000000019e+01 8.758600000000001273e+01 1.518065000000000055e+03
6.099999999999999867e-02 6.153735000000000177e-01 2.469040000000000035e+01 9.019944999999999879e+01 1.518950000000000045e+03
6.199999999999999956e-02 6.159440000000000470e-01 2.565594999999999715e+01 9.261225000000000307e+01 1.519769999999999982e+03
6.300000000000000044e-02 6.164775000000000116e-01 2.648870000000000147e+01 9.484950000000000614e+01 1.520549999999999955e+03
6.400000000000000133e-02 6.169835000000000180e-01 2.720385000000000275e+01 9.694254999999999711e+01 1.521280000000000200e+03
6.500000000000000222e-02 6.174690000000000456e-01 2.781864999999999810e+01 9.892654999999999177e+01 1.521970000000000027e+03
6.600000000000000311e-02 6.179434999999999789e-01 2.835135000000000005e+01 1.008374000000000024e+02 1.522634999999999991e+03
6.700000000000000400e-02 6.184140000000000192e-01 2.882039999999999935e+01 1.027104999999999961e+02 1.523284999999999854e+03
6.800000000000000488e-02 6.188880000000001047e-01 2.924344999999999928e+01 1.045780000000000030e+02 1.523924999999999955e+03
6.900000000000000577e-02 6.193720000000000336e-01 2.963649999999999807e+01 1.064675000000000011e+02 1.524569999999999936e+03
7.000000000000000666e-02 6.198690000000000033e-01 3.001334999999999908e+01 1.084010000000000105e+02 1.525220000000000027e+03
7.100000000000000755e-02 6.203819999999999890e-01 3.038414999999999822e+01 1.103919999999999959e+02 1.525884999999999991e+03
7.200000000000000844e-02 6.209120000000000195e-01 3.075544999999999973e+01 1.124454999999999956e+02 1.526565000000000055e+03
7.300000000000000933e-02 6.214570000000000372e-01 3.112924999999999898e+01 1.145600000000000023e+02 1.527259999999999991e+03
7.399999999999999634e-02 6.220125000000000792e-01 3.150295000000000201e+01 1.167210000000000036e+02 1.527970000000000027e+03
7.499999999999999722e-02 6.225715000000000554e-01 3.186984999999999957e+01 1.189074999999999989e+02 1.528684999999999945e+03
7.599999999999999811e-02 6.231279999999999042e-01 3.221950000000000358e+01 1.210925000000000011e+02 1.529405000000000200e+03
7.699999999999999900e-02 6.236720000000000041e-01 3.253865000000000407e+01 1.232415000000000020e+02 1.530114999999999782e+03
7.799999999999999989e-02 6.241944999999999855e-01 3.281219999999999715e+01 1.253165000000000049e+02 1.530799999999999955e+03
7.900000000000000078e-02 6.246865000000000334e-01 3.302450000000000330e+01 1.272789999999999964e+02 1.531460000000000036e+03
8.000000000000000167e-02 6.251385000000000414e-01 3.316055000000000064e+01 1.290925000000000011e+02 1.532075000000000045e+03
8.100000000000000255e-02 6.255425000000000013e-01 3.320674999999999955e+01 1.307214999999999918e+02 1.532639999999999873e+03
8.200000000000000344e-02 6.258924999999999628e-01 3.315189999999999770e+01 1.321385000000000218e+02 1.533139999999999873e+03
8.300000000000000433e-02 6.261840000000000739e-01 3.298790000000000333e+01 1.333205000000000098e+02 1.533575000000000045e+03
8.400000000000000522e-02 6.264134999999999565e-01 3.271005000000000251e+01 1.342540000000000191e+02 1.533929999999999836e+03
8.500000000000000611e-02 6.265810000000000546e-01 3.231730000000000302e+01 1.349309999999999832e+02 1.534210000000000036e+03
8.600000000000000699e-02 6.266869999999999941e-01 3.181219999999999715e+01 1.353539999999999850e+02 1.534410000000000082e+03
8.700000000000000788e-02 6.267350000000000421e-01 3.120085000000000264e+01 1.355335000000000036e+02 1.534534999999999854e+03
8.800000000000000877e-02 6.267290000000000916e-01 3.049249999999999972e+01 1.354850000000000136e+02 1.534579999999999927e+03
8.899999999999999578e-02 6.266745000000000232e-01 2.969899999999999807e+01 1.352309999999999945e+02 1.534565000000000055e+03
8.999999999999999667e-02 6.265789999999999971e-01 2.883444999999999681e+01 1.347995000000000232e+02 1.534480000000000018e+03
9.099999999999999756e-02 6.264499999999999513e-01 2.791454999999999842e+01 1.342210000000000036e+02 1.534344999999999800e+03
9.199999999999999845e-02 6.262950000000000461e-01 2.695589999999999975e+01 1.335285000000000082e+02 1.534170000000000073e+03
9.299999999999999933e-02 6.261224999999999152e-01 2.597554999999999836e+01 1.327560000000000002e+02 1.533960000000000036e+03
9.400000000000000022e-02 6.259394999999999820e-01 2.499020000000000152e+01 1.319364999999999952e+02 1.533730000000000018e+03
9.500000000000000111e-02 6.257539999999999214e-01 2.401565000000000083e+01 1.311014999999999873e+02 1.533490000000000009e+03
9.600000000000000200e-02 6.255720000000000169e-01 2.306625000000000014e+01 1.302795000000000130e+02 1.533240000000000009e+03
9.700000000000000289e-02 6.253994999999999971e-01 2.215419999999999945e+01 1.294954999999999927e+02 1.532994999999999891e+03
9.800000000000000377e-02 6.252409999999999357e-01 2.128954999999999842e+01 1.287690000000000055e+02 1.532764999999999873e+03
9.900000000000000466e-02 6.250995000000000301e-01 2.047939999999999827e+01 1.281150000000000091e+02 1.532549999999999955e+03
1.000000000000000056e-01 6.249765000000000459e-01 1.972804999999999964e+01 1.275434999999999945e+02 1.532355000000000018e+03
1.010000000000000064e-01 6.248735000000000817e-01 1.903690000000000282e+01 1.270579999999999927e+02 1.532184999999999945e+03
1.020000000000000073e-01 6.247884999999999689e-01 1.840449999999999875e+01 1.266574999999999989e+02 1.532039999999999964e+03
1.030000000000000082e-01 6.247199999999999420e-01 1.782679999999999865e+01 1.263350000000000080e+02 1.531910000000000082e+03
1.040000000000000091e-01 6.246654999999999847e-01 1.729749999999999943e+01 1.260800000000000125e+02 1.531809999999999945e+03
1.050000000000000100e-01 6.246220000000000105e-01 1.680835000000000079e+01 1.258794999999999931e+02 1.531724999999999909e+03
1.059999999999999970e-01 6.245840000000000281e-01 1.634984999999999999e+01 1.257154999999999916e+02 1.531650000000000091e+03
1.069999999999999979e-01 6.245479999999999920e-01 1.591129999999999889e+01 1.255699999999999932e+02 1.531589999999999918e+03
1.079999999999999988e-01 6.245084999999999109e-01 1.548195000000000121e+01 1.254240000000000066e+02 1.531525000000000091e+03
1.089999999999999997e-01 6.244625000000000314e-01 1.505095000000000027e+01 1.252590000000000003e+02 1.531460000000000036e+03
1.100000000000000006e-01 6.244054999999999467e-01 1.460824999999999996e+01 1.250564999999999998e+02 1.531389999999999873e+03
1.110000000000000014e-01 6.243339999999999446e-01 1.414485000000000170e+01 1.248015000000000043e+02 1.531304999999999836e+03
1.120000000000000023e-01 6.242449999999999388e-01 1.365334999999999965e+01 1.244814999999999969e+02 1.531204999999999927e+03
1.130000000000000032e-01 6.241365000000000940e-01 1.312817500000000059e+01 1.240869999999999891e+02 1.531085000000000036e+03
1.140000000000000041e-01 6.240090000000000359e-01 1.256577499999999858e+01 1.236124999999999972e+02 1.530940000000000055e+03
1.150000000000000050e-01 6.238615000000000688e-01 1.196509499999999981e+01 1.230564999999999998e+02 1.530769999999999982e+03
1.160000000000000059e-01 6.236960000000000282e-01 1.132729999999999926e+01 1.224219999999999970e+02 1.530579999999999927e+03
1.170000000000000068e-01 6.235135000000000538e-01 1.065582000000000029e+01 1.217169999999999987e+02 1.530365000000000009e+03
1.180000000000000077e-01 6.233180000000000387e-01 9.956310000000000215e+00 1.209509999999999934e+02 1.530134999999999991e+03
1.190000000000000085e-01 6.231130000000000280e-01 9.236269999999999314e+00 1.201394999999999982e+02 1.529884999999999991e+03
1.200000000000000094e-01 6.229029999999999845e-01 8.504909999999998860e+00 1.192980000000000018e+02 1.529630000000000109e+03
1.209999999999999964e-01 6.226925000000000932e-01 7.772479999999999833e+00 1.184470000000000027e+02 1.529365000000000009e+03
1.219999999999999973e-01 6.224874999999999714e-01 7.050135000000000041e+00 1.176059999999999945e+02 1.529105000000000018e+03
1.229999999999999982e-01 6.222909999999999275e-01 6.349149999999999849e+00 1.167949999999999875e+02 1.528840000000000146e+03
1.239999999999999991e-01 6.221094999999999819e-01 5.680680000000000618e+00 1.160345000000000084e+02 1.528595000000000027e+03
1.250000000000000000e-01 6.219459999999999988e-01 5.055114999999999803e+00 1.153425000000000011e+02 1.528369999999999891e+03
1.260000000000000009e-01 6.218055000000000110e-01 4.481709999999999638e+00 1.147359999999999900e+02 1.528159999999999854e+03
1.270000000000000018e-01 6.216899999999999649e-01 3.968135000000000190e+00 1.142270000000000039e+02 1.527985000000000127e+03
1.280000000000000027e-01 6.216019999999999879e-01 3.520245000000000068e+00 1.138265000000000100e+02 1.527835000000000036e+03
1.290000000000000036e-01 6.215414999999999690e-01 3.141809999999999992e+00 1.135395000000000039e+02 1.527724999999999909e+03
1.300000000000000044e-01 6.215090000000000892e-01 2.834435000000000038e+00 1.133679999999999950e+02 1.527644999999999982e+03
1.310000000000000053e-01 6.215040000000000564e-01 2.597565000000000346e+00 1.133094999999999999e+02 1.527599999999999909e+03
1.320000000000000062e-01 6.215245000000000353e-01 2.428574999999999928e+00 1.133580000000000041e+02 1.527585000000000036e+03
1.330000000000000071e-01 6.215675000000000505e-01 2.322995000000000143e+00 1.135049999999999955e+02 1.527610000000000127e+03
1.340000000000000080e-01 6.216299999999999049e-01 2.274719999999999853e+00 1.137369999999999948e+02 1.527650000000000091e+03
1.350000000000000089e-01 6.217079999999999274e-01 2.276374999999999815e+00 1.140405000000000086e+02 1.527720000000000027e+03
1.360000000000000098e-01 6.217980000000000729e-01 2.319655000000000022e+00 1.143984999999999985e+02 1.527815000000000055e+03
1.370000000000000107e-01 6.218954999999999345e-01 2.395665000000000155e+00 1.147949999999999875e+02 1.527920000000000073e+03
1.380000000000000115e-01 6.219970000000000221e-01 2.495299999999999851e+00 1.152135000000000105e+02 1.528034999999999854e+03
1.390000000000000124e-01 6.220984999999999987e-01 2.609555000000000291e+00 1.156364999999999981e+02 1.528159999999999854e+03
1.400000000000000133e-01 6.221959999999999713e-01 2.729859999999999953e+00 1.160504999999999995e+02 1.528285000000000082e+03
1.410000000000000142e-01 6.222874999999999934e-01 2.848304999999999865e+00 1.164414999999999907e+02 1.528400000000000091e+03
1.420000000000000151e-01 6.223695000000000199e-01 2.957894999999999719e+00 1.167974999999999994e+02 1.528509999999999991e+03
1.430000000000000160e-01 6.224400000000001043e-01 3.052665000000000184e+00 1.171094999999999970e+02 1.528610000000000127e+03
1.440000000000000169e-01 6.224985000000000657e-01 3.127810000000000201e+00 1.173709999999999951e+02 1.528695000000000164e+03
1.450000000000000178e-01 6.225429999999999575e-01 3.179759999999999920e+00 1.175769999999999982e+02 1.528764999999999873e+03
1.459999999999999909e-01 6.225745000000000307e-01 3.206145000000000245e+00 1.177255000000000109e+02 1.528825000000000045e+03
1.469999999999999918e-01 6.225920000000000343e-01 3.205815000000000303e+00 1.178170000000000073e+02 1.528864999999999782e+03
1.479999999999999927e-01 6.225964999999999971e-01 3.178735000000000088e+00 1.178530000000000086e+02 1.528889999999999873e+03
1.489999999999999936e-01 6.225890000000000590e-01 3.125894999999999868e+00 1.178370000000000033e+02 1.528889999999999873e+03
1.499999999999999944e-01 6.225720000000000143e-01 3.049154999999999838e+00 1.177740000000000009e+02 1.528885000000000218e+03
1.509999999999999953e-01 6.225450000000000150e-01 2.951150000000000162e+00 1.176700000000000017e+02 1.528865000000000009e+03
1.519999999999999962e-01 6.225104999999999666e-01 2.835055000000000103e+00 1.175314999999999941e+02 1.528835000000000036e+03
1.529999999999999971e-01 6.224709999999999965e-01 2.704470000000000152e+00 1.173665000000000020e+02 1.528784999999999854e+03
1.539999999999999980e-01 6.224270000000000636e-01 2.563204999999999956e+00 1.171810000000000116e+02 1.528740000000000009e+03
1.549999999999999989e-01 6.223810000000000731e-01 2.415134999999999810e+00 1.169825000000000017e+02 1.528684999999999945e+03
1.559999999999999998e-01 6.223334999999999839e-01 2.264029999999999987e+00 1.167770000000000010e+02 1.528630000000000109e+03
1.570000000000000007e-01 6.222864999999999647e-01 2.113380000000000258e+00 1.165704999999999956e+02 1.528569999999999936e+03
1.580000000000000016e-01 6.222404999999999742e-01 1.966324999999999878e+00 1.163665000000000020e+02 1.528505000000000109e+03
1.590000000000000024e-01 6.221965000000000412e-01 1.825527499999999970e+00 1.161694999999999993e+02 1.528445000000000164e+03
