# t [s], A [cm^2], U [cm/s], P [cPa], c [cm/s]
1.000000000000000021e-03 1.597494999999999887e-01 3.333635000000000348e-01 9.384264999999999191e+01 1.730465000000000146e+03
2.000000000000000042e-03 1.597254999999999925e-01 1.841733499999999912e+00 9.098265000000000668e+01 1.730279999999999973e+03
3.000000000000000062e-03 1.596265000000000045e-01 3.659791500000000308e+00 8.737245000000000061e+01 1.729545000000000073e+03
4.000000000000000083e-03 1.594740000000000046e-01 5.653755499999999934e+00 8.340594999999999004e+01 1.728440000000000055e+03
5.000000000000000104e-03 1.592950000000000199e-01 7.777709999999999901e+00 7.969499999999999318e+01 1.727144999999999982e+03
6.000000000000000125e-03 1.591090000000000004e-01 9.940995000000000914e+00 7.655369999999999209e+01 1.725820000000000164e+03
7.000000000000000146e-03 1.589280000000000137e-01 1.200982499999999931e+01 7.395335000000000036e+01 1.724529999999999973e+03
8.000000000000000167e-03 1.587544999999999928e-01 1.387706499999999998e+01 7.171054999999999779e+01 1.723320000000000164e+03
9.000000000000001055e-03 1.585929999999999840e-01 1.551299000000000028e+01 6.971465000000000600e+01 1.722204999999999927e+03
1.000000000000000194e-02 1.584464999999999901e-01 1.693745000000000189e+01 6.797334999999999638e+01 1.721210000000000036e+03
1.099999999999999936e-02 1.583164999999999989e-01 1.816944999999999766e+01 6.650724999999999909e+01 1.720335000000000036e+03
1.200000000000000025e-02 1.582045000000000257e-01 1.921594999999999942e+01 6.529325000000000045e+01 1.719575000000000045e+03
1.300000000000000114e-02 1.581079999999999985e-01 2.008295000000000030e+01 6.428704999999999359e+01 1.718940000000000055e+03
1.400000000000000203e-02 1.580259999999999998e-01 2.077810000000000201e+01 6.344355000000000189e+01 1.718400000000000091e+03
1.499999999999999944e-02 1.579564999999999997e-01 2.131069999999999709e+01 6.271864999999999668e+01 1.717949999999999818e+03
1.600000000000000033e-02 1.578970000000000096e-01 2.169989999999999952e+01 6.208400000000000318e+01 1.717574999999999818e+03
1.700000000000000122e-02 1.578475000000000017e-01 2.198695000000000022e+01 6.156109999999999616e+01 1.717259999999999991e+03
1.800000000000000211e-02 1.578080000000000038e-01 2.223570000000000135e+01 6.123924999999999841e+01 1.717019999999999982e+03
1.900000000000000300e-02 1.577834999999999932e-01 2.251764999999999972e+01 6.125254999999999939e+01 1.716869999999999891e+03
2.000000000000000042e-02 1.577770000000000006e-01 2.288759999999999906e+01 6.172145000000000437e+01 1.716845000000000027e+03
2.100000000000000130e-02 1.577915000000000012e-01 2.336399999999999721e+01 6.269165000000000276e+01 1.716954999999999927e+03
2.200000000000000219e-02 1.578269999999999951e-01 2.392255000000000109e+01 6.410054999999999836e+01 1.717195000000000164e+03
2.299999999999999961e-02 1.578799999999999926e-01 2.450469999999999970e+01 6.578459999999999752e+01 1.717559999999999945e+03
2.400000000000000050e-02 1.579444999999999877e-01 2.503540000000000276e+01 6.751949999999999363e+01 1.718000000000000000e+03
2.500000000000000139e-02 1.580119999999999858e-01 2.544355000000000189e+01 6.907699999999999818e+01 1.718464999999999918e+03
2.600000000000000228e-02 1.580754999999999799e-01 2.567929999999999779e+01 7.027754999999999086e+01 1.718905000000000200e+03
2.700000000000000316e-02 1.581290000000000195e-01 2.572265000000000157e+01 7.102524999999999977e+01 1.719280000000000200e+03
2.800000000000000058e-02 1.581679999999999753e-01 2.558364999999999867e+01 7.131694999999999141e+01 1.719555000000000064e+03
2.900000000000000147e-02 1.581925000000000137e-01 2.529520000000000124e+01 7.122769999999999868e+01 1.719740000000000009e+03
3.000000000000000236e-02 1.582040000000000113e-01 2.490099999999999980e+01 7.087905000000000655e+01 1.719829999999999927e+03
3.099999999999999978e-02 1.582050000000000123e-01 2.444319999999999737e+01 7.040075000000000216e+01 1.719855000000000018e+03
3.200000000000000067e-02 1.582000000000000073e-01 2.395325000000000060e+01 6.989875000000000682e+01 1.719824999999999818e+03
3.300000000000000155e-02 1.581914999999999849e-01 2.344760000000000133e+01 6.943524999999999636e+01 1.719775000000000091e+03
3.400000000000000244e-02 1.581810000000000160e-01 2.292819999999999681e+01 6.902504999999999313e+01 1.719710000000000036e+03
3.500000000000000333e-02 1.581690000000000040e-01 2.238759999999999906e+01 6.864535000000000764e+01 1.719634999999999991e+03
3.600000000000000422e-02 1.581560000000000188e-01 2.181544999999999845e+01 6.825430000000000064e+01 1.719549999999999955e+03
3.700000000000000511e-02 1.581409999999999760e-01 2.120550000000000068e+01 6.781194999999999595e+01 1.719454999999999927e+03
3.799999999999999906e-02 1.581224999999999992e-01 2.056090000000000018e+01 6.729855000000000587e+01 1.719329999999999927e+03
3.899999999999999994e-02 1.581015000000000059e-01 1.989620000000000033e+01 6.672534999999999172e+01 1.719195000000000164e+03
4.000000000000000083e-02 1.580779999999999963e-01 1.923725000000000307e+01 6.613685000000000969e+01 1.719039999999999964e+03
4.100000000000000172e-02 1.580544999999999867e-01 1.861699999999999733e+01 6.560325000000000273e+01 1.718884999999999991e+03
4.200000000000000261e-02 1.580329999999999790e-01 1.807019999999999982e+01 6.520699999999999363e+01 1.718744999999999891e+03
4.300000000000000350e-02 1.580170000000000186e-01 1.762695000000000078e+01 6.502539999999999054e+01 1.718634999999999991e+03
4.400000000000000439e-02 1.580094999999999972e-01 1.730734999999999957e+01 6.511369999999999436e+01 1.718579999999999927e+03
4.499999999999999833e-02 1.580119999999999858e-01 1.711724999999999852e+01 6.549305000000001087e+01 1.718589999999999918e+03
4.599999999999999922e-02 1.580254999999999854e-01 1.704714999999999847e+01 6.614424999999999955e+01 1.718674999999999955e+03
4.700000000000000011e-02 1.580489999999999950e-01 1.707339999999999947e+01 6.700935000000001196e+01 1.718824999999999818e+03
4.800000000000000100e-02 1.580809999999999993e-01 1.716100000000000136e+01 6.799954999999999927e+01 1.719034999999999854e+03
4.900000000000000189e-02 1.581184999999999952e-01 1.726875000000000071e+01 6.900730000000000075e+01 1.719284999999999854e+03
5.000000000000000278e-02 1.581579999999999930e-01 1.735385000000000133e+01 6.992079999999999984e+01 1.719545000000000073e+03
5.100000000000000366e-02 1.581950000000000023e-01 1.737635000000000218e+01 7.063710000000000377e+01 1.719789999999999964e+03
5.200000000000000455e-02 1.582255000000000189e-01 1.730319999999999681e+01 7.107304999999999495e+01 1.719994999999999891e+03
5.300000000000000544e-02 1.582459999999999978e-01 1.711019999999999897e+01 7.117195000000000960e+01 1.720134999999999991e+03
5.399999999999999939e-02 1.582544999999999924e-01 1.678300000000000125e+01 7.090619999999999834e+01 1.720195000000000164e+03
5.500000000000000028e-02 1.582485000000000142e-01 1.631694999999999851e+01 7.027609999999999957e+01 1.720160000000000082e+03
5.600000000000000117e-02 1.582280000000000075e-01 1.571594999999999942e+01 6.930539999999999168e+01 1.720025000000000091e+03
5.700000000000000205e-02 1.581934999999999869e-01 1.499075000000000024e+01 6.803610000000000468e+01 1.719795000000000073e+03
5.800000000000000294e-02 1.581454999999999944e-01 1.415749999999999886e+01 6.652159999999999229e+01 1.719480000000000018e+03
5.900000000000000383e-02 1.580860000000000043e-01 1.323574999999999946e+01 6.482150000000000034e+01 1.719085000000000036e+03
6.000000000000000472e-02 1.580170000000000186e-01 1.224764499999999856e+01 6.299734999999999729e+01 1.718619999999999891e+03
6.099999999999999867e-02 1.579409999999999981e-01 1.121689999999999898e+01 6.110960000000000036e+01 1.718110000000000127e+03
6.199999999999999956e-02 1.578600000000000003e-01 1.016816999999999993e+01 5.921625000000000227e+01 1.717570000000000164e+03
6.300000000000000044e-02 1.577764999999999862e-01 9.126934999999999576e+00 5.737255000000000393e+01 1.717005000000000109e+03
6.400000000000000133e-02 1.576929999999999998e-01 8.119350000000000733e+00 5.563155000000000427e+01 1.716445000000000164e+03
6.500000000000000222e-02 1.576119999999999743e-01 7.171739999999999782e+00 5.404429999999999978e+01 1.715900000000000091e+03
6.600000000000000311e-02 1.575360000000000094e-01 6.310760000000000147e+00 5.266040000000000276e+01 1.715389999999999873e+03
6.700000000000000400e-02 1.574679999999999969e-01 5.562564999999999316e+00 5.152785000000000082e+01 1.714925000000000182e+03
6.800000000000000488e-02 1.574085000000000067e-01 4.952334999999999710e+00 5.069230000000000302e+01 1.714525000000000091e+03
6.900000000000000577e-02 1.573614999999999875e-01 4.503465000000000273e+00 5.019575000000000387e+01 1.714204999999999927e+03
7.000000000000000666e-02 1.573289999999999966e-01 4.236709999999999532e+00 5.007529999999999859e+01 1.713974999999999909e+03
7.100000000000000755e-02 1.573120000000000074e-01 4.169280000000000541e+00 5.036084999999999923e+01 1.713849999999999909e+03
7.200000000000000844e-02 1.573120000000000074e-01 4.314095000000000013e+00 5.107389999999999475e+01 1.713845000000000027e+03
7.300000000000000933e-02 1.573309999999999986e-01 4.679115000000000357e+00 5.222570000000000334e+01 1.713960000000000036e+03
7.399999999999999634e-02 1.573689999999999811e-01 5.266970000000000596e+00 5.381669999999999732e+01 1.714204999999999927e+03
7.499999999999999722e-02 1.574274999999999980e-01 6.074785000000000323e+00 5.583594999999999686e+01 1.714579999999999927e+03
7.599999999999999811e-02 1.575055000000000205e-01 7.094294999999999796e+00 5.826154999999999973e+01 1.715095000000000027e+03
7.699999999999999900e-02 1.576025000000000065e-01 8.312260000000000204e+00 6.106184999999999974e+01 1.715730000000000018e+03
7.799999999999999989e-02 1.577169999999999961e-01 9.710979999999999279e+00 6.419644999999999868e+01 1.716494999999999891e+03
7.900000000000000078e-02 1.578485000000000027e-01 1.126925500000000113e+01 6.761860000000000070e+01 1.717369999999999891e+03
8.000000000000000167e-02 1.579949999999999966e-01 1.296307000000000009e+01 7.127729999999999677e+01 1.718349999999999909e+03
8.100000000000000255e-02 1.581540000000000168e-01 1.476670000000000016e+01 7.511934999999999718e+01 1.719414999999999964e+03
8.200000000000000344e-02 1.583240000000000203e-01 1.665375000000000227e+01 7.909194999999999709e+01 1.720559999999999945e+03
8.300000000000000433e-02 1.585020000000000040e-01 1.859785000000000110e+01 8.314449999999999363e+01 1.721759999999999991e+03
8.400000000000000522e-02 1.586865000000000081e-01 2.057385000000000019e+01 8.723080000000000211e+01 1.723005000000000109e+03
8.500000000000000611e-02 1.588749999999999885e-01 2.255839999999999890e+01 9.131020000000000891e+01 1.724280000000000200e+03
8.600000000000000699e-02 1.590659999999999852e-01 2.453059999999999974e+01 9.534874999999999545e+01 1.725574999999999818e+03
8.700000000000000788e-02 1.592570000000000097e-01 2.647245000000000203e+01 9.932050000000000978e+01 1.726875000000000000e+03
8.800000000000000877e-02 1.594474999999999920e-01 2.836914999999999765e+01 1.032065000000000055e+02 1.728174999999999955e+03
8.899999999999999578e-02 1.596360000000000001e-01 3.020935000000000059e+01 1.069955500000000086e+02 1.729470000000000027e+03
8.999999999999999667e-02 1.598220000000000196e-01 3.198484999999999800e+01 1.106834999999999951e+02 1.730744999999999891e+03
9.099999999999999756e-02 1.600050000000000083e-01 3.369055000000000177e+01 1.142719999999999914e+02 1.732000000000000000e+03
9.199999999999999845e-02 1.601845000000000074e-01 3.532415000000000305e+01 1.177684999999999889e+02 1.733235000000000127e+03
9.299999999999999933e-02 1.603605000000000169e-01 3.688530000000000086e+01 1.211814999999999998e+02 1.734449999999999818e+03
9.400000000000000022e-02 1.605329999999999813e-01 3.837570000000000192e+01 1.245245000000000033e+02 1.735644999999999982e+03
9.500000000000000111e-02 1.607029999999999847e-01 3.979800000000000182e+01 1.278089999999999975e+02 1.736819999999999936e+03
9.600000000000000200e-02 1.608704999999999996e-01 4.115550000000000352e+01 1.310474999999999852e+02 1.737985000000000127e+03
9.700000000000000289e-02 1.610354999999999981e-01 4.245159999999999911e+01 1.342495000000000118e+02 1.739125000000000000e+03
9.800000000000000377e-02 1.611989999999999812e-01 4.368939999999999912e+01 1.374219999999999970e+02 1.740264999999999873e+03
9.900000000000000466e-02 1.613609999999999767e-01 4.487120000000000175e+01 1.405695000000000050e+02 1.741389999999999873e+03
1.000000000000000056e-01 1.615214999999999845e-01 4.599840000000000373e+01 1.436915000000000191e+02 1.742509999999999991e+03
1.010000000000000064e-01 1.616805000000000048e-01 4.707115000000000293e+01 1.467839999999999918e+02 1.743619999999999891e+03
1.020000000000000073e-01 1.618384999999999962e-01 4.808844999999999459e+01 1.498410000000000082e+02 1.744719999999999800e+03
1.030000000000000082e-01 1.619944999999999857e-01 4.904805000000000348e+01 1.528505000000000109e+02 1.745804999999999836e+03
1.040000000000000091e-01 1.621480000000000143e-01 4.994664999999999822e+01 1.557994999999999948e+02 1.746884999999999991e+03
1.050000000000000100e-01 1.622989999999999988e-01 5.077994999999999948e+01 1.586725000000000136e+02 1.747940000000000055e+03
1.059999999999999970e-01 1.624464999999999937e-01 5.154295000000000471e+01 1.614530000000000030e+02 1.748970000000000027e+03
1.069999999999999979e-01 1.625900000000000123e-01 5.223035000000000139e+01 1.641225000000000023e+02 1.749984999999999900e+03
1.079999999999999988e-01 1.627284999999999981e-01 5.283639999999999759e+01 1.666645000000000039e+02 1.750954999999999927e+03
1.089999999999999997e-01 1.628614999999999924e-01 5.335555000000000092e+01 1.690625000000000000e+02 1.751889999999999873e+03
1.100000000000000006e-01 1.629885000000000084e-01 5.378265000000000384e+01 1.713000000000000114e+02 1.752779999999999973e+03
1.110000000000000014e-01 1.631079999999999752e-01 5.411299999999999955e+01 1.733639999999999759e+02 1.753625000000000000e+03
1.120000000000000023e-01 1.632200000000000040e-01 5.434284999999999854e+01 1.752434999999999832e+02 1.754414999999999964e+03
1.130000000000000032e-01 1.633235000000000103e-01 5.446920000000000073e+01 1.769284999999999854e+02 1.755144999999999982e+03
1.140000000000000041e-01 1.634180000000000077e-01 5.449045000000000272e+01 1.784145000000000039e+02 1.755820000000000164e+03
1.150000000000000050e-01 1.635034999999999961e-01 5.440600000000000591e+01 1.796965000000000146e+02 1.756425000000000182e+03
1.160000000000000059e-01 1.635794999999999888e-01 5.421679999999999922e+01 1.807760000000000105e+02 1.756970000000000027e+03
1.170000000000000068e-01 1.636460000000000137e-01 5.392499999999999716e+01 1.816555000000000177e+02 1.757445000000000164e+03
1.180000000000000077e-01 1.637029999999999874e-01 5.353425000000000011e+01 1.823394999999999868e+02 1.757855000000000018e+03
1.190000000000000085e-01 1.637504999999999933e-01 5.304939999999999856e+01 1.828380000000000223e+02 1.758200000000000045e+03
1.200000000000000094e-01 1.637894999999999768e-01 5.247664999999999935e+01 1.831599999999999966e+02 1.758474999999999909e+03
1.209999999999999964e-01 1.638189999999999924e-01 5.182330000000000325e+01 1.833205000000000098e+02 1.758694999999999936e+03
1.219999999999999973e-01 1.638410000000000144e-01 5.109754999999999825e+01 1.833329999999999984e+02 1.758855000000000018e+03
1.229999999999999982e-01 1.638545000000000140e-01 5.030839999999999890e+01 1.832144999999999868e+02 1.758964999999999918e+03
1.239999999999999991e-01 1.638620000000000076e-01 4.946529999999999916e+01 1.829815000000000111e+02 1.759019999999999982e+03
1.250000000000000000e-01 1.638625000000000220e-01 4.857809999999999917e+01 1.826519999999999868e+02 1.759029999999999973e+03
1.260000000000000009e-01 1.638580000000000036e-01 4.765664999999999907e+01 1.822429999999999950e+02 1.759000000000000000e+03
1.270000000000000018e-01 1.638479999999999936e-01 4.671059999999999945e+01 1.817715000000000032e+02 1.758940000000000055e+03
1.280000000000000027e-01 1.638344999999999940e-01 4.574915000000000020e+01 1.812535000000000025e+02 1.758849999999999909e+03
1.290000000000000036e-01 1.638175000000000048e-01 4.478090000000000259e+01 1.807030000000000030e+02 1.758735000000000127e+03
1.300000000000000044e-01 1.637985000000000135e-01 4.381350000000000477e+01 1.801320000000000050e+02 1.758605000000000018e+03
1.310000000000000053e-01 1.637770000000000059e-01 4.285374999999999801e+01 1.795519999999999925e+02 1.758454999999999927e+03
1.320000000000000062e-01 1.637540000000000107e-01 4.190724999999999767e+01 1.789699999999999989e+02 1.758295000000000073e+03
1.330000000000000071e-01 1.637305000000000010e-01 4.097849999999999682e+01 1.783930000000000007e+02 1.758130000000000109e+03
1.340000000000000080e-01 1.637055000000000038e-01 4.007070000000000221e+01 1.778234999999999957e+02 1.757954999999999927e+03
1.350000000000000089e-01 1.636809999999999932e-01 3.918580000000000041e+01 1.772640000000000100e+02 1.757779999999999973e+03
1.360000000000000098e-01 1.636559999999999959e-01 3.832475000000000165e+01 1.767129999999999939e+02 1.757605000000000018e+03
1.370000000000000107e-01 1.636305000000000121e-01 3.748734999999999928e+01 1.761680000000000064e+02 1.757420000000000073e+03
1.380000000000000115e-01 1.636050000000000004e-01 3.667244999999999777e+01 1.756245000000000118e+02 1.757244999999999891e+03
1.390000000000000124e-01 1.635794999999999888e-01 3.587800000000000011e+01 1.750780000000000030e+02 1.757059999999999945e+03
1.400000000000000133e-01 1.635530000000000039e-01 3.510134999999999650e+01 1.745215000000000032e+02 1.756869999999999891e+03
1.410000000000000142e-01 1.635264999999999913e-01 3.433935000000000315e+01 1.739474999999999909e+02 1.756684999999999945e+03
1.420000000000000151e-01 1.634984999999999911e-01 3.358854999999999791e+01 1.733494999999999777e+02 1.756484999999999900e+03
1.430000000000000160e-01 1.634700000000000042e-01 3.284515000000000384e+01 1.727205000000000155e+02 1.756284999999999854e+03
1.440000000000000169e-01 1.634395000000000153e-01 3.210560000000000258e+01 1.720529999999999973e+02 1.756065000000000055e+03
1.450000000000000178e-01 1.634075000000000111e-01 3.136635000000000062e+01 1.713414999999999964e+02 1.755839999999999918e+03
1.459999999999999909e-01 1.633735000000000048e-01 3.062424999999999997e+01 1.705809999999999889e+02 1.755599999999999909e+03
1.469999999999999918e-01 1.633374999999999966e-01 2.987655000000000172e+01 1.697669999999999959e+02 1.755349999999999909e+03
1.479999999999999927e-01 1.632989999999999997e-01 2.912095000000000056e+01 1.688974999999999795e+02 1.755074999999999818e+03
1.489999999999999936e-01 1.632574999999999998e-01 2.835600000000000165e+01 1.679710000000000036e+02 1.754789999999999964e+03
1.499999999999999944e-01 1.632145000000000123e-01 2.758079999999999998e+01 1.669875000000000114e+02 1.754480000000000018e+03
1.509999999999999953e-01 1.631679999999999797e-01 2.679524999999999935e+01 1.659490000000000123e+02 1.754154999999999973e+03
1.519999999999999962e-01 1.631190000000000140e-01 2.600005000000000166e+01 1.648594999999999970e+02 1.753815000000000055e+03
1.529999999999999971e-01 1.630679999999999907e-01 2.519660000000000011e+01 1.637239999999999895e+02 1.753454999999999927e+03
1.539999999999999980e-01 1.630145000000000066e-01 2.438710000000000022e+01 1.625480000000000018e+02 1.753079999999999927e+03
1.549999999999999989e-01 1.629585000000000061e-01 2.357434999999999903e+01 1.613394999999999868e+02 1.752694999999999936e+03
1.559999999999999998e-01 1.629015000000000046e-01 2.276184999999999903e+01 1.601075000000000159e+02 1.752289999999999964e+03
1.570000000000000007e-01 1.628425000000000011e-01 2.195364999999999966e+01 1.588609999999999900e+02 1.751884999999999991e+03
1.580000000000000016e-01 1.627830000000000110e-01 2.115390000000000015e+01 1.576105000000000018e+02 1.751464999999999918e+03
1.590000000000000024e-01 1.627230000000000065e-01 2.036744999999999806e+01 1.563659999999999854e+02 1.751045000000000073e+03
