# t [s], A [cm^2], U [cm/s], P [cPa], c [cm/s]
1.000000000000000021e-03 6.013579999999999481e-01 2.259850000000000747e-03 9.895690000000000452e+01 1.374454999999999927e+03
2.000000000000000042e-03 6.013509999999999689e-01 9.252800000000001128e-04 9.894384999999999764e+01 1.374450000000000045e+03
3.000000000000000062e-03 6.013865000000000460e-01 5.566669999999999952e-02 9.898945000000000505e+01 1.374464999999999918e+03
4.000000000000000083e-03 6.014409999999998924e-01 1.368854999999999933e-01 9.908070000000000732e+01 1.374485000000000127e+03
5.000000000000000104e-03 6.014515000000000278e-01 1.529808500000000016e-01 9.910474999999999568e+01 1.374500000000000000e+03
6.000000000000000125e-03 6.014194999999999958e-01 1.032645000000000091e-01 9.902764999999999418e+01 1.374485000000000127e+03
7.000000000000000146e-03 6.013779999999999681e-01 3.607450000000000934e-02 9.888450000000000273e+01 1.374460000000000036e+03
8.000000000000000167e-03 6.013325000000000475e-01 -4.075849999999997531e-02 9.868840000000000146e+01 1.374414999999999964e+03
9.000000000000001055e-03 6.012565000000000826e-01 -1.706610000000000626e-01 9.839500000000001023e+01 1.374355000000000018e+03
1.000000000000000194e-02 6.011329999999999174e-01 -3.818199999999999372e-01 9.795779999999999177e+01 1.374255000000000109e+03
1.099999999999999936e-02 6.009550000000000169e-01 -6.784899999999999265e-01 9.734794999999999732e+01 1.374115000000000009e+03
1.200000000000000025e-02 6.007160000000000277e-01 -1.065285000000000037e+00 9.653694999999999027e+01 1.373929999999999836e+03
1.300000000000000114e-02 6.004069999999999130e-01 -1.543009999999999771e+00 9.549960000000000093e+01 1.373680000000000064e+03
1.400000000000000203e-02 6.000339999999999563e-01 -2.086819999999999897e+00 9.423914999999999509e+01 1.373369999999999891e+03
1.499999999999999944e-02 5.996234999999999760e-01 -2.638409999999999922e+00 9.280365000000000464e+01 1.373009999999999991e+03
1.600000000000000033e-02 5.992094999999999505e-01 -3.121029999999999749e+00 9.127750000000000341e+01 1.372610000000000127e+03
1.700000000000000122e-02 5.988234999999999530e-01 -3.464539999999999953e+00 8.975589999999999691e+01 1.372204999999999927e+03
1.800000000000000211e-02 5.984849999999999337e-01 -3.624848999999999766e+00 8.831735000000000468e+01 1.371795000000000073e+03
1.900000000000000300e-02 5.981944999999999624e-01 -3.591003999999999863e+00 8.700685000000000002e+01 1.371405000000000200e+03
2.000000000000000042e-02 5.979410000000000558e-01 -3.381360500000000435e+00 8.583195000000000618e+01 1.371045000000000073e+03
2.100000000000000130e-02 5.977060000000000706e-01 -3.033291499999999807e+00 8.476869999999999550e+01 1.370694999999999936e+03
2.200000000000000219e-02 5.974694999999999867e-01 -2.590782500000000432e+00 8.377405000000000257e+01 1.370360000000000127e+03
2.299999999999999961e-02 5.972159999999999691e-01 -2.093115000000000059e+00 8.280070000000000618e+01 1.370029999999999973e+03
2.400000000000000050e-02 5.969364999999999810e-01 -1.567134999999999945e+00 8.180965000000000487e+01 1.369695000000000164e+03
2.500000000000000139e-02 5.966320000000000512e-01 -1.024630000000000152e+00 8.077859999999999729e+01 1.369349999999999909e+03
2.600000000000000228e-02 5.963070000000000315e-01 -4.650000000000000799e-01 7.970304999999999040e+01 1.369000000000000000e+03
2.700000000000000316e-02 5.959699999999999998e-01 1.182500000000001883e-01 7.859225000000000705e+01 1.368639999999999873e+03
2.800000000000000058e-02 5.956285000000000052e-01 7.299449999999998440e-01 7.746049999999999613e+01 1.368275000000000091e+03
2.900000000000000147e-02 5.952859999999999818e-01 1.367005000000000026e+00 7.631895000000000095e+01 1.367904999999999973e+03
3.000000000000000236e-02 5.949385000000000367e-01 2.015270000000000117e+00 7.516849999999999454e+01 1.367529999999999973e+03
3.099999999999999978e-02 5.945795000000000385e-01 2.649734999999999729e+00 7.399724999999999397e+01 1.367150000000000091e+03
3.200000000000000067e-02 5.941985000000000738e-01 3.237719999999999487e+00 7.278125000000000000e+01 1.366759999999999991e+03
3.300000000000000155e-02 5.937829999999999497e-01 3.743954999999999700e+00 7.148884999999999934e+01 1.366349999999999909e+03
3.400000000000000244e-02 5.933219999999999050e-01 4.136520000000000863e+00 7.008744999999998981e+01 1.365920000000000073e+03
3.500000000000000333e-02 5.928099999999999481e-01 4.392069999999999474e+00 6.855035000000000878e+01 1.365460000000000036e+03
3.600000000000000422e-02 5.922459999999999392e-01 4.500280000000000058e+00 6.686424999999999841e+01 1.364954999999999927e+03
3.700000000000000511e-02 5.916365000000000096e-01 4.465460000000000207e+00 6.503324999999999534e+01 1.364424999999999955e+03
3.799999999999999906e-02 5.909944999999999782e-01 4.306115000000000137e+00 6.308140000000000214e+01 1.363865000000000009e+03
3.899999999999999994e-02 5.903359999999999719e-01 4.052514999999999645e+00 6.105110000000000525e+01 1.363279999999999973e+03
4.000000000000000083e-02 5.896824999999999983e-01 3.742385000000000073e+00 5.899930000000000518e+01 1.362690000000000055e+03
4.100000000000000172e-02 5.890549999999999953e-01 3.416399999999999881e+00 5.699195000000000277e+01 1.362105000000000018e+03
4.200000000000000261e-02 5.884735000000000937e-01 3.114095000000000280e+00 5.509775000000000489e+01 1.361545000000000073e+03
4.300000000000000350e-02 5.879550000000000054e-01 2.870379999999999932e+00 5.338210000000000122e+01 1.361025000000000091e+03
4.400000000000000439e-02 5.875150000000000095e-01 2.714049999999999851e+00 5.190305000000000035e+01 1.360565000000000055e+03
4.499999999999999833e-02 5.871635000000000604e-01 2.666639999999999677e+00 5.070770000000000266e+01 1.360170000000000073e+03
4.599999999999999922e-02 5.869079999999999853e-01 2.743180000000000174e+00 4.983124999999999716e+01 1.359865000000000009e+03
4.700000000000000011e-02 5.867525000000000102e-01 2.953134649999999972e+00 4.929684999999999917e+01 1.359639999999999873e+03
4.800000000000000100e-02 5.866985000000000117e-01 3.301810000000000134e+00 4.911700000000000443e+01 1.359519999999999982e+03
4.900000000000000189e-02 5.867464999999999486e-01 3.791679999999999939e+00 4.929495000000000005e+01 1.359494999999999891e+03
5.000000000000000278e-02 5.868944999999999856e-01 4.423404999999999809e+00 4.982715000000000316e+01 1.359565000000000055e+03
5.100000000000000366e-02 5.871404999999999541e-01 5.196394999999999875e+00 5.070449999999999591e+01 1.359740000000000009e+03
5.200000000000000455e-02 5.874814999999999898e-01 6.108864999999999768e+00 5.191414999999999935e+01 1.360009999999999991e+03
5.300000000000000544e-02 5.879125000000000600e-01 7.157560000000000144e+00 5.343975000000000364e+01 1.360369999999999891e+03
5.399999999999999939e-02 5.884285000000000210e-01 8.337154999999999205e+00 5.526214999999999833e+01 1.360824999999999818e+03
5.500000000000000028e-02 5.890244999999999509e-01 9.639844999999999331e+00 5.735909999999999798e+01 1.361360000000000127e+03
5.600000000000000117e-02 5.896919999999999940e-01 1.105490499999999976e+01 5.970534999999999570e+01 1.361974999999999909e+03
5.700000000000000205e-02 5.904234999999999900e-01 1.256869499999999995e+01 6.227250000000000796e+01 1.362654999999999973e+03
5.800000000000000294e-02 5.912089999999999845e-01 1.416468000000000060e+01 6.502920000000000300e+01 1.363400000000000091e+03
5.900000000000000383e-02 5.920374999999999943e-01 1.582419000000000153e+01 6.794210000000001060e+01 1.364194999999999936e+03
6.000000000000000472e-02 5.929005000000000525e-01 1.752713500000000124e+01 7.097610000000000241e+01 1.365034999999999854e+03
6.099999999999999867e-02 5.937864999999999949e-01 1.925287499999999952e+01 7.409595000000000198e+01 1.365914999999999964e+03
6.199999999999999956e-02 5.946850000000000191e-01 2.098114999999999952e+01 7.726735000000000753e+01 1.366815000000000055e+03
6.300000000000000044e-02 5.955889999999999240e-01 2.269284999999999997e+01 8.045805000000000007e+01 1.367735000000000127e+03
6.400000000000000133e-02 5.964890000000000470e-01 2.437109999999999843e+01 8.363900000000001000e+01 1.368660000000000082e+03
6.500000000000000222e-02 5.973794999999999522e-01 2.600130000000000052e+01 8.678525000000000489e+01 1.369579999999999927e+03
6.600000000000000311e-02 5.982555000000000511e-01 2.757164999999999822e+01 8.987725000000000364e+01 1.370505000000000109e+03
6.700000000000000400e-02 5.991124999999999368e-01 2.907354999999999734e+01 9.290035000000000309e+01 1.371410000000000082e+03
6.800000000000000488e-02 5.999505000000000532e-01 3.050090000000000146e+01 9.584409999999999741e+01 1.372304999999999836e+03
6.900000000000000577e-02 6.007664999999999811e-01 3.185045000000000215e+01 9.870390000000000441e+01 1.373180000000000064e+03
7.000000000000000666e-02 6.015629999999999589e-01 3.312115000000000009e+01 1.014799999999999898e+02 1.374029999999999973e+03
7.100000000000000755e-02 6.023399999999999865e-01 3.431400000000000006e+01 1.041749999999999972e+02 1.374869999999999891e+03
7.200000000000000844e-02 6.030994999999998996e-01 3.543134999999999479e+01 1.067948499999999967e+02 1.375690000000000055e+03
7.300000000000000933e-02 6.038445000000000062e-01 3.647674999999999557e+01 1.093485000000000014e+02 1.376490000000000009e+03
7.399999999999999634e-02 6.045770000000000310e-01 3.745430000000000348e+01 1.118449999999999989e+02 1.377275000000000091e+03
7.499999999999999722e-02 6.052994999999999903e-01 3.836834999999999951e+01 1.142930000000000064e+02 1.378049999999999955e+03
7.599999999999999811e-02 6.060140000000000526e-01 3.922325000000000017e+01 1.167025000000000006e+02 1.378809999999999945e+03
7.699999999999999900e-02 6.067219999999999835e-01 4.002280000000000371e+01 1.190809999999999889e+02 1.379559999999999945e+03
7.799999999999999989e-02 6.074260000000000215e-01 4.077009999999999934e+01 1.214325000000000045e+02 1.380304999999999836e+03
7.900000000000000078e-02 6.081250000000000266e-01 4.146744999999999948e+01 1.237630000000000052e+02 1.381045000000000073e+03
8.000000000000000167e-02 6.088189999999999991e-01 4.211594999999999800e+01 1.260709999999999980e+02 1.381775000000000091e+03
8.100000000000000255e-02 6.095070000000000210e-01 4.271574999999999989e+01 1.283555000000000064e+02 1.382500000000000000e+03
8.200000000000000344e-02 6.101870000000000349e-01 4.326579999999999870e+01 1.306115000000000066e+02 1.383215000000000146e+03
8.300000000000000433e-02 6.108569999999999833e-01 4.376420000000000243e+01 1.328309999999999889e+02 1.383914999999999964e+03
8.400000000000000522e-02 6.115135000000000431e-01 4.420810000000000173e+01 1.350060000000000002e+02 1.384610000000000127e+03
8.500000000000000611e-02 6.121529999999999472e-01 4.459409999999999741e+01 1.371245000000000118e+02 1.385289999999999964e+03
8.600000000000000699e-02 6.127725000000000533e-01 4.491840000000000543e+01 1.391740000000000066e+02 1.385945000000000164e+03
8.700000000000000788e-02 6.133669999999999956e-01 4.517705000000000126e+01 1.411415000000000077e+02 1.386579999999999927e+03
8.800000000000000877e-02 6.139339999999999797e-01 4.536645000000000039e+01 1.430140000000000100e+02 1.387194999999999936e+03
8.899999999999999578e-02 6.144690000000000429e-01 4.548304999999999865e+01 1.447794999999999845e+02 1.387775000000000091e+03
8.999999999999999667e-02 6.149694999999999467e-01 4.552405000000000257e+01 1.464270000000000209e+02 1.388319999999999936e+03
9.099999999999999756e-02 6.154325000000000490e-01 4.548749999999999716e+01 1.479454999999999814e+02 1.388829999999999927e+03
9.199999999999999845e-02 6.158559999999999590e-01 4.537220000000000653e+01 1.493290000000000077e+02 1.389300000000000182e+03
9.299999999999999933e-02 6.162385000000000224e-01 4.517804999999999893e+01 1.505704999999999814e+02 1.389735000000000127e+03
9.400000000000000022e-02 6.165789999999999882e-01 4.490595000000000425e+01 1.516675000000000182e+02 1.390119999999999891e+03
9.500000000000000111e-02 6.168774999999999675e-01 4.455794999999999817e+01 1.526184999999999832e+02 1.390465000000000146e+03
9.600000000000000200e-02 6.171349999999999891e-01 4.413714999999999833e+01 1.534254999999999995e+02 1.390764999999999873e+03
9.700000000000000289e-02 6.173515000000000530e-01 4.364750000000000085e+01 1.540919999999999845e+02 1.391025000000000091e+03
9.800000000000000377e-02 6.175300000000000233e-01 4.309409999999999741e+01 1.546235000000000070e+02 1.391244999999999891e+03
9.900000000000000466e-02 6.176719999999999988e-01 4.248274999999999579e+01 1.550289999999999964e+02 1.391420000000000073e+03
1.000000000000000056e-01 6.177799999999999958e-01 4.182000000000000028e+01 1.553160000000000025e+02 1.391559999999999945e+03
1.010000000000000064e-01 6.178569999999999895e-01 4.111289999999999623e+01 1.554964999999999975e+02 1.391670000000000073e+03
1.020000000000000073e-01 6.179075000000000539e-01 4.036885000000000190e+01 1.555819999999999936e+02 1.391740000000000009e+03
1.030000000000000082e-01 6.179330000000000656e-01 3.959565000000000623e+01 1.555849999999999795e+02 1.391784999999999854e+03
1.040000000000000091e-01 6.179384999999999462e-01 3.880095000000000027e+01 1.555180000000000007e+02 1.391804999999999836e+03
1.050000000000000100e-01 6.179274999999999629e-01 3.799235000000000184e+01 1.553940000000000055e+02 1.391799999999999955e+03
1.059999999999999970e-01 6.179025000000000212e-01 3.717709999999999582e+01 1.552239999999999895e+02 1.391779999999999973e+03
1.069999999999999979e-01 6.178675000000000139e-01 3.636195000000000022e+01 1.550224999999999795e+02 1.391750000000000000e+03
1.079999999999999988e-01 6.178254999999999164e-01 3.555295000000000272e+01 1.547975000000000136e+02 1.391704999999999927e+03
1.089999999999999997e-01 6.177779999999999383e-01 3.475534999999999997e+01 1.545595000000000141e+02 1.391650000000000091e+03
1.100000000000000006e-01 6.177289999999999726e-01 3.397350000000000136e+01 1.543174999999999955e+02 1.391589999999999918e+03
1.110000000000000014e-01 6.176789999999999781e-01 3.321070000000000277e+01 1.540774999999999864e+02 1.391529999999999973e+03
1.120000000000000023e-01 6.176289999999999836e-01 3.246920000000000073e+01 1.538435000000000059e+02 1.391464999999999918e+03
1.130000000000000032e-01 6.175804999999999767e-01 3.175019999999999953e+01 1.536200000000000045e+02 1.391400000000000091e+03
1.140000000000000041e-01 6.175329999999999986e-01 3.105375000000000085e+01 1.534069999999999823e+02 1.391335000000000036e+03
1.150000000000000050e-01 6.174874999999999670e-01 3.037904999999999944e+01 1.532054999999999723e+02 1.391279999999999973e+03
1.160000000000000059e-01 6.174420000000000464e-01 2.972429999999999950e+01 1.530129999999999768e+02 1.391219999999999800e+03
1.170000000000000068e-01 6.173969999999999736e-01 2.908695000000000164e+01 1.528265000000000100e+02 1.391154999999999973e+03
1.180000000000000077e-01 6.173504999999999132e-01 2.846405000000000030e+01 1.526419999999999959e+02 1.391094999999999800e+03
1.190000000000000085e-01 6.173010000000000996e-01 2.785195000000000221e+01 1.524549999999999841e+02 1.391034999999999854e+03
1.200000000000000094e-01 6.172474999999999490e-01 2.724689999999999657e+01 1.522595000000000027e+02 1.390974999999999909e+03
1.209999999999999964e-01 6.171885000000000288e-01 2.664499999999999957e+01 1.520504999999999995e+02 1.390909999999999854e+03
1.219999999999999973e-01 6.171225000000000183e-01 2.604244999999999877e+01 1.518230000000000075e+02 1.390840000000000146e+03
1.229999999999999982e-01 6.170480000000000409e-01 2.543574999999999875e+01 1.515715000000000146e+02 1.390759999999999991e+03
1.239999999999999991e-01 6.169639999999999569e-01 2.482169999999999987e+01 1.512909999999999968e+02 1.390674999999999955e+03
1.250000000000000000e-01 6.168700000000000294e-01 2.419764999999999944e+01 1.509789999999999850e+02 1.390585000000000036e+03
1.260000000000000009e-01 6.167650000000000077e-01 2.356139999999999901e+01 1.506320000000000050e+02 1.390484999999999900e+03
1.270000000000000018e-01 6.166490000000000027e-01 2.291165000000000163e+01 1.502489999999999952e+02 1.390369999999999891e+03
1.280000000000000027e-01 6.165220000000000145e-01 2.224765000000000015e+01 1.498290000000000077e+02 1.390250000000000000e+03
1.290000000000000036e-01 6.163845000000000018e-01 2.156935000000000002e+01 1.493739999999999952e+02 1.390119999999999891e+03
1.300000000000000044e-01 6.162374999999999936e-01 2.087754999999999939e+01 1.488845000000000027e+02 1.389974999999999909e+03
1.310000000000000053e-01 6.160820000000000185e-01 2.017374999999999829e+01 1.483640000000000043e+02 1.389825000000000045e+03
1.320000000000000062e-01 6.159185000000000354e-01 1.945994999999999919e+01 1.478170000000000073e+02 1.389664999999999964e+03
1.330000000000000071e-01 6.157500000000000195e-01 1.873900000000000077e+01 1.472484999999999786e+02 1.389500000000000000e+03
1.340000000000000080e-01 6.155770000000000408e-01 1.801415000000000077e+01 1.466639999999999873e+02 1.389325000000000045e+03
1.350000000000000089e-01 6.154020000000000046e-01 1.728904999999999959e+01 1.460699999999999932e+02 1.389154999999999973e+03
1.360000000000000098e-01 6.152269999999999683e-01 1.656784999999999997e+01 1.454735000000000014e+02 1.388980000000000018e+03
1.370000000000000107e-01 6.150545000000000595e-01 1.585460000000000136e+01 1.448810000000000002e+02 1.388799999999999955e+03
1.380000000000000115e-01 6.148854999999999738e-01 1.515390000000000015e+01 1.443009999999999877e+02 1.388625000000000000e+03
1.390000000000000124e-01 6.147225000000000605e-01 1.446988500000000144e+01 1.437384999999999877e+02 1.388454999999999927e+03
1.400000000000000133e-01 6.145675000000000443e-01 1.380680500000000066e+01 1.432009999999999934e+02 1.388295000000000073e+03
1.410000000000000142e-01 6.144229999999999414e-01 1.316864999999999952e+01 1.426945000000000050e+02 1.388134999999999991e+03
1.420000000000000151e-01 6.142885000000000151e-01 1.255891499999999894e+01 1.422244999999999777e+02 1.387985000000000127e+03
1.430000000000000160e-01 6.141670000000000185e-01 1.198072499999999962e+01 1.417950000000000159e+02 1.387845000000000027e+03
1.440000000000000169e-01 6.140584999999999516e-01 1.143667500000000103e+01 1.414100000000000250e+02 1.387719999999999800e+03
1.450000000000000178e-01 6.139634999999999954e-01 1.092872500000000002e+01 1.410720000000000027e+02 1.387610000000000127e+03
1.459999999999999909e-01 6.138829999999999565e-01 1.045811999999999919e+01 1.407819999999999823e+02 1.387505000000000109e+03
1.469999999999999918e-01 6.138160000000000283e-01 1.002558999999999934e+01 1.405405000000000086e+02 1.387420000000000073e+03
1.479999999999999927e-01 6.137634999999999064e-01 9.631064999999999543e+00 1.403464999999999918e+02 1.387344999999999800e+03
1.489999999999999936e-01 6.137234999999999774e-01 9.273949999999999250e+00 1.401984999999999957e+02 1.387285000000000082e+03
1.499999999999999944e-01 6.136960000000000193e-01 8.952915000000000845e+00 1.400929999999999893e+02 1.387235000000000127e+03
1.509999999999999953e-01 6.136790000000000855e-01 8.666214999999999336e+00 1.400269999999999868e+02 1.387200000000000045e+03
1.519999999999999962e-01 6.136719999999999953e-01 8.411494999999998612e+00 1.399954999999999927e+02 1.387174999999999955e+03
1.529999999999999971e-01 6.136734999999999829e-01 8.186144999999999783e+00 1.399945000000000164e+02 1.387160000000000082e+03
1.539999999999999980e-01 6.136810000000000320e-01 7.987194999999999823e+00 1.400174999999999841e+02 1.387154999999999973e+03
1.549999999999999989e-01 6.136939999999999618e-01 7.811479999999999535e+00 1.400604999999999905e+02 1.387154999999999973e+03
1.559999999999999998e-01 6.137105000000000476e-01 7.655730000000000146e+00 1.401165000000000020e+02 1.387159999999999854e+03
1.570000000000000007e-01 6.137285000000000101e-01 7.516655000000000086e+00 1.401804999999999950e+02 1.387170000000000073e+03
1.580000000000000016e-01 6.137470000000000425e-01 7.391045000000000087e+00 1.402479999999999905e+02 1.387180000000000064e+03
1.590000000000000024e-01 6.137650000000000050e-01 7.275809999999999889e+00 1.403129999999999882e+02 1.387190000000000055e+03
