# t [s], A [cm^2], U [cm/s], P [cPa], c [cm/s]
1.000000000000000021e-03 1.200245000000000062e-01 4.253829499999999819e-01 8.762774999999999181e+01 1.934005000000000109e+03
2.000000000000000042e-03 1.199955000000000049e-01 1.964796000000000209e+00 8.433244999999999436e+01 1.933565000000000055e+03
3.000000000000000062e-03 1.199115000000000042e-01 3.790594500000000089e+00 8.008414999999999395e+01 1.932369999999999891e+03
4.000000000000000083e-03 1.197959999999999858e-01 5.807993999999999879e+00 7.571899999999999409e+01 1.930735000000000127e+03
5.000000000000000104e-03 1.196714999999999862e-01 7.949315000000000353e+00 7.198739999999999384e+01 1.928985000000000127e+03
6.000000000000000125e-03 1.195500000000000035e-01 1.004644000000000048e+01 6.902559999999999718e+01 1.927289999999999964e+03
7.000000000000000146e-03 1.194355000000000000e-01 1.191811000000000043e+01 6.652740000000000009e+01 1.925724999999999909e+03
8.000000000000000167e-03 1.193285000000000040e-01 1.351007999999999853e+01 6.427199999999999136e+01 1.924284999999999854e+03
9.000000000000001055e-03 1.192330000000000056e-01 1.486390000000000100e+01 6.230384999999999707e+01 1.923019999999999982e+03
1.000000000000000194e-02 1.191504999999999925e-01 1.600874999999999915e+01 6.067614999999999981e+01 1.921924999999999955e+03
1.099999999999999936e-02 1.190805000000000058e-01 1.695250000000000057e+01 5.934829999999999472e+01 1.921019999999999982e+03
1.200000000000000025e-02 1.190220000000000028e-01 1.770540000000000092e+01 5.825979999999999848e+01 1.920264999999999873e+03
1.300000000000000114e-02 1.189735000000000098e-01 1.827439999999999998e+01 5.734255000000000280e+01 1.919650000000000091e+03
1.400000000000000203e-02 1.189324999999999966e-01 1.866880000000000095e+01 5.651754999999999995e+01 1.919134999999999991e+03
1.499999999999999944e-02 1.188970000000000027e-01 1.893570000000000064e+01 5.578069999999999595e+01 1.918700000000000045e+03
1.600000000000000033e-02 1.188695000000000029e-01 1.918030000000000257e+01 5.529694999999999538e+01 1.918365000000000009e+03
1.700000000000000122e-02 1.188539999999999874e-01 1.953419999999999845e+01 5.536544999999999561e+01 1.918179999999999836e+03
1.800000000000000211e-02 1.188565000000000038e-01 2.008990000000000009e+01 5.624949999999999761e+01 1.918230000000000018e+03
1.900000000000000300e-02 1.188810000000000144e-01 2.084880000000000067e+01 5.799389999999999645e+01 1.918554999999999836e+03
2.000000000000000042e-02 1.189250000000000029e-01 2.171389999999999887e+01 6.034969999999999857e+01 1.919130000000000109e+03
2.100000000000000130e-02 1.189805000000000168e-01 2.252674999999999983e+01 6.284240000000000492e+01 1.919869999999999891e+03
2.200000000000000219e-02 1.190379999999999910e-01 2.312610000000000099e+01 6.493640000000000612e+01 1.920630000000000109e+03
2.299999999999999961e-02 1.190859999999999974e-01 2.340120000000000289e+01 6.621229999999999905e+01 1.921280000000000200e+03
2.400000000000000050e-02 1.191165000000000140e-01 2.332104999999999961e+01 6.648855000000000359e+01 1.921710000000000036e+03
2.500000000000000139e-02 1.191269999999999968e-01 2.293384999999999962e+01 6.584945000000000448e+01 1.921884999999999991e+03
2.600000000000000228e-02 1.191194999999999893e-01 2.234044999999999703e+01 6.458254999999999768e+01 1.921809999999999945e+03
2.700000000000000316e-02 1.190994999999999970e-01 2.165525000000000233e+01 6.305969999999999231e+01 1.921559999999999945e+03
2.800000000000000058e-02 1.190724999999999978e-01 2.097119999999999962e+01 6.161159999999999570e+01 1.921224999999999909e+03
2.900000000000000147e-02 1.190454999999999985e-01 2.033774999999999977e+01 6.043914999999999793e+01 1.920869999999999891e+03
3.000000000000000236e-02 1.190210000000000018e-01 1.975844999999999985e+01 5.958334999999999582e+01 1.920549999999999955e+03
3.099999999999999978e-02 1.189999999999999947e-01 1.920295000000000130e+01 5.895234999999999559e+01 1.920275000000000091e+03
3.200000000000000067e-02 1.189815000000000039e-01 1.862829999999999941e+01 5.838510000000000133e+01 1.920034999999999854e+03
3.300000000000000155e-02 1.189630000000000132e-01 1.800094999999999956e+01 5.772599999999999909e+01 1.919785000000000082e+03
3.400000000000000244e-02 1.189415000000000056e-01 1.731279999999999930e+01 5.688715000000000543e+01 1.919509999999999991e+03
3.500000000000000333e-02 1.189165000000000083e-01 1.658835000000000193e+01 5.588264999999999816e+01 1.919190000000000055e+03
3.600000000000000422e-02 1.188889999999999947e-01 1.588075000000000081e+01 5.482789999999999964e+01 1.918829999999999927e+03
3.700000000000000511e-02 1.188614999999999949e-01 1.525965000000000060e+01 5.390720000000000312e+01 1.918474999999999909e+03
3.799999999999999906e-02 1.188390000000000002e-01 1.479269999999999996e+01 5.332075000000000387e+01 1.918170000000000073e+03
3.899999999999999994e-02 1.188249999999999862e-01 1.452829999999999977e+01 5.322715000000000174e+01 1.917974999999999909e+03
4.000000000000000083e-02 1.188224999999999976e-01 1.448280000000000101e+01 5.369799999999999329e+01 1.917934999999999945e+03
4.100000000000000172e-02 1.188329999999999942e-01 1.463534999999999897e+01 5.469509999999999650e+01 1.918059999999999945e+03
4.200000000000000261e-02 1.188555000000000028e-01 1.493100000000000094e+01 5.607469999999999999e+01 1.918339999999999918e+03
4.300000000000000350e-02 1.188869999999999927e-01 1.529054999999999964e+01 5.761440000000000339e+01 1.918735000000000127e+03
4.400000000000000439e-02 1.189214999999999994e-01 1.562389999999999901e+01 5.905460000000000065e+01 1.919184999999999945e+03
4.499999999999999833e-02 1.189540000000000042e-01 1.584424999999999883e+01 6.014284999999999570e+01 1.919605000000000018e+03
4.599999999999999922e-02 1.189790000000000014e-01 1.587919999999999909e+01 6.067260000000000275e+01 1.919934999999999945e+03
4.700000000000000011e-02 1.189909999999999857e-01 1.567914999999999992e+01 6.050915000000000532e+01 1.920099999999999909e+03
4.800000000000000100e-02 1.189870000000000094e-01 1.522000000000000064e+01 5.959985000000000355e+01 1.920054999999999836e+03
4.900000000000000189e-02 1.189655000000000018e-01 1.450239999999999974e+01 5.797030000000000172e+01 1.919780000000000200e+03
5.000000000000000278e-02 1.189260000000000039e-01 1.354779999999999873e+01 5.570909999999999940e+01 1.919275000000000091e+03
5.100000000000000366e-02 1.188710000000000044e-01 1.239275999999999911e+01 5.294729999999999848e+01 1.918554999999999836e+03
5.200000000000000455e-02 1.188019999999999909e-01 1.108364500000000064e+01 4.983715000000000117e+01 1.917664999999999964e+03
5.300000000000000544e-02 1.187225000000000086e-01 9.671345000000000525e+00 4.653414999999999679e+01 1.916625000000000000e+03
5.399999999999999939e-02 1.186360000000000053e-01 8.208040000000000447e+00 4.318489999999999895e+01 1.915505000000000109e+03
5.500000000000000028e-02 1.185464999999999991e-01 6.745245000000000601e+00 3.992119999999999891e+01 1.914335000000000036e+03
5.600000000000000117e-02 1.184574999999999934e-01 5.332580000000000098e+00 3.685880000000000223e+01 1.913164999999999964e+03
5.700000000000000205e-02 1.183715000000000045e-01 4.017933000000000199e+00 3.409959999999999525e+01 1.912039999999999964e+03
5.800000000000000294e-02 1.182924999999999949e-01 2.847014499999999781e+00 3.173450000000000060e+01 1.910994999999999891e+03
5.900000000000000383e-02 1.182220000000000076e-01 1.863093499999999958e+00 2.984595000000000198e+01 1.910070000000000164e+03
6.000000000000000472e-02 1.181635000000000046e-01 1.106135000000000090e+00 2.850854999999999961e+01 1.909295000000000073e+03
6.099999999999999867e-02 1.181190000000000018e-01 6.114554999999999296e-01 2.778770000000000095e+01 1.908700000000000045e+03
6.199999999999999956e-02 1.180905000000000010e-01 4.080394999999999994e-01 2.773629999999999995e+01 1.908315000000000055e+03
6.300000000000000044e-02 1.180805000000000049e-01 5.167479999999999851e-01 2.839079999999999870e+01 1.908154999999999973e+03
6.400000000000000133e-02 1.180884999999999990e-01 9.487939999999999152e-01 2.976709999999999923e+01 1.908250000000000000e+03
6.500000000000000222e-02 1.181169999999999998e-01 1.704671500000000117e+00 3.185740000000000194e+01 1.908590000000000146e+03
6.600000000000000311e-02 1.181649999999999923e-01 2.773853499999999972e+00 3.462914999999999566e+01 1.909190000000000055e+03
6.700000000000000400e-02 1.182320000000000038e-01 4.135229999999999961e+00 3.802584999999999837e+01 1.910049999999999955e+03
6.800000000000000488e-02 1.183165000000000050e-01 5.758354999999999890e+00 4.196990000000000265e+01 1.911134999999999991e+03
6.900000000000000577e-02 1.184179999999999955e-01 7.605195000000000149e+00 4.636769999999999925e+01 1.912440000000000055e+03
7.000000000000000666e-02 1.185324999999999851e-01 9.632419999999999760e+00 5.111520000000000152e+01 1.913930000000000064e+03
7.100000000000000755e-02 1.186590000000000145e-01 1.179372000000000043e+01 5.610439999999999827e+01 1.915569999999999936e+03
7.200000000000000844e-02 1.187934999999999963e-01 1.404194999999999993e+01 6.122920000000000584e+01 1.917335000000000036e+03
7.300000000000000933e-02 1.189334999999999976e-01 1.633174999999999955e+01 6.639090000000000202e+01 1.919180000000000064e+03
7.399999999999999634e-02 1.190775000000000028e-01 1.862095000000000056e+01 7.150239999999999441e+01 1.921075000000000045e+03
7.499999999999999722e-02 1.192219999999999946e-01 2.087245000000000061e+01 7.649184999999999945e+01 1.922985000000000127e+03
7.599999999999999811e-02 1.193649999999999989e-01 2.305530000000000257e+01 8.130455000000000609e+01 1.924884999999999991e+03
7.699999999999999900e-02 1.195044999999999996e-01 2.514574999999999960e+01 8.590424999999999045e+01 1.926755000000000109e+03
7.799999999999999989e-02 1.196405000000000107e-01 2.712760000000000105e+01 9.027330000000000609e+01 1.928569999999999936e+03
7.900000000000000078e-02 1.197715000000000030e-01 2.899224999999999852e+01 9.441214999999999691e+01 1.930329999999999927e+03
8.000000000000000167e-02 1.198970000000000036e-01 3.073850000000000193e+01 9.833674999999999500e+01 1.932025000000000091e+03
8.100000000000000255e-02 1.200174999999999992e-01 3.237144999999999584e+01 1.020768000000000058e+02 1.933650000000000091e+03
8.200000000000000344e-02 1.201335000000000042e-01 3.390194999999999936e+01 1.056718000000000046e+02 1.935224999999999909e+03
8.300000000000000433e-02 1.202460000000000057e-01 3.534454999999999814e+01 1.091680000000000064e+02 1.936744999999999891e+03
8.400000000000000522e-02 1.203555000000000041e-01 3.671630000000000393e+01 1.126129999999999995e+02 1.938235000000000127e+03
8.500000000000000611e-02 1.204635000000000011e-01 3.803504999999999825e+01 1.160519999999999925e+02 1.939699999999999818e+03
8.600000000000000699e-02 1.205704999999999971e-01 3.931770000000000209e+01 1.195250000000000057e+02 1.941164999999999964e+03
8.700000000000000788e-02 1.206779999999999936e-01 4.057900000000000063e+01 1.230635000000000048e+02 1.942630000000000109e+03
8.800000000000000877e-02 1.207869999999999916e-01 4.182999999999999829e+01 1.266860000000000070e+02 1.944119999999999891e+03
8.899999999999999578e-02 1.208974999999999911e-01 4.307775000000000176e+01 1.303990000000000009e+02 1.945625000000000000e+03
8.999999999999999667e-02 1.210100000000000064e-01 4.432430000000000092e+01 1.341959999999999980e+02 1.947164999999999964e+03
9.099999999999999756e-02 1.211244999999999961e-01 4.556685000000000230e+01 1.380579999999999927e+02 1.948730000000000018e+03
9.199999999999999845e-02 1.212405000000000010e-01 4.679805000000000348e+01 1.419540000000000077e+02 1.950309999999999945e+03
9.299999999999999933e-02 1.213565000000000060e-01 4.800645000000000095e+01 1.458445000000000107e+02 1.951909999999999854e+03
9.400000000000000022e-02 1.214729999999999976e-01 4.917745000000000033e+01 1.496825000000000045e+02 1.953500000000000000e+03
9.500000000000000111e-02 1.215874999999999873e-01 5.029395000000000238e+01 1.534180000000000064e+02 1.955075000000000045e+03
9.600000000000000200e-02 1.216994999999999882e-01 5.133780000000000143e+01 1.570000000000000000e+02 1.956625000000000000e+03
9.700000000000000289e-02 1.218079999999999996e-01 5.229054999999999609e+01 1.603795000000000073e+02 1.958115000000000009e+03
9.800000000000000377e-02 1.219110000000000055e-01 5.313454999999999728e+01 1.635095000000000027e+02 1.959535000000000082e+03
9.900000000000000466e-02 1.220070000000000043e-01 5.385399999999999920e+01 1.663514999999999873e+02 1.960875000000000000e+03
1.000000000000000056e-01 1.220960000000000101e-01 5.443545000000000300e+01 1.688745000000000118e+02 1.962105000000000018e+03
1.010000000000000064e-01 1.221760000000000068e-01 5.486870000000000402e+01 1.710545000000000186e+02 1.963220000000000027e+03
1.020000000000000073e-01 1.222469999999999946e-01 5.514714999999999634e+01 1.728779999999999859e+02 1.964220000000000027e+03
1.030000000000000082e-01 1.223085000000000006e-01 5.526784999999999570e+01 1.743414999999999964e+02 1.965079999999999927e+03
1.040000000000000091e-01 1.223594999999999960e-01 5.523215000000000430e+01 1.754499999999999886e+02 1.965809999999999945e+03
1.050000000000000100e-01 1.224014999999999964e-01 5.504500000000000171e+01 1.762180000000000177e+02 1.966394999999999982e+03
1.059999999999999970e-01 1.224330000000000140e-01 5.471529999999999916e+01 1.766684999999999945e+02 1.966855000000000018e+03
1.069999999999999979e-01 1.224559999999999954e-01 5.425500000000000256e+01 1.768294999999999959e+02 1.967184999999999945e+03
1.079999999999999988e-01 1.224705000000000099e-01 5.367884999999999707e+01 1.767359999999999900e+02 1.967400000000000091e+03
1.089999999999999997e-01 1.224770000000000025e-01 5.300395000000000323e+01 1.764279999999999973e+02 1.967505000000000109e+03
1.100000000000000006e-01 1.224770000000000025e-01 5.224864999999999782e+01 1.759440000000000168e+02 1.967519999999999982e+03
1.110000000000000014e-01 1.224714999999999970e-01 5.143210000000000548e+01 1.753285000000000196e+02 1.967450000000000045e+03
1.120000000000000023e-01 1.224610000000000004e-01 5.057339999999999947e+01 1.746195000000000164e+02 1.967320000000000164e+03
1.130000000000000032e-01 1.224475000000000147e-01 4.969110000000000582e+01 1.738564999999999827e+02 1.967134999999999991e+03
1.140000000000000041e-01 1.224309999999999843e-01 4.880219999999999914e+01 1.730734999999999957e+02 1.966920000000000073e+03
1.150000000000000050e-01 1.224134999999999945e-01 4.792180000000000462e+01 1.722995000000000232e+02 1.966679999999999836e+03
1.160000000000000059e-01 1.223950000000000038e-01 4.706284999999999741e+01 1.715589999999999975e+02 1.966424999999999955e+03
1.170000000000000068e-01 1.223764999999999992e-01 4.623529999999999518e+01 1.708679999999999950e+02 1.966170000000000073e+03
1.180000000000000077e-01 1.223590000000000094e-01 4.544644999999999868e+01 1.702379999999999995e+02 1.965924999999999955e+03
1.190000000000000085e-01 1.223420000000000063e-01 4.470029999999999859e+01 1.696730000000000018e+02 1.965684999999999945e+03
1.200000000000000094e-01 1.223265000000000047e-01 4.399815000000000254e+01 1.691705000000000041e+02 1.965465000000000146e+03
1.209999999999999964e-01 1.223114999999999897e-01 4.333845000000000169e+01 1.687224999999999966e+02 1.965259999999999991e+03
1.219999999999999973e-01 1.222979999999999901e-01 4.271710000000000207e+01 1.683160000000000025e+02 1.965069999999999936e+03
1.229999999999999982e-01 1.222855000000000053e-01 4.212789999999999679e+01 1.679345000000000141e+02 1.964889999999999873e+03
1.239999999999999991e-01 1.222735000000000072e-01 4.156295000000000073e+01 1.675570000000000164e+02 1.964719999999999800e+03
1.250000000000000000e-01 1.222614999999999952e-01 4.101324999999999932e+01 1.671634999999999991e+02 1.964549999999999955e+03
1.260000000000000009e-01 1.222485000000000099e-01 4.046899999999999409e+01 1.667305000000000064e+02 1.964375000000000000e+03
1.270000000000000018e-01 1.222354999999999969e-01 3.992045000000000243e+01 1.662370000000000232e+02 1.964184999999999945e+03
1.280000000000000027e-01 1.222205000000000097e-01 3.935810000000000031e+01 1.656630000000000109e+02 1.963974999999999909e+03
1.290000000000000036e-01 1.222034999999999927e-01 3.877344999999999686e+01 1.649909999999999854e+02 1.963735000000000127e+03
1.300000000000000044e-01 1.221835000000000004e-01 3.815914999999999679e+01 1.642085000000000150e+02 1.963460000000000036e+03
1.310000000000000053e-01 1.221615000000000062e-01 3.750979999999999848e+01 1.633054999999999950e+02 1.963150000000000091e+03
1.320000000000000062e-01 1.221359999999999946e-01 3.682175000000000153e+01 1.622789999999999964e+02 1.962800000000000182e+03
1.330000000000000071e-01 1.221069999999999933e-01 3.609364999999999668e+01 1.611285000000000025e+02 1.962404999999999973e+03
1.340000000000000080e-01 1.220749999999999891e-01 3.532630000000000337e+01 1.598609999999999900e+02 1.961960000000000036e+03
1.350000000000000089e-01 1.220394999999999952e-01 3.452289999999999992e+01 1.584879999999999995e+02 1.961474999999999909e+03
1.360000000000000098e-01 1.220009999999999983e-01 3.368860000000000099e+01 1.570254999999999939e+02 1.960950000000000045e+03
1.370000000000000107e-01 1.219604999999999995e-01 3.283064999999999856e+01 1.554920000000000186e+02 1.960389999999999873e+03
1.380000000000000115e-01 1.219174999999999981e-01 3.195770000000000266e+01 1.539114999999999895e+02 1.959799999999999955e+03
1.390000000000000124e-01 1.218730000000000091e-01 3.107979999999999876e+01 1.523095000000000141e+02 1.959190000000000055e+03
1.400000000000000133e-01 1.218275000000000052e-01 3.020754999999999768e+01 1.507115000000000009e+02 1.958565000000000055e+03
1.410000000000000142e-01 1.217814999999999870e-01 2.935204999999999842e+01 1.491440000000000055e+02 1.957934999999999945e+03
1.420000000000000151e-01 1.217364999999999975e-01 2.852414999999999878e+01 1.476324999999999932e+02 1.957320000000000164e+03
1.430000000000000160e-01 1.216929999999999956e-01 2.773409999999999798e+01 1.461995000000000005e+02 1.956710000000000036e+03
1.440000000000000169e-01 1.216504999999999947e-01 2.699114999999999753e+01 1.448650000000000091e+02 1.956125000000000000e+03
1.450000000000000178e-01 1.216105000000000103e-01 2.630304999999999893e+01 1.436460000000000150e+02 1.955574999999999818e+03
1.459999999999999909e-01 1.215735000000000010e-01 2.567605000000000004e+01 1.425545000000000186e+02 1.955065000000000055e+03
1.469999999999999918e-01 1.215399999999999953e-01 2.511444999999999794e+01 1.415985000000000014e+02 1.954595000000000027e+03
1.479999999999999927e-01 1.215094999999999925e-01 2.462059999999999960e+01 1.407800000000000011e+02 1.954174999999999955e+03
1.489999999999999936e-01 1.214824999999999933e-01 2.419505000000000194e+01 1.400995000000000061e+02 1.953804999999999836e+03
1.499999999999999944e-01 1.214594999999999980e-01 2.383634999999999948e+01 1.395504999999999995e+02 1.953480000000000018e+03
1.509999999999999953e-01 1.214399999999999924e-01 2.354135000000000133e+01 1.391245000000000118e+02 1.953210000000000036e+03
1.519999999999999962e-01 1.214240000000000042e-01 2.330555000000000021e+01 1.388095000000000141e+02 1.952980000000000018e+03
1.529999999999999971e-01 1.214115000000000055e-01 2.312319999999999709e+01 1.385910000000000082e+02 1.952805000000000064e+03
1.539999999999999980e-01 1.214014999999999955e-01 2.298744999999999905e+01 1.384544999999999959e+02 1.952654999999999973e+03
1.549999999999999989e-01 1.213934999999999875e-01 2.289120000000000132e+01 1.383829999999999814e+02 1.952549999999999955e+03
1.559999999999999998e-01 1.213879999999999959e-01 2.282675000000000054e+01 1.383605000000000018e+02 1.952470000000000027e+03
1.570000000000000007e-01 1.213849999999999929e-01 2.278674999999999784e+01 1.383714999999999975e+02 1.952414999999999964e+03
1.580000000000000016e-01 1.213819999999999899e-01 2.276379999999999981e+01 1.384010000000000105e+02 1.952375000000000000e+03
1.590000000000000024e-01 1.213809999999999889e-01 2.275120000000000076e+01 1.384365000000000236e+02 1.952349999999999909e+03
