# t [s], A [cm^2], U [cm/s], P [cPa], c [cm/s]
1.000000000000000021e-03 1.237024999999999930e-01 2.961894999999999945e-01 1.020946500000000015e+02 1.962219999999999800e+03
2.000000000000000042e-03 1.236780000000000102e-01 1.824600000000000222e+00 9.894329999999999359e+01 1.961904999999999973e+03
3.000000000000000062e-03 1.235964999999999980e-01 3.711405000000000065e+00 9.472990000000000066e+01 1.960900000000000091e+03
4.000000000000000083e-03 1.234770000000000034e-01 5.816668499999999575e+00 9.003770000000000095e+01 1.959450000000000045e+03
5.000000000000000104e-03 1.233405000000000057e-01 8.080624999999999503e+00 8.564690000000000225e+01 1.957815000000000055e+03
6.000000000000000125e-03 1.232034999999999936e-01 1.037854500000000080e+01 8.192849999999999966e+01 1.956184999999999945e+03
7.000000000000000146e-03 1.230720000000000008e-01 1.253353000000000073e+01 7.879429999999999268e+01 1.954639999999999873e+03
8.000000000000000167e-03 1.229485000000000022e-01 1.442781500000000072e+01 7.600780000000000314e+01 1.953215000000000146e+03
9.000000000000001055e-03 1.228349999999999997e-01 1.605574999999999974e+01 7.350784999999999059e+01 1.951924999999999955e+03
1.000000000000000194e-02 1.227344999999999964e-01 1.745094999999999885e+01 7.135875000000000057e+01 1.950799999999999955e+03
1.099999999999999936e-02 1.226485000000000075e-01 1.863224999999999909e+01 6.958150000000000546e+01 1.949835000000000036e+03
1.200000000000000025e-02 1.225759999999999905e-01 1.960954999999999870e+01 6.813949999999999818e+01 1.949039999999999964e+03
1.300000000000000114e-02 1.225154999999999994e-01 2.039010000000000034e+01 6.697095000000000198e+01 1.948384999999999991e+03
1.400000000000000203e-02 1.224659999999999915e-01 2.097659999999999769e+01 6.599025000000000318e+01 1.947849999999999909e+03
1.499999999999999944e-02 1.224240000000000050e-01 2.138475000000000037e+01 6.512239999999999895e+01 1.947404999999999973e+03
1.600000000000000033e-02 1.223884999999999834e-01 2.167014999999999958e+01 6.438375000000000625e+01 1.947039999999999964e+03
1.700000000000000122e-02 1.223619999999999985e-01 2.193054999999999666e+01 6.392860000000000298e+01 1.946769999999999982e+03
1.800000000000000211e-02 1.223484999999999989e-01 2.227355000000000018e+01 6.399304999999999666e+01 1.946639999999999873e+03
1.900000000000000300e-02 1.223519999999999885e-01 2.276899999999999835e+01 6.476579999999999870e+01 1.946695000000000164e+03
2.000000000000000042e-02 1.223749999999999977e-01 2.341769999999999996e+01 6.626930000000000121e+01 1.946954999999999927e+03
2.100000000000000130e-02 1.224149999999999960e-01 2.415099999999999980e+01 6.831889999999999930e+01 1.947400000000000091e+03
2.200000000000000219e-02 1.224660000000000054e-01 2.485810000000000031e+01 7.057319999999999993e+01 1.947974999999999909e+03
2.299999999999999961e-02 1.225200000000000039e-01 2.542504999999999882e+01 7.264220000000000255e+01 1.948589999999999918e+03
2.400000000000000050e-02 1.225689999999999974e-01 2.577029999999999887e+01 7.420369999999999777e+01 1.949159999999999854e+03
2.500000000000000139e-02 1.226075000000000081e-01 2.586404999999999887e+01 7.508594999999999686e+01 1.949610000000000127e+03
2.600000000000000228e-02 1.226315000000000044e-01 2.572935000000000016e+01 7.529384999999999195e+01 1.949904999999999973e+03
2.700000000000000316e-02 1.226430000000000020e-01 2.542644999999999911e+01 7.497780000000000200e+01 1.950050000000000182e+03
2.800000000000000058e-02 1.226430000000000020e-01 2.502799999999999869e+01 7.436330000000000950e+01 1.950075000000000045e+03
2.900000000000000147e-02 1.226369999999999960e-01 2.459525000000000006e+01 7.367009999999999081e+01 1.950019999999999982e+03
3.000000000000000236e-02 1.226290000000000019e-01 2.416255000000000308e+01 7.304739999999999611e+01 1.949929999999999836e+03
3.099999999999999978e-02 1.226194999999999924e-01 2.373315000000000197e+01 7.254445000000001187e+01 1.949825000000000045e+03
3.200000000000000067e-02 1.226099999999999968e-01 2.328604999999999947e+01 7.211745000000000516e+01 1.949724999999999909e+03
3.300000000000000155e-02 1.225999999999999868e-01 2.278999999999999915e+01 7.166620000000000346e+01 1.949610000000000127e+03
3.400000000000000244e-02 1.225865000000000010e-01 2.221965000000000146e+01 7.108375000000000909e+01 1.949474999999999909e+03
3.500000000000000333e-02 1.225694999999999979e-01 2.156819999999999737e+01 7.030410000000000537e+01 1.949284999999999854e+03
3.600000000000000422e-02 1.225475000000000037e-01 2.085500000000000043e+01 6.933359999999998990e+01 1.949039999999999964e+03
3.700000000000000511e-02 1.225215000000000054e-01 2.012420000000000186e+01 6.825915000000000532e+01 1.948755000000000109e+03
3.799999999999999906e-02 1.224939999999999918e-01 1.943630000000000280e+01 6.723095000000000709e+01 1.948460000000000036e+03
3.899999999999999994e-02 1.224695000000000089e-01 1.885495000000000232e+01 6.642650000000000432e+01 1.948180000000000064e+03
4.000000000000000083e-02 1.224510000000000043e-01 1.843254999999999910e+01 6.600620000000000687e+01 1.947970000000000027e+03
4.100000000000000172e-02 1.224420000000000092e-01 1.819829999999999970e+01 6.607335000000000491e+01 1.947860000000000127e+03
4.200000000000000261e-02 1.224449999999999983e-01 1.815254999999999797e+01 6.664860000000000184e+01 1.947875000000000000e+03
4.300000000000000350e-02 1.224590000000000123e-01 1.826670000000000016e+01 6.766464999999999463e+01 1.948019999999999982e+03
4.400000000000000439e-02 1.224834999999999952e-01 1.848955000000000126e+01 6.898014999999999475e+01 1.948284999999999854e+03
4.499999999999999833e-02 1.225144999999999984e-01 1.875670000000000215e+01 7.040675000000000239e+01 1.948619999999999891e+03
4.599999999999999922e-02 1.225480000000000042e-01 1.900115000000000265e+01 7.174324999999998909e+01 1.948990000000000009e+03
4.700000000000000011e-02 1.225790000000000074e-01 1.916300000000000026e+01 7.280710000000000548e+01 1.949339999999999918e+03
4.800000000000000100e-02 1.226040000000000046e-01 1.919615000000000293e+01 7.345914999999999395e+01 1.949619999999999891e+03
4.900000000000000189e-02 1.226194999999999924e-01 1.907169999999999987e+01 7.361670000000000869e+01 1.949795000000000073e+03
5.000000000000000278e-02 1.226234999999999964e-01 1.877839999999999776e+01 7.325594999999999857e+01 1.949849999999999909e+03
5.100000000000000366e-02 1.226150000000000018e-01 1.832025000000000148e+01 7.240409999999999968e+01 1.949764999999999873e+03
5.200000000000000455e-02 1.225944999999999951e-01 1.771240000000000236e+01 7.112595000000000312e+01 1.949545000000000073e+03
5.300000000000000544e-02 1.225634999999999919e-01 1.697739999999999938e+01 6.950825000000000387e+01 1.949204999999999927e+03
5.399999999999999939e-02 1.225229999999999930e-01 1.614155000000000229e+01 6.764565000000000339e+01 1.948755000000000109e+03
5.500000000000000028e-02 1.224755000000000010e-01 1.523245000000000005e+01 6.563030000000000541e+01 1.948224999999999909e+03
5.600000000000000117e-02 1.224229999999999902e-01 1.427810000000000201e+01 6.354684999999999917e+01 1.947644999999999982e+03
5.700000000000000205e-02 1.223675000000000040e-01 1.330659999999999954e+01 6.147135000000000105e+01 1.947019999999999982e+03
5.800000000000000294e-02 1.223110000000000031e-01 1.234703000000000017e+01 5.947359999999999758e+01 1.946389999999999873e+03
5.900000000000000383e-02 1.222555000000000031e-01 1.143003500000000017e+01 5.762129999999999797e+01 1.945769999999999982e+03
6.000000000000000472e-02 1.222035000000000066e-01 1.058834500000000034e+01 5.598345000000000482e+01 1.945179999999999836e+03
6.099999999999999867e-02 1.221565000000000012e-01 9.856740000000000279e+00 5.463230000000000075e+01 1.944654999999999973e+03
6.199999999999999956e-02 1.221175000000000038e-01 9.271385000000000431e+00 5.364409999999999457e+01 1.944204999999999927e+03
6.300000000000000044e-02 1.220875000000000016e-01 8.868579999999999686e+00 5.309624999999999773e+01 1.943864999999999782e+03
6.400000000000000133e-02 1.220689999999999970e-01 8.682645000000000834e+00 5.306409999999999627e+01 1.943650000000000091e+03
6.500000000000000222e-02 1.220650000000000068e-01 8.744295000000001039e+00 5.361554999999999893e+01 1.943589999999999918e+03
6.600000000000000311e-02 1.220770000000000050e-01 9.078520000000001033e+00 5.480599999999999739e+01 1.943704999999999927e+03
6.700000000000000400e-02 1.221060000000000062e-01 9.702970000000000539e+00 5.667385000000000161e+01 1.944019999999999982e+03
6.800000000000000488e-02 1.221534999999999982e-01 1.062686000000000064e+01 5.923709999999999809e+01 1.944534999999999854e+03
6.900000000000000577e-02 1.222204999999999958e-01 1.185026500000000027e+01 6.249170000000000158e+01 1.945264999999999873e+03
7.000000000000000666e-02 1.223069999999999991e-01 1.336439999999999984e+01 6.641150000000000375e+01 1.946210000000000036e+03
7.100000000000000755e-02 1.224115000000000064e-01 1.515180000000000149e+01 7.095015000000000782e+01 1.947369999999999891e+03
7.200000000000000844e-02 1.225340000000000040e-01 1.718789999999999907e+01 7.604380000000000450e+01 1.948730000000000018e+03
7.300000000000000933e-02 1.226720000000000033e-01 1.944180000000000064e+01 8.161539999999999395e+01 1.950269999999999982e+03
7.399999999999999634e-02 1.228249999999999897e-01 2.187850000000000250e+01 8.757880000000000109e+01 1.951980000000000018e+03
7.499999999999999722e-02 1.229900000000000021e-01 2.446014999999999873e+01 9.384395000000000664e+01 1.953835000000000036e+03
7.599999999999999811e-02 1.231644999999999962e-01 2.714795000000000158e+01 1.003212000000000046e+02 1.955805000000000064e+03
7.699999999999999900e-02 1.233460000000000112e-01 2.990405000000000157e+01 1.069262999999999977e+02 1.957860000000000127e+03
7.799999999999999989e-02 1.235335000000000044e-01 3.269270000000000209e+01 1.135829999999999984e+02 1.959985000000000127e+03
7.900000000000000078e-02 1.237240000000000006e-01 3.548169999999999646e+01 1.202254999999999967e+02 1.962150000000000091e+03
8.000000000000000167e-02 1.239155000000000117e-01 3.824339999999999407e+01 1.268034999999999997e+02 1.964340000000000146e+03
8.100000000000000255e-02 1.241065000000000085e-01 4.095480000000000587e+01 1.332785000000000082e+02 1.966530000000000200e+03
8.200000000000000344e-02 1.242960000000000037e-01 4.359830000000000183e+01 1.396259999999999764e+02 1.968714999999999918e+03
8.300000000000000433e-02 1.244834999999999969e-01 4.616080000000000183e+01 1.458340000000000032e+02 1.970880000000000109e+03
8.400000000000000522e-02 1.246685000000000154e-01 4.863379999999999370e+01 1.518999999999999773e+02 1.973014999999999873e+03
8.500000000000000611e-02 1.248505000000000031e-01 5.101214999999999833e+01 1.578279999999999745e+02 1.975125000000000000e+03
8.600000000000000699e-02 1.250284999999999869e-01 5.329325000000000045e+01 1.636274999999999977e+02 1.977195000000000164e+03
8.700000000000000788e-02 1.252040000000000097e-01 5.547625000000000028e+01 1.693064999999999998e+02 1.979240000000000009e+03
8.800000000000000877e-02 1.253760000000000152e-01 5.756109999999999616e+01 1.748739999999999952e+02 1.981250000000000000e+03
8.899999999999999578e-02 1.255454999999999766e-01 5.954779999999999518e+01 1.803344999999999914e+02 1.983235000000000127e+03
8.999999999999999667e-02 1.257115000000000038e-01 6.143580000000000041e+01 1.856879999999999882e+02 1.985184999999999945e+03
9.099999999999999756e-02 1.258750000000000147e-01 6.322400000000000375e+01 1.909290000000000020e+02 1.987099999999999909e+03
9.199999999999999845e-02 1.260350000000000081e-01 6.490975000000000250e+01 1.960465000000000089e+02 1.988985000000000127e+03
9.299999999999999933e-02 1.261904999999999832e-01 6.648969999999999914e+01 2.010260000000000105e+02 1.990824999999999818e+03
9.400000000000000022e-02 1.263434999999999975e-01 6.795940000000000225e+01 2.058480000000000132e+02 1.992625000000000000e+03
9.500000000000000111e-02 1.264910000000000201e-01 6.931354999999999222e+01 2.104894999999999925e+02 1.994369999999999891e+03
9.600000000000000200e-02 1.266335000000000099e-01 7.054634999999998968e+01 2.149275000000000091e+02 1.996059999999999945e+03
9.700000000000000289e-02 1.267699999999999938e-01 7.165180000000000859e+01 2.191370000000000005e+02 1.997684999999999945e+03
9.800000000000000377e-02 1.269004999999999994e-01 7.262395000000000778e+01 2.230944999999999823e+02 1.999235000000000127e+03
9.900000000000000466e-02 1.270235000000000114e-01 7.345720000000000027e+01 2.267780000000000200e+02 2.000700000000000045e+03
1.000000000000000056e-01 1.271384999999999876e-01 7.414664999999999395e+01 2.301680000000000064e+02 2.002079999999999927e+03
1.010000000000000064e-01 1.272455000000000114e-01 7.468834999999999980e+01 2.332470000000000141e+02 2.003360000000000127e+03
1.020000000000000073e-01 1.273439999999999850e-01 7.507959999999999923e+01 2.360020000000000095e+02 2.004539999999999964e+03
1.030000000000000082e-01 1.274325000000000041e-01 7.531945000000000334e+01 2.384240000000000066e+02 2.005610000000000127e+03
1.040000000000000091e-01 1.275114999999999998e-01 7.540834999999999866e+01 2.405090000000000146e+02 2.006565000000000055e+03
1.050000000000000100e-01 1.275815000000000143e-01 7.534895000000000209e+01 2.422589999999999861e+02 2.007414999999999964e+03
1.059999999999999970e-01 1.276420000000000055e-01 7.514584999999999582e+01 2.436784999999999854e+02 2.008139999999999873e+03
1.069999999999999979e-01 1.276919999999999999e-01 7.480580000000000496e+01 2.447800000000000011e+02 2.008759999999999991e+03
1.079999999999999988e-01 1.277334999999999998e-01 7.433750000000000568e+01 2.455805000000000007e+02 2.009264999999999873e+03
1.089999999999999997e-01 1.277659999999999907e-01 7.375169999999999959e+01 2.461014999999999873e+02 2.009659999999999854e+03
1.100000000000000006e-01 1.277900000000000147e-01 7.306074999999999875e+01 2.463675000000000068e+02 2.009964999999999918e+03
1.110000000000000014e-01 1.278064999999999896e-01 7.227815000000001078e+01 2.464085000000000036e+02 2.010170000000000073e+03
1.120000000000000023e-01 1.278159999999999852e-01 7.141835000000000377e+01 2.462540000000000191e+02 2.010295000000000073e+03
1.130000000000000032e-01 1.278190000000000159e-01 7.049639999999999418e+01 2.459359999999999786e+02 2.010344999999999800e+03
1.140000000000000041e-01 1.278170000000000139e-01 6.952684999999999604e+01 2.454859999999999900e+02 2.010329999999999927e+03
1.150000000000000050e-01 1.278110000000000079e-01 6.852414999999999168e+01 2.449339999999999975e+02 2.010264999999999873e+03
1.160000000000000059e-01 1.278004999999999836e-01 6.750140000000000384e+01 2.443065000000000282e+02 2.010144999999999982e+03
1.170000000000000068e-01 1.277880000000000127e-01 6.647050000000000125e+01 2.436285000000000025e+02 2.010000000000000000e+03
1.180000000000000077e-01 1.277729999999999977e-01 6.544164999999999566e+01 2.429189999999999827e+02 2.009820000000000164e+03
1.190000000000000085e-01 1.277559999999999807e-01 6.442320000000000846e+01 2.421935000000000002e+02 2.009625000000000000e+03
1.200000000000000094e-01 1.277385000000000048e-01 6.342149999999999466e+01 2.414644999999999868e+02 2.009414999999999964e+03
1.209999999999999964e-01 1.277195000000000136e-01 6.244089999999999918e+01 2.407365000000000066e+02 2.009190000000000055e+03
1.219999999999999973e-01 1.277004999999999946e-01 6.148375000000000057e+01 2.400130000000000052e+02 2.008960000000000036e+03
1.229999999999999982e-01 1.276809999999999889e-01 6.055069999999999197e+01 2.392925000000000182e+02 2.008724999999999909e+03
1.239999999999999991e-01 1.276609999999999967e-01 5.964050000000000296e+01 2.385695000000000050e+02 2.008485000000000127e+03
1.250000000000000000e-01 1.276400000000000035e-01 5.875070000000000192e+01 2.378374999999999773e+02 2.008240000000000009e+03
1.260000000000000009e-01 1.276194999999999968e-01 5.787754999999999939e+01 2.370855000000000246e+02 2.007985000000000127e+03
1.270000000000000018e-01 1.275975000000000026e-01 5.701654999999999518e+01 2.363029999999999973e+02 2.007724999999999909e+03
1.280000000000000027e-01 1.275745000000000073e-01 5.616250000000000142e+01 2.354800000000000182e+02 2.007449999999999818e+03
1.290000000000000036e-01 1.275505000000000111e-01 5.530989999999999895e+01 2.346020000000000039e+02 2.007159999999999854e+03
1.300000000000000044e-01 1.275249999999999995e-01 5.445329999999999870e+01 2.336605000000000132e+02 2.006855000000000018e+03
1.310000000000000053e-01 1.274969999999999992e-01 5.358740000000000236e+01 2.326430000000000007e+02 2.006525000000000091e+03
1.320000000000000062e-01 1.274675000000000114e-01 5.270745000000000147e+01 2.315414999999999850e+02 2.006170000000000073e+03
1.330000000000000071e-01 1.274355000000000071e-01 5.180924999999999869e+01 2.303489999999999895e+02 2.005789999999999964e+03
1.340000000000000080e-01 1.274009999999999865e-01 5.088969999999999771e+01 2.290609999999999786e+02 2.005375000000000000e+03
1.350000000000000089e-01 1.273640000000000050e-01 4.994639999999999702e+01 2.276744999999999948e+02 2.004934999999999945e+03
1.360000000000000098e-01 1.273239999999999927e-01 4.897825000000000273e+01 2.261904999999999859e+02 2.004465000000000146e+03
1.370000000000000107e-01 1.272810000000000052e-01 4.798529999999999518e+01 2.246109999999999900e+02 2.003960000000000036e+03
1.380000000000000115e-01 1.272360000000000158e-01 4.696900000000000119e+01 2.229430000000000121e+02 2.003424999999999955e+03
1.390000000000000124e-01 1.271880000000000233e-01 4.593189999999999884e+01 2.211935000000000002e+02 2.002855000000000018e+03
1.400000000000000133e-01 1.271380000000000010e-01 4.487774999999999892e+01 2.193750000000000000e+02 2.002259999999999991e+03
1.410000000000000142e-01 1.270855000000000179e-01 4.381159999999999854e+01 2.175000000000000000e+02 2.001650000000000091e+03
1.420000000000000151e-01 1.270315000000000194e-01 4.273919999999999675e+01 2.155844999999999914e+02 2.001010000000000218e+03
1.430000000000000160e-01 1.269764999999999922e-01 4.166750000000000398e+01 2.136460000000000150e+02 2.000355000000000018e+03
1.440000000000000169e-01 1.269204999999999917e-01 4.060370000000000346e+01 2.117024999999999864e+02 1.999694999999999936e+03
1.450000000000000178e-01 1.268640000000000045e-01 3.955539999999999878e+01 2.097724999999999795e+02 1.999035000000000082e+03
1.459999999999999909e-01 1.268080000000000040e-01 3.853040000000000020e+01 2.078745000000000118e+02 1.998369999999999891e+03
1.469999999999999918e-01 1.267524999999999902e-01 3.753609999999999758e+01 2.060275000000000034e+02 1.997710000000000036e+03
1.479999999999999927e-01 1.266980000000000051e-01 3.657945000000000135e+01 2.042464999999999975e+02 1.997065000000000055e+03
1.489999999999999936e-01 1.266450000000000076e-01 3.566669999999999874e+01 2.025459999999999923e+02 1.996445000000000164e+03
1.499999999999999944e-01 1.265944999999999987e-01 3.480295000000000272e+01 2.009379999999999882e+02 1.995839999999999918e+03
1.509999999999999953e-01 1.265455000000000052e-01 3.399235000000000184e+01 1.994309999999999832e+02 1.995264999999999873e+03
1.519999999999999962e-01 1.265000000000000013e-01 3.323760000000000048e+01 1.980310000000000059e+02 1.994719999999999800e+03
1.529999999999999971e-01 1.264569999999999861e-01 3.254009999999999536e+01 1.967394999999999925e+02 1.994215000000000146e+03
1.539999999999999980e-01 1.264170000000000016e-01 3.189995000000000047e+01 1.955564999999999998e+02 1.993735000000000127e+03
1.549999999999999989e-01 1.263795000000000057e-01 3.131605000000000061e+01 1.944784999999999968e+02 1.993289999999999964e+03
1.559999999999999998e-01 1.263450000000000129e-01 3.078620000000000090e+01 1.934990000000000236e+02 1.992884999999999991e+03
1.570000000000000007e-01 1.263140000000000096e-01 3.030709999999999837e+01 1.926105000000000018e+02 1.992505000000000109e+03
1.580000000000000016e-01 1.262845000000000217e-01 2.987474999999999881e+01 1.918034999999999854e+02 1.992159999999999854e+03
1.590000000000000024e-01 1.262584999999999957e-01 2.948469999999999658e+01 1.910674999999999955e+02 1.991840000000000146e+03
