# t [s], A [cm^2], U [cm/s], P [cPa], c [cm/s]
1.000000000000000021e-03 4.656894999999999785e-01 4.640800000000000480e-03 1.070604999999999905e+02 1.558539999999999964e+03
2.000000000000000042e-03 4.656824999999999992e-01 -8.776299999999999032e-04 1.070390000000000015e+02 1.558529999999999973e+03
3.000000000000000062e-03 4.657140000000000168e-01 6.943035000000000179e-02 1.071115000000000066e+02 1.558555000000000064e+03
4.000000000000000083e-03 4.657529999999999726e-01 1.593156000000000017e-01 1.072265000000000015e+02 1.558585000000000036e+03
5.000000000000000104e-03 4.657495000000000385e-01 1.614760000000000084e-01 1.072245000000000061e+02 1.558585000000000036e+03
6.000000000000000125e-03 4.657124999999999737e-01 8.638049999999999895e-02 1.070790000000000077e+02 1.558555000000000064e+03
7.000000000000000146e-03 4.656764999999999932e-01 9.010499999999976861e-03 1.068689999999999998e+02 1.558509999999999991e+03
8.000000000000000167e-03 4.656320000000000459e-01 -9.375949999999994011e-02 1.065835000000000008e+02 1.558440000000000055e+03
9.000000000000001055e-03 4.655550000000000521e-01 -2.828450000000000131e-01 1.061450000000000102e+02 1.558345000000000027e+03
1.000000000000000194e-02 4.654380000000000184e-01 -5.738850000000000895e-01 1.055049999999999955e+02 1.558194999999999936e+03
1.099999999999999936e-02 4.652735000000000065e-01 -9.764599999999999946e-01 1.046195000000000022e+02 1.557985000000000127e+03
1.200000000000000025e-02 4.650509999999999922e-01 -1.504494999999999916e+00 1.034364500000000078e+02 1.557699999999999818e+03
1.300000000000000114e-02 4.647729999999999917e-01 -2.133399999999999963e+00 1.019465000000000003e+02 1.557340000000000146e+03
1.400000000000000203e-02 4.644665000000000044e-01 -2.778154999999999930e+00 1.002257999999999925e+02 1.556904999999999973e+03
1.499999999999999944e-02 4.641689999999999983e-01 -3.322619999999999685e+00 9.841710000000000491e+01 1.556434999999999945e+03
1.600000000000000033e-02 4.639100000000000446e-01 -3.669500999999999902e+00 9.666785000000000139e+01 1.555954999999999927e+03
1.700000000000000122e-02 4.636990000000000278e-01 -3.773094500000000018e+00 9.507840000000000202e+01 1.555494999999999891e+03
1.800000000000000211e-02 4.635274999999999812e-01 -3.643561549999999816e+00 9.367690000000000339e+01 1.555074999999999818e+03
1.900000000000000300e-02 4.633739999999999526e-01 -3.330878899999999643e+00 9.242775000000000318e+01 1.554674999999999955e+03
2.000000000000000042e-02 4.632160000000000166e-01 -2.900774000000000186e+00 9.125614999999999100e+01 1.554289999999999964e+03
2.100000000000000130e-02 4.630355000000000443e-01 -2.411929999999999907e+00 9.007980000000000587e+01 1.553900000000000091e+03
2.200000000000000219e-02 4.628250000000000419e-01 -1.900145000000000195e+00 8.883689999999999998e+01 1.553500000000000000e+03
2.299999999999999961e-02 4.625860000000000527e-01 -1.373125000000000151e+00 8.750254999999999939e+01 1.553074999999999818e+03
2.400000000000000050e-02 4.623295000000000043e-01 -8.164000000000000146e-01 8.609000000000000341e+01 1.552625000000000000e+03
2.500000000000000139e-02 4.620690000000000075e-01 -2.071000000000000618e-01 8.463750000000000284e+01 1.552175000000000182e+03
2.600000000000000228e-02 4.618130000000000290e-01 4.706300000000003259e-01 8.318760000000000332e+01 1.551714999999999918e+03
2.700000000000000316e-02 4.615660000000000318e-01 1.214189999999999880e+00 8.176824999999999477e+01 1.551260000000000218e+03
2.800000000000000058e-02 4.613229999999999831e-01 1.998285000000000089e+00 8.037999999999999545e+01 1.550815000000000055e+03
2.900000000000000147e-02 4.610720000000000374e-01 2.777985000000000149e+00 7.899359999999998649e+01 1.550365000000000009e+03
3.000000000000000236e-02 4.608005000000000573e-01 3.497309999999999697e+00 7.755649999999999977e+01 1.549909999999999854e+03
3.099999999999999978e-02 4.604935000000000000e-01 4.100894999999999513e+00 7.600650000000000261e+01 1.549425000000000182e+03
3.200000000000000067e-02 4.601429999999999687e-01 4.545830000000000481e+00 7.428860000000000241e+01 1.548904999999999973e+03
3.300000000000000155e-02 4.597470000000000168e-01 4.811119999999999841e+00 7.237125000000000341e+01 1.548344999999999800e+03
3.400000000000000244e-02 4.593114999999999837e-01 4.902235000000000120e+00 7.025804999999999723e+01 1.547740000000000009e+03
3.500000000000000333e-02 4.588514999999999677e-01 4.849769999999999470e+00 6.799125000000000796e+01 1.547090000000000146e+03
3.600000000000000422e-02 4.583859999999999602e-01 4.703060000000000684e+00 6.564764999999999873e+01 1.546429999999999836e+03
3.700000000000000511e-02 4.579379999999999562e-01 4.520819999999999617e+00 6.332730000000000103e+01 1.545764999999999873e+03
3.799999999999999906e-02 4.575274999999999759e-01 4.361850000000000449e+00 6.113979999999999393e+01 1.545130000000000109e+03
3.899999999999999994e-02 4.571724999999999817e-01 4.277225000000000499e+00 5.919074999999999420e+01 1.544545000000000073e+03
4.000000000000000083e-02 4.568864999999999732e-01 4.306560000000000166e+00 5.757155000000000200e+01 1.544045000000000073e+03
4.100000000000000172e-02 4.566774999999999585e-01 4.476596500000000312e+00 5.635309999999999775e+01 1.543644999999999982e+03
4.200000000000000261e-02 4.565514999999999990e-01 4.802925000000000111e+00 5.558379999999999654e+01 1.543355000000000018e+03
4.300000000000000350e-02 4.565099999999999714e-01 5.292930000000000135e+00 5.529165000000000418e+01 1.543194999999999936e+03
4.400000000000000439e-02 4.565519999999999579e-01 5.949374999999999858e+00 5.548794999999999789e+01 1.543170000000000073e+03
4.499999999999999833e-02 4.566774999999999585e-01 6.773464999999999847e+00 5.617244999999999777e+01 1.543280000000000200e+03
4.599999999999999922e-02 4.568855000000000000e-01 7.766829999999999679e+00 5.733794999999999931e+01 1.543530000000000200e+03
4.700000000000000011e-02 4.571744999999999837e-01 8.931940000000000879e+00 5.897364999999999924e+01 1.543914999999999964e+03
4.800000000000000100e-02 4.575434999999999919e-01 1.027164499999999947e+01 6.106669999999999732e+01 1.544425000000000182e+03
4.900000000000000189e-02 4.579904999999999671e-01 1.178702499999999986e+01 6.360184999999999889e+01 1.545074999999999818e+03
5.000000000000000278e-02 4.585124999999999895e-01 1.347572500000000062e+01 6.655984999999999729e+01 1.545840000000000146e+03
5.100000000000000366e-02 4.591045000000000265e-01 1.533014500000000169e+01 6.991625000000000512e+01 1.546730000000000018e+03
5.200000000000000455e-02 4.597609999999999753e-01 1.733664999999999878e+01 7.363909999999999911e+01 1.547735000000000127e+03
5.300000000000000544e-02 4.604745000000000088e-01 1.947538000000000125e+01 7.768890000000000384e+01 1.548829999999999927e+03
5.399999999999999939e-02 4.612339999999999773e-01 2.172130000000000294e+01 8.201919999999999789e+01 1.550019999999999982e+03
5.500000000000000028e-02 4.620309999999999695e-01 2.404554999999999865e+01 8.657724999999999227e+01 1.551289999999999964e+03
5.600000000000000117e-02 4.628554999999999753e-01 2.641749999999999687e+01 9.130780000000000030e+01 1.552619999999999891e+03
5.700000000000000205e-02 4.636964999999999559e-01 2.880669999999999931e+01 9.615529999999999688e+01 1.553990000000000009e+03
5.800000000000000294e-02 4.645460000000000145e-01 3.118439999999999657e+01 1.010664000000000016e+02 1.555400000000000091e+03
5.900000000000000383e-02 4.653959999999999764e-01 3.352524999999999977e+01 1.059925999999999959e+02 1.556829999999999927e+03
6.000000000000000472e-02 4.662389999999999590e-01 3.580764999999999532e+01 1.108930000000000007e+02 1.558264999999999873e+03
6.099999999999999867e-02 4.670730000000000159e-01 3.801454999999999984e+01 1.157345500000000129e+02 1.559690000000000055e+03
6.199999999999999956e-02 4.678919999999999746e-01 4.013329999999999842e+01 1.204929999999999950e+02 1.561110000000000127e+03
6.300000000000000044e-02 4.686955000000000426e-01 4.215509999999999735e+01 1.251525000000000034e+02 1.562515000000000100e+03
6.400000000000000133e-02 4.694835000000000536e-01 4.407469999999999999e+01 1.297040000000000077e+02 1.563889999999999873e+03
6.500000000000000222e-02 4.702549999999999786e-01 4.588954999999999984e+01 1.341460000000000150e+02 1.565244999999999891e+03
6.600000000000000311e-02 4.710104999999999986e-01 4.759929999999999950e+01 1.384805000000000064e+02 1.566574999999999818e+03
6.700000000000000400e-02 4.717525000000000190e-01 4.920510000000000161e+01 1.427135000000000105e+02 1.567875000000000000e+03
6.800000000000000488e-02 4.724810000000000398e-01 5.070875000000000199e+01 1.468534999999999968e+02 1.569154999999999973e+03
6.900000000000000577e-02 4.731980000000000075e-01 5.211265000000000214e+01 1.509069999999999823e+02 1.570410000000000082e+03
7.000000000000000666e-02 4.739029999999999632e-01 5.341884999999999906e+01 1.548820000000000050e+02 1.571650000000000091e+03
7.100000000000000755e-02 4.745975000000000055e-01 5.462884999999999991e+01 1.587814999999999941e+02 1.572865000000000009e+03
7.200000000000000844e-02 4.752810000000000090e-01 5.574320000000000164e+01 1.626084999999999923e+02 1.574059999999999945e+03
7.300000000000000933e-02 4.759525000000000006e-01 5.676130000000000564e+01 1.663594999999999970e+02 1.575235000000000127e+03
7.399999999999999634e-02 4.766105000000000480e-01 5.768165000000000475e+01 1.700294999999999845e+02 1.576384999999999991e+03
7.499999999999999722e-02 4.772520000000000095e-01 5.850154999999999461e+01 1.736069999999999993e+02 1.577510000000000218e+03
7.599999999999999811e-02 4.778755000000000086e-01 5.921755000000000280e+01 1.770810000000000173e+02 1.578610000000000127e+03
7.699999999999999900e-02 4.784780000000000144e-01 5.982590000000000430e+01 1.804354999999999905e+02 1.579670000000000073e+03
7.799999999999999989e-02 4.790555000000000230e-01 6.032280000000000086e+01 1.836539999999999964e+02 1.580700000000000045e+03
7.900000000000000078e-02 4.796064999999999912e-01 6.070470000000000255e+01 1.867185000000000059e+02 1.581684999999999945e+03
8.000000000000000167e-02 4.801265000000000116e-01 6.096885000000000332e+01 1.896144999999999925e+02 1.582619999999999891e+03
8.100000000000000255e-02 4.806139999999999857e-01 6.111360000000000525e+01 1.923255000000000052e+02 1.583500000000000000e+03
8.200000000000000344e-02 4.810674999999999812e-01 6.113830000000000098e+01 1.948400000000000034e+02 1.584329999999999927e+03
8.300000000000000433e-02 4.814849999999999963e-01 6.104380000000000450e+01 1.971485000000000127e+02 1.585099999999999909e+03
8.400000000000000522e-02 4.818649999999999878e-01 6.083235000000000525e+01 1.992450000000000045e+02 1.585800000000000182e+03
8.500000000000000611e-02 4.822084999999999844e-01 6.050759999999999650e+01 2.011259999999999764e+02 1.586445000000000164e+03
8.600000000000000699e-02 4.825144999999999573e-01 6.007455000000000211e+01 2.027924999999999898e+02 1.587019999999999982e+03
8.700000000000000788e-02 4.827844999999999498e-01 5.953960000000000008e+01 2.042485000000000070e+02 1.587534999999999854e+03
8.800000000000000877e-02 4.830194999999999905e-01 5.891035000000000110e+01 2.055024999999999977e+02 1.587990000000000009e+03
8.899999999999999578e-02 4.832214999999999705e-01 5.819554999999999723e+01 2.065629999999999882e+02 1.588380000000000109e+03
8.999999999999999667e-02 4.833935000000000315e-01 5.740505000000000280e+01 2.074435000000000002e+02 1.588715000000000146e+03
9.099999999999999756e-02 4.835364999999999802e-01 5.654914999999999736e+01 2.081594999999999800e+02 1.588994999999999891e+03
9.199999999999999845e-02 4.836544999999999872e-01 5.563915000000000077e+01 2.087275000000000205e+02 1.589224999999999909e+03
9.299999999999999933e-02 4.837504999999999722e-01 5.468640000000000612e+01 2.091655000000000086e+02 1.589409999999999854e+03
9.400000000000000022e-02 4.838270000000000071e-01 5.370244999999999891e+01 2.094914999999999736e+02 1.589559999999999945e+03
9.500000000000000111e-02 4.838879999999999848e-01 5.269844999999999402e+01 2.097250000000000227e+02 1.589675000000000182e+03
9.600000000000000200e-02 4.839360000000000328e-01 5.168500000000000227e+01 2.098829999999999814e+02 1.589769999999999982e+03
9.700000000000000289e-02 4.839740000000000153e-01 5.067185000000000628e+01 2.099834999999999923e+02 1.589829999999999927e+03
9.800000000000000377e-02 4.840045000000000597e-01 4.966740000000000066e+01 2.100409999999999968e+02 1.589880000000000109e+03
9.900000000000000466e-02 4.840289999999999870e-01 4.867849999999999966e+01 2.100690000000000168e+02 1.589909999999999854e+03
1.000000000000000056e-01 4.840495000000000214e-01 4.771044999999999447e+01 2.100765000000000100e+02 1.589929999999999836e+03
1.010000000000000064e-01 4.840670000000000250e-01 4.676664999999999850e+01 2.100720000000000027e+02 1.589940000000000055e+03
1.020000000000000073e-01 4.840815000000000534e-01 4.584879999999999711e+01 2.100590000000000259e+02 1.589950000000000045e+03
1.030000000000000082e-01 4.840929999999999955e-01 4.495674999999999955e+01 2.100384999999999991e+02 1.589949999999999818e+03
1.040000000000000091e-01 4.841020000000000323e-01 4.408905000000000030e+01 2.100090000000000146e+02 1.589945000000000164e+03
1.050000000000000100e-01 4.841070000000000095e-01 4.324255000000000138e+01 2.099664999999999964e+02 1.589934999999999945e+03
1.059999999999999970e-01 4.841064999999999952e-01 4.241339999999999577e+01 2.099055000000000177e+02 1.589920000000000073e+03
1.069999999999999979e-01 4.840995000000000159e-01 4.159675000000000011e+01 2.098179999999999836e+02 1.589894999999999982e+03
1.079999999999999988e-01 4.840844999999999732e-01 4.078744999999999976e+01 2.096959999999999980e+02 1.589859999999999900e+03
1.089999999999999997e-01 4.840610000000000190e-01 3.998014999999999475e+01 2.095310000000000059e+02 1.589819999999999936e+03
1.100000000000000006e-01 4.840259999999999563e-01 3.916965000000000430e+01 2.093145000000000095e+02 1.589755000000000109e+03
1.110000000000000014e-01 4.839795000000000069e-01 3.835119999999999862e+01 2.090389999999999873e+02 1.589675000000000182e+03
1.120000000000000023e-01 4.839204999999999757e-01 3.752060000000000173e+01 2.086990000000000123e+02 1.589585000000000036e+03
1.130000000000000032e-01 4.838490000000000291e-01 3.667435000000000400e+01 2.082889999999999873e+02 1.589470000000000027e+03
1.140000000000000041e-01 4.837630000000000541e-01 3.581009999999999849e+01 2.078059999999999832e+02 1.589335000000000036e+03
1.150000000000000050e-01 4.836644999999999417e-01 3.492619999999999436e+01 2.072485000000000070e+02 1.589174999999999955e+03
1.160000000000000059e-01 4.835519999999999818e-01 3.402230000000000132e+01 2.066185000000000116e+02 1.588994999999999891e+03
1.170000000000000068e-01 4.834269999999999956e-01 3.309899999999999665e+01 2.059164999999999850e+02 1.588795000000000073e+03
1.180000000000000077e-01 4.832904999999999562e-01 3.215800000000000125e+01 2.051490000000000009e+02 1.588585000000000036e+03
1.190000000000000085e-01 4.831435000000000035e-01 3.120214999999999961e+01 2.043215000000000146e+02 1.588345000000000027e+03
1.200000000000000094e-01 4.829879999999999729e-01 3.023505000000000109e+01 2.034414999999999907e+02 1.588095000000000027e+03
1.209999999999999964e-01 4.828260000000000329e-01 2.926129999999999853e+01 2.025184999999999889e+02 1.587825000000000045e+03
1.219999999999999973e-01 4.826579999999999759e-01 2.828620000000000090e+01 2.015635000000000048e+02 1.587549999999999955e+03
1.229999999999999982e-01 4.824879999999999725e-01 2.731555000000000177e+01 2.005865000000000009e+02 1.587259999999999991e+03
1.239999999999999991e-01 4.823160000000000225e-01 2.635564999999999714e+01 1.995994999999999777e+02 1.586970000000000027e+03
1.250000000000000000e-01 4.821449999999999902e-01 2.541279999999999717e+01 1.986145000000000209e+02 1.586679999999999836e+03
1.260000000000000009e-01 4.819780000000000175e-01 2.449349999999999739e+01 1.976430000000000007e+02 1.586389999999999873e+03
1.270000000000000018e-01 4.818149999999999933e-01 2.360389999999999944e+01 1.966954999999999814e+02 1.586099999999999909e+03
1.280000000000000027e-01 4.816595000000000182e-01 2.274985000000000213e+01 1.957824999999999989e+02 1.585819999999999936e+03
1.290000000000000036e-01 4.815114999999999812e-01 2.193629999999999924e+01 1.949130000000000109e+02 1.585550000000000182e+03
1.300000000000000044e-01 4.813730000000000508e-01 2.116785000000000139e+01 1.940939999999999941e+02 1.585295000000000073e+03
1.310000000000000053e-01 4.812445000000000195e-01 2.044780000000000086e+01 1.933319999999999936e+02 1.585055000000000064e+03
1.320000000000000062e-01 4.811269999999999714e-01 1.977864999999999895e+01 1.926299999999999955e+02 1.584824999999999818e+03
1.330000000000000071e-01 4.810200000000000031e-01 1.916165000000000163e+01 1.919895000000000209e+02 1.584619999999999891e+03
1.340000000000000080e-01 4.809240000000000181e-01 1.859710000000000107e+01 1.914120000000000061e+02 1.584429999999999836e+03
1.350000000000000089e-01 4.808385000000000020e-01 1.808415000000000106e+01 1.908944999999999936e+02 1.584250000000000000e+03
1.360000000000000098e-01 4.807615000000000083e-01 1.762089999999999890e+01 1.904329999999999927e+02 1.584095000000000027e+03
1.370000000000000107e-01 4.806930000000000369e-01 1.720465000000000089e+01 1.900229999999999961e+02 1.583950000000000045e+03
1.380000000000000115e-01 4.806320000000000037e-01 1.683210000000000051e+01 1.896585000000000036e+02 1.583820000000000164e+03
1.390000000000000124e-01 4.805765000000000176e-01 1.649920000000000186e+01 1.893310000000000173e+02 1.583704999999999927e+03
1.400000000000000133e-01 4.805260000000000087e-01 1.620165000000000077e+01 1.890339999999999918e+02 1.583599999999999909e+03
1.410000000000000142e-01 4.804780000000000162e-01 1.593499999999999872e+01 1.887590000000000146e+02 1.583494999999999891e+03
1.420000000000000151e-01 4.804319999999999702e-01 1.569474999999999909e+01 1.884985000000000070e+02 1.583404999999999973e+03
1.430000000000000160e-01 4.803870000000000084e-01 1.547669999999999924e+01 1.882459999999999809e+02 1.583315000000000055e+03
1.440000000000000169e-01 4.803414999999999768e-01 1.527690000000000126e+01 1.879950000000000045e+02 1.583224999999999909e+03
1.450000000000000178e-01 4.802945000000000131e-01 1.509175000000000111e+01 1.877400000000000091e+02 1.583139999999999873e+03
1.459999999999999909e-01 4.802465000000000206e-01 1.491825000000000045e+01 1.874774999999999920e+02 1.583049999999999955e+03
1.469999999999999918e-01 4.801964999999999706e-01 1.475379999999999825e+01 1.872055000000000007e+02 1.582965000000000146e+03
1.479999999999999927e-01 4.801435000000000008e-01 1.459629999999999939e+01 1.869205000000000041e+02 1.582869999999999891e+03
1.489999999999999936e-01 4.800885000000000291e-01 1.444429999999999836e+01 1.866229999999999905e+02 1.582779999999999973e+03
1.499999999999999944e-01 4.800320000000000142e-01 1.429659999999999975e+01 1.863139999999999930e+02 1.582680000000000064e+03
1.509999999999999953e-01 4.799729999999999830e-01 1.415245000000000175e+01 1.859934999999999832e+02 1.582585000000000036e+03
1.519999999999999962e-01 4.799130000000000340e-01 1.401154999999999973e+01 1.856639999999999873e+02 1.582480000000000018e+03
1.529999999999999971e-01 4.798519999999999452e-01 1.387369999999999948e+01 1.853269999999999982e+02 1.582380000000000109e+03
1.539999999999999980e-01 4.797900000000000498e-01 1.373900000000000077e+01 1.849859999999999900e+02 1.582275000000000091e+03
1.549999999999999989e-01 4.797280000000000433e-01 1.360770000000000124e+01 1.846419999999999959e+02 1.582164999999999964e+03
1.559999999999999998e-01 4.796660000000000368e-01 1.347994999999999877e+01 1.842990000000000066e+02 1.582059999999999945e+03
1.570000000000000007e-01 4.796044999999999892e-01 1.335614999999999952e+01 1.839579999999999984e+02 1.581960000000000036e+03
1.580000000000000016e-01 4.795444999999999847e-01 1.323675000000000068e+01 1.836204999999999927e+02 1.581849999999999909e+03
1.590000000000000024e-01 4.794850000000000501e-01 1.312209000000000003e+01 1.832900000000000205e+02 1.581750000000000000e+03
