# t [s], A [cm^2], U [cm/s], P [cPa], c [cm/s]
1.000000000000000021e-03 1.404099999999999793e-01 3.839274999999999771e-01 1.044540000000000077e+02 2.015434999999999945e+03
2.000000000000000042e-03 1.403770000000000018e-01 2.038098500000000257e+00 1.009164499999999975e+02 2.015079999999999927e+03
3.000000000000000062e-03 1.402760000000000118e-01 4.043048500000000267e+00 9.623210000000000264e+01 2.014039999999999964e+03
4.000000000000000083e-03 1.401334999999999942e-01 6.269188500000000275e+00 9.121150000000000091e+01 2.012595000000000027e+03
5.000000000000000104e-03 1.399765000000000037e-01 8.641724999999999213e+00 8.671665000000000134e+01 2.011014999999999873e+03
6.000000000000000125e-03 1.398214999999999875e-01 1.099561500000000080e+01 8.302844999999999231e+01 2.009470000000000027e+03
7.000000000000000146e-03 1.396744999999999792e-01 1.313433500000000009e+01 7.992300000000000182e+01 2.008029999999999973e+03
8.000000000000000167e-03 1.395379999999999954e-01 1.497100000000000009e+01 7.715725000000000477e+01 2.006714999999999918e+03
9.000000000000001055e-03 1.394150000000000111e-01 1.653065000000000140e+01 7.473939999999998918e+01 2.005545000000000073e+03
1.000000000000000194e-02 1.393090000000000162e-01 1.784680000000000177e+01 7.273539999999999850e+01 2.004549999999999955e+03
1.099999999999999936e-02 1.392200000000000104e-01 1.893244999999999933e+01 7.112460000000000093e+01 2.003720000000000027e+03
1.200000000000000025e-02 1.391459999999999919e-01 1.979670000000000130e+01 6.983979999999999677e+01 2.003045000000000073e+03
1.300000000000000114e-02 1.390859999999999874e-01 2.044525000000000148e+01 6.879274999999999807e+01 2.002500000000000000e+03
1.400000000000000203e-02 1.390354999999999785e-01 2.088889999999999958e+01 6.788790000000000191e+01 2.002055000000000064e+03
1.499999999999999944e-02 1.389940000000000064e-01 2.117445000000000022e+01 6.710439999999999827e+01 2.001690000000000055e+03
1.600000000000000033e-02 1.389620000000000022e-01 2.140169999999999817e+01 6.658050000000000068e+01 2.001409999999999854e+03
1.700000000000000122e-02 1.389440000000000119e-01 2.169614999999999938e+01 6.658580000000000609e+01 2.001264999999999873e+03
1.800000000000000211e-02 1.389465000000000006e-01 2.215240000000000009e+01 6.737290000000000134e+01 2.001299999999999955e+03
1.900000000000000300e-02 1.389719999999999844e-01 2.278780000000000072e+01 6.901294999999998936e+01 2.001545000000000073e+03
2.000000000000000042e-02 1.390190000000000037e-01 2.353340000000000032e+01 7.131954999999999245e+01 2.001994999999999891e+03
2.100000000000000130e-02 1.390810000000000102e-01 2.426310000000000144e+01 7.389605000000000246e+01 2.002585000000000036e+03
2.200000000000000219e-02 1.391479999999999939e-01 2.484134999999999849e+01 7.626949999999999363e+01 2.003214999999999918e+03
2.299999999999999961e-02 1.392085000000000128e-01 2.516839999999999833e+01 7.804285000000000139e+01 2.003809999999999945e+03
2.400000000000000050e-02 1.392555000000000043e-01 2.520664999999999978e+01 7.900560000000000116e+01 2.004264999999999873e+03
2.500000000000000139e-02 1.392839999999999911e-01 2.498235000000000028e+01 7.916875000000000284e+01 2.004565000000000055e+03
2.600000000000000228e-02 1.392960000000000031e-01 2.456605000000000061e+01 7.872280000000000655e+01 2.004700000000000045e+03
2.700000000000000316e-02 1.392950000000000021e-01 2.404194999999999993e+01 7.794505000000000905e+01 2.004704999999999927e+03
2.800000000000000058e-02 1.392855000000000065e-01 2.347885000000000133e+01 7.709520000000000550e+01 2.004625000000000000e+03
2.900000000000000147e-02 1.392730000000000079e-01 2.291244999999999976e+01 7.633779999999998722e+01 2.004514999999999873e+03
3.000000000000000236e-02 1.392594999999999805e-01 2.234319999999999951e+01 7.571309999999999718e+01 2.004390000000000100e+03
3.099999999999999978e-02 1.392459999999999809e-01 2.174654999999999916e+01 7.515600000000000591e+01 2.004259999999999991e+03
3.200000000000000067e-02 1.392305000000000070e-01 2.109114999999999895e+01 7.454874999999999829e+01 2.004119999999999891e+03
3.300000000000000155e-02 1.392114999999999880e-01 2.035759999999999792e+01 7.378485000000000582e+01 2.003950000000000045e+03
3.400000000000000244e-02 1.391879999999999784e-01 1.955180000000000007e+01 7.282245000000000346e+01 2.003735000000000127e+03
3.500000000000000333e-02 1.391600000000000059e-01 1.870935000000000059e+01 7.171240000000000236e+01 2.003474999999999909e+03
3.600000000000000422e-02 1.391290000000000027e-01 1.789045000000000130e+01 7.059375000000000000e+01 2.003184999999999945e+03
3.700000000000000511e-02 1.390990000000000004e-01 1.716645000000000110e+01 6.965985000000000582e+01 2.002910000000000082e+03
3.799999999999999906e-02 1.390759999999999774e-01 1.660269999999999868e+01 6.910689999999999600e+01 2.002684999999999945e+03
3.899999999999999994e-02 1.390629999999999922e-01 1.624265000000000114e+01 6.907990000000000919e+01 2.002559999999999945e+03
4.000000000000000083e-02 1.390640000000000209e-01 1.609759999999999991e+01 6.963315000000000055e+01 2.002554999999999836e+03
4.100000000000000172e-02 1.390795000000000226e-01 1.614369999999999905e+01 7.071385000000000787e+01 2.002684999999999945e+03
4.200000000000000261e-02 1.391074999999999950e-01 1.632730000000000103e+01 7.217160000000001219e+01 2.002940000000000055e+03
4.300000000000000350e-02 1.391445000000000043e-01 1.657509999999999906e+01 7.378849999999999909e+01 2.003275000000000091e+03
4.400000000000000439e-02 1.391850000000000032e-01 1.680724999999999980e+01 7.532019999999999982e+01 2.003654999999999973e+03
4.499999999999999833e-02 1.392240000000000144e-01 1.694955000000000211e+01 7.653775000000000261e+01 2.004014999999999873e+03
4.599999999999999922e-02 1.392545000000000033e-01 1.694259999999999877e+01 7.726060000000001082e+01 2.004304999999999836e+03
4.700000000000000011e-02 1.392724999999999935e-01 1.674739999999999895e+01 7.737685000000000457e+01 2.004485000000000127e+03
4.800000000000000100e-02 1.392760000000000109e-01 1.634639999999999915e+01 7.684805000000000064e+01 2.004519999999999982e+03
4.900000000000000189e-02 1.392619999999999969e-01 1.574135000000000062e+01 7.570149999999999579e+01 2.004400000000000091e+03
5.000000000000000278e-02 1.392319999999999947e-01 1.494865000000000066e+01 7.401394999999999413e+01 2.004125000000000000e+03
5.100000000000000366e-02 1.391874999999999918e-01 1.399510000000000076e+01 7.189205000000001178e+01 2.003710000000000036e+03
5.200000000000000455e-02 1.391295000000000170e-01 1.291297499999999943e+01 6.945435000000000514e+01 2.003170000000000073e+03
5.300000000000000544e-02 1.390624999999999778e-01 1.173695999999999984e+01 6.681775000000000375e+01 2.002545000000000073e+03
5.399999999999999939e-02 1.389880000000000004e-01 1.050258499999999984e+01 6.409029999999999916e+01 2.001844999999999800e+03
5.500000000000000028e-02 1.389094999999999913e-01 9.245694999999999553e+00 6.136914999999999765e+01 2.001110000000000127e+03
5.600000000000000117e-02 1.388294999999999946e-01 8.002769999999999939e+00 5.874275000000000091e+01 2.000360000000000127e+03
5.700000000000000205e-02 1.387510000000000132e-01 6.811390000000000278e+00 5.629465000000000430e+01 1.999619999999999891e+03
5.800000000000000294e-02 1.386769999999999947e-01 5.710565000000000779e+00 5.410720000000000596e+01 1.998914999999999964e+03
5.900000000000000383e-02 1.386089999999999822e-01 4.740260000000000140e+00 5.226345000000000596e+01 1.998275000000000091e+03
6.000000000000000472e-02 1.385509999999999797e-01 3.940430000000000099e+00 5.084685000000000343e+01 1.997715000000000146e+03
6.099999999999999867e-02 1.385045000000000026e-01 3.349320000000000075e+00 4.993820000000000192e+01 1.997269999999999982e+03
6.199999999999999956e-02 1.384730000000000127e-01 3.001419999999999977e+00 4.961124999999999829e+01 1.996960000000000036e+03
6.300000000000000044e-02 1.384580000000000255e-01 2.925245000000000317e+00 4.992690000000000339e+01 1.996804999999999836e+03
6.400000000000000133e-02 1.384615000000000151e-01 3.141449999999999854e+00 5.092799999999999727e+01 1.996825000000000045e+03
6.500000000000000222e-02 1.384854999999999836e-01 3.661294999999999966e+00 5.263495000000000346e+01 1.997030000000000200e+03
6.600000000000000311e-02 1.385299999999999865e-01 4.485834999999999795e+00 5.504335000000000377e+01 1.997434999999999945e+03
6.700000000000000400e-02 1.385949999999999960e-01 5.605839999999999712e+00 5.812364999999999782e+01 1.998025000000000091e+03
6.800000000000000488e-02 1.386799999999999977e-01 7.002359999999999474e+00 6.182285000000000252e+01 1.998815000000000055e+03
6.900000000000000577e-02 1.387845000000000051e-01 8.647969999999999047e+00 6.606785000000000707e+01 1.999779999999999973e+03
7.000000000000000666e-02 1.389055000000000151e-01 1.050835000000000008e+01 7.077044999999999675e+01 2.000904999999999973e+03
7.100000000000000755e-02 1.390419999999999989e-01 1.254436000000000107e+01 7.583285000000000764e+01 2.002184999999999945e+03
7.200000000000000844e-02 1.391899999999999804e-01 1.471405000000000030e+01 8.115364999999999895e+01 2.003569999999999936e+03
7.300000000000000933e-02 1.393469999999999986e-01 1.697489999999999810e+01 8.663335000000000719e+01 2.005049999999999955e+03
7.399999999999999634e-02 1.395109999999999961e-01 1.928560000000000230e+01 9.217949999999999022e+01 2.006595000000000027e+03
7.499999999999999722e-02 1.396784999999999832e-01 2.160810000000000031e+01 9.771180000000001087e+01 2.008190000000000055e+03
7.599999999999999811e-02 1.398475000000000135e-01 2.390889999999999915e+01 1.031642499999999956e+02 2.009795000000000073e+03
7.699999999999999900e-02 1.400160000000000016e-01 2.616025000000000134e+01 1.084875000000000114e+02 2.011409999999999854e+03
7.799999999999999989e-02 1.401820000000000010e-01 2.834055000000000035e+01 1.136504999999999939e+02 2.013000000000000000e+03
7.900000000000000078e-02 1.403455000000000119e-01 3.043459999999999965e+01 1.186375000000000028e+02 2.014565000000000055e+03
8.000000000000000167e-02 1.405049999999999910e-01 3.243325000000000102e+01 1.234489999999999981e+02 2.016099999999999909e+03
8.100000000000000255e-02 1.406600000000000072e-01 3.433249999999999602e+01 1.280964999999999918e+02 2.017594999999999800e+03
8.200000000000000344e-02 1.408110000000000195e-01 3.613275000000000148e+01 1.326005000000000109e+02 2.019059999999999945e+03
8.300000000000000433e-02 1.409584999999999866e-01 3.783735000000000070e+01 1.369850000000000136e+02 2.020485000000000127e+03
8.400000000000000522e-02 1.411029999999999784e-01 3.945149999999999579e+01 1.412740000000000009e+02 2.021889999999999873e+03
8.500000000000000611e-02 1.412444999999999951e-01 4.098099999999999454e+01 1.454915000000000020e+02 2.023259999999999991e+03
8.600000000000000699e-02 1.413840000000000097e-01 4.243135000000000190e+01 1.496535000000000082e+02 2.024619999999999891e+03
8.700000000000000788e-02 1.415214999999999945e-01 4.380665000000000475e+01 1.537694999999999936e+02 2.025960000000000036e+03
8.800000000000000877e-02 1.416574999999999918e-01 4.510949999999999704e+01 1.578419999999999845e+02 2.027284999999999854e+03
8.899999999999999578e-02 1.417920000000000014e-01 4.634024999999999750e+01 1.618645000000000209e+02 2.028599999999999909e+03
8.999999999999999667e-02 1.419245000000000090e-01 4.749715000000000487e+01 1.658234999999999957e+02 2.029889999999999873e+03
9.099999999999999756e-02 1.420549999999999868e-01 4.857639999999999958e+01 1.696985000000000241e+02 2.031164999999999964e+03
9.199999999999999845e-02 1.421824999999999894e-01 4.957240000000000180e+01 1.734644999999999868e+02 2.032414999999999964e+03
9.299999999999999933e-02 1.423065000000000024e-01 5.047825000000000273e+01 1.770930000000000177e+02 2.033634999999999991e+03
9.400000000000000022e-02 1.424265000000000114e-01 5.128594999999999970e+01 1.805540000000000020e+02 2.034815000000000055e+03
9.500000000000000111e-02 1.425420000000000020e-01 5.198714999999999975e+01 1.838154999999999859e+02 2.035944999999999936e+03
9.600000000000000200e-02 1.426505000000000134e-01 5.257354999999999734e+01 1.868509999999999991e+02 2.037014999999999873e+03
9.700000000000000289e-02 1.427525000000000044e-01 5.303730000000000189e+01 1.896315000000000168e+02 2.038025000000000091e+03
9.800000000000000377e-02 1.428470000000000018e-01 5.337165000000000248e+01 1.921349999999999909e+02 2.038954999999999927e+03
9.900000000000000466e-02 1.429334999999999911e-01 5.357115000000000293e+01 1.943425000000000011e+02 2.039809999999999945e+03
1.000000000000000056e-01 1.430105000000000126e-01 5.363230000000000075e+01 1.962420000000000186e+02 2.040579999999999927e+03
1.010000000000000064e-01 1.430784999999999973e-01 5.355360000000000298e+01 1.978254999999999768e+02 2.041250000000000000e+03
1.020000000000000073e-01 1.431364999999999998e-01 5.333589999999999520e+01 1.990919999999999845e+02 2.041835000000000036e+03
1.030000000000000082e-01 1.431850000000000067e-01 5.298270000000000124e+01 2.000469999999999970e+02 2.042319999999999936e+03
1.040000000000000091e-01 1.432240000000000180e-01 5.249980000000000047e+01 2.007024999999999864e+02 2.042710000000000036e+03
1.050000000000000100e-01 1.432535000000000058e-01 5.189560000000000173e+01 2.010754999999999768e+02 2.043015000000000100e+03
1.059999999999999970e-01 1.432740000000000125e-01 5.118075000000000330e+01 2.011895000000000095e+02 2.043230000000000018e+03
1.069999999999999979e-01 1.432860000000000245e-01 5.036769999999999925e+01 2.010709999999999980e+02 2.043359999999999900e+03
1.079999999999999988e-01 1.432910000000000017e-01 4.947059999999999746e+01 2.007520000000000095e+02 2.043414999999999964e+03
1.089999999999999997e-01 1.432889999999999997e-01 4.850440000000000396e+01 2.002649999999999864e+02 2.043404999999999973e+03
1.100000000000000006e-01 1.432815000000000061e-01 4.748465000000000202e+01 1.996424999999999841e+02 2.043340000000000146e+03
1.110000000000000014e-01 1.432690000000000075e-01 4.642680000000000007e+01 1.989184999999999945e+02 2.043224999999999909e+03
1.120000000000000023e-01 1.432525000000000048e-01 4.534564999999999912e+01 1.981229999999999905e+02 2.043070000000000164e+03
1.130000000000000032e-01 1.432335000000000136e-01 4.425504999999999711e+01 1.972845000000000084e+02 2.042884999999999991e+03
1.140000000000000041e-01 1.432114999999999916e-01 4.316720000000000113e+01 1.964259999999999877e+02 2.042674999999999955e+03
1.150000000000000050e-01 1.431890000000000107e-01 4.209255000000000280e+01 1.955679999999999836e+02 2.042449999999999818e+03
1.160000000000000059e-01 1.431649999999999867e-01 4.103950000000000387e+01 1.947239999999999895e+02 2.042220000000000027e+03
1.170000000000000068e-01 1.431410000000000182e-01 4.001425000000000409e+01 1.939039999999999964e+02 2.041984999999999900e+03
1.180000000000000077e-01 1.431169999999999942e-01 3.902074999999999960e+01 1.931125000000000114e+02 2.041750000000000000e+03
1.190000000000000085e-01 1.430934999999999846e-01 3.806074999999999875e+01 1.923485000000000014e+02 2.041519999999999982e+03
1.200000000000000094e-01 1.430700000000000027e-01 3.713400000000000034e+01 1.916075000000000159e+02 2.041285000000000082e+03
1.209999999999999964e-01 1.430470000000000075e-01 3.623834999999999695e+01 1.908815000000000168e+02 2.041059999999999945e+03
1.219999999999999973e-01 1.430244999999999989e-01 3.537015000000000242e+01 1.901589999999999918e+02 2.040829999999999927e+03
1.229999999999999982e-01 1.430009999999999892e-01 3.452445000000000164e+01 1.894264999999999759e+02 2.040599999999999909e+03
1.239999999999999991e-01 1.429769999999999930e-01 3.369535000000000480e+01 1.886690000000000111e+02 2.040365000000000236e+03
1.250000000000000000e-01 1.429529999999999967e-01 3.287640000000000384e+01 1.878720000000000141e+02 2.040119999999999891e+03
1.260000000000000009e-01 1.429269999999999985e-01 3.206105000000000160e+01 1.870194999999999936e+02 2.039865000000000009e+03
1.270000000000000018e-01 1.428999999999999992e-01 3.124284999999999712e+01 1.860985000000000014e+02 2.039594999999999800e+03
1.280000000000000027e-01 1.428705000000000114e-01 3.041595000000000226e+01 1.850974999999999966e+02 2.039309999999999945e+03
1.290000000000000036e-01 1.428389999999999938e-01 2.957529999999999859e+01 1.840064999999999884e+02 2.038994999999999891e+03
1.300000000000000044e-01 1.428045000000000009e-01 2.871699999999999875e+01 1.828195000000000050e+02 2.038659999999999854e+03
1.310000000000000053e-01 1.427670000000000050e-01 2.783834999999999837e+01 1.815330000000000155e+02 2.038295000000000073e+03
1.320000000000000062e-01 1.427269999999999928e-01 2.693834999999999980e+01 1.801494999999999891e+02 2.037904999999999973e+03
1.330000000000000071e-01 1.426840000000000053e-01 2.601754999999999995e+01 1.786725000000000136e+02 2.037480000000000018e+03
1.340000000000000080e-01 1.426379999999999870e-01 2.507809999999999917e+01 1.771105000000000018e+02 2.037034999999999854e+03
1.350000000000000089e-01 1.425895000000000079e-01 2.412384999999999735e+01 1.754775000000000205e+02 2.036559999999999945e+03
1.360000000000000098e-01 1.425390000000000268e-01 2.316000000000000014e+01 1.737874999999999943e+02 2.036070000000000164e+03
1.370000000000000107e-01 1.424865000000000159e-01 2.219314999999999927e+01 1.720589999999999975e+02 2.035559999999999945e+03
1.380000000000000115e-01 1.424330000000000040e-01 2.123084999999999667e+01 1.703135000000000048e+02 2.035034999999999854e+03
1.390000000000000124e-01 1.423780000000000046e-01 2.028144999999999953e+01 1.685720000000000027e+02 2.034505000000000109e+03
1.400000000000000133e-01 1.423234999999999917e-01 1.935365000000000180e+01 1.668564999999999827e+02 2.033970000000000027e+03
1.410000000000000142e-01 1.422694999999999932e-01 1.845615000000000094e+01 1.651890000000000214e+02 2.033445000000000164e+03
1.420000000000000151e-01 1.422164999999999957e-01 1.759725000000000250e+01 1.635894999999999868e+02 2.032925000000000182e+03
1.430000000000000160e-01 1.421655000000000002e-01 1.678460000000000107e+01 1.620760000000000218e+02 2.032430000000000064e+03
1.440000000000000169e-01 1.421165000000000067e-01 1.602474999999999739e+01 1.606630000000000109e+02 2.031950000000000045e+03
1.450000000000000178e-01 1.420710000000000028e-01 1.532314999999999827e+01 1.593634999999999877e+02 2.031500000000000000e+03
1.459999999999999909e-01 1.420275000000000010e-01 1.468365000000000009e+01 1.581845000000000141e+02 2.031075000000000045e+03
1.469999999999999918e-01 1.419885000000000175e-01 1.410859999999999914e+01 1.571299999999999955e+02 2.030690000000000055e+03
1.479999999999999927e-01 1.419524999999999815e-01 1.359880000000000067e+01 1.562010000000000218e+02 2.030335000000000036e+03
1.489999999999999936e-01 1.419205000000000050e-01 1.315329999999999977e+01 1.553935000000000173e+02 2.030015000000000100e+03
1.499999999999999944e-01 1.418915000000000037e-01 1.277009999999999934e+01 1.547010000000000218e+02 2.029730000000000018e+03
1.509999999999999953e-01 1.418665000000000065e-01 1.244555000000000078e+01 1.541150000000000091e+02 2.029485000000000127e+03
1.519999999999999962e-01 1.418444999999999845e-01 1.217520000000000024e+01 1.536239999999999952e+02 2.029264999999999873e+03
1.529999999999999971e-01 1.418254999999999932e-01 1.195359999999999978e+01 1.532150000000000034e+02 2.029075000000000045e+03
1.539999999999999980e-01 1.418090000000000184e-01 1.177495000000000047e+01 1.528739999999999952e+02 2.028914999999999964e+03
1.549999999999999989e-01 1.417954999999999910e-01 1.163289999999999935e+01 1.525889999999999986e+02 2.028775000000000091e+03
1.559999999999999998e-01 1.417835000000000067e-01 1.152115000000000045e+01 1.523449999999999989e+02 2.028650000000000091e+03
1.570000000000000007e-01 1.417724999999999957e-01 1.143355000000000032e+01 1.521304999999999836e+02 2.028545000000000073e+03
1.580000000000000016e-01 1.417634999999999867e-01 1.136420000000000030e+01 1.519334999999999809e+02 2.028450000000000045e+03
1.590000000000000024e-01 1.417545000000000055e-01 1.130770000000000053e+01 1.517454999999999927e+02 2.028359999999999900e+03
