# t [s], A [cm^2], U [cm/s], P [cPa], c [cm/s]
1.000000000000000021e-03 5.285870000000000291e-01 4.488749999999999685e-03 1.098900000000000006e+02 1.600845000000000027e+03
2.000000000000000042e-03 5.285805000000000087e-01 1.708789999999999962e-03 1.098679999999999950e+02 1.600840000000000146e+03
3.000000000000000062e-03 5.286254999999999704e-01 9.326539999999999830e-02 1.099675000000000011e+02 1.600865000000000009e+03
4.000000000000000083e-03 5.286649999999999405e-01 1.790037499999999893e-01 1.100809999999999889e+02 1.600889999999999873e+03
5.000000000000000104e-03 5.286480000000000068e-01 1.551458500000000018e-01 1.100365000000000038e+02 1.600889999999999873e+03
6.000000000000000125e-03 5.286014999999999464e-01 6.705400000000000249e-02 1.098455000000000013e+02 1.600849999999999909e+03
7.000000000000000146e-03 5.285579999999999723e-01 -2.219349999999997713e-02 1.095854999999999961e+02 1.600799999999999955e+03
8.000000000000000167e-03 5.284900000000000153e-01 -1.711189999999999656e-01 1.091980000000000075e+02 1.600714999999999918e+03
9.000000000000001055e-03 5.283735000000000515e-01 -4.333649999999998892e-01 1.085964999999999918e+02 1.600595000000000027e+03
1.000000000000000194e-02 5.282025000000000192e-01 -8.176750000000000407e-01 1.077305000000000064e+02 1.600404999999999973e+03
1.099999999999999936e-02 5.279644999999999477e-01 -1.338944999999999830e+00 1.065425000000000040e+02 1.600144999999999982e+03
1.200000000000000025e-02 5.276520000000000099e-01 -1.995865000000000000e+00 1.049873000000000047e+02 1.599804999999999836e+03
1.300000000000000114e-02 5.272845000000000448e-01 -2.722065000000000179e+00 1.031097499999999911e+02 1.599375000000000000e+03
1.400000000000000203e-02 5.269079999999999320e-01 -3.392210000000000392e+00 1.010542000000000087e+02 1.598900000000000091e+03
1.499999999999999944e-02 5.265674999999999661e-01 -3.877491499999999647e+00 9.900815000000000055e+01 1.598394999999999982e+03
1.600000000000000033e-02 5.262860000000000316e-01 -4.098408000000000051e+00 9.712530000000000996e+01 1.597909999999999854e+03
1.700000000000000122e-02 5.260624999999999885e-01 -4.043925400000000003e+00 9.547729999999999961e+01 1.597464999999999918e+03
1.800000000000000211e-02 5.258739999999999526e-01 -3.759670500000000359e+00 9.404805000000000348e+01 1.597045000000000073e+03
1.900000000000000300e-02 5.256925000000000070e-01 -3.320459249999999862e+00 9.275944999999998686e+01 1.596654999999999973e+03
2.000000000000000042e-02 5.254915000000000003e-01 -2.800642499999999924e+00 9.150999999999999091e+01 1.596275000000000091e+03
2.100000000000000130e-02 5.252569999999999739e-01 -2.251364999999999839e+00 9.021375000000000455e+01 1.595884999999999991e+03
2.200000000000000219e-02 5.249884999999999691e-01 -1.690540000000000154e+00 8.882585000000000264e+01 1.595480000000000018e+03
2.299999999999999961e-02 5.246975000000000389e-01 -1.107729999999999881e+00 8.734884999999999877e+01 1.595049999999999955e+03
2.400000000000000050e-02 5.243984999999999896e-01 -4.801900000000003388e-01 8.581825000000000614e+01 1.594610000000000127e+03
2.500000000000000139e-02 5.241025000000000267e-01 2.078649999999999665e-01 8.427740000000000009e+01 1.594164999999999964e+03
2.600000000000000228e-02 5.238135000000000430e-01 9.508449999999997182e-01 8.275260000000000105e+01 1.593724999999999909e+03
2.700000000000000316e-02 5.235229999999999606e-01 1.716599999999999682e+00 8.123740000000000805e+01 1.593275000000000091e+03
2.800000000000000058e-02 5.232164999999999733e-01 2.450599999999999667e+00 7.968979999999999109e+01 1.592824999999999818e+03
2.900000000000000147e-02 5.228754999999999376e-01 3.087064999999999948e+00 7.804130000000000678e+01 1.592355000000000018e+03
3.000000000000000236e-02 5.224839999999999485e-01 3.563550000000000217e+00 7.621535000000000082e+01 1.591844999999999800e+03
3.099999999999999978e-02 5.220310000000000228e-01 3.835160000000000124e+00 7.414855000000000018e+01 1.591289999999999964e+03
3.200000000000000067e-02 5.215155000000000207e-01 3.884875000000000078e+00 7.181069999999999709e+01 1.590679999999999836e+03
3.300000000000000155e-02 5.209500000000000242e-01 3.727535000000000043e+00 6.921699999999999875e+01 1.590009999999999991e+03
3.400000000000000244e-02 5.203535000000000244e-01 3.406344999999999512e+00 6.643054999999999666e+01 1.589289999999999964e+03
3.500000000000000333e-02 5.197530000000000205e-01 2.983864999999999768e+00 6.355369999999999919e+01 1.588555000000000064e+03
3.600000000000000422e-02 5.191755000000000120e-01 2.530330000000000190e+00 6.071295000000000641e+01 1.587815000000000055e+03
3.700000000000000511e-02 5.186474999999999280e-01 2.112530000000000463e+00 5.804110000000000014e+01 1.587110000000000127e+03
3.799999999999999906e-02 5.181894999999999696e-01 1.786384999999999668e+00 5.566075000000000017e+01 1.586465000000000146e+03
3.899999999999999994e-02 5.178175000000000416e-01 1.592764999999999986e+00 5.367320000000000135e+01 1.585904999999999973e+03
4.000000000000000083e-02 5.175389999999999713e-01 1.557744999999999713e+00 5.215229999999999677e+01 1.585445000000000164e+03
4.100000000000000172e-02 5.173590000000000133e-01 1.695055000000000200e+00 5.114379999999999882e+01 1.585115000000000009e+03
4.200000000000000261e-02 5.172795000000000032e-01 2.010146549999999976e+00 5.066875000000000284e+01 1.584914999999999964e+03
4.300000000000000350e-02 5.172974999999999657e-01 2.504175000000000040e+00 5.072969999999999402e+01 1.584845000000000027e+03
4.400000000000000439e-02 5.174110000000000653e-01 3.177074999999999871e+00 5.131650000000000489e+01 1.584909999999999854e+03
4.499999999999999833e-02 5.176179999999999115e-01 4.029029999999999667e+00 5.241169999999999618e+01 1.585105000000000018e+03
4.599999999999999922e-02 5.179154999999999731e-01 5.060303499999999843e+00 5.399385000000000190e+01 1.585434999999999945e+03
4.700000000000000011e-02 5.182999999999999829e-01 6.269797499999999246e+00 5.603839999999999577e+01 1.585884999999999991e+03
4.800000000000000100e-02 5.187659999999999494e-01 7.652924999999999756e+00 5.851675000000000182e+01 1.586454999999999927e+03
4.900000000000000189e-02 5.193075000000000330e-01 9.199965000000000614e+00 6.139499999999999602e+01 1.587130000000000109e+03
5.000000000000000278e-02 5.199165000000000036e-01 1.089470500000000008e+01 6.463200000000000500e+01 1.587904999999999973e+03
5.100000000000000366e-02 5.205824999999999481e-01 1.271447500000000019e+01 6.817910000000000537e+01 1.588775000000000091e+03
5.200000000000000455e-02 5.212950000000000639e-01 1.463105000000000011e+01 7.198075000000000045e+01 1.589715000000000146e+03
5.300000000000000544e-02 5.220405000000000184e-01 1.661259000000000086e+01 7.597594999999999743e+01 1.590719999999999800e+03
5.399999999999999939e-02 5.228064999999999518e-01 1.862564499999999867e+01 8.010165000000000646e+01 1.591769999999999982e+03
5.500000000000000028e-02 5.235824999999999507e-01 2.063755000000000095e+01 8.429574999999999818e+01 1.592849999999999909e+03
5.600000000000000117e-02 5.243579999999999908e-01 2.261840000000000117e+01 8.850120000000001141e+01 1.593949999999999818e+03
5.700000000000000205e-02 5.251234999999999653e-01 2.454254999999999853e+01 9.266755000000000564e+01 1.595049999999999955e+03
5.800000000000000294e-02 5.258739999999999526e-01 2.638974999999999937e+01 9.675460000000001060e+01 1.596139999999999873e+03
5.900000000000000383e-02 5.266039999999999610e-01 2.814509999999999934e+01 1.007330000000000041e+02 1.597220000000000027e+03
6.000000000000000472e-02 5.273120000000000029e-01 2.979925000000000068e+01 1.045838499999999982e+02 1.598269999999999982e+03
6.099999999999999867e-02 5.279970000000000496e-01 3.134769999999999968e+01 1.082993999999999915e+02 1.599295000000000073e+03
6.199999999999999956e-02 5.286610000000000475e-01 3.278974999999999795e+01 1.118808999999999969e+02 1.600289999999999964e+03
6.300000000000000044e-02 5.293049999999999145e-01 3.412819999999999965e+01 1.153359999999999985e+02 1.601259999999999991e+03
6.400000000000000133e-02 5.299329999999999874e-01 3.536784999999999712e+01 1.186779999999999973e+02 1.602199999999999818e+03
6.500000000000000222e-02 5.305459999999999621e-01 3.651474999999999937e+01 1.219239999999999924e+02 1.603119999999999891e+03
6.600000000000000311e-02 5.311489999999999823e-01 3.757574999999999932e+01 1.250909999999999940e+02 1.604014999999999873e+03
6.700000000000000400e-02 5.317434999999999246e-01 3.855710000000000548e+01 1.281940000000000168e+02 1.604900000000000091e+03
6.800000000000000488e-02 5.323314999999999575e-01 3.946444999999999936e+01 1.312475000000000023e+02 1.605764999999999873e+03
6.900000000000000577e-02 5.329144999999999577e-01 4.030180000000000007e+01 1.342599999999999909e+02 1.606619999999999891e+03
7.000000000000000666e-02 5.334909999999999375e-01 4.107134999999999536e+01 1.372355000000000018e+02 1.607465000000000146e+03
7.100000000000000755e-02 5.340624999999999956e-01 4.177349999999999852e+01 1.401719999999999970e+02 1.608295000000000073e+03
7.200000000000000844e-02 5.346239999999999881e-01 4.240654999999999575e+01 1.430614999999999952e+02 1.609114999999999782e+03
7.300000000000000933e-02 5.351755000000000262e-01 4.296720000000000539e+01 1.458924999999999841e+02 1.609924999999999955e+03
7.399999999999999634e-02 5.357110000000000483e-01 4.345085000000000264e+01 1.486465000000000032e+02 1.610710000000000036e+03
7.499999999999999722e-02 5.362274999999999681e-01 4.385205000000000553e+01 1.513050000000000068e+02 1.611474999999999909e+03
7.599999999999999811e-02 5.367210000000000036e-01 4.416509999999999536e+01 1.538449999999999989e+02 1.612210000000000036e+03
7.699999999999999900e-02 5.371875000000000400e-01 4.438445000000000107e+01 1.562454999999999927e+02 1.612909999999999854e+03
7.799999999999999989e-02 5.376225000000000032e-01 4.450544999999999618e+01 1.584840000000000089e+02 1.613565000000000055e+03
7.900000000000000078e-02 5.380225000000000701e-01 4.452445000000000164e+01 1.605434999999999945e+02 1.614179999999999836e+03
8.000000000000000167e-02 5.383860000000000312e-01 4.443914999999999793e+01 1.624074999999999989e+02 1.614739999999999782e+03
8.100000000000000255e-02 5.387104999999999810e-01 4.424909999999999854e+01 1.640649999999999977e+02 1.615255000000000109e+03
8.200000000000000344e-02 5.389945000000000430e-01 4.395534999999999570e+01 1.655090000000000146e+02 1.615704999999999927e+03
8.300000000000000433e-02 5.392384999999999540e-01 4.356085000000000207e+01 1.667359999999999900e+02 1.616099999999999909e+03
8.400000000000000522e-02 5.394425000000000470e-01 4.307014999999999816e+01 1.677489999999999952e+02 1.616434999999999945e+03
8.500000000000000611e-02 5.396075000000000177e-01 4.248959999999999582e+01 1.685534999999999854e+02 1.616714999999999918e+03
8.600000000000000699e-02 5.397359999999999935e-01 4.182710000000000150e+01 1.691599999999999966e+02 1.616940000000000055e+03
8.700000000000000788e-02 5.398309999999999498e-01 4.109179999999999922e+01 1.695819999999999936e+02 1.617115000000000009e+03
8.800000000000000877e-02 5.398950000000000138e-01 4.029404999999999859e+01 1.698375000000000057e+02 1.617240000000000009e+03
8.899999999999999578e-02 5.399320000000000785e-01 3.944504999999999484e+01 1.699445000000000050e+02 1.617320000000000164e+03
8.999999999999999667e-02 5.399454999999999671e-01 3.855660000000000309e+01 1.699234999999999900e+02 1.617360000000000127e+03
9.099999999999999756e-02 5.399395000000000167e-01 3.764055000000000462e+01 1.697975000000000136e+02 1.617365000000000009e+03
9.199999999999999845e-02 5.399180000000000090e-01 3.670875000000000199e+01 1.695880000000000223e+02 1.617345000000000027e+03
9.299999999999999933e-02 5.398855000000000182e-01 3.577235000000000298e+01 1.693160000000000025e+02 1.617300000000000182e+03
9.400000000000000022e-02 5.398444999999999494e-01 3.484150000000000347e+01 1.690014999999999930e+02 1.617244999999999891e+03
9.500000000000000111e-02 5.397990000000000288e-01 3.392510000000000048e+01 1.686630000000000109e+02 1.617170000000000073e+03
9.600000000000000200e-02 5.397510000000000918e-01 3.303050000000000352e+01 1.683145000000000095e+02 1.617089999999999918e+03
9.700000000000000289e-02 5.397030000000000438e-01 3.216295000000000215e+01 1.679689999999999941e+02 1.617005000000000109e+03
9.800000000000000377e-02 5.396554999999999547e-01 3.132605000000000217e+01 1.676345000000000027e+02 1.616920000000000073e+03
9.900000000000000466e-02 5.396100000000000341e-01 3.052120000000000033e+01 1.673160000000000025e+02 1.616835000000000036e+03
1.000000000000000056e-01 5.395659999999999901e-01 2.974794999999999945e+01 1.670140000000000100e+02 1.616750000000000000e+03
1.010000000000000064e-01 5.395229999999999748e-01 2.900410000000000110e+01 1.667275000000000205e+02 1.616675000000000182e+03
1.020000000000000073e-01 5.394795000000000007e-01 2.828604999999999592e+01 1.664515000000000100e+02 1.616590000000000146e+03
1.030000000000000082e-01 5.394349999999999978e-01 2.758899999999999864e+01 1.661775000000000091e+02 1.616514999999999873e+03
1.040000000000000091e-01 5.393869999999999498e-01 2.690720000000000312e+01 1.658985000000000127e+02 1.616434999999999945e+03
1.050000000000000100e-01 5.393345000000000500e-01 2.623470000000000013e+01 1.656030000000000086e+02 1.616349999999999909e+03
1.059999999999999970e-01 5.392744999999999900e-01 2.556514999999999915e+01 1.652814999999999941e+02 1.616259999999999991e+03
1.069999999999999979e-01 5.392065000000000330e-01 2.489249999999999829e+01 1.649240000000000066e+02 1.616164999999999964e+03
1.079999999999999988e-01 5.391285000000000105e-01 2.421130000000000138e+01 1.645215000000000032e+02 1.616049999999999955e+03
1.089999999999999997e-01 5.390395000000000048e-01 2.351689999999999969e+01 1.640670000000000073e+02 1.615930000000000064e+03
1.100000000000000006e-01 5.389390000000000569e-01 2.280545000000000044e+01 1.635550000000000068e+02 1.615795000000000073e+03
1.110000000000000014e-01 5.388254999999999573e-01 2.207450000000000045e+01 1.629819999999999993e+02 1.615644999999999982e+03
1.120000000000000023e-01 5.387005000000000265e-01 2.132270000000000110e+01 1.623464999999999918e+02 1.615474999999999909e+03
1.130000000000000032e-01 5.385645000000000016e-01 2.055030000000000001e+01 1.616514999999999986e+02 1.615295000000000073e+03
1.140000000000000041e-01 5.384174999999999933e-01 1.975870000000000104e+01 1.609005000000000223e+02 1.615099999999999909e+03
1.150000000000000050e-01 5.382614999999999483e-01 1.895080000000000098e+01 1.600999999999999943e+02 1.614889999999999873e+03
1.160000000000000059e-01 5.380985000000000351e-01 1.813060000000000116e+01 1.592590000000000146e+02 1.614674999999999955e+03
1.170000000000000068e-01 5.379309999999999370e-01 1.730335000000000178e+01 1.583880000000000052e+02 1.614440000000000055e+03
1.180000000000000077e-01 5.377604999999999746e-01 1.647504999999999953e+01 1.575000000000000000e+02 1.614204999999999927e+03
1.190000000000000085e-01 5.375910000000000410e-01 1.565245000000000175e+01 1.566069999999999993e+02 1.613969999999999800e+03
1.200000000000000094e-01 5.374240000000000128e-01 1.484274500000000074e+01 1.557244999999999777e+02 1.613730000000000018e+03
1.209999999999999964e-01 5.372624999999999762e-01 1.405326000000000164e+01 1.548645000000000209e+02 1.613494999999999891e+03
1.219999999999999973e-01 5.371084999999999887e-01 1.329113500000000059e+01 1.540424999999999898e+02 1.613269999999999982e+03
1.229999999999999982e-01 5.369650000000000256e-01 1.256308500000000095e+01 1.532699999999999818e+02 1.613054999999999836e+03
1.239999999999999991e-01 5.368344999999999922e-01 1.187527500000000025e+01 1.525579999999999927e+02 1.612855000000000018e+03
1.250000000000000000e-01 5.367174999999999585e-01 1.123274499999999954e+01 1.519159999999999968e+02 1.612664999999999964e+03
1.260000000000000009e-01 5.366150000000000642e-01 1.063962000000000074e+01 1.513500000000000227e+02 1.612500000000000000e+03
1.270000000000000018e-01 5.365284999999999638e-01 1.009863999999999962e+01 1.508659999999999854e+02 1.612355000000000018e+03
1.280000000000000027e-01 5.364569999999999617e-01 9.611319999999999197e+00 1.504655000000000200e+02 1.612224999999999909e+03
1.290000000000000036e-01 5.364020000000000454e-01 9.177645000000000053e+00 1.501465000000000032e+02 1.612119999999999891e+03
1.300000000000000044e-01 5.363605000000000178e-01 8.796564999999999301e+00 1.499069999999999823e+02 1.612035000000000082e+03
1.310000000000000053e-01 5.363329999999999487e-01 8.465669999999999362e+00 1.497414999999999736e+02 1.611974999999999909e+03
1.320000000000000062e-01 5.363170000000000437e-01 8.181535000000000224e+00 1.496419999999999959e+02 1.611929999999999836e+03
1.330000000000000071e-01 5.363109999999999822e-01 7.939890000000000114e+00 1.495994999999999777e+02 1.611894999999999982e+03
1.340000000000000080e-01 5.363139999999999574e-01 7.735865000000000435e+00 1.496050000000000182e+02 1.611875000000000000e+03
1.350000000000000089e-01 5.363219999999999654e-01 7.564194999999999780e+00 1.496460000000000150e+02 1.611875000000000000e+03
1.360000000000000098e-01 5.363345000000000473e-01 7.419425000000000381e+00 1.497139999999999986e+02 1.611875000000000000e+03
1.370000000000000107e-01 5.363499999999999934e-01 7.296165000000000234e+00 1.497965000000000089e+02 1.611884999999999991e+03
1.380000000000000115e-01 5.363649999999999807e-01 7.189244999999999663e+00 1.498855000000000075e+02 1.611900000000000091e+03
1.390000000000000124e-01 5.363789999999999392e-01 7.093880000000000408e+00 1.499714999999999918e+02 1.611914999999999964e+03
1.400000000000000133e-01 5.363915000000000211e-01 7.005789999999999296e+00 1.500475000000000136e+02 1.611924999999999955e+03
1.410000000000000142e-01 5.363999999999999879e-01 6.921295000000000641e+00 1.501069999999999993e+02 1.611940000000000055e+03
1.420000000000000151e-01 5.364044999999999508e-01 6.837310000000000443e+00 1.501465000000000032e+02 1.611944999999999936e+03
1.430000000000000160e-01 5.364050000000000207e-01 6.751430000000000042e+00 1.501619999999999777e+02 1.611949999999999818e+03
1.440000000000000169e-01 5.364010000000000167e-01 6.661859999999999893e+00 1.501529999999999916e+02 1.611944999999999936e+03
1.450000000000000178e-01 5.363919999999999799e-01 6.567394999999999428e+00 1.501175000000000068e+02 1.611934999999999945e+03
1.459999999999999909e-01 5.363789999999999392e-01 6.467365000000000030e+00 1.500579999999999927e+02 1.611924999999999955e+03
1.469999999999999918e-01 5.363620000000000054e-01 6.361555000000000071e+00 1.499745000000000061e+02 1.611900000000000091e+03
1.479999999999999927e-01 5.363409999999999567e-01 6.250154999999999461e+00 1.498704999999999927e+02 1.611875000000000000e+03
1.489999999999999936e-01 5.363170000000000437e-01 6.133659999999999890e+00 1.497475000000000023e+02 1.611844999999999800e+03
1.499999999999999944e-01 5.362900000000000444e-01 6.012809999999999988e+00 1.496080000000000041e+02 1.611809999999999945e+03
1.509999999999999953e-01 5.362609999999999877e-01 5.888490000000000002e+00 1.494560000000000173e+02 1.611775000000000091e+03
1.519999999999999962e-01 5.362305000000000543e-01 5.761710000000000775e+00 1.492930000000000064e+02 1.611735000000000127e+03
1.529999999999999971e-01 5.361989999999999812e-01 5.633504999999999541e+00 1.491229999999999905e+02 1.611690000000000055e+03
1.539999999999999980e-01 5.361660000000000315e-01 5.504900000000000126e+00 1.489465000000000146e+02 1.611644999999999982e+03
1.549999999999999989e-01 5.361325000000000118e-01 5.376879999999999882e+00 1.487665000000000077e+02 1.611595000000000027e+03
1.559999999999999998e-01 5.360989999999999922e-01 5.250365000000000393e+00 1.485844999999999914e+02 1.611549999999999955e+03
1.570000000000000007e-01 5.360655000000000836e-01 5.126159999999999606e+00 1.484005000000000223e+02 1.611505000000000109e+03
1.580000000000000016e-01 5.360320000000000640e-01 5.004995000000000083e+00 1.482160000000000082e+02 1.611450000000000045e+03
1.590000000000000024e-01 5.359979999999999745e-01 4.887480000000000047e+00 1.480314999999999941e+02 1.611400000000000091e+03
