# t [s], A [cm^2], U [cm/s], P [cPa], c [cm/s]
1.000000000000000021e-03 6.412820000000000187e-01 5.428500000000002768e-03 9.596580000000000155e+01 1.854815000000000055e+03
2.000000000000000042e-03 6.412809999999999899e-01 1.825979999999999964e-02 9.594409999999999172e+01 1.854809999999999945e+03
3.000000000000000062e-03 6.413579999999999837e-01 1.867185499999999831e-01 9.615404999999999802e+01 1.854849999999999909e+03
4.000000000000000083e-03 6.413645000000000040e-01 2.348655000000000048e-01 9.619565000000000055e+01 1.854859999999999900e+03
5.000000000000000104e-03 6.412815000000000598e-01 9.991299999999997405e-02 9.587729999999999109e+01 1.854799999999999955e+03
6.000000000000000125e-03 6.412044999999999551e-01 -3.973999999999999755e-02 9.542680000000000007e+01 1.854710000000000036e+03
7.000000000000000146e-03 6.410829999999999584e-01 -2.895300000000000651e-01 9.473824999999999363e+01 1.854574999999999818e+03
8.000000000000000167e-03 6.408730000000000260e-01 -7.468100000000000849e-01 9.362764999999998849e+01 1.854360000000000127e+03
9.000000000000001055e-03 6.405730000000000590e-01 -1.408535000000000093e+00 9.202700000000000102e+01 1.854045000000000073e+03
1.000000000000000194e-02 6.401510000000000256e-01 -2.318319999999999936e+00 8.980500000000000682e+01 1.853605000000000018e+03
1.099999999999999936e-02 6.396180000000000199e-01 -3.426249999999999574e+00 8.695170000000000243e+01 1.853029999999999973e+03
1.200000000000000025e-02 6.390715000000000146e-01 -4.488093499999999736e+00 8.378665000000000873e+01 1.852365000000000009e+03
1.300000000000000114e-02 6.386275000000000146e-01 -5.205567499999999903e+00 8.081569999999999254e+01 1.851715000000000146e+03
1.400000000000000203e-02 6.383400000000000185e-01 -5.416735000000000078e+00 7.842125000000000057e+01 1.851144999999999982e+03
1.499999999999999944e-02 6.381779999999999120e-01 -5.157555000000000334e+00 7.668459999999998900e+01 1.850684999999999945e+03
1.600000000000000033e-02 6.380619999999999070e-01 -4.603295000000000137e+00 7.540625000000000000e+01 1.850319999999999936e+03
1.700000000000000122e-02 6.379084999999999894e-01 -3.962015000000000065e+00 7.424909999999999854e+01 1.849980000000000018e+03
1.800000000000000211e-02 6.376695000000000002e-01 -3.377024999999999721e+00 7.291374999999999318e+01 1.849619999999999891e+03
1.900000000000000300e-02 6.373480000000000256e-01 -2.877140100000000089e+00 7.126724999999999000e+01 1.849204999999999927e+03
2.000000000000000042e-02 6.369849999999999124e-01 -2.394900000000000251e+00 6.936560000000000059e+01 1.848750000000000000e+03
2.100000000000000130e-02 6.366285000000000416e-01 -1.835625000000000062e+00 6.737205000000000155e+01 1.848259999999999991e+03
2.200000000000000219e-02 6.363045000000000506e-01 -1.151040000000000285e+00 6.543260000000000787e+01 1.847784999999999854e+03
2.299999999999999961e-02 6.360029999999999850e-01 -3.795299999999999230e-01 6.357990000000000208e+01 1.847315000000000055e+03
2.400000000000000050e-02 6.356815000000000104e-01 3.570299999999999585e-01 6.170015000000000782e+01 1.846839999999999918e+03
2.500000000000000139e-02 6.352820000000000134e-01 8.900549999999998185e-01 5.956504999999999939e+01 1.846320000000000164e+03
2.600000000000000228e-02 6.347519999999999829e-01 1.058530000000000193e+00 5.691039999999999566e+01 1.845710000000000036e+03
2.700000000000000316e-02 6.340639999999999610e-01 7.630899999999996020e-01 5.353369999999999607e+01 1.844954999999999927e+03
2.800000000000000058e-02 6.332275000000000542e-01 1.184999999999547526e-03 4.937810000000000343e+01 1.844049999999999955e+03
2.900000000000000147e-02 6.322894999999999488e-01 -1.130800000000000693e+00 4.456735000000000468e+01 1.843015000000000100e+03
3.000000000000000236e-02 6.313195000000000334e-01 -2.467795000000000627e+00 3.938219999999999743e+01 1.841880000000000109e+03
3.099999999999999978e-02 6.303914999999999935e-01 -3.822485000000000355e+00 3.419154999999999944e+01 1.840724999999999909e+03
3.200000000000000067e-02 6.295699999999999630e-01 -5.028064999999999785e+00 2.937140000000000128e+01 1.839630000000000109e+03
3.300000000000000155e-02 6.288979999999999571e-01 -5.964030000000000165e+00 2.523809999999999931e+01 1.838650000000000091e+03
3.400000000000000244e-02 6.283994999999999997e-01 -6.563995999999999498e+00 2.200919999999999987e+01 1.837849999999999909e+03
3.500000000000000333e-02 6.280769999999999964e-01 -6.808349999999999902e+00 1.979364999999999952e+01 1.837255000000000109e+03
3.600000000000000422e-02 6.279230000000000089e-01 -6.708214999999999151e+00 1.860594999999999999e+01 1.836869999999999891e+03
3.700000000000000511e-02 6.279234999999999678e-01 -6.288124999999999964e+00 1.839505000000000123e+01 1.836710000000000036e+03
3.799999999999999906e-02 6.280639999999999556e-01 -5.571889999999999787e+00 1.907685000000000031e+01 1.836755000000000109e+03
3.899999999999999994e-02 6.283315000000000428e-01 -4.576113000000000319e+00 2.055975000000000108e+01 1.836990000000000009e+03
4.000000000000000083e-02 6.287160000000000526e-01 -3.311585000000000445e+00 2.275779999999999959e+01 1.837389999999999873e+03
4.100000000000000172e-02 6.292070000000000718e-01 -1.790305000000000479e+00 2.559055000000000035e+01 1.837945000000000164e+03
4.200000000000000261e-02 6.297914999999999486e-01 -3.367999999999993221e-02 2.897534999999999883e+01 1.838634999999999991e+03
4.300000000000000350e-02 6.304520000000000124e-01 1.921769999999999534e+00 3.281739999999999924e+01 1.839434999999999945e+03
4.400000000000000439e-02 6.311674999999999924e-01 4.023565000000000502e+00 3.700515000000000043e+01 1.840329999999999927e+03
4.499999999999999833e-02 6.319129999999999470e-01 6.206864999999999633e+00 4.141100000000000136e+01 1.841289999999999964e+03
4.599999999999999922e-02 6.326640000000000041e-01 8.401324000000000680e+00 4.589945000000000164e+01 1.842284999999999854e+03
4.700000000000000011e-02 6.333969999999999878e-01 1.053931000000000040e+01 5.033840000000000003e+01 1.843284999999999854e+03
4.800000000000000100e-02 6.340939999999999355e-01 1.256282500000000013e+01 5.461214999999999975e+01 1.844264999999999873e+03
4.900000000000000189e-02 6.347424999999999873e-01 1.442869999999999919e+01 5.863159999999999883e+01 1.845204999999999927e+03
5.000000000000000278e-02 6.353370000000000406e-01 1.611035000000000039e+01 6.234085000000000321e+01 1.846089999999999918e+03
5.100000000000000366e-02 6.358764999999999556e-01 1.759785000000000110e+01 6.571904999999999575e+01 1.846914999999999964e+03
5.200000000000000455e-02 6.363674999999999748e-01 1.889545000000000030e+01 6.877779999999999916e+01 1.847670000000000073e+03
5.300000000000000544e-02 6.368175000000000363e-01 2.001849999999999952e+01 7.155554999999999666e+01 1.848369999999999891e+03
5.399999999999999939e-02 6.372379999999999711e-01 2.099065000000000225e+01 7.411084999999999923e+01 1.849009999999999991e+03
5.500000000000000028e-02 6.376414999999999722e-01 2.184045000000000059e+01 7.651454999999999984e+01 1.849625000000000000e+03
5.600000000000000117e-02 6.380405000000000104e-01 2.259904999999999831e+01 7.884305000000000518e+01 1.850210000000000036e+03
5.700000000000000205e-02 6.384475000000000566e-01 2.329769999999999897e+01 8.117109999999999559e+01 1.850789999999999964e+03
5.800000000000000294e-02 6.388719999999999954e-01 2.396515000000000128e+01 8.356555000000000177e+01 1.851380000000000109e+03
5.900000000000000383e-02 6.393225000000000158e-01 2.462534999999999741e+01 8.607945000000000846e+01 1.851990000000000009e+03
6.000000000000000472e-02 6.398025000000000517e-01 2.529504999999999981e+01 8.874719999999999231e+01 1.852625000000000000e+03
6.099999999999999867e-02 6.403125000000000622e-01 2.598259999999999792e+01 9.158089999999999975e+01 1.853299999999999955e+03
6.199999999999999956e-02 6.408485000000000431e-01 2.668700000000000117e+01 9.456960000000000832e+01 1.854005000000000109e+03
6.300000000000000044e-02 6.414029999999999454e-01 2.739849999999999852e+01 9.767994999999999095e+01 1.854735000000000127e+03
6.400000000000000133e-02 6.419654999999999667e-01 2.810034999999999883e+01 1.008598999999999961e+02 1.855485000000000127e+03
6.500000000000000222e-02 6.425239999999999840e-01 2.877040000000000219e+01 1.040440499999999986e+02 1.856235000000000127e+03
6.600000000000000311e-02 6.430664999999999853e-01 2.938414999999999822e+01 1.071590000000000060e+02 1.856980000000000018e+03
6.700000000000000400e-02 6.435794999999999710e-01 2.991685000000000016e+01 1.101320000000000050e+02 1.857700000000000045e+03
6.800000000000000488e-02 6.440525000000000277e-01 3.034575000000000244e+01 1.128950000000000102e+02 1.858375000000000000e+03
6.900000000000000577e-02 6.444765000000000077e-01 3.065194999999999936e+01 1.153875000000000028e+02 1.858994999999999891e+03
7.000000000000000666e-02 6.448450000000000015e-01 3.082130000000000081e+01 1.175649999999999977e+02 1.859545000000000073e+03
7.100000000000000755e-02 6.451534999999999354e-01 3.084544999999999959e+01 1.193984999999999985e+02 1.860025000000000091e+03
7.200000000000000844e-02 6.454010000000000025e-01 3.072209999999999752e+01 1.208739999999999952e+02 1.860420000000000073e+03
7.300000000000000933e-02 6.455895000000000383e-01 3.045495000000000019e+01 1.219950000000000045e+02 1.860740000000000009e+03
7.399999999999999634e-02 6.457220000000000182e-01 3.005349999999999966e+01 1.227789999999999964e+02 1.860980000000000018e+03
7.499999999999999722e-02 6.458055000000000323e-01 2.953255000000000052e+01 1.232570000000000050e+02 1.861144999999999982e+03
7.599999999999999811e-02 6.458464999999999900e-01 2.891109999999999758e+01 1.234720000000000084e+02 1.861244999999999891e+03
7.699999999999999900e-02 6.458544999999999980e-01 2.821155000000000257e+01 1.234735000000000014e+02 1.861295000000000073e+03
7.799999999999999989e-02 6.458380000000000232e-01 2.745824999999999960e+01 1.233155000000000001e+02 1.861295000000000073e+03
7.900000000000000078e-02 6.458074999999999788e-01 2.667609999999999815e+01 1.230540000000000020e+02 1.861269999999999982e+03
8.000000000000000167e-02 6.457705000000000251e-01 2.588935000000000031e+01 1.227434999999999974e+02 1.861224999999999909e+03
8.100000000000000255e-02 6.457360000000000877e-01 2.511970000000000169e+01 1.224320000000000022e+02 1.861170000000000073e+03
8.200000000000000344e-02 6.457095000000000473e-01 2.438579999999999970e+01 1.221610000000000014e+02 1.861119999999999891e+03
8.300000000000000433e-02 6.456960000000000477e-01 2.370159999999999911e+01 1.219615000000000009e+02 1.861075000000000045e+03
8.400000000000000522e-02 6.456975000000000353e-01 2.307620000000000005e+01 1.218539999999999992e+02 1.861049999999999955e+03
8.500000000000000611e-02 6.457150000000000389e-01 2.251350000000000051e+01 1.218449999999999989e+02 1.861045000000000073e+03
8.600000000000000699e-02 6.457470000000000709e-01 2.201229999999999976e+01 1.219325000000000045e+02 1.861054999999999836e+03
8.700000000000000788e-02 6.457904999999999340e-01 2.156649999999999778e+01 1.221014999999999873e+02 1.861085000000000036e+03
8.800000000000000877e-02 6.458414999999999573e-01 2.116619999999999990e+01 1.223305000000000007e+02 1.861125000000000000e+03
8.899999999999999578e-02 6.458939999999999682e-01 2.079820000000000135e+01 1.225884999999999962e+02 1.861174999999999955e+03
8.999999999999999667e-02 6.459420000000000162e-01 2.044735000000000014e+01 1.228414999999999964e+02 1.861224999999999909e+03
9.099999999999999756e-02 6.459799999999999986e-01 2.009714999999999918e+01 1.230519999999999925e+02 1.861275000000000091e+03
9.199999999999999845e-02 6.460010000000000474e-01 1.973154999999999859e+01 1.231860000000000070e+02 1.861304999999999836e+03
9.299999999999999933e-02 6.460010000000000474e-01 1.933554999999999779e+01 1.232085000000000008e+02 1.861315000000000055e+03
9.400000000000000022e-02 6.459749999999999659e-01 1.889639999999999986e+01 1.230930000000000035e+02 1.861295000000000073e+03
9.500000000000000111e-02 6.459200000000000497e-01 1.840469999999999828e+01 1.228185000000000002e+02 1.861244999999999891e+03
9.600000000000000200e-02 6.458349999999999369e-01 1.785500000000000043e+01 1.223745000000000118e+02 1.861154999999999973e+03
9.700000000000000289e-02 6.457205000000000306e-01 1.724615000000000009e+01 1.217580000000000098e+02 1.861025000000000091e+03
9.800000000000000377e-02 6.455794999999999728e-01 1.658149999999999835e+01 1.209784999999999968e+02 1.860860000000000127e+03
9.900000000000000466e-02 6.454145000000000021e-01 1.586899999999999977e+01 1.200540000000000020e+02 1.860664999999999964e+03
1.000000000000000056e-01 6.452309999999999990e-01 1.512040000000000006e+01 1.190115000000000123e+02 1.860440000000000055e+03
1.010000000000000064e-01 6.450359999999999427e-01 1.435058499999999881e+01 1.178850000000000051e+02 1.860190000000000055e+03
1.020000000000000073e-01 6.448359999999999648e-01 1.357684000000000069e+01 1.167145000000000010e+02 1.859930000000000064e+03
1.030000000000000082e-01 6.446380000000000443e-01 1.281749499999999919e+01 1.155415000000000134e+02 1.859660000000000082e+03
1.040000000000000091e-01 6.444499999999999673e-01 1.209093999999999980e+01 1.144080000000000013e+02 1.859394999999999982e+03
1.050000000000000100e-01 6.442780000000000173e-01 1.141447999999999929e+01 1.133534999999999968e+02 1.859150000000000091e+03
1.059999999999999970e-01 6.441265000000000462e-01 1.080332499999999918e+01 1.124124999999999943e+02 1.858920000000000073e+03
1.069999999999999979e-01 6.440015000000000045e-01 1.026968499999999906e+01 1.116119999999999948e+02 1.858715000000000146e+03
1.079999999999999988e-01 6.439034999999999620e-01 9.822169999999999845e+00 1.109729999999999990e+02 1.858555000000000064e+03
1.089999999999999997e-01 6.438355000000000050e-01 9.465384999999999494e+00 1.105049999999999955e+02 1.858420000000000073e+03
1.100000000000000006e-01 6.437964999999999938e-01 9.199964999999998838e+00 1.102095000000000056e+02 1.858324999999999818e+03
1.110000000000000014e-01 6.437840000000000229e-01 9.022684999999999178e+00 1.100799999999999983e+02 1.858275000000000091e+03
1.120000000000000023e-01 6.437954999999999650e-01 8.926935000000000286e+00 1.101009999999999991e+02 1.858250000000000000e+03
1.130000000000000032e-01 6.438280000000000669e-01 8.903285000000000338e+00 1.102514999999999930e+02 1.858264999999999873e+03
1.140000000000000041e-01 6.438755000000000450e-01 8.940165000000000362e+00 1.105065000000000026e+02 1.858299999999999955e+03
1.150000000000000050e-01 6.439340000000000064e-01 9.024710000000000676e+00 1.108379999999999939e+02 1.858355000000000018e+03
1.160000000000000059e-01 6.439979999999999594e-01 9.143460000000001031e+00 1.112175000000000011e+02 1.858424999999999955e+03
1.170000000000000068e-01 6.440639999999999699e-01 9.283089999999999620e+00 1.116175000000000068e+02 1.858505000000000109e+03
1.180000000000000077e-01 6.441274999999999640e-01 9.431004999999998972e+00 1.120125000000000028e+02 1.858589999999999918e+03
1.190000000000000085e-01 6.441850000000000076e-01 9.575890000000001123e+00 1.123810000000000002e+02 1.858670000000000073e+03
1.200000000000000094e-01 6.442345000000000432e-01 9.708014999999999617e+00 1.127059999999999889e+02 1.858740000000000009e+03
1.209999999999999964e-01 6.442729999999999846e-01 9.819710000000000605e+00 1.129735000000000014e+02 1.858805000000000064e+03
1.219999999999999973e-01 6.443004999999999427e-01 9.905250000000000554e+00 1.131769999999999925e+02 1.858855000000000018e+03
1.229999999999999982e-01 6.443164999999999587e-01 9.961224999999998886e+00 1.133119999999999976e+02 1.858890000000000100e+03
1.239999999999999991e-01 6.443220000000000613e-01 9.986254999999999882e+00 1.133805000000000121e+02 1.858909999999999854e+03
1.250000000000000000e-01 6.443174999999999875e-01 9.981034999999998547e+00 1.133880000000000052e+02 1.858924999999999955e+03
1.260000000000000009e-01 6.443045000000000577e-01 9.948015000000001606e+00 1.133435000000000059e+02 1.858920000000000073e+03
1.270000000000000018e-01 6.442864999999999842e-01 9.891135000000000232e+00 1.132574999999999932e+02 1.858909999999999854e+03
1.280000000000000027e-01 6.442645000000000177e-01 9.815540000000000376e+00 1.131435000000000031e+02 1.858884999999999991e+03
1.290000000000000036e-01 6.442415000000000225e-01 9.727149999999999963e+00 1.130160000000000053e+02 1.858860000000000127e+03
1.300000000000000044e-01 6.442200000000000149e-01 9.632260000000000488e+00 1.128884999999999934e+02 1.858840000000000146e+03
1.310000000000000053e-01 6.442015000000000935e-01 9.537105000000000388e+00 1.127754999999999939e+02 1.858820000000000164e+03
1.320000000000000062e-01 6.441885000000000527e-01 9.447329999999999117e+00 1.126875000000000000e+02 1.858795000000000073e+03
1.330000000000000071e-01 6.441820000000000324e-01 9.367900000000000560e+00 1.126345000000000027e+02 1.858785000000000082e+03
1.340000000000000080e-01 6.441839999999999788e-01 9.302559999999999718e+00 1.126235000000000070e+02 1.858780000000000200e+03
1.350000000000000089e-01 6.441930000000000156e-01 9.253824999999999079e+00 1.126574999999999989e+02 1.858784999999999854e+03
1.360000000000000098e-01 6.442105000000000192e-01 9.222770000000000579e+00 1.127365000000000066e+02 1.858804999999999836e+03
1.370000000000000107e-01 6.442350000000000021e-01 9.209175000000000111e+00 1.128584999999999923e+02 1.858824999999999818e+03
1.380000000000000115e-01 6.442649999999999766e-01 9.211570000000000036e+00 1.130175000000000125e+02 1.858855000000000018e+03
1.390000000000000124e-01 6.442995000000000250e-01 9.227605000000000501e+00 1.132065000000000055e+02 1.858900000000000091e+03
1.400000000000000133e-01 6.443369999999999376e-01 9.253989999999999938e+00 1.134159999999999968e+02 1.858944999999999936e+03
1.410000000000000142e-01 6.443754999999999900e-01 9.287279999999999092e+00 1.136359999999999957e+02 1.858994999999999891e+03
1.420000000000000151e-01 6.444140000000000423e-01 9.323599999999999000e+00 1.138580000000000041e+02 1.859045000000000073e+03
1.430000000000000160e-01 6.444505000000000372e-01 9.359519999999999840e+00 1.140724999999999909e+02 1.859090000000000146e+03
1.440000000000000169e-01 6.444834999999999869e-01 9.391684999999998951e+00 1.142715000000000032e+02 1.859139999999999873e+03
1.450000000000000178e-01 6.445130000000000026e-01 9.417545000000000499e+00 1.144495000000000005e+02 1.859174999999999955e+03
1.459999999999999909e-01 6.445374999999999854e-01 9.435100000000000264e+00 1.146020000000000039e+02 1.859214999999999918e+03
1.469999999999999918e-01 6.445575000000000054e-01 9.443189999999999529e+00 1.147274999999999920e+02 1.859250000000000000e+03
1.479999999999999927e-01 6.445730000000000626e-01 9.441520000000000579e+00 1.148259999999999934e+02 1.859275000000000091e+03
1.489999999999999936e-01 6.445840000000000458e-01 9.430440000000000822e+00 1.149004999999999939e+02 1.859295000000000073e+03
1.499999999999999944e-01 6.445925000000000127e-01 9.411194999999999311e+00 1.149544999999999959e+02 1.859315000000000055e+03
1.509999999999999953e-01 6.445985000000000742e-01 9.385719999999999175e+00 1.149935000000000116e+02 1.859324999999999818e+03
1.519999999999999962e-01 6.446035000000001070e-01 9.356400000000000716e+00 1.150250000000000057e+02 1.859329999999999927e+03
1.529999999999999971e-01 6.446089999999999876e-01 9.326159999999999783e+00 1.150560000000000116e+02 1.859340000000000146e+03
1.539999999999999980e-01 6.446169999999999956e-01 9.298094999999999999e+00 1.150949999999999989e+02 1.859349999999999909e+03
1.549999999999999989e-01 6.446270000000000611e-01 9.275584999999999525e+00 1.151500000000000057e+02 1.859365000000000009e+03
1.559999999999999998e-01 6.446419999999999373e-01 9.261730000000000018e+00 1.152284999999999968e+02 1.859384999999999991e+03
1.570000000000000007e-01 6.446629999999999860e-01 9.259475000000000122e+00 1.153379999999999939e+02 1.859405000000000200e+03
1.580000000000000016e-01 6.446899999999999853e-01 9.271314999999999529e+00 1.154844999999999970e+02 1.859440000000000055e+03
1.590000000000000024e-01 6.447249999999999925e-01 9.299229999999999663e+00 1.156724999999999994e+02 1.859480000000000018e+03
