# t [s], A [cm^2], U [cm/s], P [cPa], c [cm/s]
1.000000000000000021e-03 1.703264999999999918e-01 4.120575000000000210e-01 9.132229999999999848e+01 2.334980000000000018e+03
2.000000000000000042e-03 1.702690000000000037e-01 1.961620499999999767e+00 8.730905000000001337e+01 2.334409999999999854e+03
3.000000000000000062e-03 1.701405000000000001e-01 3.856909499999999991e+00 8.187800000000000011e+01 2.333170000000000073e+03
4.000000000000000083e-03 1.699819999999999942e-01 6.014839999999999520e+00 7.652279999999998950e+01 2.331659999999999854e+03
5.000000000000000104e-03 1.698259999999999770e-01 8.286780000000000257e+00 7.223095000000000709e+01 2.330194999999999709e+03
6.000000000000000125e-03 1.696819999999999995e-01 1.034680000000000000e+01 6.877280000000000371e+01 2.328859999999999673e+03
7.000000000000000146e-03 1.695490000000000053e-01 1.201706499999999878e+01 6.562115000000000009e+01 2.327664999999999964e+03
8.000000000000000167e-03 1.694335000000000147e-01 1.336470999999999876e+01 6.287380000000000280e+01 2.326639999999999873e+03
9.000000000000001055e-03 1.693385000000000029e-01 1.444299999999999962e+01 6.068540000000000134e+01 2.325809999999999945e+03
1.000000000000000194e-02 1.692629999999999968e-01 1.526880000000000059e+01 5.899849999999999994e+01 2.325154999999999745e+03
1.099999999999999936e-02 1.692049999999999943e-01 1.585715000000000074e+01 5.770364999999999611e+01 2.324654999999999745e+03
1.200000000000000025e-02 1.691575000000000162e-01 1.620210000000000150e+01 5.660025000000000261e+01 2.324260000000000218e+03
1.300000000000000114e-02 1.691170000000000173e-01 1.635314999999999941e+01 5.556719999999999970e+01 2.323920000000000073e+03
1.400000000000000203e-02 1.690875000000000017e-01 1.650484999999999758e+01 5.493094999999999573e+01 2.323684999999999945e+03
1.499999999999999944e-02 1.690834999999999977e-01 1.692249999999999943e+01 5.541785000000000139e+01 2.323659999999999854e+03
1.600000000000000033e-02 1.691179999999999906e-01 1.775254999999999939e+01 5.758449999999999847e+01 2.323960000000000036e+03
1.700000000000000122e-02 1.691920000000000091e-01 1.889789999999999992e+01 6.126464999999999606e+01 2.324605000000000018e+03
1.800000000000000211e-02 1.692909999999999970e-01 2.005619999999999692e+01 6.550740000000000407e+01 2.325480000000000018e+03
1.900000000000000300e-02 1.693874999999999964e-01 2.087559999999999860e+01 6.901385000000000502e+01 2.326350000000000364e+03
2.000000000000000042e-02 1.694559999999999955e-01 2.112194999999999823e+01 7.074944999999999595e+01 2.326994999999999891e+03
2.100000000000000130e-02 1.694809999999999928e-01 2.077024999999999721e+01 7.038315000000000055e+01 2.327250000000000000e+03
2.200000000000000219e-02 1.694640000000000035e-01 1.998679999999999879e+01 6.834870000000000800e+01 2.327140000000000327e+03
2.299999999999999961e-02 1.694180000000000130e-01 1.902590000000000003e+01 6.554704999999999870e+01 2.326744999999999891e+03
2.400000000000000050e-02 1.693620000000000125e-01 1.810519999999999996e+01 6.288195000000000334e+01 2.326255000000000109e+03
2.500000000000000139e-02 1.693095000000000017e-01 1.732240000000000180e+01 6.087980000000000302e+01 2.325779999999999745e+03
2.600000000000000228e-02 1.692675000000000152e-01 1.664349999999999952e+01 5.955169999999999675e+01 2.325399999999999636e+03
2.700000000000000316e-02 1.692319999999999935e-01 1.595260000000000034e+01 5.851115000000000066e+01 2.325085000000000036e+03
2.800000000000000058e-02 1.691954999999999987e-01 1.513070000000000093e+01 5.724689999999999657e+01 2.324755000000000109e+03
2.900000000000000147e-02 1.691495000000000082e-01 1.412774999999999892e+01 5.541495000000000459e+01 2.324345000000000255e+03
3.000000000000000236e-02 1.690900000000000181e-01 1.300100000000000122e+01 5.303239999999999554e+01 2.323835000000000036e+03
3.099999999999999978e-02 1.690240000000000076e-01 1.190467500000000101e+01 5.050144999999999840e+01 2.323250000000000000e+03
3.200000000000000067e-02 1.689630000000000021e-01 1.103763499999999986e+01 4.846285000000000309e+01 2.322699999999999818e+03
3.300000000000000155e-02 1.689220000000000166e-01 1.057092000000000098e+01 4.754484999999999673e+01 2.322319999999999709e+03
3.400000000000000244e-02 1.689124999999999932e-01 1.058544999999999980e+01 4.811764999999999759e+01 2.322210000000000036e+03
3.500000000000000333e-02 1.689380000000000048e-01 1.104354999999999976e+01 5.014939999999999998e+01 2.322404999999999745e+03
3.600000000000000422e-02 1.689944999999999919e-01 1.179974999999999952e+01 5.320725000000000193e+01 2.322890000000000327e+03
3.700000000000000511e-02 1.690699999999999981e-01 1.264104999999999990e+01 5.658299999999999841e+01 2.323539999999999964e+03
3.799999999999999906e-02 1.691459999999999908e-01 1.334084999999999965e+01 5.948550000000000182e+01 2.324215000000000146e+03
3.899999999999999994e-02 1.692049999999999943e-01 1.370669999999999966e+01 6.122990000000000066e+01 2.324750000000000000e+03
4.000000000000000083e-02 1.692339999999999955e-01 1.361289999999999978e+01 6.137239999999999895e+01 2.325019999999999982e+03
4.100000000000000172e-02 1.692224999999999979e-01 1.301169999999999938e+01 5.976500000000000057e+01 2.324945000000000164e+03
4.200000000000000261e-02 1.691699999999999871e-01 1.192561500000000052e+01 5.653190000000000026e+01 2.324489999999999782e+03
4.300000000000000350e-02 1.690780000000000061e-01 1.042791000000000068e+01 5.199074999999999847e+01 2.323699999999999818e+03
4.400000000000000439e-02 1.689554999999999807e-01 8.619099999999999540e+00 4.655264999999999986e+01 2.322619999999999891e+03
4.499999999999999833e-02 1.688109999999999888e-01 6.606634999999999813e+00 4.063299999999999557e+01 2.321345000000000255e+03
4.599999999999999922e-02 1.686535000000000117e-01 4.492419499999999566e+00 3.459364999999999668e+01 2.319944999999999709e+03
4.700000000000000011e-02 1.684924999999999895e-01 2.368299999999999628e+00 2.872155000000000058e+01 2.318510000000000218e+03
4.800000000000000100e-02 1.683334999999999970e-01 3.172899999999998499e-01 2.323730000000000118e+01 2.317100000000000364e+03
4.900000000000000189e-02 1.681845000000000145e-01 -1.582764999999999977e+00 1.831834999999999880e+01 2.315765000000000327e+03
5.000000000000000278e-02 1.680495000000000183e-01 -3.256136500000000211e+00 1.412323999999999913e+01 2.314554999999999836e+03
5.100000000000000366e-02 1.679344999999999866e-01 -4.628935000000000244e+00 1.080625000000000036e+01 2.313514999999999873e+03
5.200000000000000455e-02 1.678430000000000200e-01 -5.632064999999999877e+00 8.517574999999999008e+00 2.312690000000000055e+03
5.300000000000000544e-02 1.677810000000000135e-01 -6.206654999999999589e+00 7.391610000000000014e+00 2.312109999999999673e+03
5.399999999999999939e-02 1.677504999999999968e-01 -6.310465000000000657e+00 7.527404999999999902e+00 2.311810000000000400e+03
5.500000000000000028e-02 1.677545000000000008e-01 -5.923429999999999751e+00 8.969184999999999519e+00 2.311819999999999709e+03
5.600000000000000117e-02 1.677939999999999987e-01 -5.050844999999999807e+00 1.169306999999999874e+01 2.312139999999999873e+03
5.700000000000000205e-02 1.678679999999999894e-01 -3.723615000000000119e+00 1.560319999999999929e+01 2.312765000000000327e+03
5.800000000000000294e-02 1.679740000000000122e-01 -1.995605000000000073e+00 2.053875000000000028e+01 2.313675000000000182e+03
5.900000000000000383e-02 1.681064999999999920e-01 6.116499999999991388e-02 2.628839999999999932e+01 2.314835000000000036e+03
6.000000000000000472e-02 1.682615000000000083e-01 2.362445000000000128e+00 3.260945000000000249e+01 2.316199999999999818e+03
6.099999999999999867e-02 1.684324999999999850e-01 4.817959500000000617e+00 3.924835000000000207e+01 2.317704999999999927e+03
6.199999999999999956e-02 1.686124999999999985e-01 7.337419999999999831e+00 4.595915000000000106e+01 2.319304999999999836e+03
6.300000000000000044e-02 1.687950000000000006e-01 9.835914999999999964e+00 5.251959999999999695e+01 2.320929999999999836e+03
6.400000000000000133e-02 1.689744999999999997e-01 1.223897999999999975e+01 5.874434999999999718e+01 2.322545000000000073e+03
6.500000000000000222e-02 1.691465000000000052e-01 1.448664999999999914e+01 6.449545000000000528e+01 2.324090000000000146e+03
6.600000000000000311e-02 1.693069999999999853e-01 1.653659999999999997e+01 6.968919999999999959e+01 2.325545000000000073e+03
6.700000000000000400e-02 1.694539999999999935e-01 1.836625000000000085e+01 7.429910000000000991e+01 2.326880000000000109e+03
6.800000000000000488e-02 1.695869999999999878e-01 1.997245000000000203e+01 7.835425000000000750e+01 2.328090000000000146e+03
6.900000000000000577e-02 1.697064999999999824e-01 2.137024999999999864e+01 8.193189999999999884e+01 2.329184999999999945e+03
7.000000000000000666e-02 1.698145000000000071e-01 2.258919999999999817e+01 8.514590000000001169e+01 2.330175000000000182e+03
7.100000000000000755e-02 1.699140000000000095e-01 2.366890000000000072e+01 8.813155000000000427e+01 2.331085000000000036e+03
7.200000000000000844e-02 1.700079999999999925e-01 2.465415000000000134e+01 9.102934999999999377e+01 2.331949999999999818e+03
7.300000000000000933e-02 1.701000000000000012e-01 2.558950000000000102e+01 9.396940000000000737e+01 2.332789999999999964e+03
7.399999999999999634e-02 1.701925000000000243e-01 2.651474999999999937e+01 9.705834999999999013e+01 2.333640000000000327e+03
7.499999999999999722e-02 1.702894999999999825e-01 2.746139999999999759e+01 1.003706999999999994e+02 2.334524999999999636e+03
7.599999999999999811e-02 1.703915000000000013e-01 2.845040000000000191e+01 1.039436000000000035e+02 2.335449999999999818e+03
7.699999999999999900e-02 1.704999999999999849e-01 2.949080000000000013e+01 1.077744999999999891e+02 2.336434999999999945e+03
7.799999999999999989e-02 1.706139999999999879e-01 3.057979999999999876e+01 1.118284999999999911e+02 2.337474999999999909e+03
7.900000000000000078e-02 1.707334999999999825e-01 3.170404999999999873e+01 1.160370000000000061e+02 2.338555000000000291e+03
8.000000000000000167e-02 1.708560000000000079e-01 3.284104999999999563e+01 1.203130000000000024e+02 2.339670000000000073e+03
8.100000000000000255e-02 1.709789999999999921e-01 3.396170000000000044e+01 1.245519999999999925e+02 2.340789999999999964e+03
8.200000000000000344e-02 1.711010000000000031e-01 3.503280000000000172e+01 1.286444999999999936e+02 2.341894999999999982e+03
8.300000000000000433e-02 1.712179999999999813e-01 3.601984999999999815e+01 1.324844999999999970e+02 2.342965000000000146e+03
8.400000000000000522e-02 1.713274999999999937e-01 3.688949999999999818e+01 1.359724999999999966e+02 2.343970000000000255e+03
8.500000000000000611e-02 1.714269999999999960e-01 3.761185000000000400e+01 1.390269999999999868e+02 2.344885000000000218e+03
8.600000000000000699e-02 1.715145000000000142e-01 3.816284999999999883e+01 1.415840000000000032e+02 2.345694999999999709e+03
8.700000000000000788e-02 1.715889999999999915e-01 3.852559999999999718e+01 1.436045000000000016e+02 2.346380000000000109e+03
8.800000000000000877e-02 1.716484999999999816e-01 3.869134999999999991e+01 1.450724999999999909e+02 2.346940000000000055e+03
8.899999999999999578e-02 1.716929999999999845e-01 3.866015000000000157e+01 1.459979999999999905e+02 2.347355000000000018e+03
8.999999999999999667e-02 1.717230000000000145e-01 3.844044999999999845e+01 1.464149999999999920e+02 2.347644999999999982e+03
9.099999999999999756e-02 1.717389999999999750e-01 3.804869999999999663e+01 1.463750000000000000e+02 2.347800000000000182e+03
9.199999999999999845e-02 1.717425000000000201e-01 3.750769999999999982e+01 1.459490000000000123e+02 2.347845000000000255e+03
9.299999999999999933e-02 1.717354999999999854e-01 3.684539999999999793e+01 1.452164999999999964e+02 2.347795000000000073e+03
9.400000000000000022e-02 1.717199999999999838e-01 3.609284999999999854e+01 1.442644999999999982e+02 2.347664999999999964e+03
9.500000000000000111e-02 1.716985000000000039e-01 3.528255000000000052e+01 1.431794999999999902e+02 2.347475000000000364e+03
9.600000000000000200e-02 1.716729999999999923e-01 3.444650000000000034e+01 1.420450000000000159e+02 2.347244999999999891e+03
9.700000000000000289e-02 1.716449999999999920e-01 3.361454999999999416e+01 1.409350000000000023e+02 2.347000000000000000e+03
9.800000000000000377e-02 1.716175000000000062e-01 3.281300000000000239e+01 1.399130000000000109e+02 2.346750000000000000e+03
9.900000000000000466e-02 1.715920000000000223e-01 3.206319999999999482e+01 1.390289999999999964e+02 2.346519999999999982e+03
1.000000000000000056e-01 1.715694999999999859e-01 3.138084999999999880e+01 1.383134999999999764e+02 2.346314999999999600e+03
1.010000000000000064e-01 1.715510000000000090e-01 3.077499999999999858e+01 1.377819999999999823e+02 2.346140000000000327e+03
1.020000000000000073e-01 1.715375000000000094e-01 3.024814999999999898e+01 1.374325000000000045e+02 2.346010000000000218e+03
1.030000000000000082e-01 1.715274999999999994e-01 2.979615000000000080e+01 1.372445000000000164e+02 2.345914999999999964e+03
1.040000000000000091e-01 1.715220000000000078e-01 2.940889999999999915e+01 1.371834999999999809e+02 2.345855000000000018e+03
1.050000000000000100e-01 1.715180000000000038e-01 2.907114999999999938e+01 1.372015000000000100e+02 2.345820000000000164e+03
1.059999999999999970e-01 1.715170000000000028e-01 2.876364999999999839e+01 1.372425000000000068e+02 2.345800000000000182e+03
1.069999999999999979e-01 1.715160000000000018e-01 2.846475000000000222e+01 1.372454999999999927e+02 2.345784999999999854e+03
1.079999999999999988e-01 1.715129999999999988e-01 2.815209999999999724e+01 1.371490000000000009e+02 2.345765000000000327e+03
1.089999999999999997e-01 1.715079999999999938e-01 2.780409999999999826e+01 1.368949999999999818e+02 2.345715000000000146e+03
1.100000000000000006e-01 1.714979999999999838e-01 2.740160000000000196e+01 1.364360000000000070e+02 2.345625000000000000e+03
1.110000000000000014e-01 1.714829999999999965e-01 2.692929999999999779e+01 1.357355000000000018e+02 2.345484999999999673e+03
1.120000000000000023e-01 1.714609999999999745e-01 2.637684999999999746e+01 1.347715000000000032e+02 2.345295000000000073e+03
1.130000000000000032e-01 1.714320000000000010e-01 2.573964999999999748e+01 1.335395000000000039e+02 2.345030000000000200e+03
1.140000000000000041e-01 1.713965000000000072e-01 2.501935000000000286e+01 1.320525000000000091e+02 2.344710000000000036e+03
1.150000000000000050e-01 1.713540000000000063e-01 2.422339999999999804e+01 1.303389999999999986e+02 2.344324999999999818e+03
1.160000000000000059e-01 1.713054999999999994e-01 2.336489999999999867e+01 1.284430000000000121e+02 2.343889999999999873e+03
1.170000000000000068e-01 1.712520000000000153e-01 2.246144999999999925e+01 1.264180000000000064e+02 2.343409999999999854e+03
1.180000000000000077e-01 1.711955000000000005e-01 2.153405000000000058e+01 1.243284999999999911e+02 2.342900000000000091e+03
1.190000000000000085e-01 1.711374999999999980e-01 2.060580000000000211e+01 1.222394999999999925e+02 2.342369999999999891e+03
1.200000000000000094e-01 1.710794999999999955e-01 1.970015000000000072e+01 1.202185000000000059e+02 2.341845000000000255e+03
1.209999999999999964e-01 1.710234999999999950e-01 1.883964999999999890e+01 1.183255000000000052e+02 2.341335000000000036e+03
1.219999999999999973e-01 1.709704999999999975e-01 1.804475000000000051e+01 1.166134999999999877e+02 2.340850000000000364e+03
1.229999999999999982e-01 1.709229999999999916e-01 1.733234999999999815e+01 1.151260000000000048e+02 2.340414999999999964e+03
1.239999999999999991e-01 1.708810000000000051e-01 1.671535000000000082e+01 1.138915000000000077e+02 2.340029999999999745e+03
1.250000000000000000e-01 1.708459999999999979e-01 1.620185000000000031e+01 1.129269999999999925e+02 2.339704999999999927e+03
1.260000000000000009e-01 1.708175000000000110e-01 1.579534999999999911e+01 1.122359999999999900e+02 2.339439999999999600e+03
1.270000000000000018e-01 1.707970000000000044e-01 1.549474999999999980e+01 1.118094999999999999e+02 2.339244999999999891e+03
1.280000000000000027e-01 1.707825000000000037e-01 1.529450000000000109e+01 1.116274999999999977e+02 2.339109999999999673e+03
1.290000000000000036e-01 1.707754999999999967e-01 1.518544999999999945e+01 1.116620000000000061e+02 2.339039999999999964e+03
1.300000000000000044e-01 1.707744999999999957e-01 1.515569999999999951e+01 1.118770000000000095e+02 2.339019999999999982e+03
1.310000000000000053e-01 1.707779999999999854e-01 1.519095000000000084e+01 1.122340000000000089e+02 2.339045000000000073e+03
1.320000000000000062e-01 1.707855000000000067e-01 1.527585000000000015e+01 1.126914999999999907e+02 2.339105000000000018e+03
1.330000000000000071e-01 1.707960000000000034e-01 1.539434999999999931e+01 1.132085000000000008e+02 2.339199999999999818e+03
1.340000000000000080e-01 1.708080000000000154e-01 1.553089999999999904e+01 1.137460000000000093e+02 2.339305000000000291e+03
1.350000000000000089e-01 1.708215000000000150e-01 1.567079999999999984e+01 1.142690000000000055e+02 2.339420000000000073e+03
1.360000000000000098e-01 1.708345000000000002e-01 1.580100000000000016e+01 1.147469999999999999e+02 2.339534999999999854e+03
1.370000000000000107e-01 1.708459999999999979e-01 1.591054999999999886e+01 1.151564999999999941e+02 2.339644999999999982e+03
1.380000000000000115e-01 1.708564999999999945e-01 1.599099999999999966e+01 1.154789999999999992e+02 2.339739999999999782e+03
1.390000000000000124e-01 1.708645000000000025e-01 1.603659999999999997e+01 1.157049999999999983e+02 2.339809999999999945e+03
1.400000000000000133e-01 1.708699999999999941e-01 1.604460000000000264e+01 1.158324999999999960e+02 2.339869999999999891e+03
1.410000000000000142e-01 1.708739999999999981e-01 1.601469999999999771e+01 1.158650000000000091e+02 2.339900000000000091e+03
1.420000000000000151e-01 1.708744999999999847e-01 1.594950000000000045e+01 1.158125000000000000e+02 2.339909999999999854e+03
1.430000000000000160e-01 1.708739999999999981e-01 1.585360000000000014e+01 1.156914999999999907e+02 2.339904999999999745e+03
1.440000000000000169e-01 1.708705000000000085e-01 1.573355000000000103e+01 1.155215000000000032e+02 2.339885000000000218e+03
1.450000000000000178e-01 1.708669999999999911e-01 1.559669999999999845e+01 1.153230000000000075e+02 2.339849999999999909e+03
1.459999999999999909e-01 1.708625000000000005e-01 1.545139999999999958e+01 1.151189999999999998e+02 2.339805000000000291e+03
1.469999999999999918e-01 1.708574999999999955e-01 1.530570000000000164e+01 1.149309999999999974e+02 2.339760000000000218e+03
1.479999999999999927e-01 1.708530000000000049e-01 1.516710000000000136e+01 1.147764999999999986e+02 2.339724999999999909e+03
1.489999999999999936e-01 1.708494999999999875e-01 1.504194999999999993e+01 1.146709999999999923e+02 2.339690000000000055e+03
1.499999999999999944e-01 1.708469999999999989e-01 1.493529999999999980e+01 1.146250000000000000e+02 2.339675000000000182e+03
1.509999999999999953e-01 1.708469999999999989e-01 1.485045000000000037e+01 1.146444999999999936e+02 2.339664999999999964e+03
1.519999999999999962e-01 1.708474999999999855e-01 1.478900000000000148e+01 1.147290000000000134e+02 2.339670000000000073e+03
1.529999999999999971e-01 1.708500000000000019e-01 1.475090000000000146e+01 1.148750000000000000e+02 2.339694999999999709e+03
1.539999999999999980e-01 1.708544999999999925e-01 1.473454999999999870e+01 1.150759999999999934e+02 2.339734999999999673e+03
1.549999999999999989e-01 1.708600000000000119e-01 1.473709999999999987e+01 1.153199999999999932e+02 2.339779999999999745e+03
1.559999999999999998e-01 1.708665000000000045e-01 1.475469999999999970e+01 1.155960000000000036e+02 2.339840000000000146e+03
1.570000000000000007e-01 1.708739999999999981e-01 1.478289999999999971e+01 1.158894999999999982e+02 2.339904999999999745e+03
1.580000000000000016e-01 1.708820000000000061e-01 1.481685000000000052e+01 1.161875000000000000e+02 2.339980000000000018e+03
1.590000000000000024e-01 1.708899999999999864e-01 1.485174999999999912e+01 1.164764999999999873e+02 2.340050000000000182e+03
