# t [s], A [cm^2], U [cm/s], P [cPa], c [cm/s]
1.000000000000000021e-03 1.448224999999999929e-01 3.922820000000000196e-01 9.611349999999998772e+01 1.875025000000000091e+03
2.000000000000000042e-03 1.447904999999999887e-01 1.995748500000000147e+00 9.286975000000001046e+01 1.874710000000000036e+03
3.000000000000000062e-03 1.446890000000000120e-01 3.915816999999999659e+00 8.866559999999999775e+01 1.873755000000000109e+03
4.000000000000000083e-03 1.445429999999999771e-01 6.030960000000000321e+00 8.418170000000000641e+01 1.872409999999999854e+03
5.000000000000000104e-03 1.443794999999999940e-01 8.280065000000000452e+00 8.017214999999998781e+01 1.870904999999999973e+03
6.000000000000000125e-03 1.442164999999999975e-01 1.052357000000000120e+01 7.690190000000001191e+01 1.869424999999999955e+03
7.000000000000000146e-03 1.440609999999999946e-01 1.258573999999999948e+01 7.419190000000000396e+01 1.868030000000000200e+03
8.000000000000000167e-03 1.439165000000000028e-01 1.437345000000000006e+01 7.180064999999999031e+01 1.866750000000000000e+03
9.000000000000001055e-03 1.437844999999999818e-01 1.589985000000000070e+01 6.969355000000000189e+01 1.865599999999999909e+03
1.000000000000000194e-02 1.436689999999999912e-01 1.719914999999999949e+01 6.792715000000001169e+01 1.864605000000000018e+03
1.099999999999999936e-02 1.435699999999999754e-01 1.828464999999999918e+01 6.649385000000000900e+01 1.863764999999999873e+03
1.200000000000000025e-02 1.434874999999999901e-01 1.916469999999999985e+01 6.533910000000000196e+01 1.863069999999999936e+03
1.300000000000000114e-02 1.434195000000000053e-01 1.984909999999999997e+01 6.440245000000000175e+01 1.862500000000000000e+03
1.400000000000000203e-02 1.433629999999999904e-01 2.034645000000000081e+01 6.361560000000000059e+01 1.862035000000000082e+03
1.499999999999999944e-02 1.433155000000000123e-01 2.068014999999999759e+01 6.293025000000000091e+01 1.861654999999999973e+03
1.600000000000000033e-02 1.432769999999999877e-01 2.091124999999999901e+01 6.238890000000000668e+01 1.861349999999999909e+03
1.700000000000000122e-02 1.432490000000000152e-01 2.113804999999999978e+01 6.215725000000000477e+01 1.861134999999999991e+03
1.800000000000000211e-02 1.432379999999999765e-01 2.146240000000000236e+01 6.246144999999999925e+01 1.861059999999999945e+03
1.900000000000000300e-02 1.432485000000000008e-01 2.194460000000000122e+01 6.346359999999999957e+01 1.861160000000000082e+03
2.000000000000000042e-02 1.432815000000000061e-01 2.257495000000000118e+01 6.515399999999999636e+01 1.861454999999999927e+03
2.100000000000000130e-02 1.433355000000000046e-01 2.327595000000000169e+01 6.732240000000000180e+01 1.861920000000000073e+03
2.200000000000000219e-02 1.434030000000000027e-01 2.393070000000000164e+01 6.961494999999999322e+01 1.862500000000000000e+03
2.299999999999999961e-02 1.434725000000000028e-01 2.442184999999999917e+01 7.164279999999999404e+01 1.863110000000000127e+03
2.400000000000000050e-02 1.435349999999999959e-01 2.466669999999999874e+01 7.309569999999999368e+01 1.863664999999999964e+03
2.500000000000000139e-02 1.435829999999999884e-01 2.463615000000000066e+01 7.381944999999998913e+01 1.864089999999999918e+03
2.600000000000000228e-02 1.436119999999999897e-01 2.435544999999999760e+01 7.383740000000000236e+01 1.864365000000000009e+03
2.700000000000000316e-02 1.436230000000000007e-01 2.388830000000000098e+01 7.331645000000000323e+01 1.864480000000000018e+03
2.800000000000000058e-02 1.436195000000000110e-01 2.331190000000000140e+01 7.249519999999999698e+01 1.864465000000000146e+03
2.900000000000000147e-02 1.436069999999999847e-01 2.269355000000000189e+01 7.160429999999999495e+01 1.864369999999999891e+03
3.000000000000000236e-02 1.435899999999999954e-01 2.207444999999999879e+01 7.080365000000000464e+01 1.864240000000000009e+03
3.099999999999999978e-02 1.435734999999999928e-01 2.146565000000000012e+01 7.015440000000000964e+01 1.864095000000000027e+03
3.200000000000000067e-02 1.435569999999999902e-01 2.085385000000000133e+01 6.962674999999998704e+01 1.863960000000000036e+03
3.300000000000000155e-02 1.435410000000000019e-01 2.021450000000000102e+01 6.913405000000000200e+01 1.863825000000000045e+03
3.400000000000000244e-02 1.435239999999999849e-01 1.952635000000000076e+01 6.857974999999999000e+01 1.863674999999999955e+03
3.500000000000000333e-02 1.435029999999999917e-01 1.878374999999999773e+01 6.790055000000000973e+01 1.863500000000000000e+03
3.600000000000000422e-02 1.434789999999999954e-01 1.800309999999999988e+01 6.709524999999999295e+01 1.863305000000000064e+03
3.700000000000000511e-02 1.434515000000000096e-01 1.722265000000000157e+01 6.623250000000000171e+01 1.863070000000000164e+03
3.799999999999999906e-02 1.434239999999999959e-01 1.649569999999999936e+01 6.543725000000000591e+01 1.862829999999999927e+03
3.899999999999999994e-02 1.433989999999999987e-01 1.587920000000000087e+01 6.485994999999999777e+01 1.862619999999999891e+03
4.000000000000000083e-02 1.433820000000000094e-01 1.542064999999999841e+01 6.463830000000000098e+01 1.862470000000000027e+03
4.100000000000000172e-02 1.433754999999999891e-01 1.514765000000000050e+01 6.486175000000000068e+01 1.862409999999999854e+03
4.200000000000000261e-02 1.433824999999999961e-01 1.506074999999999875e+01 6.554724999999999113e+01 1.862460000000000036e+03
4.300000000000000350e-02 1.434035000000000171e-01 1.513305000000000078e+01 6.663185000000000002e+01 1.862625000000000000e+03
4.400000000000000439e-02 1.434354999999999936e-01 1.531439999999999912e+01 6.798214999999999009e+01 1.862889999999999873e+03
4.499999999999999833e-02 1.434759999999999924e-01 1.553954999999999842e+01 6.941740000000000066e+01 1.863230000000000018e+03
4.599999999999999922e-02 1.435184999999999933e-01 1.573789999999999978e+01 7.073875000000001023e+01 1.863590000000000146e+03
4.700000000000000011e-02 1.435585000000000055e-01 1.584314999999999962e+01 7.175950000000000273e+01 1.863934999999999945e+03
4.800000000000000100e-02 1.435905000000000098e-01 1.580079999999999885e+01 7.232939999999999259e+01 1.864204999999999927e+03
4.900000000000000189e-02 1.436089999999999867e-01 1.557280000000000086e+01 7.235040000000000759e+01 1.864369999999999891e+03
5.000000000000000278e-02 1.436115000000000030e-01 1.513954999999999984e+01 7.178194999999999482e+01 1.864400000000000091e+03
5.100000000000000366e-02 1.435960000000000014e-01 1.449869999999999948e+01 7.063765000000000782e+01 1.864269999999999982e+03
5.200000000000000455e-02 1.435619999999999952e-01 1.366254999999999953e+01 6.897480000000000189e+01 1.863990000000000009e+03
5.300000000000000544e-02 1.435120000000000007e-01 1.265445000000000064e+01 6.688105000000000189e+01 1.863565000000000055e+03
5.399999999999999939e-02 1.434460000000000179e-01 1.150510000000000055e+01 6.445994999999999209e+01 1.863005000000000109e+03
5.500000000000000028e-02 1.433685000000000098e-01 1.024922000000000111e+01 6.181995000000000573e+01 1.862340000000000146e+03
5.600000000000000117e-02 1.432809999999999917e-01 8.923555000000000348e+00 5.906579999999999586e+01 1.861594999999999800e+03
5.700000000000000205e-02 1.431880000000000097e-01 7.565464999999999662e+00 5.629410000000000025e+01 1.860800000000000182e+03
5.800000000000000294e-02 1.430925000000000114e-01 6.212159999999999904e+00 5.359259999999999735e+01 1.859985000000000127e+03
5.900000000000000383e-02 1.429974999999999996e-01 4.900704999999999423e+00 5.104090000000000060e+01 1.859164999999999964e+03
6.000000000000000472e-02 1.429054999999999909e-01 3.667837500000000084e+00 4.871264999999999645e+01 1.858375000000000000e+03
6.099999999999999867e-02 1.428194999999999881e-01 2.549741999999999731e+00 4.667690000000000339e+01 1.857634999999999991e+03
6.199999999999999956e-02 1.427424999999999944e-01 1.581501999999999963e+00 4.499930000000000518e+01 1.856970000000000027e+03
6.300000000000000044e-02 1.426764999999999839e-01 7.961450000000001026e-01 4.374070000000000391e+01 1.856400000000000091e+03
6.400000000000000133e-02 1.426244999999999874e-01 2.233849999999999447e-01 4.295605000000000473e+01 1.855934999999999945e+03
6.500000000000000222e-02 1.425879999999999925e-01 -1.117265000000000064e-01 4.269079999999999586e+01 1.855615000000000009e+03
6.600000000000000311e-02 1.425690000000000013e-01 -1.902664999999999773e-01 4.297830000000000439e+01 1.855440000000000055e+03
6.700000000000000400e-02 1.425684999999999869e-01 -5.749999999999921840e-04 4.383639999999999759e+01 1.855420000000000073e+03
6.800000000000000488e-02 1.425879999999999925e-01 4.609269999999999756e-01 4.526560000000000628e+01 1.855570000000000164e+03
6.900000000000000577e-02 1.426274999999999904e-01 1.189402000000000070e+00 4.724804999999999922e+01 1.855894999999999982e+03
7.000000000000000666e-02 1.426874999999999949e-01 2.171812749999999959e+00 4.974779999999999802e+01 1.856384999999999991e+03
7.100000000000000755e-02 1.427650000000000030e-01 3.387596999999999969e+00 5.271274999999999977e+01 1.857039999999999964e+03
7.200000000000000844e-02 1.428605000000000014e-01 4.809800000000000075e+00 5.607760000000000389e+01 1.857840000000000146e+03
7.300000000000000933e-02 1.429710000000000147e-01 6.406464999999999854e+00 5.976749999999999829e+01 1.858775000000000091e+03
7.399999999999999634e-02 1.430945000000000134e-01 8.142250000000000654e+00 6.370199999999999818e+01 1.859825000000000045e+03
7.499999999999999722e-02 1.432284999999999808e-01 9.980055000000000121e+00 6.779955000000001064e+01 1.860970000000000027e+03
7.599999999999999811e-02 1.433705000000000118e-01 1.188273500000000027e+01 7.198140000000000782e+01 1.862184999999999945e+03
7.699999999999999900e-02 1.435174999999999923e-01 1.381452999999999953e+01 7.617504999999999882e+01 1.863440000000000055e+03
7.799999999999999989e-02 1.436665000000000025e-01 1.574249999999999972e+01 8.031729999999998881e+01 1.864735000000000127e+03
7.900000000000000078e-02 1.438165000000000138e-01 1.763759999999999906e+01 8.435634999999999195e+01 1.866025000000000091e+03
8.000000000000000167e-02 1.439644999999999953e-01 1.947565000000000168e+01 8.825355000000000416e+01 1.867315000000000055e+03
8.100000000000000255e-02 1.441099999999999881e-01 2.123780000000000001e+01 9.198375000000000057e+01 1.868575000000000045e+03
8.200000000000000344e-02 1.442505000000000037e-01 2.291080000000000183e+01 9.553525000000000489e+01 1.869804999999999836e+03
8.300000000000000433e-02 1.443865000000000010e-01 2.448704999999999998e+01 9.890909999999999513e+01 1.870990000000000009e+03
8.400000000000000522e-02 1.445174999999999932e-01 2.596395000000000053e+01 1.021169500000000028e+02 1.872139999999999873e+03
8.500000000000000611e-02 1.446435000000000082e-01 2.734369999999999834e+01 1.051793499999999995e+02 1.873244999999999891e+03
8.600000000000000699e-02 1.447644999999999904e-01 2.863199999999999790e+01 1.081229999999999905e+02 1.874315000000000055e+03
8.700000000000000788e-02 1.448820000000000108e-01 2.983715000000000117e+01 1.109780000000000086e+02 1.875349999999999909e+03
8.800000000000000877e-02 1.449965000000000004e-01 3.096920000000000073e+01 1.137750000000000057e+02 1.876360000000000127e+03
8.899999999999999578e-02 1.451085000000000014e-01 3.203875000000000028e+01 1.165414999999999992e+02 1.877355000000000018e+03
8.999999999999999667e-02 1.452189999999999870e-01 3.305570000000000164e+01 1.193019999999999925e+02 1.878329999999999927e+03
9.099999999999999756e-02 1.453295000000000003e-01 3.402890000000000015e+01 1.220755000000000052e+02 1.879309999999999945e+03
9.199999999999999845e-02 1.454389999999999850e-01 3.496509999999999962e+01 1.248710000000000093e+02 1.880285000000000082e+03
9.299999999999999933e-02 1.455500000000000127e-01 3.586870000000000402e+01 1.276924999999999955e+02 1.881259999999999991e+03
9.400000000000000022e-02 1.456604999999999983e-01 3.674119999999999919e+01 1.305344999999999800e+02 1.882240000000000009e+03
9.500000000000000111e-02 1.457714999999999983e-01 3.758180000000000121e+01 1.333849999999999909e+02 1.883224999999999909e+03
9.600000000000000200e-02 1.458829999999999849e-01 3.838660000000000139e+01 1.362255000000000109e+02 1.884215000000000146e+03
9.700000000000000289e-02 1.459940000000000127e-01 3.914965000000000117e+01 1.390324999999999989e+02 1.885200000000000045e+03
9.800000000000000377e-02 1.461029999999999829e-01 3.986325000000000074e+01 1.417780000000000200e+02 1.886170000000000073e+03
9.900000000000000466e-02 1.462105000000000210e-01 4.051810000000000400e+01 1.444320000000000164e+02 1.887125000000000000e+03
1.000000000000000056e-01 1.463150000000000006e-01 4.110415000000000418e+01 1.469650000000000034e+02 1.888049999999999955e+03
1.010000000000000064e-01 1.464150000000000174e-01 4.161110000000000042e+01 1.493460000000000036e+02 1.888940000000000055e+03
1.020000000000000073e-01 1.465100000000000013e-01 4.202894999999999470e+01 1.515475000000000136e+02 1.889795000000000073e+03
1.030000000000000082e-01 1.465984999999999927e-01 4.234839999999999804e+01 1.535455000000000041e+02 1.890585000000000036e+03
1.040000000000000091e-01 1.466799999999999771e-01 4.256154999999999688e+01 1.553195000000000050e+02 1.891315000000000055e+03
1.050000000000000100e-01 1.467539999999999956e-01 4.266199999999999903e+01 1.568524999999999920e+02 1.891980000000000018e+03
1.059999999999999970e-01 1.468194999999999917e-01 4.264555000000000007e+01 1.581345000000000027e+02 1.892574999999999818e+03
1.069999999999999979e-01 1.468760000000000066e-01 4.250995000000000346e+01 1.591605000000000132e+02 1.893090000000000146e+03
1.079999999999999988e-01 1.469239999999999990e-01 4.225554999999999950e+01 1.599314999999999998e+02 1.893519999999999982e+03
1.089999999999999997e-01 1.469624999999999959e-01 4.188504999999999967e+01 1.604524999999999864e+02 1.893869999999999891e+03
1.100000000000000006e-01 1.469920000000000115e-01 4.140340000000000487e+01 1.607365000000000066e+02 1.894144999999999982e+03
1.110000000000000014e-01 1.470120000000000038e-01 4.081804999999999950e+01 1.607984999999999900e+02 1.894335000000000036e+03
1.120000000000000023e-01 1.470245000000000024e-01 4.013835000000000264e+01 1.606589999999999918e+02 1.894450000000000045e+03
1.130000000000000032e-01 1.470289999999999930e-01 3.937534999999999741e+01 1.603419999999999845e+02 1.894505000000000109e+03
1.140000000000000041e-01 1.470265000000000044e-01 3.854165000000000418e+01 1.598729999999999905e+02 1.894485000000000127e+03
1.150000000000000050e-01 1.470174999999999954e-01 3.765044999999999931e+01 1.592805000000000177e+02 1.894414999999999964e+03
1.160000000000000059e-01 1.470035000000000092e-01 3.671574999999999989e+01 1.585919999999999845e+02 1.894304999999999836e+03
1.170000000000000068e-01 1.469854999999999912e-01 3.575124999999999886e+01 1.578350000000000080e+02 1.894150000000000091e+03
1.180000000000000077e-01 1.469639999999999835e-01 3.477044999999999675e+01 1.570355000000000132e+02 1.893960000000000036e+03
1.190000000000000085e-01 1.469400000000000150e-01 3.378589999999999804e+01 1.562169999999999845e+02 1.893750000000000000e+03
1.200000000000000094e-01 1.469139999999999890e-01 3.280890000000000128e+01 1.554000000000000057e+02 1.893525000000000091e+03
1.209999999999999964e-01 1.468880000000000186e-01 3.184904999999999831e+01 1.546005000000000109e+02 1.893289999999999964e+03
1.219999999999999973e-01 1.468610000000000193e-01 3.091454999999999842e+01 1.538310000000000173e+02 1.893049999999999955e+03
1.229999999999999982e-01 1.468345000000000067e-01 3.001125000000000043e+01 1.531009999999999991e+02 1.892815000000000055e+03
1.239999999999999991e-01 1.468090000000000228e-01 2.914325000000000188e+01 1.524134999999999991e+02 1.892590000000000146e+03
1.250000000000000000e-01 1.467840000000000256e-01 2.831250000000000000e+01 1.517694999999999936e+02 1.892365000000000009e+03
1.260000000000000009e-01 1.467600000000000016e-01 2.751910000000000167e+01 1.511639999999999873e+02 1.892150000000000091e+03
1.270000000000000018e-01 1.467374999999999929e-01 2.676135000000000019e+01 1.505910000000000082e+02 1.891944999999999936e+03
1.280000000000000027e-01 1.467149999999999843e-01 2.603600000000000136e+01 1.500389999999999873e+02 1.891744999999999891e+03
1.290000000000000036e-01 1.466935000000000044e-01 2.533859999999999957e+01 1.494970000000000141e+02 1.891549999999999955e+03
1.300000000000000044e-01 1.466719999999999968e-01 2.466360000000000241e+01 1.489509999999999934e+02 1.891360000000000127e+03
1.310000000000000053e-01 1.466510000000000036e-01 2.400475000000000136e+01 1.483870000000000005e+02 1.891164999999999964e+03
1.320000000000000062e-01 1.466284999999999950e-01 2.335555000000000092e+01 1.477905000000000086e+02 1.890964999999999918e+03
1.330000000000000071e-01 1.466054999999999997e-01 2.270960000000000178e+01 1.471479999999999961e+02 1.890755000000000109e+03
1.340000000000000080e-01 1.465805000000000025e-01 2.206054999999999922e+01 1.464480000000000075e+02 1.890529999999999973e+03
1.350000000000000089e-01 1.465535000000000032e-01 2.140305000000000035e+01 1.456795000000000186e+02 1.890295000000000073e+03
1.360000000000000098e-01 1.465250000000000163e-01 2.073230000000000217e+01 1.448350000000000080e+02 1.890034999999999854e+03
1.370000000000000107e-01 1.464934999999999987e-01 2.004484999999999673e+01 1.439095000000000084e+02 1.889755000000000109e+03
1.380000000000000115e-01 1.464595000000000202e-01 1.933834999999999837e+01 1.429014999999999986e+02 1.889454999999999927e+03
1.390000000000000124e-01 1.464219999999999966e-01 1.861209999999999809e+01 1.418120000000000118e+02 1.889119999999999891e+03
1.400000000000000133e-01 1.463825000000000265e-01 1.786670000000000158e+01 1.406465000000000032e+02 1.888769999999999982e+03
1.410000000000000142e-01 1.463395000000000112e-01 1.710435000000000016e+01 1.394125000000000227e+02 1.888389999999999873e+03
1.420000000000000151e-01 1.462944999999999940e-01 1.632854999999999990e+01 1.381220000000000141e+02 1.887990000000000009e+03
1.430000000000000160e-01 1.462470000000000159e-01 1.554420000000000002e+01 1.367870000000000061e+02 1.887574999999999818e+03
1.440000000000000169e-01 1.461979999999999946e-01 1.475714999999999932e+01 1.354234999999999900e+02 1.887140000000000100e+03
1.450000000000000178e-01 1.461480000000000001e-01 1.397429999999999950e+01 1.340500000000000114e+02 1.886695000000000164e+03
1.459999999999999909e-01 1.460970000000000046e-01 1.320309999999999917e+01 1.326834999999999809e+02 1.886244999999999891e+03
1.469999999999999918e-01 1.460460000000000091e-01 1.245129999999999981e+01 1.313425000000000011e+02 1.885795000000000073e+03
1.479999999999999927e-01 1.459955000000000003e-01 1.172653999999999996e+01 1.300444999999999993e+02 1.885349999999999909e+03
1.489999999999999936e-01 1.459464999999999790e-01 1.103649499999999861e+01 1.288070000000000164e+02 1.884920000000000073e+03
1.499999999999999944e-01 1.458995000000000153e-01 1.038787999999999911e+01 1.276439999999999912e+02 1.884494999999999891e+03
1.509999999999999953e-01 1.458539999999999837e-01 9.786934999999999718e+00 1.265685000000000002e+02 1.884095000000000027e+03
1.519999999999999962e-01 1.458119999999999972e-01 9.238630000000000564e+00 1.255919999999999987e+02 1.883720000000000027e+03
1.529999999999999971e-01 1.457724999999999993e-01 8.746809999999999974e+00 1.247194999999999965e+02 1.883369999999999891e+03
1.539999999999999980e-01 1.457370000000000054e-01 8.314040000000000319e+00 1.239565000000000055e+02 1.883054999999999836e+03
1.549999999999999989e-01 1.457054999999999878e-01 7.941565000000000651e+00 1.233044999999999902e+02 1.882764999999999873e+03
1.559999999999999998e-01 1.456775000000000153e-01 7.629229999999999734e+00 1.227605000000000075e+02 1.882515000000000100e+03
1.570000000000000007e-01 1.456529999999999769e-01 7.375634999999999053e+00 1.223214999999999861e+02 1.882295000000000073e+03
1.580000000000000016e-01 1.456324999999999981e-01 7.178195000000000547e+00 1.219805000000000064e+02 1.882110000000000127e+03
1.590000000000000024e-01 1.456155000000000088e-01 7.033310000000000173e+00 1.217284999999999968e+02 1.881954999999999927e+03
