# t [s], A [cm^2], U [cm/s], P [cPa], c [cm/s]
1.000000000000000021e-03 5.451954999999999441e-01 2.966649999999994292e-03 1.013774999999999977e+02 1.489289999999999964e+03
2.000000000000000042e-03 5.451885000000000758e-01 1.520445000000000043e-03 1.013590000000000089e+02 1.489284999999999854e+03
3.000000000000000062e-03 5.452339999999999964e-01 8.534830000000000194e-02 1.014395000000000095e+02 1.489309999999999945e+03
4.000000000000000083e-03 5.452784999999999993e-01 1.717986999999999986e-01 1.015450000000000017e+02 1.489339999999999918e+03
5.000000000000000104e-03 5.452684999999999338e-01 1.597165499999999849e-01 1.015244999999999891e+02 1.489335000000000036e+03
6.000000000000000125e-03 5.452225000000000543e-01 7.843250000000001609e-02 1.013684999999999974e+02 1.489304999999999836e+03
7.000000000000000146e-03 5.451759999999999939e-01 -9.550999999999976176e-03 1.011409999999999911e+02 1.489255000000000109e+03
8.000000000000000167e-03 5.451104999999999423e-01 -1.405560000000000698e-01 1.008130000000000024e+02 1.489184999999999945e+03
9.000000000000001055e-03 5.449969999999999537e-01 -3.714549999999999796e-01 1.003068499999999972e+02 1.489065000000000055e+03
1.000000000000000194e-02 5.448290000000000077e-01 -7.124349999999999294e-01 9.957604999999999507e+01 1.488900000000000091e+03
1.099999999999999936e-02 5.445984999999999854e-01 -1.168779999999999930e+00 9.858265000000000100e+01 1.488675000000000182e+03
1.200000000000000025e-02 5.442934999999999857e-01 -1.748619999999999841e+00 9.728289999999999793e+01 1.488365000000000009e+03
1.300000000000000114e-02 5.439190000000000413e-01 -2.422965000000000035e+00 9.567625000000001023e+01 1.487974999999999909e+03
1.400000000000000203e-02 5.435079999999999911e-01 -3.105585000000000040e+00 9.384139999999999304e+01 1.487509999999999991e+03
1.499999999999999944e-02 5.431064999999999365e-01 -3.679585000000000328e+00 9.192359999999999332e+01 1.487014999999999873e+03
1.600000000000000033e-02 5.427530000000000410e-01 -4.044412499999999966e+00 9.007679999999999154e+01 1.486514999999999873e+03
1.700000000000000122e-02 5.424645000000000161e-01 -4.149141000000000190e+00 8.841399999999998727e+01 1.486034999999999854e+03
1.800000000000000211e-02 5.422339999999999938e-01 -3.999661000000000133e+00 8.697865000000000180e+01 1.485599999999999909e+03
1.900000000000000300e-02 5.420384999999999787e-01 -3.645636500000000169e+00 8.574629999999999086e+01 1.485200000000000045e+03
2.000000000000000042e-02 5.418490000000000251e-01 -3.157775840000000223e+00 8.464515000000000100e+01 1.484829999999999927e+03
2.100000000000000130e-02 5.416410000000000391e-01 -2.604269500000000015e+00 8.358625000000000682e+01 1.484470000000000027e+03
2.200000000000000219e-02 5.414004999999999512e-01 -2.032675000000000232e+00 8.249289999999999168e+01 1.484099999999999909e+03
2.299999999999999961e-02 5.411249999999999671e-01 -1.462034999999999973e+00 8.132124999999999204e+01 1.483724999999999909e+03
2.400000000000000050e-02 5.408239999999999714e-01 -8.866699999999998472e-01 8.006520000000000437e+01 1.483320000000000164e+03
2.500000000000000139e-02 5.405100000000000460e-01 -2.888749999999999929e-01 7.874705000000000155e+01 1.482909999999999854e+03
2.600000000000000228e-02 5.401949999999999807e-01 3.455300000000001148e-01 7.739920000000000755e+01 1.482485000000000127e+03
2.700000000000000316e-02 5.398830000000000018e-01 1.014930000000000110e+00 7.604470000000000596e+01 1.482059999999999945e+03
2.800000000000000058e-02 5.395680000000000476e-01 1.696400000000000130e+00 7.468415000000000248e+01 1.481630000000000109e+03
2.900000000000000147e-02 5.392390000000000239e-01 2.347434999999999938e+00 7.329054999999999609e+01 1.481194999999999936e+03
3.000000000000000236e-02 5.388785000000000380e-01 2.913409999999999833e+00 7.181395000000000550e+01 1.480735000000000127e+03
3.099999999999999978e-02 5.384694999999999343e-01 3.338360000000000660e+00 7.019265000000000043e+01 1.480244999999999891e+03
3.200000000000000067e-02 5.379990000000000050e-01 3.576394999999999769e+00 6.836809999999999832e+01 1.479699999999999818e+03
3.300000000000000155e-02 5.374615000000000364e-01 3.601424999999999876e+00 6.630070000000000618e+01 1.479110000000000127e+03
3.400000000000000244e-02 5.368614999999999915e-01 3.412545000000000162e+00 6.398205000000000098e+01 1.478460000000000036e+03
3.500000000000000333e-02 5.362130000000000507e-01 3.034839999999999982e+00 6.144095000000000084e+01 1.477755000000000109e+03
3.600000000000000422e-02 5.355379999999999585e-01 2.514834999999999710e+00 5.874249999999999972e+01 1.477005000000000109e+03
3.700000000000000511e-02 5.348620000000000596e-01 1.912434999999999885e+00 5.597990000000000066e+01 1.476240000000000009e+03
3.799999999999999906e-02 5.342135000000000078e-01 1.291999999999999815e+00 5.326279999999999859e+01 1.475474999999999909e+03
3.899999999999999994e-02 5.336175000000000779e-01 7.142149999999993781e-01 5.070390000000000441e+01 1.474744999999999891e+03
4.000000000000000083e-02 5.330945000000000267e-01 2.301299999999999457e-01 4.840744999999999720e+01 1.474065000000000055e+03
4.100000000000000172e-02 5.326600000000000223e-01 -1.217799999999997773e-01 4.646020000000000039e+01 1.473470000000000027e+03
4.200000000000000261e-02 5.323249999999999371e-01 -3.159499999999999531e-01 4.492654999999999887e+01 1.472980000000000018e+03
4.300000000000000350e-02 5.320934999999999970e-01 -3.381149999999997213e-01 4.384765000000000157e+01 1.472599999999999909e+03
4.400000000000000439e-02 5.319670000000000787e-01 -1.824999999999998845e-01 4.324285000000000423e+01 1.472349999999999909e+03
4.499999999999999833e-02 5.319445000000000423e-01 1.511600000000000166e-01 4.311374999999999602e+01 1.472220000000000027e+03
4.599999999999999922e-02 5.320219999999999949e-01 6.602130000000000498e-01 4.344870000000000232e+01 1.472220000000000027e+03
4.700000000000000011e-02 5.321955000000000435e-01 1.340687999999999880e+00 4.422750000000000625e+01 1.472349999999999909e+03
4.800000000000000100e-02 5.324594999999999745e-01 2.187794999999999934e+00 4.542394999999999783e+01 1.472594999999999800e+03
4.900000000000000189e-02 5.328085000000000182e-01 3.195490000000000386e+00 4.700854999999999961e+01 1.472960000000000036e+03
5.000000000000000278e-02 5.332369999999999610e-01 4.355439999999999756e+00 4.894865000000000066e+01 1.473420000000000073e+03
5.100000000000000366e-02 5.337365000000000581e-01 5.655880000000000685e+00 5.120839999999999748e+01 1.473985000000000127e+03
5.200000000000000455e-02 5.342970000000000219e-01 7.080874500000000182e+00 5.374814999999999543e+01 1.474634999999999991e+03
5.300000000000000544e-02 5.349110000000000253e-01 8.609958999999999918e+00 5.652434999999999832e+01 1.475360000000000127e+03
5.399999999999999939e-02 5.355644999999999989e-01 1.021885999999999939e+01 5.948954999999999416e+01 1.476144999999999982e+03
5.500000000000000028e-02 5.362474999999999881e-01 1.188032500000000091e+01 6.259384999999999621e+01 1.476985000000000127e+03
5.600000000000000117e-02 5.369479999999999809e-01 1.356569500000000161e+01 6.578600000000000136e+01 1.477860000000000127e+03
5.700000000000000205e-02 5.376535000000000064e-01 1.524672999999999945e+01 6.901609999999999445e+01 1.478755000000000109e+03
5.800000000000000294e-02 5.383560000000000567e-01 1.689703000000000088e+01 7.223754999999999882e+01 1.479664999999999964e+03
5.900000000000000383e-02 5.390449999999999964e-01 1.849350000000000094e+01 7.540940000000000509e+01 1.480570000000000164e+03
6.000000000000000472e-02 5.397150000000000558e-01 2.001735000000000042e+01 7.849800000000000466e+01 1.481460000000000036e+03
6.099999999999999867e-02 5.403615000000000501e-01 2.145459999999999923e+01 8.147809999999999775e+01 1.482335000000000036e+03
6.199999999999999956e-02 5.409819999999999629e-01 2.279614999999999725e+01 8.433365000000000578e+01 1.483184999999999945e+03
6.300000000000000044e-02 5.415750000000000286e-01 2.403760000000000119e+01 8.705754999999999200e+01 1.484005000000000109e+03
6.400000000000000133e-02 5.421430000000000415e-01 2.517879999999999896e+01 8.965080000000000382e+01 1.484795000000000073e+03
6.500000000000000222e-02 5.426874999999999893e-01 2.622295000000000087e+01 9.212139999999999418e+01 1.485550000000000182e+03
6.600000000000000311e-02 5.432114999999999583e-01 2.717620000000000147e+01 9.448279999999999745e+01 1.486285000000000082e+03
6.700000000000000400e-02 5.437205000000000510e-01 2.804645000000000010e+01 9.675305000000000177e+01 1.486990000000000009e+03
6.800000000000000488e-02 5.442175000000000207e-01 2.884274999999999878e+01 9.895154999999999745e+01 1.487674999999999955e+03
6.900000000000000577e-02 5.447070000000000523e-01 2.957484999999999786e+01 1.010986499999999921e+02 1.488345000000000027e+03
7.000000000000000666e-02 5.451930000000000387e-01 3.025200000000000244e+01 1.032138999999999953e+02 1.489000000000000000e+03
7.100000000000000755e-02 5.456790000000000251e-01 3.088279999999999959e+01 1.053145000000000095e+02 1.489660000000000082e+03
7.200000000000000844e-02 5.461675000000000280e-01 3.147440000000000282e+01 1.074130000000000109e+02 1.490309999999999945e+03
7.300000000000000933e-02 5.466590000000000060e-01 3.203224999999999767e+01 1.095194999999999936e+02 1.490954999999999927e+03
7.399999999999999634e-02 5.471544999999999881e-01 3.255944999999999823e+01 1.116380000000000052e+02 1.491605000000000018e+03
7.499999999999999722e-02 5.476529999999999454e-01 3.305720000000000169e+01 1.137659999999999911e+02 1.492259999999999991e+03
7.599999999999999811e-02 5.481519999999999726e-01 3.352420000000000044e+01 1.158974999999999937e+02 1.492909999999999854e+03
7.699999999999999900e-02 5.486480000000000246e-01 3.395714999999999861e+01 1.180204999999999984e+02 1.493565000000000055e+03
7.799999999999999989e-02 5.491384999999999739e-01 3.435099999999999909e+01 1.201194999999999879e+02 1.494204999999999927e+03
7.900000000000000078e-02 5.496174999999999811e-01 3.469934999999999548e+01 1.221744999999999948e+02 1.494835000000000036e+03
8.000000000000000167e-02 5.500804999999999723e-01 3.499495000000000289e+01 1.241649999999999920e+02 1.495454999999999927e+03
8.100000000000000255e-02 5.505225000000000257e-01 3.523019999999999641e+01 1.260679999999999978e+02 1.496045000000000073e+03
8.200000000000000344e-02 5.509395000000000264e-01 3.539770000000000039e+01 1.278615000000000066e+02 1.496614999999999782e+03
8.300000000000000433e-02 5.513255000000000239e-01 3.549074999999999847e+01 1.295260000000000105e+02 1.497144999999999982e+03
8.400000000000000522e-02 5.516775000000000428e-01 3.550365000000000038e+01 1.310414999999999850e+02 1.497634999999999991e+03
8.500000000000000611e-02 5.519924999999999971e-01 3.543215000000000003e+01 1.323935000000000173e+02 1.498079999999999927e+03
8.600000000000000699e-02 5.522679999999999811e-01 3.527365000000000350e+01 1.335715000000000146e+02 1.498474999999999909e+03
8.700000000000000788e-02 5.525025000000000075e-01 3.502734999999999843e+01 1.345674999999999955e+02 1.498824999999999818e+03
8.800000000000000877e-02 5.526964999999999240e-01 3.469429999999999836e+01 1.353785000000000025e+02 1.499119999999999891e+03
8.899999999999999578e-02 5.528485000000000760e-01 3.427734999999999843e+01 1.360060000000000002e+02 1.499360000000000127e+03
8.999999999999999667e-02 5.529625000000000234e-01 3.378130000000000166e+01 1.364565000000000055e+02 1.499550000000000182e+03
9.099999999999999756e-02 5.530390000000000583e-01 3.321249999999999858e+01 1.367390000000000043e+02 1.499690000000000055e+03
9.199999999999999845e-02 5.530820000000000736e-01 3.257864999999999611e+01 1.368659999999999854e+02 1.499779999999999973e+03
9.299999999999999933e-02 5.530939999999999745e-01 3.188884999999999792e+01 1.368534999999999968e+02 1.499824999999999818e+03
9.400000000000000022e-02 5.530794999999999462e-01 3.115299999999999869e+01 1.367189999999999941e+02 1.499835000000000036e+03
9.500000000000000111e-02 5.530429999999999513e-01 3.038165000000000049e+01 1.364825000000000159e+02 1.499809999999999945e+03
9.600000000000000200e-02 5.529884999999999939e-01 2.958549999999999969e+01 1.361625000000000227e+02 1.499755000000000109e+03
9.700000000000000289e-02 5.529199999999999671e-01 2.877550000000000097e+01 1.357805000000000177e+02 1.499674999999999955e+03
9.800000000000000377e-02 5.528414999999999857e-01 2.796180000000000376e+01 1.353555000000000064e+02 1.499579999999999927e+03
9.900000000000000466e-02 5.527580000000000826e-01 2.715404999999999802e+01 1.349060000000000059e+02 1.499470000000000027e+03
1.000000000000000056e-01 5.526725000000000110e-01 2.636074999999999946e+01 1.344490000000000123e+02 1.499355000000000018e+03
1.010000000000000064e-01 5.525879999999999681e-01 2.558895000000000053e+01 1.339979999999999905e+02 1.499230000000000018e+03
1.020000000000000073e-01 5.525069999999999704e-01 2.484450000000000003e+01 1.335649999999999977e+02 1.499115000000000009e+03
1.030000000000000082e-01 5.524305000000000465e-01 2.413109999999999999e+01 1.331585000000000036e+02 1.498994999999999891e+03
1.040000000000000091e-01 5.523599999999999621e-01 2.345110000000000028e+01 1.327835000000000036e+02 1.498884999999999991e+03
1.050000000000000100e-01 5.522955000000000503e-01 2.280480000000000018e+01 1.324424999999999955e+02 1.498780000000000200e+03
1.059999999999999970e-01 5.522359999999999491e-01 2.219115000000000038e+01 1.321345000000000027e+02 1.498684999999999945e+03
1.069999999999999979e-01 5.521819999999999506e-01 2.160730000000000217e+01 1.318564999999999827e+02 1.498595000000000027e+03
1.079999999999999988e-01 5.521309999999999274e-01 2.104939999999999856e+01 1.316014999999999873e+02 1.498509999999999991e+03
1.089999999999999997e-01 5.520819999999999617e-01 2.051245000000000118e+01 1.313619999999999948e+02 1.498430000000000064e+03
1.100000000000000006e-01 5.520325000000000371e-01 1.999074999999999847e+01 1.311295000000000073e+02 1.498355000000000018e+03
1.110000000000000014e-01 5.519800000000000262e-01 1.947824999999999918e+01 1.308930000000000007e+02 1.498275000000000091e+03
1.120000000000000023e-01 5.519229999999999414e-01 1.896890000000000143e+01 1.306430000000000007e+02 1.498194999999999936e+03
1.130000000000000032e-01 5.518589999999999884e-01 1.845674999999999955e+01 1.303689999999999998e+02 1.498110000000000127e+03
1.140000000000000041e-01 5.517864999999999576e-01 1.793630000000000280e+01 1.300629999999999882e+02 1.498019999999999982e+03
1.150000000000000050e-01 5.517039999999999722e-01 1.740299999999999869e+01 1.297170000000000130e+02 1.497914999999999964e+03
1.160000000000000059e-01 5.516100000000000447e-01 1.685304999999999964e+01 1.293255000000000052e+02 1.497800000000000182e+03
1.170000000000000068e-01 5.515044999999999531e-01 1.628385000000000105e+01 1.288834999999999980e+02 1.497674999999999955e+03
1.180000000000000077e-01 5.513874999999999194e-01 1.569389999999999930e+01 1.283915000000000077e+02 1.497539999999999964e+03
1.190000000000000085e-01 5.512590000000000545e-01 1.508320000000000149e+01 1.278479999999999990e+02 1.497380000000000109e+03
1.200000000000000094e-01 5.511205000000000132e-01 1.445285000000000153e+01 1.272570000000000050e+02 1.497214999999999918e+03
1.209999999999999964e-01 5.509724999999999762e-01 1.380522000000000027e+01 1.266240000000000094e+02 1.497039999999999964e+03
1.219999999999999973e-01 5.508174999999999599e-01 1.314390500000000017e+01 1.259555000000000007e+02 1.496844999999999800e+03
1.229999999999999982e-01 5.506569999999999521e-01 1.247340999999999944e+01 1.252605000000000075e+02 1.496650000000000091e+03
1.239999999999999991e-01 5.504944999999999977e-01 1.179921999999999827e+01 1.245499999999999972e+02 1.496450000000000045e+03
1.250000000000000000e-01 5.503314999999999735e-01 1.112748000000000026e+01 1.238349999999999937e+02 1.496240000000000009e+03
1.260000000000000009e-01 5.501715000000000355e-01 1.046462000000000003e+01 1.231280000000000001e+02 1.496034999999999854e+03
1.270000000000000018e-01 5.500169999999999781e-01 9.817484999999999573e+00 1.224399999999999977e+02 1.495835000000000036e+03
1.280000000000000027e-01 5.498705000000000398e-01 9.192619999999999791e+00 1.217849999999999966e+02 1.495639999999999873e+03
1.290000000000000036e-01 5.497349999999999737e-01 8.596470000000000056e+00 1.211724999999999994e+02 1.495454999999999927e+03
1.300000000000000044e-01 5.496115000000000306e-01 8.034900000000000375e+00 1.206135000000000019e+02 1.495280000000000200e+03
1.310000000000000053e-01 5.495034999999999226e-01 7.512914999999999566e+00 1.201170000000000044e+02 1.495125000000000000e+03
1.320000000000000062e-01 5.494114999999999416e-01 7.034760000000000346e+00 1.196895000000000095e+02 1.494985000000000127e+03
1.330000000000000071e-01 5.493354999999999766e-01 6.603539999999999743e+00 1.193365000000000009e+02 1.494865000000000009e+03
1.340000000000000080e-01 5.492775000000000851e-01 6.221239999999999881e+00 1.190594999999999999e+02 1.494769999999999982e+03
1.350000000000000089e-01 5.492375000000000451e-01 5.888654999999999973e+00 1.188609999999999900e+02 1.494690000000000055e+03
1.360000000000000098e-01 5.492135000000000211e-01 5.605405000000000193e+00 1.187379999999999995e+02 1.494634999999999991e+03
1.370000000000000107e-01 5.492055000000000131e-01 5.369994999999999408e+00 1.186885000000000048e+02 1.494599999999999909e+03
1.380000000000000115e-01 5.492120000000000335e-01 5.179920000000000080e+00 1.187049999999999983e+02 1.494585000000000036e+03
1.390000000000000124e-01 5.492310000000000247e-01 5.031789999999999985e+00 1.187820000000000107e+02 1.494585000000000036e+03
1.400000000000000133e-01 5.492620000000000280e-01 4.921514999999999418e+00 1.189120000000000061e+02 1.494605000000000018e+03
1.410000000000000142e-01 5.493010000000000392e-01 4.844464999999999577e+00 1.190850000000000080e+02 1.494634999999999991e+03
1.420000000000000151e-01 5.493480000000000585e-01 4.795659999999999812e+00 1.192914999999999992e+02 1.494679999999999836e+03
1.430000000000000160e-01 5.493985000000000118e-01 4.769965000000000011e+00 1.195219999999999914e+02 1.494735000000000127e+03
1.440000000000000169e-01 5.494529999999999692e-01 4.762270000000000003e+00 1.197685000000000031e+02 1.494795000000000073e+03
1.450000000000000178e-01 5.495075000000000376e-01 4.767630000000000479e+00 1.200210000000000008e+02 1.494855000000000018e+03
1.459999999999999909e-01 5.495615000000000361e-01 4.781409999999999272e+00 1.202715000000000032e+02 1.494920000000000073e+03
1.469999999999999918e-01 5.496130000000000182e-01 4.799400000000000333e+00 1.205134999999999934e+02 1.494985000000000127e+03
1.479999999999999927e-01 5.496615000000000251e-01 4.817885000000000417e+00 1.207409999999999997e+02 1.495050000000000182e+03
1.489999999999999936e-01 5.497060000000000279e-01 4.833724999999999383e+00 1.209499999999999886e+02 1.495110000000000127e+03
1.499999999999999944e-01 5.497450000000000392e-01 4.844345000000000567e+00 1.211359999999999957e+02 1.495159999999999854e+03
1.509999999999999953e-01 5.497790000000000177e-01 4.847794999999999632e+00 1.212980000000000018e+02 1.495210000000000036e+03
1.519999999999999962e-01 5.498075000000000045e-01 4.842689999999999273e+00 1.214335000000000093e+02 1.495250000000000000e+03
1.529999999999999971e-01 5.498300000000000409e-01 4.828195000000000014e+00 1.215434999999999945e+02 1.495289999999999964e+03
1.539999999999999980e-01 5.498480000000000034e-01 4.803995000000000459e+00 1.216285000000000025e+02 1.495315000000000055e+03
1.549999999999999989e-01 5.498604999999999743e-01 4.770215000000000316e+00 1.216894999999999953e+02 1.495335000000000036e+03
1.559999999999999998e-01 5.498689999999999412e-01 4.727370000000000516e+00 1.217295000000000016e+02 1.495355000000000018e+03
1.570000000000000007e-01 5.498735000000000150e-01 4.676275000000000404e+00 1.217510000000000048e+02 1.495365000000000009e+03
1.580000000000000016e-01 5.498754999999999615e-01 4.618009999999999948e+00 1.217554999999999978e+02 1.495375000000000000e+03
1.590000000000000024e-01 5.498745000000000438e-01 4.553815000000000168e+00 1.217475000000000023e+02 1.495380000000000109e+03
