# t [s], A [cm^2], U [cm/s], P [cPa], c [cm/s]
1.000000000000000021e-03 1.445195000000000229e-01 4.218895000000000284e-01 9.545770000000000266e+01 1.905664999999999964e+03
2.000000000000000042e-03 1.444860000000000033e-01 2.041173500000000196e+00 9.210065000000000168e+01 1.905335000000000036e+03
3.000000000000000062e-03 1.443834999999999980e-01 3.967568500000000498e+00 8.777324999999999022e+01 1.904365000000000009e+03
4.000000000000000083e-03 1.442390000000000061e-01 6.087588499999999847e+00 8.323975000000000080e+01 1.903009999999999991e+03
5.000000000000000104e-03 1.440790000000000126e-01 8.334495000000000431e+00 7.926734999999999332e+01 1.901514999999999873e+03
6.000000000000000125e-03 1.439205000000000068e-01 1.055430499999999938e+01 7.607059999999999889e+01 1.900065000000000055e+03
7.000000000000000146e-03 1.437705000000000233e-01 1.256794999999999973e+01 7.341589999999999350e+01 1.898700000000000045e+03
8.000000000000000167e-03 1.436310000000000087e-01 1.429818000000000033e+01 7.106614999999999327e+01 1.897449999999999818e+03
9.000000000000001055e-03 1.435049999999999937e-01 1.577024999999999899e+01 6.901734999999999332e+01 1.896340000000000146e+03
1.000000000000000194e-02 1.433955000000000091e-01 1.701624999999999943e+01 6.732374999999998977e+01 1.895390000000000100e+03
1.099999999999999936e-02 1.433030000000000137e-01 1.804635000000000034e+01 6.595924999999999727e+01 1.894585000000000036e+03
1.200000000000000025e-02 1.432255000000000056e-01 1.886865000000000236e+01 6.485989999999999611e+01 1.893920000000000073e+03
1.300000000000000114e-02 1.431620000000000115e-01 1.949249999999999972e+01 6.395909999999999940e+01 1.893384999999999991e+03
1.400000000000000203e-02 1.431089999999999862e-01 1.992900000000000205e+01 6.318605000000000160e+01 1.892949999999999818e+03
1.499999999999999944e-02 1.430644999999999833e-01 2.021284999999999954e+01 6.251349999999999341e+01 1.892585000000000036e+03
1.600000000000000033e-02 1.430285000000000029e-01 2.042325000000000301e+01 6.203345000000000198e+01 1.892305000000000064e+03
1.700000000000000122e-02 1.430060000000000220e-01 2.067054999999999865e+01 6.196139999999999759e+01 1.892125000000000000e+03
1.800000000000000211e-02 1.430020000000000180e-01 2.105230000000000246e+01 6.253579999999999472e+01 1.892105000000000018e+03
1.900000000000000300e-02 1.430210000000000092e-01 2.160654999999999859e+01 6.387364999999999782e+01 1.892279999999999973e+03
2.000000000000000042e-02 1.430629999999999957e-01 2.229254999999999853e+01 6.587784999999999513e+01 1.892650000000000091e+03
2.100000000000000130e-02 1.431230000000000002e-01 2.300540000000000163e+01 6.824414999999999054e+01 1.893179999999999836e+03
2.200000000000000219e-02 1.431930000000000147e-01 2.361449999999999960e+01 7.055514999999999759e+01 1.893795000000000073e+03
2.299999999999999961e-02 1.432609999999999995e-01 2.400645000000000095e+01 7.241165000000000873e+01 1.894394999999999982e+03
2.400000000000000050e-02 1.433169999999999999e-01 2.411720000000000041e+01 7.354705000000001291e+01 1.894905000000000200e+03
2.500000000000000139e-02 1.433550000000000102e-01 2.394369999999999976e+01 7.388714999999999122e+01 1.895259999999999991e+03
2.600000000000000228e-02 1.433740000000000014e-01 2.353564999999999685e+01 7.354300000000000637e+01 1.895445000000000164e+03
2.700000000000000316e-02 1.433754999999999891e-01 2.297155000000000058e+01 7.274784999999999968e+01 1.895480000000000018e+03
2.800000000000000058e-02 1.433650000000000202e-01 2.233129999999999882e+01 7.176805000000000234e+01 1.895404999999999973e+03
2.900000000000000147e-02 1.433480000000000032e-01 2.167345000000000255e+01 7.081990000000000407e+01 1.895264999999999873e+03
3.000000000000000236e-02 1.433289999999999842e-01 2.102459999999999951e+01 7.001984999999999104e+01 1.895110000000000127e+03
3.099999999999999978e-02 1.433105000000000073e-01 2.038129999999999953e+01 6.937590000000000146e+01 1.894945000000000164e+03
3.200000000000000067e-02 1.432924999999999893e-01 1.972184999999999988e+01 6.881579999999999586e+01 1.894795000000000073e+03
3.300000000000000155e-02 1.432744999999999991e-01 1.902165000000000106e+01 6.823510000000000275e+01 1.894639999999999873e+03
3.400000000000000244e-02 1.432539999999999925e-01 1.826814999999999856e+01 6.754929999999998813e+01 1.894460000000000036e+03
3.500000000000000333e-02 1.432299999999999962e-01 1.747050000000000125e+01 6.673220000000000596e+01 1.894255000000000109e+03
3.600000000000000422e-02 1.432019999999999960e-01 1.666189999999999927e+01 6.583305000000000007e+01 1.894025000000000091e+03
3.700000000000000511e-02 1.431735000000000091e-01 1.589429999999999943e+01 6.496864999999999668e+01 1.893775000000000091e+03
3.799999999999999906e-02 1.431474999999999831e-01 1.522705000000000020e+01 6.429410000000000025e+01 1.893545000000000073e+03
3.899999999999999994e-02 1.431275000000000186e-01 1.471325000000000216e+01 6.396179999999999666e+01 1.893375000000000000e+03
4.000000000000000083e-02 1.431175000000000086e-01 1.438684999999999903e+01 6.408029999999999404e+01 1.893279999999999973e+03
4.100000000000000172e-02 1.431215000000000126e-01 1.425464999999999982e+01 6.468399999999999750e+01 1.893300000000000182e+03
4.200000000000000261e-02 1.431390000000000162e-01 1.429349999999999987e+01 6.572074999999999534e+01 1.893445000000000164e+03
4.300000000000000350e-02 1.431684999999999763e-01 1.445425000000000004e+01 6.705910000000000082e+01 1.893694999999999936e+03
4.400000000000000439e-02 1.432070000000000010e-01 1.467009999999999970e+01 6.851089999999999236e+01 1.894014999999999873e+03
4.499999999999999833e-02 1.432479999999999865e-01 1.486664999999999992e+01 6.986390000000000100e+01 1.894369999999999891e+03
4.599999999999999922e-02 1.432875000000000121e-01 1.497299999999999898e+01 7.091509999999999536e+01 1.894710000000000036e+03
4.700000000000000011e-02 1.433185000000000153e-01 1.492999999999999972e+01 7.149885000000000446e+01 1.894980000000000018e+03
4.800000000000000100e-02 1.433369999999999922e-01 1.469585000000000008e+01 7.150534999999999286e+01 1.895139999999999873e+03
4.900000000000000189e-02 1.433385000000000076e-01 1.424849999999999994e+01 7.088775000000001114e+01 1.895159999999999854e+03
5.000000000000000278e-02 1.433220000000000049e-01 1.358450000000000024e+01 6.965860000000000696e+01 1.895025000000000091e+03
5.100000000000000366e-02 1.432869999999999977e-01 1.271675000000000111e+01 6.787924999999999898e+01 1.894724999999999909e+03
5.200000000000000455e-02 1.432340000000000002e-01 1.166990000000000016e+01 6.564435000000000286e+01 1.894269999999999982e+03
5.300000000000000544e-02 1.431665000000000021e-01 1.047691999999999979e+01 6.306660000000000110e+01 1.893690000000000055e+03
5.399999999999999939e-02 1.430865000000000054e-01 9.175325000000000841e+00 6.026394999999999413e+01 1.892994999999999891e+03
5.500000000000000028e-02 1.429964999999999986e-01 7.804770000000000429e+00 5.735044999999999504e+01 1.892219999999999800e+03
5.600000000000000117e-02 1.429019999999999735e-01 6.405675000000000452e+00 5.443160000000000309e+01 1.891394999999999982e+03
5.700000000000000205e-02 1.428045000000000009e-01 5.018539999999999779e+00 5.160330000000000439e+01 1.890550000000000182e+03
5.800000000000000294e-02 1.427080000000000015e-01 3.683606999999999854e+00 4.895275000000000176e+01 1.889710000000000036e+03
5.900000000000000383e-02 1.426155000000000062e-01 2.440773999999999777e+00 4.656080000000000041e+01 1.888900000000000091e+03
6.000000000000000472e-02 1.425299999999999900e-01 1.329199999999999937e+00 4.450345000000000084e+01 1.888154999999999973e+03
6.099999999999999867e-02 1.424539999999999973e-01 3.865850000000000675e-01 4.285204999999999842e+01 1.887490000000000009e+03
6.199999999999999956e-02 1.423905000000000032e-01 -3.519500000000000961e-01 4.167275000000000063e+01 1.886929999999999836e+03
6.300000000000000044e-02 1.423419999999999963e-01 -8.552710000000000035e-01 4.102360000000000184e+01 1.886494999999999891e+03
6.400000000000000133e-02 1.423105000000000064e-01 -1.097828999999999944e+00 4.095154999999999745e+01 1.886210000000000036e+03
6.500000000000000222e-02 1.422974999999999934e-01 -1.061115000000000030e+00 4.148870000000000147e+01 1.886085000000000036e+03
6.600000000000000311e-02 1.423050000000000148e-01 -7.349244999999999806e-01 4.264950000000000330e+01 1.886130000000000109e+03
6.700000000000000400e-02 1.423335000000000017e-01 -1.180499999999999883e-01 4.442815000000000225e+01 1.886360000000000127e+03
6.800000000000000488e-02 1.423824999999999952e-01 7.814749999999999197e-01 4.679885000000000161e+01 1.886769999999999982e+03
6.900000000000000577e-02 1.424524999999999819e-01 1.946745000000000170e+00 4.971574999999999989e+01 1.887365000000000009e+03
7.000000000000000666e-02 1.425414999999999877e-01 3.352932999999999719e+00 5.311634999999999707e+01 1.888115000000000009e+03
7.100000000000000755e-02 1.426479999999999970e-01 4.968590000000000728e+00 5.692419999999999902e+01 1.889030000000000200e+03
7.200000000000000844e-02 1.427694999999999936e-01 6.757329999999999615e+00 6.105389999999999873e+01 1.890079999999999927e+03
7.300000000000000933e-02 1.429040000000000032e-01 8.679570000000000007e+00 6.541550000000000864e+01 1.891240000000000009e+03
7.399999999999999634e-02 1.430484999999999951e-01 1.069437500000000085e+01 6.991934999999999434e+01 1.892490000000000009e+03
7.499999999999999722e-02 1.431999999999999940e-01 1.276141499999999951e+01 7.448009999999999309e+01 1.893809999999999945e+03
7.599999999999999811e-02 1.433554999999999968e-01 1.484234999999999971e+01 7.902074999999999250e+01 1.895170000000000073e+03
7.699999999999999900e-02 1.435130000000000017e-01 1.690230000000000032e+01 8.347570000000000334e+01 1.896545000000000073e+03
7.799999999999999989e-02 1.436695000000000055e-01 1.891140000000000043e+01 8.779275000000001228e+01 1.897920000000000073e+03
7.900000000000000078e-02 1.438234999999999930e-01 2.084495000000000076e+01 9.193444999999999823e+01 1.899275000000000091e+03
8.000000000000000167e-02 1.439734999999999765e-01 2.268455000000000155e+01 9.587880000000001246e+01 1.900605000000000018e+03
8.100000000000000255e-02 1.441184999999999827e-01 2.441794999999999760e+01 9.961750000000000682e+01 1.901890000000000100e+03
8.200000000000000344e-02 1.442579999999999973e-01 2.603894999999999982e+01 1.031570499999999981e+02 1.903125000000000000e+03
8.300000000000000433e-02 1.443915000000000060e-01 2.754674999999999940e+01 1.065144999999999982e+02 1.904320000000000164e+03
8.400000000000000522e-02 1.445194999999999952e-01 2.894519999999999982e+01 1.097139999999999986e+02 1.905465000000000146e+03
8.500000000000000611e-02 1.446425000000000072e-01 3.024179999999999779e+01 1.127870000000000061e+02 1.906565000000000055e+03
8.600000000000000699e-02 1.447614999999999874e-01 3.144644999999999868e+01 1.157665000000000077e+02 1.907630000000000109e+03
8.700000000000000788e-02 1.448774999999999924e-01 3.257039999999999935e+01 1.186850000000000023e+02 1.908670000000000073e+03
8.800000000000000877e-02 1.449909999999999810e-01 3.362500000000000000e+01 1.215709999999999980e+02 1.909695000000000164e+03
8.899999999999999578e-02 1.451029999999999820e-01 3.462069999999999936e+01 1.244480000000000075e+02 1.910699999999999818e+03
8.999999999999999667e-02 1.452140000000000097e-01 3.556640000000000157e+01 1.273315000000000055e+02 1.911695000000000164e+03
9.099999999999999756e-02 1.453249999999999820e-01 3.646845000000000425e+01 1.302295000000000016e+02 1.912695000000000164e+03
9.199999999999999845e-02 1.454360000000000097e-01 3.733064999999999856e+01 1.331419999999999959e+02 1.913694999999999936e+03
9.299999999999999933e-02 1.455465000000000231e-01 3.815364999999999895e+01 1.360579999999999927e+02 1.914690000000000055e+03
9.400000000000000022e-02 1.456570000000000087e-01 3.893540000000000134e+01 1.389629999999999939e+02 1.915690000000000055e+03
9.500000000000000111e-02 1.457670000000000077e-01 3.967130000000000223e+01 1.418340000000000032e+02 1.916679999999999836e+03
9.600000000000000200e-02 1.458760000000000057e-01 4.035439999999999827e+01 1.446424999999999841e+02 1.917660000000000082e+03
9.700000000000000289e-02 1.459825000000000150e-01 4.097599999999999909e+01 1.473594999999999970e+02 1.918619999999999891e+03
9.800000000000000377e-02 1.460854999999999793e-01 4.152635000000000076e+01 1.499515000000000100e+02 1.919550000000000182e+03
9.900000000000000466e-02 1.461850000000000094e-01 4.199504999999999910e+01 1.523880000000000052e+02 1.920450000000000045e+03
1.000000000000000056e-01 1.462789999999999924e-01 4.237189999999999657e+01 1.546379999999999768e+02 1.921300000000000182e+03
1.010000000000000064e-01 1.463674999999999837e-01 4.264735000000000298e+01 1.566750000000000114e+02 1.922099999999999909e+03
1.020000000000000073e-01 1.464480000000000226e-01 4.281279999999999575e+01 1.584755000000000109e+02 1.922835000000000036e+03
1.030000000000000082e-01 1.465204999999999980e-01 4.286164999999999736e+01 1.600225000000000080e+02 1.923500000000000000e+03
1.040000000000000091e-01 1.465849999999999931e-01 4.278905000000000314e+01 1.613029999999999973e+02 1.924085000000000036e+03
1.050000000000000100e-01 1.466405000000000070e-01 4.259274999999999523e+01 1.623110000000000070e+02 1.924595000000000027e+03
1.059999999999999970e-01 1.466864999999999974e-01 4.227275000000000205e+01 1.630459999999999923e+02 1.925014999999999873e+03
1.069999999999999979e-01 1.467224999999999779e-01 4.183180000000000121e+01 1.635144999999999982e+02 1.925360000000000127e+03
1.079999999999999988e-01 1.467495000000000049e-01 4.127530000000000143e+01 1.637289999999999850e+02 1.925609999999999900e+03
1.089999999999999997e-01 1.467674999999999952e-01 4.061090000000000089e+01 1.637060000000000173e+02 1.925780000000000200e+03
1.100000000000000006e-01 1.467765000000000042e-01 3.984875000000000256e+01 1.634675000000000011e+02 1.925875000000000000e+03
1.110000000000000014e-01 1.467780000000000196e-01 3.900060000000000571e+01 1.630395000000000039e+02 1.925894999999999982e+03
1.120000000000000023e-01 1.467725000000000002e-01 3.807989999999999498e+01 1.624510000000000218e+02 1.925849999999999909e+03
1.130000000000000032e-01 1.467600000000000016e-01 3.710105000000000075e+01 1.617314999999999827e+02 1.925750000000000000e+03
1.140000000000000041e-01 1.467424999999999979e-01 3.607885000000000275e+01 1.609120000000000061e+02 1.925595000000000027e+03
1.150000000000000050e-01 1.467200000000000171e-01 3.502824999999999989e+01 1.600219999999999914e+02 1.925404999999999973e+03
1.160000000000000059e-01 1.466950000000000198e-01 3.396354999999999791e+01 1.590904999999999916e+02 1.925180000000000064e+03
1.170000000000000068e-01 1.466669999999999918e-01 3.289820000000000277e+01 1.581419999999999959e+02 1.924934999999999945e+03
1.180000000000000077e-01 1.466374999999999762e-01 3.184424999999999883e+01 1.571990000000000123e+02 1.924674999999999955e+03
1.190000000000000085e-01 1.466075000000000017e-01 3.081199999999999761e+01 1.562794999999999845e+02 1.924400000000000091e+03
1.200000000000000094e-01 1.465774999999999995e-01 2.980985000000000085e+01 1.553965000000000032e+02 1.924130000000000109e+03
1.209999999999999964e-01 1.465474999999999972e-01 2.884405000000000285e+01 1.545595000000000141e+02 1.923865000000000009e+03
1.219999999999999973e-01 1.465184999999999960e-01 2.791860000000000142e+01 1.537715000000000032e+02 1.923599999999999909e+03
1.229999999999999982e-01 1.464909999999999823e-01 2.703545000000000087e+01 1.530320000000000107e+02 1.923349999999999909e+03
1.239999999999999991e-01 1.464639999999999831e-01 2.619440000000000168e+01 1.523369999999999891e+02 1.923099999999999909e+03
1.250000000000000000e-01 1.464384999999999992e-01 2.539329999999999998e+01 1.516775000000000091e+02 1.922869999999999891e+03
1.260000000000000009e-01 1.464139999999999886e-01 2.462845000000000084e+01 1.510430000000000064e+02 1.922639999999999873e+03
1.270000000000000018e-01 1.463895000000000057e-01 2.389489999999999981e+01 1.504195000000000277e+02 1.922420000000000073e+03
1.280000000000000027e-01 1.463659999999999961e-01 2.318645000000000067e+01 1.497930000000000064e+02 1.922199999999999818e+03
1.290000000000000036e-01 1.463419999999999999e-01 2.249634999999999962e+01 1.491469999999999914e+02 1.921985000000000127e+03
1.300000000000000044e-01 1.463169999999999749e-01 2.181759999999999877e+01 1.484664999999999964e+02 1.921759999999999991e+03
1.310000000000000053e-01 1.462919999999999776e-01 2.114314999999999856e+01 1.477375000000000114e+02 1.921525000000000091e+03
1.320000000000000062e-01 1.462644999999999917e-01 2.046645000000000181e+01 1.469465000000000146e+02 1.921275000000000091e+03
1.330000000000000071e-01 1.462354999999999905e-01 1.978164999999999907e+01 1.460835000000000150e+02 1.921009999999999991e+03
1.340000000000000080e-01 1.462040000000000006e-01 1.908395000000000152e+01 1.451399999999999864e+02 1.920730000000000018e+03
1.350000000000000089e-01 1.461700000000000221e-01 1.836945000000000050e+01 1.441119999999999948e+02 1.920420000000000073e+03
1.360000000000000098e-01 1.461330000000000129e-01 1.763619999999999877e+01 1.429970000000000141e+02 1.920090000000000146e+03
1.370000000000000107e-01 1.460930000000000006e-01 1.688319999999999865e+01 1.417980000000000018e+02 1.919735000000000127e+03
1.380000000000000115e-01 1.460504999999999998e-01 1.611149999999999949e+01 1.405204999999999984e+02 1.919349999999999909e+03
1.390000000000000124e-01 1.460055000000000103e-01 1.532335000000000136e+01 1.391734999999999900e+02 1.918944999999999936e+03
1.400000000000000133e-01 1.459575000000000178e-01 1.452264999999999873e+01 1.377685000000000173e+02 1.918514999999999873e+03
1.410000000000000142e-01 1.459075000000000233e-01 1.371470000000000056e+01 1.363204999999999814e+02 1.918070000000000164e+03
1.420000000000000151e-01 1.458559999999999857e-01 1.290585000000000093e+01 1.348460000000000036e+02 1.917610000000000127e+03
1.430000000000000160e-01 1.458039999999999892e-01 1.210325500000000076e+01 1.333644999999999925e+02 1.917134999999999991e+03
1.440000000000000169e-01 1.457505000000000051e-01 1.131478500000000054e+01 1.318940000000000055e+02 1.916654999999999973e+03
1.450000000000000178e-01 1.456975000000000076e-01 1.054867499999999936e+01 1.304544999999999959e+02 1.916184999999999945e+03
1.459999999999999909e-01 1.456449999999999967e-01 9.812924999999999898e+00 1.290649999999999977e+02 1.915715000000000146e+03
1.469999999999999918e-01 1.455934999999999868e-01 9.115320000000000533e+00 1.277429999999999950e+02 1.915255000000000109e+03
1.479999999999999927e-01 1.455450000000000077e-01 8.463015000000000398e+00 1.265030000000000143e+02 1.914815000000000055e+03
1.489999999999999936e-01 1.454985000000000028e-01 7.862090000000000245e+00 1.253584999999999923e+02 1.914394999999999982e+03
1.499999999999999944e-01 1.454550000000000010e-01 7.317654999999999355e+00 1.243209999999999980e+02 1.914000000000000000e+03
1.509999999999999953e-01 1.454145000000000021e-01 6.833450000000000024e+00 1.233954999999999984e+02 1.913639999999999873e+03
1.519999999999999962e-01 1.453780000000000072e-01 6.411789999999999878e+00 1.225865000000000009e+02 1.913304999999999836e+03
1.529999999999999971e-01 1.453450000000000020e-01 6.053530000000000300e+00 1.218944999999999936e+02 1.913005000000000109e+03
1.539999999999999980e-01 1.453160000000000007e-01 5.758070000000000022e+00 1.213170000000000073e+02 1.912744999999999891e+03
1.549999999999999989e-01 1.452910000000000035e-01 5.523424999999999585e+00 1.208480000000000132e+02 1.912515000000000100e+03
1.559999999999999998e-01 1.452694999999999959e-01 5.346315000000000595e+00 1.204800000000000040e+02 1.912319999999999936e+03
1.570000000000000007e-01 1.452519999999999922e-01 5.222360000000000113e+00 1.202009999999999934e+02 1.912155000000000200e+03
1.580000000000000016e-01 1.452374999999999916e-01 5.146255000000000024e+00 1.200000000000000000e+02 1.912025000000000091e+03
1.590000000000000024e-01 1.452264999999999806e-01 5.111979999999999968e+00 1.198644999999999925e+02 1.911909999999999854e+03
