# t [s], A [cm^2], U [cm/s], P [cPa], c [cm/s]
1.000000000000000021e-03 6.297055000000000291e-01 5.595349999999998936e-03 1.017075000000000102e+02 1.738589999999999918e+03
2.000000000000000042e-03 6.296975000000000211e-01 2.838369999999999782e-03 1.016794999999999902e+02 1.738579999999999927e+03
3.000000000000000062e-03 6.297589999999999577e-01 1.223981999999999987e-01 1.018209999999999980e+02 1.738615000000000009e+03
4.000000000000000083e-03 6.297954999999999526e-01 2.074726000000000070e-01 1.019325000000000045e+02 1.738644999999999982e+03
5.000000000000000104e-03 6.297509999999999497e-01 1.468705000000000149e-01 1.018040000000000020e+02 1.738615000000000009e+03
6.000000000000000125e-03 6.296869999999999967e-01 4.040349999999998110e-02 1.015229999999999961e+02 1.738559999999999945e+03
7.000000000000000146e-03 6.296224999999999739e-01 -7.701000000000002288e-02 1.011580000000000013e+02 1.738474999999999909e+03
8.000000000000000167e-03 6.295070000000000388e-01 -3.101050000000000750e-01 1.005756499999999960e+02 1.738349999999999909e+03
9.000000000000001055e-03 6.293235000000000356e-01 -6.914299999999999891e-01 9.969055000000000177e+01 1.738155000000000200e+03
1.000000000000000194e-02 6.290610000000000923e-01 -1.235670000000000268e+00 9.843475000000000819e+01 1.737880000000000109e+03
1.099999999999999936e-02 6.286990000000000078e-01 -1.967285000000000172e+00 9.671950000000001069e+01 1.737490000000000009e+03
1.200000000000000025e-02 6.282539999999999791e-01 -2.829654999999999809e+00 9.456374999999999886e+01 1.737000000000000000e+03
1.300000000000000114e-02 6.277939999999999632e-01 -3.657610000000000028e+00 9.216675000000000750e+01 1.736434999999999945e+03
1.400000000000000203e-02 6.273940000000000072e-01 -4.262401999999999802e+00 8.981895000000000095e+01 1.735855000000000018e+03
1.499999999999999944e-02 6.270930000000000115e-01 -4.529869500000000215e+00 8.775415000000000987e+01 1.735315000000000055e+03
1.600000000000000033e-02 6.268804999999999517e-01 -4.456239999999999313e+00 8.605840000000000600e+01 1.734839999999999918e+03
1.700000000000000122e-02 6.267139999999999933e-01 -4.123929999999999652e+00 8.466835000000000377e+01 1.734420000000000073e+03
1.800000000000000211e-02 6.265425000000000022e-01 -3.650250000000000217e+00 8.342900000000000205e+01 1.734029999999999973e+03
1.900000000000000300e-02 6.263275000000000370e-01 -3.136369500000000254e+00 8.217194999999999538e+01 1.733644999999999982e+03
2.000000000000000042e-02 6.260550000000000281e-01 -2.633760499999999727e+00 8.078284999999999627e+01 1.733230000000000018e+03
2.100000000000000130e-02 6.257390000000000452e-01 -2.137799999999999923e+00 7.923519999999999186e+01 1.732789999999999964e+03
2.200000000000000219e-02 6.254045000000000298e-01 -1.607890000000000041e+00 7.757930000000000348e+01 1.732320000000000164e+03
2.299999999999999961e-02 6.250774999999999526e-01 -1.001709999999999878e+00 7.589855000000000018e+01 1.731845000000000027e+03
2.400000000000000050e-02 6.247685000000000599e-01 -3.060100000000001153e-01 7.425804999999999723e+01 1.731375000000000000e+03
2.500000000000000139e-02 6.244709999999999983e-01 4.480699999999999683e-01 7.266694999999999993e+01 1.730909999999999854e+03
2.600000000000000228e-02 6.241604999999998959e-01 1.187885000000000080e+00 7.106645000000000323e+01 1.730445000000000164e+03
2.700000000000000316e-02 6.238040000000000251e-01 1.816560000000000175e+00 6.934404999999999575e+01 1.729950000000000045e+03
2.800000000000000058e-02 6.233710000000000084e-01 2.238120000000000331e+00 6.736565000000000225e+01 1.729410000000000082e+03
2.900000000000000147e-02 6.228415000000000479e-01 2.383234999999999548e+00 6.501789999999999736e+01 1.728784999999999854e+03
3.000000000000000236e-02 6.222149999999999626e-01 2.228244999999999809e+00 6.224615000000000009e+01 1.728074999999999818e+03
3.099999999999999978e-02 6.215104999999999658e-01 1.801369999999999472e+00 5.907789999999999964e+01 1.727275000000000091e+03
3.200000000000000067e-02 6.207639999999999825e-01 1.174419999999999575e+00 5.562224999999999397e+01 1.726400000000000091e+03
3.300000000000000155e-02 6.200174999999999992e-01 4.445199999999998042e-01 5.204935000000000400e+01 1.725490000000000009e+03
3.400000000000000244e-02 6.193144999999999900e-01 -2.876599999999998047e-01 4.855719999999999459e+01 1.724595000000000027e+03
3.500000000000000333e-02 6.186905000000000321e-01 -9.349800000000003664e-01 4.533830000000000382e+01 1.723744999999999891e+03
3.600000000000000422e-02 6.181699999999999973e-01 -1.434025000000000105e+00 4.255400000000000205e+01 1.722985000000000127e+03
3.700000000000000511e-02 6.177669999999999551e-01 -1.747124999999999817e+00 4.031935000000000002e+01 1.722349999999999909e+03
3.799999999999999906e-02 6.174855000000000205e-01 -1.858540000000000081e+00 3.870045000000000357e+01 1.721855000000000018e+03
3.899999999999999994e-02 6.173239999999999839e-01 -1.767174999999999940e+00 3.772029999999999461e+01 1.721519999999999982e+03
4.000000000000000083e-02 6.172770000000000756e-01 -1.478685000000000027e+00 3.737059999999999604e+01 1.721340000000000146e+03
4.100000000000000172e-02 6.173394999999999300e-01 -9.990152500000000213e-01 3.762454999999999927e+01 1.721315000000000055e+03
4.200000000000000261e-02 6.175049999999999706e-01 -3.310900000000001064e-01 3.844814999999999827e+01 1.721444999999999936e+03
4.300000000000000350e-02 6.177700000000000413e-01 5.251799999999999802e-01 3.980644999999999811e+01 1.721710000000000036e+03
4.400000000000000439e-02 6.181305000000000271e-01 1.570065000000000266e+00 4.166535000000000366e+01 1.722115000000000009e+03
4.499999999999999833e-02 6.185789999999999900e-01 2.800040000000000084e+00 4.398845000000000027e+01 1.722644999999999982e+03
4.599999999999999922e-02 6.191094999999999793e-01 4.204180000000000028e+00 4.673340000000000316e+01 1.723289999999999964e+03
4.700000000000000011e-02 6.197095000000000242e-01 5.762205000000000688e+00 4.984815000000000396e+01 1.724039999999999964e+03
4.800000000000000100e-02 6.203659999999999730e-01 7.444459499999999785e+00 5.326939999999999742e+01 1.724875000000000000e+03
4.900000000000000189e-02 6.210624999999999618e-01 9.214042499999999691e+00 5.692379999999999995e+01 1.725785000000000082e+03
5.000000000000000278e-02 6.217825000000000157e-01 1.102999999999999936e+01 6.073199999999999932e+01 1.726744999999999891e+03
5.100000000000000366e-02 6.225104999999999666e-01 1.285122499999999945e+01 6.461379999999999768e+01 1.727735000000000127e+03
5.200000000000000455e-02 6.232320000000000082e-01 1.464008499999999913e+01 6.849434999999999718e+01 1.728744999999999891e+03
5.300000000000000544e-02 6.239379999999999926e-01 1.636518999999999835e+01 7.230960000000000321e+01 1.729744999999999891e+03
5.399999999999999939e-02 6.246184999999999654e-01 1.800300000000000011e+01 7.600995000000000346e+01 1.730735000000000127e+03
5.500000000000000028e-02 6.252705000000000624e-01 1.953825000000000145e+01 7.956295000000000073e+01 1.731695000000000164e+03
5.600000000000000117e-02 6.258934999999999915e-01 2.096375000000000099e+01 8.295295000000000130e+01 1.732625000000000000e+03
5.700000000000000205e-02 6.264890000000000736e-01 2.227909999999999968e+01 8.617995000000000516e+01 1.733514999999999873e+03
5.800000000000000294e-02 6.270605000000000206e-01 2.348904999999999887e+01 8.925694999999998913e+01 1.734369999999999891e+03
5.900000000000000383e-02 6.276135000000000463e-01 2.460229999999999961e+01 9.220669999999999789e+01 1.735200000000000045e+03
6.000000000000000472e-02 6.281535000000000313e-01 2.562950000000000017e+01 9.505665000000000475e+01 1.736000000000000000e+03
6.099999999999999867e-02 6.286855000000000082e-01 2.658245000000000147e+01 9.783865000000000123e+01 1.736779999999999973e+03
6.199999999999999956e-02 6.292150000000000798e-01 2.747210000000000107e+01 1.005809999999999889e+02 1.737549999999999955e+03
6.300000000000000044e-02 6.297460000000000280e-01 2.830825000000000102e+01 1.033096999999999923e+02 1.738320000000000164e+03
6.400000000000000133e-02 6.302809999999999802e-01 2.909790000000000276e+01 1.060420000000000016e+02 1.739079999999999927e+03
6.500000000000000222e-02 6.308205000000000062e-01 2.984519999999999840e+01 1.087890000000000015e+02 1.739845000000000027e+03
6.600000000000000311e-02 6.313640000000000363e-01 3.055089999999999861e+01 1.115490000000000066e+02 1.740615000000000009e+03
6.700000000000000400e-02 6.319075000000000664e-01 3.121239999999999881e+01 1.143145000000000095e+02 1.741380000000000109e+03
6.800000000000000488e-02 6.324475000000000513e-01 3.182415000000000305e+01 1.170660000000000025e+02 1.742150000000000091e+03
6.900000000000000577e-02 6.329784999999999995e-01 3.237834999999999752e+01 1.197794999999999987e+02 1.742904999999999973e+03
7.000000000000000666e-02 6.334949999999999193e-01 3.286599999999999966e+01 1.224230000000000018e+02 1.743639999999999873e+03
7.100000000000000755e-02 6.339894999999999836e-01 3.327740000000000009e+01 1.249660000000000082e+02 1.744360000000000127e+03
7.200000000000000844e-02 6.344564999999999788e-01 3.360329999999999728e+01 1.273754999999999882e+02 1.745045000000000073e+03
7.300000000000000933e-02 6.348905000000000243e-01 3.383559999999999945e+01 1.296204999999999927e+02 1.745684999999999945e+03
7.399999999999999634e-02 6.352869999999999351e-01 3.396775000000000233e+01 1.316734999999999900e+02 1.746285000000000082e+03
7.499999999999999722e-02 6.356414999999999704e-01 3.399519999999999698e+01 1.335144999999999982e+02 1.746829999999999927e+03
7.599999999999999811e-02 6.359529999999999905e-01 3.391584999999999894e+01 1.351274999999999977e+02 1.747309999999999945e+03
7.699999999999999900e-02 6.362194999999999379e-01 3.372984999999999900e+01 1.365029999999999859e+02 1.747735000000000127e+03
7.799999999999999989e-02 6.364404999999999646e-01 3.343979999999999819e+01 1.376394999999999982e+02 1.748095000000000027e+03
7.900000000000000078e-02 6.366175000000000583e-01 3.305095000000000027e+01 1.385414999999999850e+02 1.748389999999999873e+03
8.000000000000000167e-02 6.367534999999999723e-01 3.257045000000000101e+01 1.392180000000000177e+02 1.748630000000000109e+03
8.100000000000000255e-02 6.368504999999999860e-01 3.200804999999999723e+01 1.396854999999999905e+02 1.748809999999999945e+03
8.200000000000000344e-02 6.369129999999999514e-01 3.137494999999999834e+01 1.399644999999999868e+02 1.748934999999999945e+03
8.300000000000000433e-02 6.369460000000000122e-01 3.068404999999999916e+01 1.400785000000000196e+02 1.749009999999999991e+03
8.400000000000000522e-02 6.369540000000000202e-01 2.994924999999999926e+01 1.400545000000000186e+02 1.749045000000000073e+03
8.500000000000000611e-02 6.369424999999999670e-01 2.918489999999999895e+01 1.399214999999999804e+02 1.749045000000000073e+03
8.600000000000000699e-02 6.369175000000000253e-01 2.840520000000000067e+01 1.397065000000000055e+02 1.749014999999999873e+03
8.700000000000000788e-02 6.368825000000000180e-01 2.762349999999999994e+01 1.394389999999999930e+02 1.748974999999999909e+03
8.800000000000000877e-02 6.368439999999999657e-01 2.685184999999999889e+01 1.391430000000000007e+02 1.748914999999999964e+03
8.899999999999999578e-02 6.368040000000000367e-01 2.610054999999999836e+01 1.388405000000000200e+02 1.748845000000000027e+03
8.999999999999999667e-02 6.367659999999999432e-01 2.537709999999999866e+01 1.385489999999999782e+02 1.748775000000000091e+03
9.099999999999999756e-02 6.367315000000000058e-01 2.468684999999999974e+01 1.382805000000000177e+02 1.748710000000000036e+03
9.199999999999999845e-02 6.367019999999999902e-01 2.403215000000000146e+01 1.380414999999999850e+02 1.748644999999999982e+03
9.299999999999999933e-02 6.366760000000000197e-01 2.341270000000000095e+01 1.378344999999999914e+02 1.748585000000000036e+03
9.400000000000000022e-02 6.366540000000000532e-01 2.282590000000000074e+01 1.376544999999999845e+02 1.748530000000000200e+03
9.500000000000000111e-02 6.366340000000000332e-01 2.226705000000000112e+01 1.374950000000000045e+02 1.748485000000000127e+03
9.600000000000000200e-02 6.366125000000000256e-01 2.172984999999999900e+01 1.373435000000000059e+02 1.748440000000000055e+03
9.700000000000000289e-02 6.365880000000000427e-01 2.120680000000000121e+01 1.371864999999999952e+02 1.748389999999999873e+03
9.800000000000000377e-02 6.365564999999999696e-01 2.068990000000000151e+01 1.370090000000000146e+02 1.748335000000000036e+03
9.900000000000000466e-02 6.365159999999999707e-01 2.017115000000000080e+01 1.367959999999999923e+02 1.748279999999999973e+03
1.000000000000000056e-01 6.364640000000000297e-01 1.964280000000000115e+01 1.365330000000000155e+02 1.748204999999999927e+03
1.010000000000000064e-01 6.363974999999999493e-01 1.909810000000000230e+01 1.362069999999999936e+02 1.748119999999999891e+03
1.020000000000000073e-01 6.363170000000000215e-01 1.853170000000000073e+01 1.358079999999999927e+02 1.748019999999999982e+03
1.030000000000000082e-01 6.362194999999999379e-01 1.793965000000000032e+01 1.353305000000000007e+02 1.747894999999999982e+03
1.040000000000000091e-01 6.361060000000000603e-01 1.732015000000000171e+01 1.347710000000000150e+02 1.747750000000000000e+03
1.050000000000000100e-01 6.359770000000000145e-01 1.667320000000000135e+01 1.341315000000000168e+02 1.747590000000000146e+03
1.059999999999999970e-01 6.358344999999999692e-01 1.600114999999999910e+01 1.334174999999999898e+02 1.747410000000000082e+03
1.069999999999999979e-01 6.356800000000000228e-01 1.530809999999999960e+01 1.326399999999999864e+02 1.747210000000000036e+03
1.079999999999999988e-01 6.355174999999999574e-01 1.460014999999999930e+01 1.318110000000000070e+02 1.746990000000000009e+03
1.089999999999999997e-01 6.353500000000000814e-01 1.388501499999999922e+01 1.309490000000000123e+02 1.746769999999999982e+03
1.100000000000000006e-01 6.351805000000000367e-01 1.317148999999999859e+01 1.300729999999999791e+02 1.746539999999999964e+03
1.110000000000000014e-01 6.350145000000000373e-01 1.246912000000000020e+01 1.292024999999999864e+02 1.746309999999999945e+03
1.120000000000000023e-01 6.348555000000000170e-01 1.178783499999999940e+01 1.283600000000000136e+02 1.746079999999999927e+03
1.130000000000000032e-01 6.347069999999999101e-01 1.113734499999999983e+01 1.275649999999999977e+02 1.745865000000000009e+03
1.140000000000000041e-01 6.345724999999999838e-01 1.052669000000000032e+01 1.268375000000000057e+02 1.745660000000000082e+03
1.150000000000000050e-01 6.344560000000000199e-01 9.963734999999999786e+00 1.261935000000000002e+02 1.745480000000000018e+03
1.160000000000000059e-01 6.343585000000000473e-01 9.454860000000000042e+00 1.256459999999999866e+02 1.745319999999999936e+03
1.170000000000000068e-01 6.342814999999999426e-01 9.004749999999999588e+00 1.252049999999999983e+02 1.745184999999999945e+03
1.180000000000000077e-01 6.342265000000000263e-01 8.616019999999998902e+00 1.248755000000000024e+02 1.745079999999999927e+03
1.190000000000000085e-01 6.341930000000000067e-01 8.289405000000000356e+00 1.246585000000000036e+02 1.745000000000000000e+03
1.200000000000000094e-01 6.341790000000000482e-01 8.023614999999999498e+00 1.245515000000000043e+02 1.744949999999999818e+03
1.209999999999999964e-01 6.341840000000000810e-01 7.815534999999999677e+00 1.245459999999999923e+02 1.744925000000000182e+03
1.219999999999999973e-01 6.342060000000000475e-01 7.660544999999999938e+00 1.246330000000000098e+02 1.744924999999999955e+03
1.229999999999999982e-01 6.342414999999999026e-01 7.552789999999999893e+00 1.247984999999999900e+02 1.744950000000000045e+03
1.239999999999999991e-01 6.342879999999999630e-01 7.485530000000000683e+00 1.250289999999999964e+02 1.744994999999999891e+03
1.250000000000000000e-01 6.343425000000000313e-01 7.451510000000000744e+00 1.253079999999999927e+02 1.745049999999999955e+03
1.260000000000000009e-01 6.344020000000000215e-01 7.443315000000000126e+00 1.256200000000000045e+02 1.745119999999999891e+03
1.270000000000000018e-01 6.344639999999999169e-01 7.453689999999999927e+00 1.259505000000000052e+02 1.745199999999999818e+03
1.280000000000000027e-01 6.345255000000000756e-01 7.475799999999999557e+00 1.262854999999999990e+02 1.745280000000000200e+03
1.290000000000000036e-01 6.345855000000000246e-01 7.503470000000000084e+00 1.266135000000000019e+02 1.745365000000000009e+03
1.300000000000000044e-01 6.346414999999999695e-01 7.531304999999999694e+00 1.269244999999999948e+02 1.745440000000000055e+03
1.310000000000000053e-01 6.346924999999999928e-01 7.554845000000000255e+00 1.272100000000000080e+02 1.745509999999999991e+03
1.320000000000000062e-01 6.347380000000000244e-01 7.570570000000000022e+00 1.274654999999999916e+02 1.745579999999999927e+03
1.330000000000000071e-01 6.347765000000000768e-01 7.575940000000000119e+00 1.276875000000000000e+02 1.745644999999999982e+03
1.340000000000000080e-01 6.348089999999999566e-01 7.569350000000000023e+00 1.278750000000000000e+02 1.745700000000000045e+03
1.350000000000000089e-01 6.348359999999999559e-01 7.550105000000000288e+00 1.280285000000000082e+02 1.745744999999999891e+03
1.360000000000000098e-01 6.348570000000000046e-01 7.518269999999999342e+00 1.281510000000000105e+02 1.745779999999999973e+03
1.370000000000000107e-01 6.348730000000000206e-01 7.474629999999999441e+00 1.282450000000000045e+02 1.745809999999999945e+03
1.380000000000000115e-01 6.348854999999999915e-01 7.420534999999999215e+00 1.283160000000000025e+02 1.745835000000000036e+03
1.390000000000000124e-01 6.348945000000000283e-01 7.357755000000000045e+00 1.283675000000000068e+02 1.745855000000000018e+03
1.400000000000000133e-01 6.349020000000000774e-01 7.288349999999999440e+00 1.284055000000000177e+02 1.745869999999999891e+03
1.410000000000000142e-01 6.349085000000000978e-01 7.214510000000000645e+00 1.284354999999999905e+02 1.745884999999999991e+03
1.420000000000000151e-01 6.349149999999998961e-01 7.138400000000000745e+00 1.284619999999999891e+02 1.745894999999999982e+03
1.430000000000000160e-01 6.349219999999999864e-01 7.062025000000000219e+00 1.284879999999999995e+02 1.745900000000000091e+03
1.440000000000000169e-01 6.349295000000000355e-01 6.987135000000000318e+00 1.285174999999999841e+02 1.745910000000000082e+03
1.450000000000000178e-01 6.349390000000000311e-01 6.915084999999999482e+00 1.285529999999999973e+02 1.745925000000000182e+03
1.459999999999999909e-01 6.349495000000000555e-01 6.846835000000000448e+00 1.285945000000000107e+02 1.745940000000000055e+03
1.469999999999999918e-01 6.349614999999999565e-01 6.782869999999999955e+00 1.286435000000000173e+02 1.745950000000000045e+03
1.479999999999999927e-01 6.349739999999999274e-01 6.723279999999999923e+00 1.286974999999999909e+02 1.745965000000000146e+03
1.489999999999999936e-01 6.349875000000000380e-01 6.667729999999999713e+00 1.287554999999999836e+02 1.745985000000000127e+03
1.499999999999999944e-01 6.350010000000000376e-01 6.615619999999999834e+00 1.288145000000000095e+02 1.746000000000000000e+03
1.509999999999999953e-01 6.350135000000000085e-01 6.566130000000000244e+00 1.288715000000000259e+02 1.746014999999999873e+03
1.519999999999999962e-01 6.350249999999999506e-01 6.518320000000000114e+00 1.289234999999999900e+02 1.746029999999999973e+03
1.529999999999999971e-01 6.350344999999999462e-01 6.471289999999999765e+00 1.289669999999999845e+02 1.746039999999999964e+03
1.539999999999999980e-01 6.350419999999999954e-01 6.424229999999999663e+00 1.290000000000000000e+02 1.746050000000000182e+03
1.549999999999999989e-01 6.350464999999999582e-01 6.376509999999999678e+00 1.290194999999999936e+02 1.746059999999999945e+03
1.559999999999999998e-01 6.350480000000000569e-01 6.327769999999999229e+00 1.290249999999999773e+02 1.746065000000000055e+03
1.570000000000000007e-01 6.350469999999999171e-01 6.277924999999999756e+00 1.290149999999999864e+02 1.746059999999999945e+03
1.580000000000000016e-01 6.350424999999999542e-01 6.227185000000000414e+00 1.289909999999999854e+02 1.746055000000000064e+03
1.590000000000000024e-01 6.350359999999999339e-01 6.176065000000000360e+00 1.289534999999999911e+02 1.746049999999999955e+03
