# t [s], A [cm^2], U [cm/s], P [cPa], c [cm/s]
1.000000000000000021e-03 1.467414999999999969e-01 3.508250000000000535e-01 9.013660000000000139e+01 1.874809999999999945e+03
2.000000000000000042e-03 1.467045000000000154e-01 1.900423499999999821e+00 8.705905000000001337e+01 1.874420000000000073e+03
3.000000000000000062e-03 1.465950000000000031e-01 3.777510999999999619e+00 8.293240000000000123e+01 1.873324999999999818e+03
4.000000000000000083e-03 1.464409999999999878e-01 5.862503000000000242e+00 7.847735000000000127e+01 1.871804999999999836e+03
5.000000000000000104e-03 1.462714999999999987e-01 8.096054999999999779e+00 7.448949999999999250e+01 1.870154999999999973e+03
6.000000000000000125e-03 1.461064999999999725e-01 1.032679500000000061e+01 7.125050000000000239e+01 1.868554999999999836e+03
7.000000000000000146e-03 1.459509999999999974e-01 1.235535499999999942e+01 6.855365000000000464e+01 1.867079999999999927e+03
8.000000000000000167e-03 1.458070000000000199e-01 1.408177000000000056e+01 6.613569999999999993e+01 1.865735000000000127e+03
9.000000000000001055e-03 1.456779999999999742e-01 1.553340000000000032e+01 6.399094999999999800e+01 1.864545000000000073e+03
1.000000000000000194e-02 1.455664999999999876e-01 1.675280000000000058e+01 6.220210000000000150e+01 1.863529999999999973e+03
1.099999999999999936e-02 1.454729999999999912e-01 1.775619999999999976e+01 6.076364999999999839e+01 1.862690000000000055e+03
1.200000000000000025e-02 1.453964999999999841e-01 1.855969999999999942e+01 5.962959999999999638e+01 1.862005000000000109e+03
1.300000000000000114e-02 1.453349999999999920e-01 1.917960000000000065e+01 5.875159999999999627e+01 1.861470000000000027e+03
1.400000000000000203e-02 1.452860000000000262e-01 1.962154999999999916e+01 5.805134999999999934e+01 1.861050000000000182e+03
1.499999999999999944e-02 1.452459999999999862e-01 1.990350000000000108e+01 5.745345000000000368e+01 1.860704999999999927e+03
1.600000000000000033e-02 1.452144999999999964e-01 2.009469999999999956e+01 5.699564999999999770e+01 1.860449999999999818e+03
1.700000000000000122e-02 1.451945000000000041e-01 2.031714999999999804e+01 5.688465000000000060e+01 1.860289999999999964e+03
1.800000000000000211e-02 1.451945000000000041e-01 2.069675000000000153e+01 5.740914999999999679e+01 1.860300000000000182e+03
1.900000000000000300e-02 1.452195000000000014e-01 2.129724999999999824e+01 5.876024999999999920e+01 1.860539999999999964e+03
2.000000000000000042e-02 1.452720000000000122e-01 2.208275000000000077e+01 6.088505000000000678e+01 1.861014999999999873e+03
2.100000000000000130e-02 1.453455000000000163e-01 2.292644999999999911e+01 6.345889999999999986e+01 1.861684999999999945e+03
2.200000000000000219e-02 1.454280000000000017e-01 2.365709999999999980e+01 6.598260000000000502e+01 1.862445000000000164e+03
2.299999999999999961e-02 1.455060000000000242e-01 2.411854999999999905e+01 6.794755000000000678e+01 1.863170000000000073e+03
2.400000000000000050e-02 1.455644999999999856e-01 2.421880000000000166e+01 6.899694999999999823e+01 1.863730000000000018e+03
2.500000000000000139e-02 1.455974999999999908e-01 2.395309999999999917e+01 6.902414999999999168e+01 1.864055000000000064e+03
2.600000000000000228e-02 1.456020000000000092e-01 2.339560000000000173e+01 6.818139999999999645e+01 1.864130000000000109e+03
2.700000000000000316e-02 1.455839999999999912e-01 2.266740000000000066e+01 6.680355000000000132e+01 1.863990000000000009e+03
2.800000000000000058e-02 1.455515000000000003e-01 2.189385000000000048e+01 6.528345000000000198e+01 1.863704999999999927e+03
2.900000000000000147e-02 1.455154999999999921e-01 2.116805000000000092e+01 6.394749999999999801e+01 1.863384999999999991e+03
3.000000000000000236e-02 1.454820000000000002e-01 2.053085000000000093e+01 6.297310000000000230e+01 1.863079999999999927e+03
3.099999999999999978e-02 1.454560000000000020e-01 1.997109999999999985e+01 6.236655000000000371e+01 1.862835000000000036e+03
3.200000000000000067e-02 1.454369999999999830e-01 1.944184999999999874e+01 6.199734999999999729e+01 1.862654999999999973e+03
3.300000000000000155e-02 1.454205000000000081e-01 1.888470000000000226e+01 6.166800000000000637e+01 1.862505000000000109e+03
3.400000000000000244e-02 1.454024999999999901e-01 1.825459999999999994e+01 6.119374999999999432e+01 1.862345000000000027e+03
3.500000000000000333e-02 1.453794999999999948e-01 1.753829999999999956e+01 6.046894999999999953e+01 1.862139999999999873e+03
3.600000000000000422e-02 1.453500000000000070e-01 1.676200000000000045e+01 5.950430000000000064e+01 1.861875000000000000e+03
3.700000000000000511e-02 1.453145000000000131e-01 1.598770000000000024e+01 5.842754999999999654e+01 1.861559999999999945e+03
3.799999999999999906e-02 1.452795000000000059e-01 1.529820000000000135e+01 5.744934999999999548e+01 1.861235000000000127e+03
3.899999999999999994e-02 1.452499999999999902e-01 1.477629999999999910e+01 5.680509999999999593e+01 1.860965000000000146e+03
4.000000000000000083e-02 1.452324999999999866e-01 1.448385000000000034e+01 5.669055000000000177e+01 1.860795000000000073e+03
4.100000000000000172e-02 1.452320000000000000e-01 1.444620000000000104e+01 5.720834999999999582e+01 1.860779999999999973e+03
4.200000000000000261e-02 1.452515000000000056e-01 1.464529999999999887e+01 5.833960000000000434e+01 1.860940000000000055e+03
4.300000000000000350e-02 1.452884999999999871e-01 1.502270000000000039e+01 5.994435000000000002e+01 1.861259999999999991e+03
4.400000000000000439e-02 1.453395000000000103e-01 1.549010000000000176e+01 6.178879999999999484e+01 1.861715000000000146e+03
4.499999999999999833e-02 1.453964999999999841e-01 1.594484999999999886e+01 6.358894999999999698e+01 1.862220000000000027e+03
4.599999999999999922e-02 1.454515000000000113e-01 1.628575000000000017e+01 6.505984999999999729e+01 1.862724999999999909e+03
4.700000000000000011e-02 1.454960000000000142e-01 1.642694999999999794e+01 6.595990000000000464e+01 1.863125000000000000e+03
4.800000000000000100e-02 1.455214999999999981e-01 1.630744999999999933e+01 6.612184999999999491e+01 1.863375000000000000e+03
4.900000000000000189e-02 1.455250000000000155e-01 1.589530000000000065e+01 6.546784999999999854e+01 1.863414999999999964e+03
5.000000000000000278e-02 1.455024999999999791e-01 1.518730000000000047e+01 6.400839999999999463e+01 1.863224999999999909e+03
5.100000000000000366e-02 1.454540000000000000e-01 1.420449999999999946e+01 6.182750000000000057e+01 1.862795000000000073e+03
5.200000000000000455e-02 1.453814999999999968e-01 1.298605500000000035e+01 5.906090000000000373e+01 1.862150000000000091e+03
5.300000000000000544e-02 1.452890000000000015e-01 1.158246499999999912e+01 5.587140000000000128e+01 1.861315000000000055e+03
5.399999999999999939e-02 1.451814999999999911e-01 1.004931000000000019e+01 5.242770000000000152e+01 1.860335000000000036e+03
5.500000000000000028e-02 1.450635000000000119e-01 8.442975000000000563e+00 4.888864999999999839e+01 1.859264999999999873e+03
5.600000000000000117e-02 1.449394999999999989e-01 6.818375000000000519e+00 4.539504999999999768e+01 1.858139999999999873e+03
5.700000000000000205e-02 1.448160000000000003e-01 5.227534999999999599e+00 4.206770000000000209e+01 1.857005000000000109e+03
5.800000000000000294e-02 1.446950000000000180e-01 3.720069500000000140e+00 3.900960000000000605e+01 1.855909999999999854e+03
5.900000000000000383e-02 1.445825000000000027e-01 2.343284999999999840e+00 3.631069999999999709e+01 1.854875000000000000e+03
6.000000000000000472e-02 1.444809999999999983e-01 1.142495000000000038e+00 3.405225000000000080e+01 1.853940000000000055e+03
6.099999999999999867e-02 1.443939999999999946e-01 1.606199999999999850e-01 3.230934999999999491e+01 1.853134999999999991e+03
6.199999999999999956e-02 1.443245000000000222e-01 -5.628950000000000342e-01 3.115084999999999837e+01 1.852490000000000009e+03
6.300000000000000044e-02 1.442755000000000010e-01 -9.937819999999999432e-01 3.063729999999999976e+01 1.852029999999999973e+03
6.400000000000000133e-02 1.442490000000000161e-01 -1.105000500000000052e+00 3.081634999999999991e+01 1.851769999999999982e+03
6.500000000000000222e-02 1.442475000000000007e-01 -8.787715000000000387e-01 3.171795000000000186e+01 1.851735000000000127e+03
6.600000000000000311e-02 1.442714999999999970e-01 -3.082234999999999836e-01 3.334969999999999857e+01 1.851929999999999836e+03
6.700000000000000400e-02 1.443220000000000058e-01 6.016850000000000254e-01 3.569379999999999598e+01 1.852365000000000009e+03
6.800000000000000488e-02 1.443989999999999996e-01 1.834166499999999811e+00 3.870649999999999835e+01 1.853034999999999854e+03
6.900000000000000577e-02 1.444995000000000029e-01 3.361463399999999879e+00 4.231980000000000075e+01 1.853929999999999836e+03
7.000000000000000666e-02 1.446224999999999872e-01 5.146560000000000024e+00 4.644554999999999723e+01 1.855034999999999854e+03
7.100000000000000755e-02 1.447654999999999914e-01 7.145360000000000156e+00 5.098109999999999786e+01 1.856320000000000164e+03
7.200000000000000844e-02 1.449245000000000116e-01 9.309194999999998998e+00 5.581555000000000177e+01 1.857750000000000000e+03
7.300000000000000933e-02 1.450954999999999884e-01 1.158725000000000094e+01 6.083650000000000091e+01 1.859309999999999945e+03
7.399999999999999634e-02 1.452749999999999875e-01 1.392895499999999842e+01 6.593565000000000964e+01 1.860949999999999818e+03
7.499999999999999722e-02 1.454600000000000060e-01 1.628594999999999970e+01 7.101364999999999839e+01 1.862639999999999873e+03
7.599999999999999811e-02 1.456465000000000121e-01 1.861360000000000170e+01 7.598350000000000648e+01 1.864349999999999909e+03
7.699999999999999900e-02 1.458305000000000018e-01 2.087279999999999802e+01 8.077340000000000941e+01 1.866054999999999836e+03
7.799999999999999989e-02 1.460104999999999875e-01 2.303094999999999715e+01 8.532864999999999611e+01 1.867720000000000027e+03
7.900000000000000078e-02 1.461834999999999940e-01 2.506275000000000119e+01 8.961230000000000473e+01 1.869329999999999927e+03
8.000000000000000167e-02 1.463484999999999925e-01 2.695090000000000074e+01 9.360599999999999454e+01 1.870875000000000000e+03
8.100000000000000255e-02 1.465049999999999963e-01 2.868650000000000233e+01 9.730969999999999231e+01 1.872339999999999918e+03
8.200000000000000344e-02 1.466514999999999902e-01 3.026859999999999928e+01 1.007396500000000117e+02 1.873714999999999918e+03
8.300000000000000433e-02 1.467895000000000172e-01 3.170380000000000109e+01 1.039281000000000006e+02 1.875019999999999982e+03
8.400000000000000522e-02 1.469194999999999807e-01 3.300529999999999831e+01 1.069180000000000064e+02 1.876244999999999891e+03
8.500000000000000611e-02 1.470424999999999927e-01 3.419119999999999493e+01 1.097620000000000005e+02 1.877409999999999854e+03
8.600000000000000699e-02 1.471604999999999996e-01 3.528324999999999534e+01 1.125155000000000030e+02 1.878525000000000091e+03
8.700000000000000788e-02 1.472745000000000026e-01 3.630450000000000443e+01 1.152359999999999900e+02 1.879615000000000009e+03
8.800000000000000877e-02 1.473875000000000046e-01 3.727809999999999491e+01 1.179745000000000061e+02 1.880679999999999836e+03
8.899999999999999578e-02 1.475009999999999932e-01 3.822494999999999976e+01 1.207750000000000057e+02 1.881750000000000000e+03
8.999999999999999667e-02 1.476149999999999962e-01 3.916259999999999764e+01 1.236699999999999875e+02 1.882835000000000036e+03
9.099999999999999756e-02 1.477320000000000022e-01 4.010399999999999920e+01 1.266784999999999997e+02 1.883940000000000055e+03
9.199999999999999845e-02 1.478524999999999978e-01 4.105670000000000641e+01 1.298054999999999950e+02 1.885079999999999927e+03
9.299999999999999933e-02 1.479759999999999964e-01 4.202270000000000039e+01 1.330405000000000086e+02 1.886250000000000000e+03
9.400000000000000022e-02 1.481029999999999847e-01 4.299819999999999709e+01 1.363619999999999948e+02 1.887449999999999818e+03
9.500000000000000111e-02 1.482320000000000026e-01 4.397435000000000116e+01 1.397339999999999804e+02 1.888670000000000073e+03
9.600000000000000200e-02 1.483629999999999949e-01 4.493805000000000405e+01 1.431134999999999877e+02 1.889909999999999854e+03
9.700000000000000289e-02 1.484940000000000149e-01 4.587250000000000227e+01 1.464504999999999768e+02 1.891154999999999973e+03
9.800000000000000377e-02 1.486230000000000051e-01 4.675880000000000081e+01 1.496920000000000073e+02 1.892380000000000109e+03
9.900000000000000466e-02 1.487489999999999923e-01 4.757685000000000031e+01 1.527835000000000036e+02 1.893579999999999927e+03
1.000000000000000056e-01 1.488694999999999879e-01 4.830644999999999811e+01 1.556754999999999995e+02 1.894724999999999909e+03
1.010000000000000064e-01 1.489830000000000043e-01 4.892879999999999541e+01 1.583209999999999980e+02 1.895809999999999945e+03
1.020000000000000073e-01 1.490879999999999983e-01 4.942674999999999841e+01 1.606800000000000068e+02 1.896819999999999936e+03
1.030000000000000082e-01 1.491830000000000100e-01 4.978649999999999665e+01 1.627235000000000014e+02 1.897730000000000018e+03
1.040000000000000091e-01 1.492664999999999964e-01 4.999725000000000108e+01 1.644279999999999973e+02 1.898534999999999854e+03
1.050000000000000100e-01 1.493379999999999985e-01 5.005259999999999820e+01 1.657824999999999989e+02 1.899230000000000018e+03
1.059999999999999970e-01 1.493970000000000020e-01 4.995005000000000450e+01 1.667855000000000132e+02 1.899805000000000064e+03
1.069999999999999979e-01 1.494435000000000069e-01 4.969154999999999944e+01 1.674439999999999884e+02 1.900259999999999991e+03
1.079999999999999988e-01 1.494769999999999988e-01 4.928314999999999912e+01 1.677749999999999773e+02 1.900595000000000027e+03
1.089999999999999997e-01 1.494989999999999930e-01 4.873475000000000534e+01 1.678034999999999854e+02 1.900820000000000164e+03
1.100000000000000006e-01 1.495094999999999896e-01 4.805975000000000108e+01 1.675614999999999952e+02 1.900934999999999945e+03
1.110000000000000014e-01 1.495100000000000040e-01 4.727424999999999500e+01 1.670844999999999914e+02 1.900950000000000045e+03
1.120000000000000023e-01 1.495004999999999806e-01 4.639659999999999940e+01 1.664134999999999991e+02 1.900875000000000000e+03
1.130000000000000032e-01 1.494840000000000058e-01 4.544655000000000200e+01 1.655900000000000034e+02 1.900730000000000018e+03
1.140000000000000041e-01 1.494610000000000105e-01 4.444450000000000500e+01 1.646575000000000273e+02 1.900514999999999873e+03
1.150000000000000050e-01 1.494329999999999825e-01 4.341069999999999851e+01 1.636560000000000059e+02 1.900259999999999991e+03
1.160000000000000059e-01 1.494019999999999793e-01 4.236489999999999867e+01 1.626250000000000000e+02 1.899970000000000027e+03
1.170000000000000068e-01 1.493685000000000151e-01 4.132489999999999952e+01 1.615985000000000014e+02 1.899650000000000091e+03
1.180000000000000077e-01 1.493344999999999811e-01 4.030695000000000050e+01 1.606075000000000159e+02 1.899329999999999927e+03
1.190000000000000085e-01 1.493010000000000170e-01 3.932469999999999999e+01 1.596744999999999948e+02 1.899010000000000218e+03
1.200000000000000094e-01 1.492680000000000118e-01 3.838880000000000337e+01 1.588190000000000168e+02 1.898699999999999818e+03
1.209999999999999964e-01 1.492374999999999952e-01 3.750719999999999743e+01 1.580509999999999877e+02 1.898400000000000091e+03
1.219999999999999973e-01 1.492094999999999949e-01 3.668430000000000035e+01 1.573759999999999764e+02 1.898130000000000109e+03
1.229999999999999982e-01 1.491840000000000110e-01 3.592175000000000296e+01 1.567914999999999850e+02 1.897884999999999991e+03
1.239999999999999991e-01 1.491609999999999880e-01 3.521779999999999688e+01 1.562909999999999968e+02 1.897659999999999854e+03
1.250000000000000000e-01 1.491405000000000092e-01 3.456839999999999691e+01 1.558609999999999900e+02 1.897460000000000036e+03
1.260000000000000009e-01 1.491224999999999912e-01 3.396659999999999968e+01 1.554840000000000089e+02 1.897284999999999854e+03
1.270000000000000018e-01 1.491065000000000029e-01 3.340375000000000227e+01 1.551394999999999982e+02 1.897125000000000000e+03
1.280000000000000027e-01 1.490910000000000013e-01 3.286970000000000169e+01 1.548034999999999854e+02 1.896974999999999909e+03
1.290000000000000036e-01 1.490759999999999863e-01 3.235305000000000319e+01 1.544515000000000100e+02 1.896825000000000045e+03
1.300000000000000044e-01 1.490604999999999847e-01 3.184224999999999994e+01 1.540589999999999975e+02 1.896675000000000182e+03
1.310000000000000053e-01 1.490434999999999954e-01 3.132589999999999719e+01 1.536020000000000039e+02 1.896509999999999991e+03
1.320000000000000062e-01 1.490250000000000186e-01 3.079310000000000258e+01 1.530600000000000023e+02 1.896324999999999818e+03
1.330000000000000071e-01 1.490029999999999966e-01 3.023429999999999751e+01 1.524139999999999873e+02 1.896119999999999891e+03
1.340000000000000080e-01 1.489774999999999849e-01 2.964155000000000229e+01 1.516505000000000223e+02 1.895880000000000109e+03
1.350000000000000089e-01 1.489479999999999971e-01 2.900894999999999868e+01 1.507599999999999909e+02 1.895599999999999909e+03
1.360000000000000098e-01 1.489145000000000052e-01 2.833274999999999721e+01 1.497400000000000091e+02 1.895284999999999854e+03
1.370000000000000107e-01 1.488760000000000083e-01 2.761184999999999690e+01 1.485905000000000200e+02 1.894920000000000073e+03
1.380000000000000115e-01 1.488335000000000075e-01 2.684765000000000157e+01 1.473195000000000050e+02 1.894519999999999982e+03
1.390000000000000124e-01 1.487864999999999882e-01 2.604404999999999859e+01 1.459404999999999859e+02 1.894075000000000045e+03
1.400000000000000133e-01 1.487355000000000205e-01 2.520720000000000027e+01 1.444689999999999941e+02 1.893590000000000146e+03
1.410000000000000142e-01 1.486815000000000220e-01 2.434544999999999959e+01 1.429279999999999973e+02 1.893079999999999927e+03
1.420000000000000151e-01 1.486239999999999783e-01 2.346880000000000166e+01 1.413430000000000177e+02 1.892539999999999964e+03
1.430000000000000160e-01 1.485655000000000170e-01 2.258855000000000146e+01 1.397389999999999759e+02 1.891985000000000127e+03
1.440000000000000169e-01 1.485059999999999991e-01 2.171679999999999922e+01 1.381455000000000268e+02 1.891424999999999955e+03
1.450000000000000178e-01 1.484459999999999946e-01 2.086585000000000178e+01 1.365900000000000034e+02 1.890860000000000127e+03
1.459999999999999909e-01 1.483880000000000199e-01 2.004789999999999850e+01 1.350989999999999895e+02 1.890299999999999955e+03
1.469999999999999918e-01 1.483309999999999906e-01 1.927430000000000021e+01 1.336974999999999909e+02 1.889764999999999873e+03
1.479999999999999927e-01 1.482769999999999921e-01 1.855535000000000068e+01 1.324069999999999823e+02 1.889255000000000109e+03
1.489999999999999936e-01 1.482269999999999976e-01 1.789959999999999951e+01 1.312439999999999998e+02 1.888779999999999973e+03
1.499999999999999944e-01 1.481814999999999938e-01 1.731390000000000029e+01 1.302214999999999918e+02 1.888339999999999918e+03
1.509999999999999953e-01 1.481405000000000083e-01 1.680294999999999916e+01 1.293480000000000132e+02 1.887950000000000045e+03
1.519999999999999962e-01 1.481045000000000000e-01 1.636929999999999907e+01 1.286254999999999882e+02 1.887605000000000018e+03
1.529999999999999971e-01 1.480739999999999834e-01 1.601330000000000098e+01 1.280540000000000020e+02 1.887309999999999945e+03
1.539999999999999980e-01 1.480484999999999995e-01 1.573310000000000031e+01 1.276264999999999930e+02 1.887065000000000055e+03
1.549999999999999989e-01 1.480285000000000073e-01 1.552505000000000024e+01 1.273324999999999960e+02 1.886865000000000009e+03
1.559999999999999998e-01 1.480135000000000201e-01 1.538359999999999950e+01 1.271595000000000084e+02 1.886715000000000146e+03
1.570000000000000007e-01 1.480029999999999957e-01 1.530189999999999984e+01 1.270904999999999916e+02 1.886610000000000127e+03
1.580000000000000016e-01 1.479960000000000164e-01 1.527185000000000059e+01 1.271090000000000089e+02 1.886539999999999964e+03
1.590000000000000024e-01 1.479929999999999857e-01 1.528480000000000061e+01 1.271949999999999932e+02 1.886505000000000109e+03
