# t [s], A [cm^2], U [cm/s], P [cPa], c [cm/s]
1.000000000000000021e-03 1.815734999999999988e-01 1.909649999999999959e-01 8.873869999999999436e+01 2.008699999999999818e+03
2.000000000000000042e-03 1.815404999999999935e-01 1.450665499999999941e+00 8.612440000000000850e+01 2.008414999999999964e+03
3.000000000000000062e-03 1.814339999999999842e-01 3.045849000000000029e+00 8.247780000000000200e+01 2.007550000000000182e+03
4.000000000000000083e-03 1.812785000000000091e-01 4.849004350000000407e+00 7.830225000000000080e+01 2.006315000000000055e+03
5.000000000000000104e-03 1.811039999999999872e-01 6.812034999999999840e+00 7.432909999999999684e+01 2.004940000000000055e+03
6.000000000000000125e-03 1.809304999999999941e-01 8.825430000000000774e+00 7.095050000000000523e+01 2.003585000000000036e+03
7.000000000000000146e-03 1.807660000000000100e-01 1.071344000000000030e+01 6.810760000000000502e+01 2.002320000000000164e+03
8.000000000000000167e-03 1.806119999999999948e-01 1.235075000000000145e+01 6.556810000000000116e+01 2.001160000000000082e+03
9.000000000000001055e-03 1.804719999999999935e-01 1.373140500000000053e+01 6.327929999999999922e+01 2.000115000000000009e+03
1.000000000000000194e-02 1.803500000000000103e-01 1.489174999999999827e+01 6.132144999999999868e+01 1.999220000000000027e+03
1.099999999999999936e-02 1.802469999999999906e-01 1.585204999999999842e+01 5.972704999999999842e+01 1.998470000000000027e+03
1.200000000000000025e-02 1.801625000000000032e-01 1.662405000000000044e+01 5.846790000000000020e+01 1.997865000000000009e+03
1.300000000000000114e-02 1.800950000000000051e-01 1.721490000000000009e+01 5.748505000000000109e+01 1.997380000000000109e+03
1.400000000000000203e-02 1.800400000000000056e-01 1.762349999999999994e+01 5.668380000000000507e+01 1.997005000000000109e+03
1.499999999999999944e-02 1.799945000000000017e-01 1.786270000000000024e+01 5.597509999999999764e+01 1.996690000000000055e+03
1.600000000000000033e-02 1.799564999999999915e-01 1.799210000000000065e+01 5.537644999999999840e+01 1.996434999999999945e+03
1.700000000000000122e-02 1.799310000000000076e-01 1.812129999999999797e+01 5.506659999999999400e+01 1.996269999999999982e+03
1.800000000000000211e-02 1.799250000000000016e-01 1.836885000000000190e+01 5.531615000000000038e+01 1.996235000000000127e+03
1.900000000000000300e-02 1.799449999999999938e-01 1.880659999999999954e+01 5.633230000000000359e+01 1.996394999999999982e+03
2.000000000000000042e-02 1.799935000000000007e-01 1.942435000000000045e+01 5.812260000000000559e+01 1.996744999999999891e+03
2.100000000000000130e-02 1.800660000000000038e-01 2.013325000000000031e+01 6.045544999999999902e+01 1.997275000000000091e+03
2.200000000000000219e-02 1.801510000000000056e-01 2.080089999999999861e+01 6.292910000000000537e+01 1.997900000000000091e+03
2.299999999999999961e-02 1.802350000000000063e-01 2.129905000000000115e+01 6.510354999999999848e+01 1.998534999999999854e+03
2.400000000000000050e-02 1.803075000000000094e-01 2.154329999999999856e+01 6.663679999999999382e+01 1.999085000000000036e+03
2.500000000000000139e-02 1.803580000000000183e-01 2.151330000000000098e+01 6.737409999999999854e+01 1.999484999999999900e+03
2.600000000000000228e-02 1.803839999999999888e-01 2.124869999999999948e+01 6.736664999999999281e+01 1.999699999999999818e+03
2.700000000000000316e-02 1.803889999999999938e-01 2.082720000000000127e+01 6.682269999999999754e+01 1.999759999999999991e+03
2.800000000000000058e-02 1.803800000000000125e-01 2.033334999999999937e+01 6.601730000000000587e+01 1.999710000000000036e+03
2.900000000000000147e-02 1.803629999999999955e-01 1.983139999999999858e+01 6.519549999999999557e+01 1.999590000000000146e+03
3.000000000000000236e-02 1.803445000000000187e-01 1.934929999999999950e+01 6.450355000000000416e+01 1.999454999999999927e+03
3.099999999999999978e-02 1.803269999999999873e-01 1.887785000000000224e+01 6.396300000000000807e+01 1.999319999999999936e+03
3.200000000000000067e-02 1.803095000000000114e-01 1.838210000000000122e+01 6.349094999999999800e+01 1.999195000000000164e+03
3.300000000000000155e-02 1.802904999999999924e-01 1.782045000000000101e+01 6.295065000000000310e+01 1.999055000000000064e+03
3.400000000000000244e-02 1.802655000000000229e-01 1.716385000000000005e+01 6.221500000000000341e+01 1.998875000000000000e+03
3.500000000000000333e-02 1.802320000000000033e-01 1.641094999999999970e+01 6.122209999999999752e+01 1.998634999999999991e+03
3.600000000000000422e-02 1.801909999999999901e-01 1.559414999999999907e+01 6.000775000000000148e+01 1.998340000000000146e+03
3.700000000000000511e-02 1.801439999999999986e-01 1.477520000000000167e+01 5.870645000000000380e+01 1.998000000000000000e+03
3.799999999999999906e-02 1.800979999999999803e-01 1.403180000000000049e+01 5.752139999999999986e+01 1.997659999999999854e+03
3.899999999999999994e-02 1.800585000000000102e-01 1.343945000000000078e+01 5.667300000000000182e+01 1.997369999999999891e+03
4.000000000000000083e-02 1.800339999999999996e-01 1.305405000000000015e+01 5.634224999999999994e+01 1.997174999999999955e+03
4.100000000000000172e-02 1.800269999999999926e-01 1.289855000000000018e+01 5.662480000000000047e+01 1.997110000000000127e+03
4.200000000000000261e-02 1.800415000000000210e-01 1.295919999999999916e+01 5.750709999999999411e+01 1.997200000000000045e+03
4.300000000000000350e-02 1.800754999999999995e-01 1.318875000000000064e+01 5.886955000000000382e+01 1.997429999999999836e+03
4.400000000000000439e-02 1.801240000000000063e-01 1.351640000000000086e+01 6.051120000000000232e+01 1.997780000000000200e+03
4.499999999999999833e-02 1.801800000000000068e-01 1.386069999999999958e+01 6.218900000000000006e+01 1.998184999999999945e+03
4.599999999999999922e-02 1.802354999999999929e-01 1.414300000000000068e+01 6.366084999999999638e+01 1.998595000000000027e+03
4.700000000000000011e-02 1.802829999999999988e-01 1.429755000000000109e+01 6.472214999999999918e+01 1.998944999999999936e+03
4.800000000000000100e-02 1.803170000000000051e-01 1.427849999999999930e+01 6.523144999999999527e+01 1.999194999999999936e+03
4.900000000000000189e-02 1.803310000000000191e-01 1.406194999999999951e+01 6.512069999999999936e+01 1.999315000000000055e+03
5.000000000000000278e-02 1.803239999999999843e-01 1.364450000000000074e+01 6.439185000000000514e+01 1.999275000000000091e+03
5.100000000000000366e-02 1.802954999999999974e-01 1.303860000000000063e+01 6.310280000000000200e+01 1.999075000000000045e+03
5.200000000000000455e-02 1.802475000000000049e-01 1.226764999999999972e+01 6.134789999999999566e+01 1.998735000000000127e+03
5.300000000000000544e-02 1.801825000000000232e-01 1.136036999999999964e+01 5.923744999999999550e+01 1.998259999999999991e+03
5.399999999999999939e-02 1.801045000000000007e-01 1.034676999999999936e+01 5.688125000000000142e+01 1.997690000000000055e+03
5.500000000000000028e-02 1.800154999999999950e-01 9.256095000000000184e+00 5.437819999999999965e+01 1.997034999999999854e+03
5.600000000000000117e-02 1.799199999999999966e-01 8.115980000000000416e+00 5.181159999999999854e+01 1.996335000000000036e+03
5.700000000000000205e-02 1.798210000000000086e-01 6.952935000000000088e+00 4.925095000000000312e+01 1.995599999999999909e+03
5.800000000000000294e-02 1.797205000000000052e-01 5.793734999999999857e+00 4.675659999999999883e+01 1.994859999999999900e+03
5.900000000000000383e-02 1.796220000000000039e-01 4.666364999999999874e+00 4.438499999999999801e+01 1.994134999999999991e+03
6.000000000000000472e-02 1.795269999999999921e-01 3.600913499999999878e+00 4.219454999999999956e+01 1.993434999999999945e+03
6.099999999999999867e-02 1.794395000000000018e-01 2.629413850000000163e+00 4.024759999999999849e+01 1.992779999999999973e+03
6.199999999999999956e-02 1.793609999999999927e-01 1.785031999999999952e+00 3.861079999999999757e+01 1.992190000000000055e+03
6.300000000000000044e-02 1.792945000000000233e-01 1.100491499999999956e+00 3.735245000000000459e+01 1.991690000000000055e+03
6.400000000000000133e-02 1.792429999999999857e-01 6.060445000000000970e-01 3.653754999999999598e+01 1.991295000000000073e+03
6.500000000000000222e-02 1.792084999999999928e-01 3.273715000000000375e-01 3.622249999999999659e+01 1.991030000000000200e+03
6.600000000000000311e-02 1.791939999999999922e-01 2.836603500000000055e-01 3.644939999999999714e+01 1.990904999999999973e+03
6.700000000000000400e-02 1.791999999999999982e-01 4.861588000000000021e-01 3.724174999999999613e+01 1.990929999999999836e+03
6.800000000000000488e-02 1.792285000000000128e-01 9.373788499999999857e-01 3.860164999999999935e+01 1.991119999999999891e+03
6.900000000000000577e-02 1.792779999999999929e-01 1.630957049999999908e+00 4.050945000000000107e+01 1.991474999999999909e+03
7.000000000000000666e-02 1.793494999999999950e-01 2.552179999999999893e+00 4.292450000000000188e+01 1.991980000000000018e+03
7.100000000000000755e-02 1.794410000000000172e-01 3.678999999999999826e+00 4.578865000000000407e+01 1.992634999999999991e+03
7.200000000000000844e-02 1.795505000000000018e-01 4.983505000000000074e+00 4.902980000000000160e+01 1.993424999999999955e+03
7.300000000000000933e-02 1.796750000000000014e-01 6.433590000000000586e+00 5.256730000000000302e+01 1.994335000000000036e+03
7.399999999999999634e-02 1.798109999999999986e-01 7.994779999999999553e+00 5.631645000000000323e+01 1.995335000000000036e+03
7.499999999999999722e-02 1.799570000000000058e-01 9.632094999999999629e+00 6.019415000000000049e+01 1.996405000000000200e+03
7.599999999999999811e-02 1.801089999999999913e-01 1.131174000000000035e+01 6.412284999999999968e+01 1.997529999999999973e+03
7.699999999999999900e-02 1.802640000000000076e-01 1.300277499999999975e+01 6.803509999999999991e+01 1.998675000000000182e+03
7.799999999999999989e-02 1.804199999999999970e-01 1.467820000000000036e+01 7.187610000000000809e+01 1.999840000000000146e+03
7.900000000000000078e-02 1.805744999999999989e-01 1.631609999999999872e+01 7.560580000000000211e+01 2.000989999999999782e+03
8.000000000000000167e-02 1.807259999999999978e-01 1.789999999999999858e+01 7.919964999999999122e+01 2.002119999999999891e+03
8.100000000000000255e-02 1.808735000000000204e-01 1.941904999999999859e+01 8.264809999999999945e+01 2.003230000000000018e+03
8.200000000000000344e-02 1.810165000000000246e-01 2.086749999999999972e+01 8.595464999999998668e+01 2.004299999999999955e+03
8.300000000000000433e-02 1.811554999999999971e-01 2.224410000000000309e+01 8.913349999999999795e+01 2.005349999999999909e+03
8.400000000000000522e-02 1.812894999999999923e-01 2.355134999999999934e+01 9.220619999999999550e+01 2.006365000000000009e+03
8.500000000000000611e-02 1.814199999999999979e-01 2.479395000000000238e+01 9.519804999999999495e+01 2.007355000000000018e+03
8.600000000000000699e-02 1.815485000000000015e-01 2.597830000000000084e+01 9.813524999999999920e+01 2.008324999999999818e+03
8.700000000000000788e-02 1.816750000000000032e-01 2.711070000000000135e+01 1.010413499999999942e+02 2.009280000000000200e+03
8.800000000000000877e-02 1.817995000000000028e-01 2.819744999999999990e+01 1.039350499999999897e+02 2.010230000000000018e+03
8.899999999999999578e-02 1.819240000000000024e-01 2.924324999999999974e+01 1.068284999999999911e+02 2.011170000000000073e+03
8.999999999999999667e-02 1.820479999999999876e-01 3.025140000000000384e+01 1.097274999999999920e+02 2.012115000000000009e+03
9.099999999999999756e-02 1.821720000000000006e-01 3.122335000000000349e+01 1.126310000000000002e+02 2.013054999999999836e+03
9.199999999999999845e-02 1.822960000000000136e-01 3.215854999999999819e+01 1.155300000000000011e+02 2.013994999999999891e+03
9.299999999999999933e-02 1.824199999999999988e-01 3.305465000000000231e+01 1.184120000000000061e+02 2.014934999999999945e+03
9.400000000000000022e-02 1.825424999999999964e-01 3.390775000000000006e+01 1.212579999999999956e+02 2.015865000000000009e+03
9.500000000000000111e-02 1.826634999999999787e-01 3.471235000000000070e+01 1.240459999999999923e+02 2.016784999999999854e+03
9.600000000000000200e-02 1.827814999999999857e-01 3.546210000000000662e+01 1.267530000000000143e+02 2.017690000000000055e+03
9.700000000000000289e-02 1.828965000000000174e-01 3.614965000000000117e+01 1.293540000000000134e+02 2.018565000000000055e+03
9.800000000000000377e-02 1.830070000000000030e-01 3.676729999999999876e+01 1.318240000000000123e+02 2.019410000000000082e+03
9.900000000000000466e-02 1.831125000000000114e-01 3.730724999999999625e+01 1.341374999999999886e+02 2.020215000000000146e+03
1.000000000000000056e-01 1.832110000000000127e-01 3.776194999999999879e+01 1.362725000000000080e+02 2.020974999999999909e+03
1.010000000000000064e-01 1.833035000000000081e-01 3.812434999999999974e+01 1.382094999999999914e+02 2.021680000000000064e+03
1.020000000000000073e-01 1.833869999999999945e-01 3.838870000000000005e+01 1.399304999999999950e+02 2.022329999999999927e+03
1.030000000000000082e-01 1.834625000000000006e-01 3.855039999999999623e+01 1.414220000000000255e+02 2.022905000000000200e+03
1.040000000000000091e-01 1.835284999999999833e-01 3.860654999999999859e+01 1.426759999999999877e+02 2.023420000000000073e+03
1.050000000000000100e-01 1.835855000000000126e-01 3.855634999999999479e+01 1.436890000000000214e+02 2.023865000000000009e+03
1.059999999999999970e-01 1.836325000000000041e-01 3.840104999999999791e+01 1.444629999999999939e+02 2.024230000000000018e+03
1.069999999999999979e-01 1.836694999999999856e-01 3.814419999999999789e+01 1.450049999999999955e+02 2.024525000000000091e+03
1.079999999999999988e-01 1.836980000000000002e-01 3.779144999999999754e+01 1.453280000000000030e+02 2.024750000000000000e+03
1.089999999999999997e-01 1.837175000000000058e-01 3.735060000000000002e+01 1.454505000000000052e+02 2.024905000000000200e+03
1.100000000000000006e-01 1.837280000000000024e-01 3.683124999999999716e+01 1.453924999999999841e+02 2.025000000000000000e+03
1.110000000000000014e-01 1.837314999999999920e-01 3.624419999999999931e+01 1.451800000000000068e+02 2.025029999999999973e+03
1.120000000000000023e-01 1.837290000000000034e-01 3.560139999999999816e+01 1.448394999999999868e+02 2.025019999999999982e+03
1.130000000000000032e-01 1.837205000000000088e-01 3.491530000000000200e+01 1.443990000000000009e+02 2.024964999999999918e+03
1.140000000000000041e-01 1.837079999999999824e-01 3.419819999999999993e+01 1.438849999999999909e+02 2.024875000000000000e+03
1.150000000000000050e-01 1.836915000000000076e-01 3.346229999999999905e+01 1.433234999999999957e+02 2.024755000000000109e+03
1.160000000000000059e-01 1.836730000000000029e-01 3.271864999999999668e+01 1.427365000000000066e+02 2.024615000000000009e+03
1.170000000000000068e-01 1.836524999999999963e-01 3.197740000000000293e+01 1.421449999999999818e+02 2.024464999999999918e+03
1.180000000000000077e-01 1.836315000000000031e-01 3.124705000000000155e+01 1.415654999999999859e+02 2.024305000000000064e+03
1.190000000000000085e-01 1.836105000000000098e-01 3.053455000000000297e+01 1.410090000000000146e+02 2.024144999999999982e+03
1.200000000000000094e-01 1.835900000000000032e-01 2.984485000000000099e+01 1.404834999999999923e+02 2.023989999999999782e+03
1.209999999999999964e-01 1.835694999999999966e-01 2.918135000000000190e+01 1.399919999999999902e+02 2.023829999999999927e+03
1.219999999999999973e-01 1.835505000000000053e-01 2.854509999999999792e+01 1.395349999999999966e+02 2.023684999999999945e+03
1.229999999999999982e-01 1.835320000000000007e-01 2.793574999999999875e+01 1.391059999999999945e+02 2.023539999999999964e+03
1.239999999999999991e-01 1.835144999999999971e-01 2.735114999999999696e+01 1.386974999999999909e+02 2.023405000000000200e+03
1.250000000000000000e-01 1.834974999999999801e-01 2.678775000000000261e+01 1.382990000000000066e+02 2.023269999999999982e+03
1.260000000000000009e-01 1.834804999999999908e-01 2.624070000000000036e+01 1.378969999999999914e+02 2.023139999999999873e+03
1.270000000000000018e-01 1.834629999999999872e-01 2.570439999999999969e+01 1.374770000000000039e+02 2.023005000000000109e+03
1.280000000000000027e-01 1.834445000000000103e-01 2.517269999999999897e+01 1.370240000000000009e+02 2.022869999999999891e+03
1.290000000000000036e-01 1.834255000000000191e-01 2.463924999999999699e+01 1.365224999999999795e+02 2.022714999999999918e+03
1.300000000000000044e-01 1.834040000000000115e-01 2.409789999999999921e+01 1.359594999999999914e+02 2.022550000000000182e+03
1.310000000000000053e-01 1.833795000000000008e-01 2.354299999999999926e+01 1.353215000000000146e+02 2.022365000000000009e+03
1.320000000000000062e-01 1.833524999999999738e-01 2.296965000000000146e+01 1.346005000000000109e+02 2.022159999999999854e+03
1.330000000000000071e-01 1.833224999999999993e-01 2.237424999999999997e+01 1.337884999999999991e+02 2.021934999999999945e+03
1.340000000000000080e-01 1.832885000000000209e-01 2.175440000000000040e+01 1.328830000000000098e+02 2.021674999999999955e+03
1.350000000000000089e-01 1.832515000000000116e-01 2.110920000000000130e+01 1.318845000000000027e+02 2.021389999999999873e+03
1.360000000000000098e-01 1.832099999999999840e-01 2.043945000000000078e+01 1.307980000000000018e+02 2.021085000000000036e+03
1.370000000000000107e-01 1.831659999999999955e-01 1.974755000000000038e+01 1.296314999999999884e+02 2.020744999999999891e+03
1.380000000000000115e-01 1.831180000000000030e-01 1.903754999999999953e+01 1.283969999999999914e+02 2.020389999999999873e+03
1.390000000000000124e-01 1.830680000000000085e-01 1.831469999999999843e+01 1.271105000000000018e+02 2.020009999999999991e+03
1.400000000000000133e-01 1.830160000000000120e-01 1.758575000000000088e+01 1.257895000000000039e+02 2.019615000000000009e+03
1.410000000000000142e-01 1.829625000000000001e-01 1.685810000000000031e+01 1.244544999999999959e+02 2.019210000000000036e+03
1.420000000000000151e-01 1.829080000000000150e-01 1.614000000000000057e+01 1.231260000000000048e+02 2.018795000000000073e+03
1.430000000000000160e-01 1.828535000000000021e-01 1.543979999999999819e+01 1.218245000000000005e+02 2.018384999999999991e+03
1.440000000000000169e-01 1.828009999999999913e-01 1.476595000000000013e+01 1.205709999999999980e+02 2.017980000000000018e+03
1.450000000000000178e-01 1.827495000000000092e-01 1.412620000000000076e+01 1.193840000000000003e+02 2.017590000000000146e+03
1.459999999999999909e-01 1.827004999999999879e-01 1.352769999999999939e+01 1.182800000000000011e+02 2.017214999999999918e+03
1.469999999999999918e-01 1.826544999999999974e-01 1.297644999999999982e+01 1.172725000000000080e+02 2.016865000000000009e+03
1.479999999999999927e-01 1.826119999999999965e-01 1.247734999999999950e+01 1.163714999999999975e+02 2.016545000000000073e+03
1.489999999999999936e-01 1.825740000000000141e-01 1.203369999999999962e+01 1.155844999999999914e+02 2.016250000000000000e+03
1.499999999999999944e-01 1.825399999999999801e-01 1.164765000000000050e+01 1.149130000000000109e+02 2.015985000000000127e+03
1.509999999999999953e-01 1.825104999999999922e-01 1.131951499999999911e+01 1.143584999999999923e+02 2.015759999999999991e+03
1.519999999999999962e-01 1.824855000000000227e-01 1.104856999999999978e+01 1.139159999999999968e+02 2.015569999999999936e+03
1.529999999999999971e-01 1.824649999999999883e-01 1.083259500000000131e+01 1.135789999999999935e+02 2.015404999999999973e+03
1.539999999999999980e-01 1.824485000000000134e-01 1.066830999999999996e+01 1.133404999999999916e+02 2.015275000000000091e+03
1.549999999999999989e-01 1.824359999999999871e-01 1.055158000000000129e+01 1.131885000000000048e+02 2.015174999999999955e+03
1.559999999999999998e-01 1.824270000000000058e-01 1.047745499999999907e+01 1.131119999999999948e+02 2.015099999999999909e+03
1.570000000000000007e-01 1.824209999999999998e-01 1.044053500000000057e+01 1.130990000000000038e+02 2.015049999999999955e+03
1.580000000000000016e-01 1.824179999999999968e-01 1.043505500000000019e+01 1.131359999999999957e+02 2.015025000000000091e+03
1.590000000000000024e-01 1.824164999999999814e-01 1.045523000000000025e+01 1.132119999999999891e+02 2.015009999999999991e+03
