# t [s], A [cm^2], U [cm/s], P [cPa], c [cm/s]
1.000000000000000021e-03 6.902859999999999552e-01 5.706350000000005862e-03 1.071345000000000027e+02 1.602480000000000018e+03
2.000000000000000042e-03 6.902740000000000542e-01 -3.306004999999999881e-03 1.071090000000000089e+02 1.602474999999999909e+03
3.000000000000000062e-03 6.903150000000000119e-01 5.825469999999999954e-02 1.071759999999999877e+02 1.602490000000000009e+03
4.000000000000000083e-03 6.903734999999999733e-01 1.532600000000000073e-01 1.072980000000000018e+02 1.602525000000000091e+03
5.000000000000000104e-03 6.903719999999999857e-01 1.671275000000000122e-01 1.073075000000000045e+02 1.602529999999999973e+03
6.000000000000000125e-03 6.903139999999999832e-01 9.318950000000000844e-02 1.071580000000000013e+02 1.602500000000000000e+03
7.000000000000000146e-03 6.902599999999999847e-01 2.112750000000002126e-02 1.069509999999999934e+02 1.602450000000000045e+03
8.000000000000000167e-03 6.902015000000000233e-01 -6.513950000000001683e-02 1.066885000000000048e+02 1.602380000000000109e+03
9.000000000000001055e-03 6.900984999999999481e-01 -2.353849999999999554e-01 1.062860000000000014e+02 1.602284999999999854e+03
1.000000000000000194e-02 6.899409999999999155e-01 -5.075450000000000239e-01 1.056949999999999932e+02 1.602144999999999982e+03
1.099999999999999936e-02 6.897189999999999710e-01 -8.923050000000000148e-01 1.048719999999999999e+02 1.601950000000000045e+03
1.200000000000000025e-02 6.894134999999999014e-01 -1.409825000000000106e+00 1.037557500000000061e+02 1.601675000000000182e+03
1.300000000000000114e-02 6.890279999999999738e-01 -2.039615000000000400e+00 1.023292000000000002e+02 1.601324999999999818e+03
1.400000000000000203e-02 6.886030000000000761e-01 -2.692134999999999945e+00 1.006725000000000136e+02 1.600900000000000091e+03
1.499999999999999944e-02 6.881979999999999764e-01 -3.242485000000000284e+00 9.893729999999999336e+01 1.600445000000000164e+03
1.600000000000000033e-02 6.878554999999999531e-01 -3.588427999999999951e+00 9.727689999999999770e+01 1.599990000000000009e+03
1.700000000000000122e-02 6.875879999999999770e-01 -3.686350950000000015e+00 9.578505000000001246e+01 1.599555000000000064e+03
1.800000000000000211e-02 6.873744999999999994e-01 -3.553093500000000127e+00 9.447424999999999784e+01 1.599154999999999973e+03
1.900000000000000300e-02 6.871800000000000130e-01 -3.245454999999999757e+00 9.329144999999999754e+01 1.598779999999999973e+03
2.000000000000000042e-02 6.869665000000000354e-01 -2.832560750000000294e+00 9.214910000000000423e+01 1.598404999999999973e+03
2.100000000000000130e-02 6.867095000000000837e-01 -2.371488500000000332e+00 9.096165000000000589e+01 1.598019999999999982e+03
2.200000000000000219e-02 6.864010000000000389e-01 -1.892290000000000028e+00 8.967334999999999923e+01 1.597615000000000009e+03
2.299999999999999961e-02 6.860489999999999089e-01 -1.395040000000000058e+00 8.827285000000000537e+01 1.597174999999999955e+03
2.400000000000000050e-02 6.856740000000000057e-01 -8.584549999999999681e-01 8.678894999999999982e+01 1.596720000000000027e+03
2.500000000000000139e-02 6.852975000000000039e-01 -2.557000000000000384e-01 8.527315000000000111e+01 1.596244999999999891e+03
2.600000000000000228e-02 6.849339999999999318e-01 4.292350000000002552e-01 8.377594999999999459e+01 1.595775000000000091e+03
2.700000000000000316e-02 6.845879999999999743e-01 1.190300000000000136e+00 8.232634999999999081e+01 1.595315000000000055e+03
2.800000000000000058e-02 6.842485000000000372e-01 1.996064999999999978e+00 8.091989999999999839e+01 1.594860000000000127e+03
2.900000000000000147e-02 6.838965000000000183e-01 2.793985000000000163e+00 7.951814999999999145e+01 1.594409999999999854e+03
3.000000000000000236e-02 6.835089999999999222e-01 3.520315000000000083e+00 7.805724999999999625e+01 1.593949999999999818e+03
3.099999999999999978e-02 6.830635000000000456e-01 4.113030000000000186e+00 7.646415000000000362e+01 1.593454999999999927e+03
3.200000000000000067e-02 6.825459999999999861e-01 4.524774999999999991e+00 7.467589999999999861e+01 1.592920000000000073e+03
3.300000000000000155e-02 6.819534999999999902e-01 4.733014999999999972e+00 7.265735000000000809e+01 1.592335000000000036e+03
3.400000000000000244e-02 6.812989999999999879e-01 4.744189999999999685e+00 7.041299999999999670e+01 1.591690000000000055e+03
3.500000000000000333e-02 6.806039999999999868e-01 4.591275000000000439e+00 6.798919999999999675e+01 1.591005000000000109e+03
3.600000000000000422e-02 6.798990000000000311e-01 4.325409999999999755e+00 6.546684999999999377e+01 1.590295000000000073e+03
3.700000000000000511e-02 6.792165000000000008e-01 4.005304999999999893e+00 6.294774999999999920e+01 1.589579999999999927e+03
3.799999999999999906e-02 6.785835000000000061e-01 3.686990000000000212e+00 6.053860000000000241e+01 1.588884999999999991e+03
3.899999999999999994e-02 6.780235000000000012e-01 3.416424999999999823e+00 5.833745000000000402e+01 1.588240000000000009e+03
4.000000000000000083e-02 6.775510000000000144e-01 3.226385000000000058e+00 5.642379999999999995e+01 1.587659999999999854e+03
4.100000000000000172e-02 6.771740000000000537e-01 3.136460000000000470e+00 5.485444999999999993e+01 1.587170000000000073e+03
4.200000000000000261e-02 6.768950000000000244e-01 3.155464999999999964e+00 5.366304999999999836e+01 1.586784999999999854e+03
4.300000000000000350e-02 6.767125000000000501e-01 3.285540750000000010e+00 5.286395000000000266e+01 1.586494999999999891e+03
4.400000000000000439e-02 6.766240000000000032e-01 3.526145000000000085e+00 5.245744999999999436e+01 1.586319999999999936e+03
4.499999999999999833e-02 6.766270000000000895e-01 3.877429999999999932e+00 5.243599999999999994e+01 1.586250000000000000e+03
4.599999999999999922e-02 6.767194999999999183e-01 4.342100000000000293e+00 5.278900000000000148e+01 1.586289999999999964e+03
4.700000000000000011e-02 6.769009999999999749e-01 4.925679999999999836e+00 5.350619999999999976e+01 1.586434999999999945e+03
4.800000000000000100e-02 6.771705000000000085e-01 5.635149999999999437e+00 5.457829999999999870e+01 1.586684999999999945e+03
4.900000000000000189e-02 6.775275000000000603e-01 6.476799999999999891e+00 5.599604999999999677e+01 1.587034999999999854e+03
5.000000000000000278e-02 6.779695000000000027e-01 7.453585000000000349e+00 5.774770000000000181e+01 1.587485000000000127e+03
5.100000000000000366e-02 6.784920000000000950e-01 8.563269999999999271e+00 5.981654999999999944e+01 1.588025000000000091e+03
5.200000000000000455e-02 6.790875000000000661e-01 9.797364999999999213e+00 6.217880000000000251e+01 1.588654999999999973e+03
5.300000000000000544e-02 6.797469999999999901e-01 1.114088000000000100e+01 6.480264999999999986e+01 1.589360000000000127e+03
5.399999999999999939e-02 6.804585000000000772e-01 1.257337000000000060e+01 6.764889999999999759e+01 1.590134999999999991e+03
5.500000000000000028e-02 6.812084999999999946e-01 1.407058999999999926e+01 7.067249999999999943e+01 1.590974999999999909e+03
5.600000000000000117e-02 6.819844999999999935e-01 1.560664000000000051e+01 7.382495000000000118e+01 1.591855000000000018e+03
5.700000000000000205e-02 6.827750000000000208e-01 1.715577499999999844e+01 7.705780000000000030e+01 1.592764999999999873e+03
5.800000000000000294e-02 6.835679999999999534e-01 1.869435000000000002e+01 8.032519999999999527e+01 1.593700000000000045e+03
5.900000000000000383e-02 6.843555000000000055e-01 2.020220000000000127e+01 8.358669999999999334e+01 1.594639999999999873e+03
6.000000000000000472e-02 6.851294999999999469e-01 2.166315000000000168e+01 8.680889999999999418e+01 1.595579999999999927e+03
6.099999999999999867e-02 6.858874999999999833e-01 2.306550000000000011e+01 8.996779999999999688e+01 1.596514999999999873e+03
6.199999999999999956e-02 6.866250000000000409e-01 2.440149999999999864e+01 9.304560000000000741e+01 1.597429999999999836e+03
6.300000000000000044e-02 6.873424999999999674e-01 2.566709999999999781e+01 9.603454999999999586e+01 1.598324999999999818e+03
6.400000000000000133e-02 6.880405000000000548e-01 2.686104999999999876e+01 9.893200000000000216e+01 1.599195000000000164e+03
6.500000000000000222e-02 6.887210000000000276e-01 2.798400000000000176e+01 1.017417999999999978e+02 1.600049999999999955e+03
6.600000000000000311e-02 6.893854999999999844e-01 2.903810000000000002e+01 1.044707999999999970e+02 1.600880000000000109e+03
6.700000000000000400e-02 6.900359999999999827e-01 3.002600000000000335e+01 1.071283999999999992e+02 1.601695000000000164e+03
6.800000000000000488e-02 6.906760000000000677e-01 3.095040000000000191e+01 1.097229999999999990e+02 1.602490000000000009e+03
6.900000000000000577e-02 6.913050000000000583e-01 3.181370000000000076e+01 1.122640000000000100e+02 1.603269999999999982e+03
7.000000000000000666e-02 6.919254999999999711e-01 3.261739999999999640e+01 1.147570000000000050e+02 1.604035000000000082e+03
7.100000000000000755e-02 6.925369999999999582e-01 3.336189999999999856e+01 1.172065000000000055e+02 1.604789999999999964e+03
7.200000000000000844e-02 6.931395000000000195e-01 3.404659999999999798e+01 1.196115000000000066e+02 1.605529999999999973e+03
7.300000000000000933e-02 6.937305000000000277e-01 3.466955000000000098e+01 1.219695000000000107e+02 1.606260000000000218e+03
7.399999999999999634e-02 6.943070000000000075e-01 3.522794999999999987e+01 1.242720000000000056e+02 1.606974999999999909e+03
7.499999999999999722e-02 6.948674999999999713e-01 3.571819999999999595e+01 1.265095000000000027e+02 1.607664999999999964e+03
7.599999999999999811e-02 6.954080000000000261e-01 3.613625000000000398e+01 1.286694999999999993e+02 1.608340000000000146e+03
7.699999999999999900e-02 6.959249999999999048e-01 3.647820000000000107e+01 1.307390000000000043e+02 1.608990000000000009e+03
7.799999999999999989e-02 6.964140000000000885e-01 3.674025000000000318e+01 1.327024999999999864e+02 1.609610000000000127e+03
7.900000000000000078e-02 6.968735000000000346e-01 3.691940000000000310e+01 1.345475000000000136e+02 1.610195000000000164e+03
8.000000000000000167e-02 6.972990000000000022e-01 3.701344999999999885e+01 1.362604999999999791e+02 1.610744999999999891e+03
8.100000000000000255e-02 6.976899999999999213e-01 3.702120000000000033e+01 1.378319999999999936e+02 1.611255000000000109e+03
8.200000000000000344e-02 6.980429999999999691e-01 3.694245000000000090e+01 1.392524999999999977e+02 1.611720000000000027e+03
8.300000000000000433e-02 6.983580000000000343e-01 3.677819999999999823e+01 1.405159999999999911e+02 1.612140000000000100e+03
8.400000000000000522e-02 6.986339999999999772e-01 3.653029999999999688e+01 1.416204999999999927e+02 1.612514999999999873e+03
8.500000000000000611e-02 6.988710000000000200e-01 3.620170000000000243e+01 1.425645000000000095e+02 1.612845000000000027e+03
8.600000000000000699e-02 6.990695000000000103e-01 3.579640000000000555e+01 1.433489999999999895e+02 1.613119999999999891e+03
8.700000000000000788e-02 6.992315000000000058e-01 3.531905000000000427e+01 1.439795000000000016e+02 1.613349999999999909e+03
8.800000000000000877e-02 6.993570000000000064e-01 3.477564999999999884e+01 1.444610000000000127e+02 1.613545000000000073e+03
8.899999999999999578e-02 6.994500000000000162e-01 3.417260000000000275e+01 1.448025000000000091e+02 1.613684999999999945e+03
8.999999999999999667e-02 6.995115000000000638e-01 3.351754999999999995e+01 1.450144999999999982e+02 1.613789999999999964e+03
9.099999999999999756e-02 6.995454999999999313e-01 3.281850000000000023e+01 1.451095000000000255e+02 1.613860000000000127e+03
9.199999999999999845e-02 6.995550000000000379e-01 3.208409999999999940e+01 1.450994999999999777e+02 1.613889999999999873e+03
9.299999999999999933e-02 6.995445000000000135e-01 3.132349999999999923e+01 1.449995000000000118e+02 1.613890000000000100e+03
9.400000000000000022e-02 6.995154999999999568e-01 3.054570000000000007e+01 1.448255000000000052e+02 1.613869999999999891e+03
9.500000000000000111e-02 6.994739999999999291e-01 2.975965000000000060e+01 1.445914999999999964e+02 1.613820000000000164e+03
9.600000000000000200e-02 6.994215000000000293e-01 2.897364999999999924e+01 1.443125000000000000e+02 1.613759999999999991e+03
9.700000000000000289e-02 6.993624999999999980e-01 2.819510000000000005e+01 1.440020000000000095e+02 1.613684999999999945e+03
9.800000000000000377e-02 6.992990000000000039e-01 2.743045000000000044e+01 1.436715000000000089e+02 1.613605000000000018e+03
9.900000000000000466e-02 6.992325000000000346e-01 2.668449999999999989e+01 1.433310000000000173e+02 1.613509999999999991e+03
1.000000000000000056e-01 6.991654999999999953e-01 2.596085000000000065e+01 1.429879999999999995e+02 1.613414999999999964e+03
1.010000000000000064e-01 6.990985000000000671e-01 2.526129999999999853e+01 1.426474999999999795e+02 1.613315000000000055e+03
1.020000000000000073e-01 6.990304999999999991e-01 2.458639999999999759e+01 1.423115000000000236e+02 1.613220000000000027e+03
1.030000000000000082e-01 6.989624999999999311e-01 2.393489999999999895e+01 1.419795000000000016e+02 1.613115000000000009e+03
1.040000000000000091e-01 6.988925000000000276e-01 2.330474999999999852e+01 1.416490000000000009e+02 1.613014999999999873e+03
1.050000000000000100e-01 6.988199999999999967e-01 2.269254999999999711e+01 1.413154999999999859e+02 1.612914999999999964e+03
1.059999999999999970e-01 6.987430000000000030e-01 2.209445000000000192e+01 1.409739999999999895e+02 1.612809999999999945e+03
1.069999999999999979e-01 6.986600000000000588e-01 2.150605000000000189e+01 1.406165000000000020e+02 1.612700000000000045e+03
1.079999999999999988e-01 6.985689999999999955e-01 2.092269999999999897e+01 1.402369999999999948e+02 1.612585000000000036e+03
1.089999999999999997e-01 6.984684999999999366e-01 2.033990000000000009e+01 1.398274999999999864e+02 1.612465000000000146e+03
1.100000000000000006e-01 6.983574999999999644e-01 1.975345000000000084e+01 1.393824999999999932e+02 1.612329999999999927e+03
1.110000000000000014e-01 6.982344999999999802e-01 1.915959999999999752e+01 1.388954999999999984e+02 1.612190000000000055e+03
1.120000000000000023e-01 6.980990000000000251e-01 1.855529999999999902e+01 1.383634999999999877e+02 1.612029999999999973e+03
1.130000000000000032e-01 6.979505000000000292e-01 1.793830000000000169e+01 1.377824999999999989e+02 1.611865000000000009e+03
1.140000000000000041e-01 6.977889999999999926e-01 1.730740000000000123e+01 1.371529999999999916e+02 1.611679999999999836e+03
1.150000000000000050e-01 6.976150000000000961e-01 1.666219999999999857e+01 1.364755000000000109e+02 1.611484999999999900e+03
1.160000000000000059e-01 6.974299999999999944e-01 1.600365000000000038e+01 1.357524999999999977e+02 1.611275000000000091e+03
1.170000000000000068e-01 6.972359999999999669e-01 1.533340000000000103e+01 1.349889999999999759e+02 1.611054999999999836e+03
1.180000000000000077e-01 6.970335000000000836e-01 1.465439500000000095e+01 1.341915000000000191e+02 1.610819999999999936e+03
1.190000000000000085e-01 6.968255000000000976e-01 1.397029500000000013e+01 1.333689999999999998e+02 1.610579999999999927e+03
1.200000000000000094e-01 6.966149999999999842e-01 1.328574000000000055e+01 1.325295000000000130e+02 1.610335000000000036e+03
1.209999999999999964e-01 6.964034999999999531e-01 1.260580000000000034e+01 1.316850000000000023e+02 1.610085000000000036e+03
1.219999999999999973e-01 6.961950000000000083e-01 1.193610500000000130e+01 1.308460000000000036e+02 1.609840000000000146e+03
1.229999999999999982e-01 6.959930000000000838e-01 1.128245499999999879e+01 1.300244999999999891e+02 1.609594999999999800e+03
1.239999999999999991e-01 6.957984999999999864e-01 1.065064999999999884e+01 1.292309999999999945e+02 1.609355000000000018e+03
1.250000000000000000e-01 6.956160000000000121e-01 1.004629500000000064e+01 1.284770000000000039e+02 1.609125000000000000e+03
1.260000000000000009e-01 6.954460000000000086e-01 9.474550000000000693e+00 1.277715000000000032e+02 1.608909999999999854e+03
1.270000000000000018e-01 6.952920000000000211e-01 8.939959999999999241e+00 1.271244999999999834e+02 1.608710000000000036e+03
1.280000000000000027e-01 6.951545000000000085e-01 8.446259999999998769e+00 1.265420000000000016e+02 1.608525000000000091e+03
1.290000000000000036e-01 6.950350000000000694e-01 7.996235000000000426e+00 1.260294999999999987e+02 1.608359999999999900e+03
1.300000000000000044e-01 6.949330000000000229e-01 7.591749999999999332e+00 1.255900000000000034e+02 1.608210000000000036e+03
1.310000000000000053e-01 6.948505000000000376e-01 7.233525000000000205e+00 1.252245000000000061e+02 1.608089999999999918e+03
1.320000000000000062e-01 6.947849999999999859e-01 6.921314999999999884e+00 1.249320000000000022e+02 1.607985000000000127e+03
1.330000000000000071e-01 6.947369999999999379e-01 6.653835000000000832e+00 1.247104999999999961e+02 1.607900000000000091e+03
1.340000000000000080e-01 6.947045000000000581e-01 6.428939999999999877e+00 1.245540000000000020e+02 1.607835000000000036e+03
1.350000000000000089e-01 6.946854999999999558e-01 6.243730000000000224e+00 1.244579999999999984e+02 1.607789999999999964e+03
1.360000000000000098e-01 6.946784999999999766e-01 6.094680000000000319e+00 1.244145000000000039e+02 1.607759999999999991e+03
1.370000000000000107e-01 6.946814999999999518e-01 5.977859999999999729e+00 1.244155000000000086e+02 1.607744999999999891e+03
1.380000000000000115e-01 6.946924999999999351e-01 5.889084999999999681e+00 1.244540000000000077e+02 1.607744999999999891e+03
1.390000000000000124e-01 6.947095000000000908e-01 5.824065000000000047e+00 1.245200000000000102e+02 1.607750000000000000e+03
1.400000000000000133e-01 6.947304999999999175e-01 5.778575000000000017e+00 1.246064999999999969e+02 1.607759999999999991e+03
1.410000000000000142e-01 6.947540000000000937e-01 5.748580000000000467e+00 1.247065000000000055e+02 1.607779999999999973e+03
1.420000000000000151e-01 6.947780000000000067e-01 5.730335000000000178e+00 1.248125000000000000e+02 1.607804999999999836e+03
1.430000000000000160e-01 6.948019999999999197e-01 5.720449999999999591e+00 1.249190000000000111e+02 1.607829999999999927e+03
1.440000000000000169e-01 6.948239999999999972e-01 5.715955000000000119e+00 1.250204999999999984e+02 1.607849999999999909e+03
1.450000000000000178e-01 6.948444999999999760e-01 5.714320000000000732e+00 1.251140000000000043e+02 1.607880000000000109e+03
1.459999999999999909e-01 6.948615000000000208e-01 5.713449999999999918e+00 1.251970000000000027e+02 1.607900000000000091e+03
1.469999999999999918e-01 6.948760000000000492e-01 5.711705000000000254e+00 1.252669999999999959e+02 1.607920000000000073e+03
1.479999999999999927e-01 6.948864999999999625e-01 5.707869999999999777e+00 1.253239999999999981e+02 1.607934999999999945e+03
1.489999999999999936e-01 6.948950000000000404e-01 5.701095000000000468e+00 1.253669999999999902e+02 1.607950000000000045e+03
1.499999999999999944e-01 6.948989999999999334e-01 5.690915000000000390e+00 1.253965000000000032e+02 1.607960000000000036e+03
1.509999999999999953e-01 6.949015000000000608e-01 5.677170000000000272e+00 1.254140000000000015e+02 1.607960000000000036e+03
1.519999999999999962e-01 6.949020000000000197e-01 5.659964999999999691e+00 1.254215000000000089e+02 1.607965000000000146e+03
1.529999999999999971e-01 6.948999999999999622e-01 5.639625000000000554e+00 1.254194999999999993e+02 1.607970000000000027e+03
1.539999999999999980e-01 6.948965000000000281e-01 5.616640000000000299e+00 1.254099999999999966e+02 1.607965000000000146e+03
1.549999999999999989e-01 6.948929999999999829e-01 5.591604999999999492e+00 1.253950000000000102e+02 1.607965000000000146e+03
1.559999999999999998e-01 6.948879999999999502e-01 5.565144999999999342e+00 1.253764999999999930e+02 1.607960000000000036e+03
1.570000000000000007e-01 6.948834999999999873e-01 5.537910000000000110e+00 1.253569999999999993e+02 1.607960000000000036e+03
1.580000000000000016e-01 6.948784999999999545e-01 5.510460000000000136e+00 1.253354999999999961e+02 1.607949999999999818e+03
1.590000000000000024e-01 6.948745000000000616e-01 5.483280000000000598e+00 1.253145000000000095e+02 1.607944999999999936e+03
