# t [s], A [cm^2], U [cm/s], P [cPa], c [cm/s]
1.000000000000000021e-03 1.833605000000000096e-01 1.824510000000000021e-01 1.029184999999999945e+02 2.017509999999999991e+03
2.000000000000000042e-03 1.833259999999999890e-01 1.589589999999999836e+00 1.000335000000000036e+02 2.017200000000000045e+03
3.000000000000000062e-03 1.832079999999999820e-01 3.393244000000000149e+00 9.599524999999999864e+01 2.016200000000000045e+03
4.000000000000000083e-03 1.830344999999999889e-01 5.437047999999999881e+00 9.129529999999999745e+01 2.014750000000000000e+03
5.000000000000000104e-03 1.828365000000000129e-01 7.661125000000000185e+00 8.672814999999999941e+01 2.013110000000000127e+03
6.000000000000000125e-03 1.826364999999999794e-01 9.949980000000000047e+00 8.275745000000000573e+01 2.011474999999999909e+03
7.000000000000000146e-03 1.824459999999999971e-01 1.212113499999999888e+01 7.938479999999999848e+01 2.009940000000000055e+03
8.000000000000000167e-03 1.822670000000000123e-01 1.403082500000000010e+01 7.639079999999999870e+01 2.008525000000000091e+03
9.000000000000001055e-03 1.821039999999999881e-01 1.565465000000000018e+01 7.369720000000000937e+01 2.007255000000000109e+03
1.000000000000000194e-02 1.819604999999999972e-01 1.702524999999999977e+01 7.137234999999999729e+01 2.006154999999999973e+03
1.099999999999999936e-02 1.818385000000000140e-01 1.816704999999999970e+01 6.945920000000000982e+01 2.005224999999999909e+03
1.200000000000000025e-02 1.817384999999999973e-01 1.909624999999999773e+01 6.793994999999999607e+01 2.004470000000000027e+03
1.300000000000000114e-02 1.816574999999999995e-01 1.982390000000000185e+01 6.676080000000000325e+01 2.003869999999999891e+03
1.400000000000000203e-02 1.815930000000000044e-01 2.035164999999999935e+01 6.582795000000000130e+01 2.003394999999999982e+03
1.499999999999999944e-02 1.815400000000000069e-01 2.068919999999999959e+01 6.503945000000000221e+01 2.003019999999999982e+03
1.600000000000000033e-02 1.814974999999999783e-01 2.088754999999999740e+01 6.437959999999999638e+01 2.002714999999999918e+03
1.700000000000000122e-02 1.814669999999999894e-01 2.104785000000000039e+01 6.398644999999999783e+01 2.002509999999999991e+03
1.800000000000000211e-02 1.814554999999999918e-01 2.128920000000000101e+01 6.410649999999999693e+01 2.002440000000000055e+03
1.900000000000000300e-02 1.814699999999999924e-01 2.169539999999999935e+01 6.495749999999999602e+01 2.002559999999999945e+03
2.000000000000000042e-02 1.815130000000000077e-01 2.227649999999999864e+01 6.659040000000000248e+01 2.002894999999999982e+03
2.100000000000000130e-02 1.815815000000000068e-01 2.296490000000000009e+01 6.883140000000000214e+01 2.003414999999999964e+03
2.200000000000000219e-02 1.816654999999999798e-01 2.364339999999999975e+01 7.132720000000000482e+01 2.004065000000000055e+03
2.299999999999999961e-02 1.817535000000000123e-01 2.418865000000000265e+01 7.365945000000000675e+01 2.004759999999999991e+03
2.400000000000000050e-02 1.818325000000000080e-01 2.451064999999999827e+01 7.547395000000000209e+01 2.005384999999999991e+03
2.500000000000000139e-02 1.818929999999999991e-01 2.457605000000000217e+01 7.657505000000000450e+01 2.005875000000000000e+03
2.600000000000000228e-02 1.819324999999999970e-01 2.440930000000000177e+01 7.695875000000000909e+01 2.006204999999999927e+03
2.700000000000000316e-02 1.819510000000000016e-01 2.407529999999999859e+01 7.678139999999999077e+01 2.006375000000000000e+03
2.800000000000000058e-02 1.819540000000000046e-01 2.365270000000000294e+01 7.628430000000000177e+01 2.006409999999999854e+03
2.900000000000000147e-02 1.819485000000000130e-01 2.320664999999999978e+01 7.570459999999999923e+01 2.006375000000000000e+03
3.000000000000000236e-02 1.819395000000000040e-01 2.277169999999999916e+01 7.520355000000000700e+01 2.006309999999999945e+03
3.099999999999999978e-02 1.819304999999999950e-01 2.234709999999999752e+01 7.483144999999998959e+01 2.006244999999999891e+03
3.200000000000000067e-02 1.819215000000000138e-01 2.190445000000000064e+01 7.453390000000000271e+01 2.006175000000000182e+03
3.300000000000000155e-02 1.819105000000000028e-01 2.140355000000000274e+01 7.419155000000000655e+01 2.006095000000000027e+03
3.400000000000000244e-02 1.818945000000000145e-01 2.081094999999999828e+01 7.367605000000000359e+01 2.005974999999999909e+03
3.500000000000000333e-02 1.818704999999999905e-01 2.011554999999999893e+01 7.290479999999999450e+01 2.005795000000000073e+03
3.600000000000000422e-02 1.818374999999999853e-01 1.933715000000000117e+01 7.187975000000000136e+01 2.005555000000000064e+03
3.700000000000000511e-02 1.817975000000000008e-01 1.852564999999999884e+01 7.069839999999999236e+01 2.005250000000000000e+03
3.799999999999999906e-02 1.817544999999999855e-01 1.775124999999999886e+01 6.953530000000000655e+01 2.004924999999999955e+03
3.899999999999999994e-02 1.817159999999999886e-01 1.708859999999999957e+01 6.860014999999999930e+01 2.004625000000000000e+03
4.000000000000000083e-02 1.816875000000000018e-01 1.659959999999999880e+01 6.808549999999999613e+01 2.004394999999999982e+03
4.100000000000000172e-02 1.816754999999999898e-01 1.631960000000000122e+01 6.811879999999999313e+01 2.004284999999999854e+03
4.200000000000000261e-02 1.816825000000000245e-01 1.625049999999999883e+01 6.873255000000000337e+01 2.004324999999999818e+03
4.300000000000000350e-02 1.817080000000000084e-01 1.636129999999999995e+01 6.985724999999999341e+01 2.004509999999999991e+03
4.400000000000000439e-02 1.817499999999999949e-01 1.659539999999999793e+01 7.133725000000001160e+01 2.004815000000000055e+03
4.499999999999999833e-02 1.818020000000000191e-01 1.688159999999999883e+01 7.296260000000000900e+01 2.005204999999999927e+03
4.599999999999999922e-02 1.818569999999999909e-01 1.714639999999999986e+01 7.450790000000000646e+01 2.005630000000000109e+03
4.700000000000000011e-02 1.819089999999999874e-01 1.732479999999999976e+01 7.576875000000001137e+01 2.006029999999999973e+03
4.800000000000000100e-02 1.819500000000000006e-01 1.736755000000000138e+01 7.658969999999999345e+01 2.006349999999999909e+03
4.900000000000000189e-02 1.819755000000000122e-01 1.724494999999999933e+01 7.687895000000000323e+01 2.006554999999999836e+03
5.000000000000000278e-02 1.819834999999999925e-01 1.694624999999999915e+01 7.661050000000000182e+01 2.006630000000000109e+03
5.100000000000000366e-02 1.819720000000000226e-01 1.647660000000000124e+01 7.581434999999999036e+01 2.006549999999999955e+03
5.200000000000000455e-02 1.819415000000000060e-01 1.585235000000000127e+01 7.456040000000000134e+01 2.006329999999999927e+03
5.300000000000000544e-02 1.818954999999999878e-01 1.509614999999999974e+01 7.293979999999999109e+01 2.005984999999999900e+03
5.399999999999999939e-02 1.818349999999999966e-01 1.423270000000000124e+01 7.104834999999999923e+01 2.005525000000000091e+03
5.500000000000000028e-02 1.817644999999999955e-01 1.328614999999999924e+01 6.897475000000000023e+01 2.004985000000000127e+03
5.600000000000000117e-02 1.816860000000000142e-01 1.227947999999999951e+01 6.679464999999999009e+01 2.004380000000000109e+03
5.700000000000000205e-02 1.816025000000000000e-01 1.123437000000000019e+01 6.457110000000000127e+01 2.003730000000000018e+03
5.800000000000000294e-02 1.815154999999999963e-01 1.017282499999999956e+01 6.235755000000000337e+01 2.003065000000000055e+03
5.900000000000000383e-02 1.814279999999999782e-01 9.118330000000000268e+00 6.020420000000000016e+01 2.002389999999999873e+03
6.000000000000000472e-02 1.813425000000000176e-01 8.097010000000000929e+00 5.816290000000000049e+01 2.001730000000000018e+03
6.099999999999999867e-02 1.812610000000000054e-01 7.137870000000000381e+00 5.629144999999999754e+01 2.001095000000000027e+03
6.199999999999999956e-02 1.811860000000000137e-01 6.272555000000000547e+00 5.465449999999999875e+01 2.000514999999999873e+03
6.300000000000000044e-02 1.811205000000000176e-01 5.533990000000000187e+00 5.332184999999999775e+01 1.999994999999999891e+03
6.400000000000000133e-02 1.810674999999999923e-01 4.954525000000000290e+00 5.236475000000000080e+01 1.999575000000000045e+03
6.500000000000000222e-02 1.810284999999999811e-01 4.563875000000000348e+00 5.185025000000000261e+01 1.999264999999999873e+03
6.600000000000000311e-02 1.810074999999999878e-01 4.386960000000000193e+00 5.183565000000000111e+01 1.999085000000000036e+03
6.700000000000000400e-02 1.810055000000000136e-01 4.442109999999999559e+00 5.236289999999999623e+01 1.999055000000000064e+03
6.800000000000000488e-02 1.810249999999999915e-01 4.739840000000000053e+00 5.345470000000000255e+01 1.999184999999999945e+03
6.900000000000000577e-02 1.810660000000000047e-01 5.282160000000000188e+00 5.511260000000000048e+01 1.999480000000000018e+03
7.000000000000000666e-02 1.811294999999999988e-01 6.062635000000000218e+00 5.731674999999999898e+01 1.999954999999999927e+03
7.100000000000000755e-02 1.812139999999999862e-01 7.066980000000000928e+00 6.002755000000000507e+01 2.000589999999999918e+03
7.200000000000000844e-02 1.813184999999999936e-01 8.274139999999999162e+00 6.318860000000000099e+01 2.001380000000000109e+03
7.300000000000000933e-02 1.814410000000000189e-01 9.657679999999999154e+00 6.673130000000000450e+01 2.002309999999999945e+03
7.399999999999999634e-02 1.815789999999999904e-01 1.118747000000000114e+01 7.057909999999999684e+01 2.003365000000000009e+03
7.499999999999999722e-02 1.817294999999999883e-01 1.283138500000000093e+01 7.465279999999999916e+01 2.004519999999999982e+03
7.599999999999999811e-02 1.818894999999999817e-01 1.455700000000000038e+01 7.887469999999999004e+01 2.005759999999999991e+03
7.699999999999999900e-02 1.820569999999999966e-01 1.633314999999999984e+01 8.317334999999999923e+01 2.007050000000000182e+03
7.799999999999999989e-02 1.822280000000000011e-01 1.813114999999999810e+01 8.748664999999999736e+01 2.008380000000000109e+03
7.900000000000000078e-02 1.824014999999999942e-01 1.992624999999999957e+01 9.176439999999999486e+01 2.009730000000000018e+03
8.000000000000000167e-02 1.825745000000000007e-01 2.169784999999999897e+01 9.596940000000000737e+01 2.011079999999999927e+03
8.100000000000000255e-02 1.827459999999999918e-01 2.342999999999999972e+01 1.000780499999999904e+02 2.012429999999999836e+03
8.200000000000000344e-02 1.829149999999999943e-01 2.511124999999999829e+01 1.040792500000000018e+02 2.013759999999999991e+03
8.300000000000000433e-02 1.830809999999999937e-01 2.673445000000000249e+01 1.079714999999999918e+02 2.015069999999999936e+03
8.400000000000000522e-02 1.832440000000000180e-01 2.829560000000000031e+01 1.117625000000000028e+02 2.016349999999999909e+03
8.500000000000000611e-02 1.834029999999999827e-01 2.979334999999999667e+01 1.154629999999999939e+02 2.017615000000000009e+03
8.600000000000000699e-02 1.835594999999999866e-01 3.122799999999999798e+01 1.190879999999999939e+02 2.018855000000000018e+03
8.700000000000000788e-02 1.837135000000000018e-01 3.260065000000000168e+01 1.226490000000000009e+02 2.020074999999999818e+03
8.800000000000000877e-02 1.838655000000000150e-01 3.391244999999999976e+01 1.261574999999999989e+02 2.021280000000000200e+03
8.899999999999999578e-02 1.840149999999999841e-01 3.516424999999999557e+01 1.296179999999999950e+02 2.022470000000000027e+03
8.999999999999999667e-02 1.841625000000000068e-01 3.635599999999999454e+01 1.330314999999999941e+02 2.023650000000000091e+03
9.099999999999999756e-02 1.843079999999999996e-01 3.748655000000000115e+01 1.363935000000000173e+02 2.024815000000000055e+03
9.199999999999999845e-02 1.844520000000000048e-01 3.855395000000000039e+01 1.396945000000000050e+02 2.025960000000000036e+03
9.299999999999999933e-02 1.845924999999999927e-01 3.955505000000000138e+01 1.429220000000000255e+02 2.027085000000000036e+03
9.400000000000000022e-02 1.847300000000000053e-01 4.048610000000000042e+01 1.460589999999999975e+02 2.028184999999999945e+03
9.500000000000000111e-02 1.848640000000000005e-01 4.134244999999999948e+01 1.490869999999999891e+02 2.029259999999999991e+03
9.600000000000000200e-02 1.849930000000000185e-01 4.211910000000000309e+01 1.519869999999999948e+02 2.030295000000000073e+03
9.700000000000000289e-02 1.851170000000000038e-01 4.281080000000000041e+01 1.547384999999999877e+02 2.031295000000000073e+03
9.800000000000000377e-02 1.852354999999999974e-01 4.341210000000000235e+01 1.573224999999999909e+02 2.032240000000000009e+03
9.900000000000000466e-02 1.853464999999999974e-01 4.391764999999999475e+01 1.597194999999999823e+02 2.033139999999999873e+03
1.000000000000000056e-01 1.854500000000000037e-01 4.432245000000000346e+01 1.619114999999999895e+02 2.033980000000000018e+03
1.010000000000000064e-01 1.855450000000000155e-01 4.462205000000000155e+01 1.638840000000000146e+02 2.034750000000000000e+03
1.020000000000000073e-01 1.856315000000000048e-01 4.481264999999999787e+01 1.656220000000000141e+02 2.035450000000000045e+03
1.030000000000000082e-01 1.857079999999999842e-01 4.489175000000000182e+01 1.671165000000000020e+02 2.036075000000000045e+03
1.040000000000000091e-01 1.857755000000000101e-01 4.485795000000000243e+01 1.683595000000000255e+02 2.036625000000000000e+03
1.050000000000000100e-01 1.858319999999999972e-01 4.471150000000000091e+01 1.693495000000000061e+02 2.037090000000000146e+03
1.059999999999999970e-01 1.858785000000000021e-01 4.445470000000000255e+01 1.700874999999999773e+02 2.037474999999999909e+03
1.069999999999999979e-01 1.859149999999999969e-01 4.409140000000000015e+01 1.705799999999999841e+02 2.037779999999999973e+03
1.079999999999999988e-01 1.859410000000000229e-01 4.362760000000000105e+01 1.708385000000000105e+02 2.038000000000000000e+03
1.089999999999999997e-01 1.859580000000000122e-01 4.307110000000000127e+01 1.708799999999999955e+02 2.038144999999999982e+03
1.100000000000000006e-01 1.859659999999999924e-01 4.243134999999999479e+01 1.707245000000000061e+02 2.038219999999999800e+03
1.110000000000000014e-01 1.859655000000000058e-01 4.171920000000000073e+01 1.703954999999999984e+02 2.038224999999999909e+03
1.120000000000000023e-01 1.859584999999999988e-01 4.094630000000000081e+01 1.699189999999999827e+02 2.038174999999999955e+03
1.130000000000000032e-01 1.859445000000000126e-01 4.012505000000000166e+01 1.693220000000000027e+02 2.038074999999999818e+03
1.140000000000000041e-01 1.859254999999999936e-01 3.926785000000000281e+01 1.686315000000000168e+02 2.037929999999999836e+03
1.150000000000000050e-01 1.859020000000000117e-01 3.838680000000000092e+01 1.678729999999999905e+02 2.037744999999999891e+03
1.160000000000000059e-01 1.858754999999999991e-01 3.749320000000000164e+01 1.670710000000000264e+02 2.037534999999999854e+03
1.170000000000000068e-01 1.858469999999999844e-01 3.659730000000000416e+01 1.662454999999999927e+02 2.037309999999999945e+03
1.180000000000000077e-01 1.858160000000000089e-01 3.570820000000000505e+01 1.654139999999999873e+02 2.037069999999999936e+03
1.190000000000000085e-01 1.857850000000000057e-01 3.483310000000000173e+01 1.645914999999999964e+02 2.036819999999999936e+03
1.200000000000000094e-01 1.857535000000000158e-01 3.397775000000000034e+01 1.637855000000000132e+02 2.036565000000000055e+03
1.209999999999999964e-01 1.857219999999999982e-01 3.314609999999999701e+01 1.630029999999999859e+02 2.036315000000000055e+03
1.219999999999999973e-01 1.856909999999999950e-01 3.234015000000000128e+01 1.622445000000000164e+02 2.036065000000000055e+03
1.229999999999999982e-01 1.856605000000000061e-01 3.156050000000000111e+01 1.615084999999999980e+02 2.035815000000000055e+03
1.239999999999999991e-01 1.856304999999999761e-01 3.080600000000000094e+01 1.607880000000000109e+02 2.035575000000000045e+03
1.250000000000000000e-01 1.856005000000000016e-01 3.007414999999999594e+01 1.600765000000000100e+02 2.035335000000000036e+03
1.260000000000000009e-01 1.855704999999999993e-01 2.936120000000000019e+01 1.593625000000000114e+02 2.035095000000000027e+03
1.270000000000000018e-01 1.855404999999999971e-01 2.866274999999999906e+01 1.586345000000000027e+02 2.034849999999999909e+03
1.280000000000000027e-01 1.855094999999999938e-01 2.797354999999999947e+01 1.578789999999999907e+02 2.034594999999999800e+03
1.290000000000000036e-01 1.854774999999999896e-01 2.728810000000000002e+01 1.570840000000000032e+02 2.034339999999999918e+03
1.300000000000000044e-01 1.854435000000000111e-01 2.660094999999999743e+01 1.562359999999999900e+02 2.034065000000000055e+03
1.310000000000000053e-01 1.854075000000000029e-01 2.590695000000000192e+01 1.553245000000000005e+02 2.033775000000000091e+03
1.320000000000000062e-01 1.853690000000000060e-01 2.520154999999999745e+01 1.543410000000000082e+02 2.033470000000000027e+03
1.330000000000000071e-01 1.853275000000000061e-01 2.448094999999999999e+01 1.532775000000000034e+02 2.033139999999999873e+03
1.340000000000000080e-01 1.852834999999999899e-01 2.374249999999999972e+01 1.521299999999999955e+02 2.032779999999999973e+03
1.350000000000000089e-01 1.852350000000000108e-01 2.298479999999999990e+01 1.508974999999999795e+02 2.032404999999999973e+03
1.360000000000000098e-01 1.851840000000000153e-01 2.220779999999999887e+01 1.495840000000000032e+02 2.031994999999999891e+03
1.370000000000000107e-01 1.851300000000000168e-01 2.141275000000000261e+01 1.481940000000000168e+02 2.031565000000000055e+03
1.380000000000000115e-01 1.850729999999999875e-01 2.060244999999999749e+01 1.467364999999999782e+02 2.031105000000000018e+03
1.390000000000000124e-01 1.850125000000000242e-01 1.978105000000000047e+01 1.452250000000000227e+02 2.030630000000000109e+03
1.400000000000000133e-01 1.849505000000000177e-01 1.895374999999999943e+01 1.436730000000000018e+02 2.030134999999999991e+03
1.410000000000000142e-01 1.848869999999999958e-01 1.812689999999999912e+01 1.420994999999999777e+02 2.029630000000000109e+03
1.420000000000000151e-01 1.848219999999999863e-01 1.730760000000000076e+01 1.405215000000000032e+02 2.029119999999999891e+03
1.430000000000000160e-01 1.847574999999999912e-01 1.650329999999999941e+01 1.389590000000000032e+02 2.028599999999999909e+03
1.440000000000000169e-01 1.846929999999999961e-01 1.572175000000000011e+01 1.374309999999999832e+02 2.028090000000000146e+03
1.450000000000000178e-01 1.846300000000000163e-01 1.497050000000000125e+01 1.359565000000000055e+02 2.027585000000000036e+03
1.459999999999999909e-01 1.845694999999999975e-01 1.425649999999999906e+01 1.345519999999999925e+02 2.027099999999999909e+03
1.469999999999999918e-01 1.845110000000000083e-01 1.358614999999999995e+01 1.332325000000000159e+02 2.026630000000000109e+03
1.479999999999999927e-01 1.844554999999999945e-01 1.296480000000000032e+01 1.320105000000000075e+02 2.026184999999999945e+03
1.489999999999999936e-01 1.844040000000000123e-01 1.239665000000000106e+01 1.308944999999999936e+02 2.025775000000000091e+03
1.499999999999999944e-01 1.843565000000000065e-01 1.188462499999999977e+01 1.298909999999999911e+02 2.025389999999999873e+03
1.509999999999999953e-01 1.843135000000000190e-01 1.143041000000000018e+01 1.290014999999999930e+02 2.025045000000000073e+03
1.519999999999999962e-01 1.842745000000000077e-01 1.103427500000000094e+01 1.282270000000000039e+02 2.024735000000000127e+03
1.529999999999999971e-01 1.842405000000000015e-01 1.069538000000000011e+01 1.275644999999999953e+02 2.024454999999999927e+03
1.539999999999999980e-01 1.842104999999999992e-01 1.041169499999999992e+01 1.270064999999999884e+02 2.024210000000000036e+03
1.549999999999999989e-01 1.841849999999999876e-01 1.018026000000000053e+01 1.265465000000000089e+02 2.024000000000000000e+03
1.559999999999999998e-01 1.841629999999999934e-01 9.997264999999998736e+00 1.261744999999999948e+02 2.023824999999999818e+03
1.570000000000000007e-01 1.841444999999999887e-01 9.858280000000000598e+00 1.258815000000000026e+02 2.023670000000000073e+03
1.580000000000000016e-01 1.841300000000000159e-01 9.758445000000000036e+00 1.256554999999999893e+02 2.023549999999999955e+03
1.590000000000000024e-01 1.841174999999999895e-01 9.692619999999999791e+00 1.254859999999999900e+02 2.023445000000000164e+03
