# t [s], A [cm^2], U [cm/s], P [cPa], c [cm/s]
1.000000000000000021e-03 1.785950000000000037e-01 3.830580000000000096e-01 9.820754999999999768e+01 2.044045000000000073e+03
2.000000000000000042e-03 1.785454999999999959e-01 2.007501500000000050e+00 9.470714999999999861e+01 2.043594999999999800e+03
3.000000000000000062e-03 1.784090000000000120e-01 3.974908000000000108e+00 8.998250000000000171e+01 2.042434999999999945e+03
4.000000000000000083e-03 1.782239999999999935e-01 6.166757000000000488e+00 8.499269999999999925e+01 2.040875000000000000e+03
5.000000000000000104e-03 1.780269999999999908e-01 8.499504999999999200e+00 8.065510000000000446e+01 2.039220000000000027e+03
6.000000000000000125e-03 1.778379999999999961e-01 1.077292500000000075e+01 7.718485000000001151e+01 2.037654999999999973e+03
7.000000000000000146e-03 1.776619999999999866e-01 1.276905999999999963e+01 7.425884999999999536e+01 2.036230000000000018e+03
8.000000000000000167e-03 1.775015000000000065e-01 1.442593000000000103e+01 7.165270000000001005e+01 2.034950000000000045e+03
9.000000000000001055e-03 1.773620000000000196e-01 1.579269999999999996e+01 6.943984999999999275e+01 2.033849999999999909e+03
1.000000000000000194e-02 1.772455000000000003e-01 1.690355000000000274e+01 6.768169999999999220e+01 2.032945000000000164e+03
1.099999999999999936e-02 1.771515000000000173e-01 1.777410000000000068e+01 6.633455000000000723e+01 2.032224999999999909e+03
1.200000000000000025e-02 1.770774999999999988e-01 1.842004999999999981e+01 6.532545000000000357e+01 2.031664999999999964e+03
1.300000000000000114e-02 1.770200000000000107e-01 1.884799999999999898e+01 6.454850000000000421e+01 2.031239999999999782e+03
1.400000000000000203e-02 1.769740000000000202e-01 1.907589999999999719e+01 6.389504999999999768e+01 2.030909999999999854e+03
1.499999999999999944e-02 1.769379999999999842e-01 1.918155000000000143e+01 6.339515000000000100e+01 2.030654999999999973e+03
1.600000000000000033e-02 1.769175000000000053e-01 1.931015000000000015e+01 6.330624999999999858e+01 2.030519999999999982e+03
1.700000000000000122e-02 1.769215000000000093e-01 1.961325000000000074e+01 6.400024999999999409e+01 2.030569999999999936e+03
1.800000000000000211e-02 1.769580000000000042e-01 2.016489999999999938e+01 6.571580000000000155e+01 2.030864999999999782e+03
1.900000000000000300e-02 1.770289999999999919e-01 2.091669999999999874e+01 6.836144999999999072e+01 2.031414999999999964e+03
2.000000000000000042e-02 1.771240000000000037e-01 2.171499999999999986e+01 7.149615000000000009e+01 2.032164999999999964e+03
2.100000000000000130e-02 1.772279999999999966e-01 2.236475000000000080e+01 7.448310000000000741e+01 2.032994999999999891e+03
2.200000000000000219e-02 1.773230000000000084e-01 2.270385000000000275e+01 7.672169999999999845e+01 2.033750000000000000e+03
2.299999999999999961e-02 1.773919999999999941e-01 2.265594999999999715e+01 7.784935000000000116e+01 2.034320000000000164e+03
2.400000000000000050e-02 1.774280000000000024e-01 2.224564999999999770e+01 7.783615000000000350e+01 2.034639999999999873e+03
2.500000000000000139e-02 1.774334999999999940e-01 2.157515000000000072e+01 7.694944999999999879e+01 2.034710000000000036e+03
2.600000000000000228e-02 1.774164999999999770e-01 2.077725000000000222e+01 7.561894999999999811e+01 2.034590000000000146e+03
2.700000000000000316e-02 1.773875000000000035e-01 1.996600000000000108e+01 7.426644999999999186e+01 2.034375000000000000e+03
2.800000000000000058e-02 1.773565000000000003e-01 1.920385000000000275e+01 7.316929999999999268e+01 2.034134999999999991e+03
2.900000000000000147e-02 1.773295000000000010e-01 1.849390000000000001e+01 7.240139999999999532e+01 2.033920000000000073e+03
3.000000000000000236e-02 1.773069999999999924e-01 1.779495000000000005e+01 7.185585000000000377e+01 2.033744999999999891e+03
3.099999999999999978e-02 1.772859999999999991e-01 1.704950000000000188e+01 7.132759999999998968e+01 2.033575000000000045e+03
3.200000000000000067e-02 1.772615000000000163e-01 1.621474999999999866e+01 7.061730000000000018e+01 2.033384999999999991e+03
3.300000000000000155e-02 1.772299999999999986e-01 1.528534999999999933e+01 6.962199999999999989e+01 2.033144999999999982e+03
3.400000000000000244e-02 1.771900000000000142e-01 1.430235000000000056e+01 6.838429999999999609e+01 2.032839999999999918e+03
3.500000000000000333e-02 1.771455000000000113e-01 1.334650000000000070e+01 6.708979999999999677e+01 2.032494999999999891e+03
3.600000000000000422e-02 1.771040000000000114e-01 1.251735000000000042e+01 6.601420000000000243e+01 2.032164999999999964e+03
3.700000000000000511e-02 1.770720000000000072e-01 1.190644999999999953e+01 6.544089999999999918e+01 2.031909999999999854e+03
3.799999999999999906e-02 1.770589999999999942e-01 1.157199999999999918e+01 6.557519999999999527e+01 2.031795000000000073e+03
3.899999999999999994e-02 1.770694999999999908e-01 1.152339999999999876e+01 6.648250000000000171e+01 2.031860000000000127e+03
4.000000000000000083e-02 1.771034999999999970e-01 1.171804999999999986e+01 6.806565000000000509e+01 2.032110000000000127e+03
4.100000000000000172e-02 1.771574999999999955e-01 1.207045000000000101e+01 7.008465000000001055e+01 2.032519999999999982e+03
4.200000000000000261e-02 1.772235000000000060e-01 1.246954999999999991e+01 7.220789999999999509e+01 2.033025000000000091e+03
4.300000000000000350e-02 1.772905000000000175e-01 1.279925000000000068e+01 7.407880000000000109e+01 2.033545000000000073e+03
4.400000000000000439e-02 1.773480000000000056e-01 1.295694999999999908e+01 7.537964999999999804e+01 2.034000000000000000e+03
4.499999999999999833e-02 1.773865000000000025e-01 1.286684999999999945e+01 7.588024999999998954e+01 2.034309999999999945e+03
4.599999999999999922e-02 1.773985000000000145e-01 1.248629999999999995e+01 7.546314999999999884e+01 2.034414999999999964e+03
4.700000000000000011e-02 1.773814999999999975e-01 1.180605000000000082e+01 7.412424999999998931e+01 2.034289999999999964e+03
4.800000000000000100e-02 1.773334999999999773e-01 1.084487999999999985e+01 7.195449999999999591e+01 2.033924999999999955e+03
4.900000000000000189e-02 1.772579999999999989e-01 9.641935000000000144e+00 6.910994999999999777e+01 2.033345000000000027e+03
5.000000000000000278e-02 1.771590000000000109e-01 8.248400000000000176e+00 6.577890000000000725e+01 2.032575000000000045e+03
5.100000000000000366e-02 1.770420000000000049e-01 6.720674999999999955e+00 6.215435000000000088e+01 2.031664999999999964e+03
5.200000000000000455e-02 1.769135000000000013e-01 5.115910000000000402e+00 5.841485000000000127e+01 2.030654999999999973e+03
5.300000000000000544e-02 1.767789999999999917e-01 3.489764000000000088e+00 5.471634999999999849e+01 2.029605000000000018e+03
5.399999999999999939e-02 1.766439999999999955e-01 1.896040000000000170e+00 5.119200000000000017e+01 2.028539999999999964e+03
5.500000000000000028e-02 1.765134999999999899e-01 3.871950000000001779e-01 4.795714999999999861e+01 2.027509999999999991e+03
5.600000000000000117e-02 1.763914999999999789e-01 -9.851299999999998391e-01 4.511594999999999800e+01 2.026549999999999955e+03
5.700000000000000205e-02 1.762834999999999819e-01 -2.170190499999999911e+00 4.276624999999999943e+01 2.025695000000000164e+03
5.800000000000000294e-02 1.761925000000000019e-01 -3.119190000000000129e+00 4.100119999999999720e+01 2.024964999999999918e+03
5.900000000000000383e-02 1.761225000000000152e-01 -3.787245000000000417e+00 3.990749999999999886e+01 2.024400000000000091e+03
6.000000000000000472e-02 1.760774999999999979e-01 -4.136020000000000252e+00 3.955965000000000487e+01 2.024025000000000091e+03
6.099999999999999867e-02 1.760589999999999933e-01 -4.136519999999999975e+00 4.001364999999999839e+01 2.023865000000000009e+03
6.199999999999999956e-02 1.760700000000000043e-01 -3.771490000000000009e+00 4.129975000000000307e+01 2.023929999999999836e+03
6.300000000000000044e-02 1.761119999999999908e-01 -3.037105000000000388e+00 4.341760000000000019e+01 2.024235000000000127e+03
6.400000000000000133e-02 1.761849999999999805e-01 -1.943554499999999852e+00 4.633400000000000318e+01 2.024779999999999973e+03
6.500000000000000222e-02 1.762869999999999993e-01 -5.145450000000000301e-01 4.998364999999999725e+01 2.025555000000000064e+03
6.600000000000000311e-02 1.764160000000000172e-01 1.214240000000000208e+00 5.427344999999999686e+01 2.026549999999999955e+03
6.700000000000000400e-02 1.765700000000000047e-01 3.197420000000000151e+00 5.908844999999999459e+01 2.027740000000000009e+03
6.800000000000000488e-02 1.767440000000000122e-01 5.382638500000000548e+00 6.430029999999999291e+01 2.029095000000000027e+03
6.900000000000000577e-02 1.769339999999999802e-01 7.713499999999999801e+00 6.977465000000000828e+01 2.030579999999999927e+03
7.000000000000000666e-02 1.771355000000000013e-01 1.013254500000000036e+01 7.537975000000000136e+01 2.032159999999999854e+03
7.100000000000000755e-02 1.773430000000000006e-01 1.258382999999999896e+01 8.099275000000000091e+01 2.033795000000000073e+03
7.200000000000000844e-02 1.775535000000000030e-01 1.501559999999999917e+01 8.650610000000000355e+01 2.035460000000000036e+03
7.300000000000000933e-02 1.777614999999999890e-01 1.738224999999999909e+01 9.183174999999999955e+01 2.037115000000000009e+03
7.399999999999999634e-02 1.779654999999999987e-01 1.964610000000000056e+01 9.690500000000000114e+01 2.038740000000000009e+03
7.499999999999999722e-02 1.781615000000000004e-01 2.177860000000000085e+01 1.016847499999999940e+02 2.040309999999999945e+03
7.599999999999999811e-02 1.783484999999999931e-01 2.376075000000000159e+01 1.061554500000000019e+02 2.041815000000000055e+03
7.699999999999999900e-02 1.785260000000000180e-01 2.558330000000000126e+01 1.103234999999999957e+02 2.043244999999999891e+03
7.799999999999999989e-02 1.786935000000000051e-01 2.724575000000000102e+01 1.142169999999999987e+02 2.044594999999999800e+03
7.900000000000000078e-02 1.788520000000000110e-01 2.875520000000000209e+01 1.178764999999999930e+02 2.045880000000000109e+03
8.000000000000000167e-02 1.790025000000000088e-01 3.012474999999999881e+01 1.213545000000000016e+02 2.047105000000000018e+03
8.100000000000000255e-02 1.791470000000000007e-01 3.137130000000000152e+01 1.247069999999999936e+02 2.048275000000000091e+03
8.200000000000000344e-02 1.792870000000000019e-01 3.251364999999999839e+01 1.279894999999999925e+02 2.049414999999999964e+03
8.300000000000000433e-02 1.794240000000000002e-01 3.357039999999999935e+01 1.312495000000000118e+02 2.050529999999999745e+03
8.400000000000000522e-02 1.795594999999999830e-01 3.455825000000000102e+01 1.345244999999999891e+02 2.051639999999999873e+03
8.500000000000000611e-02 1.796955000000000080e-01 3.549075000000000557e+01 1.378389999999999986e+02 2.052750000000000000e+03
8.600000000000000699e-02 1.798319999999999919e-01 3.637709999999999866e+01 1.412015000000000100e+02 2.053855000000000018e+03
8.700000000000000788e-02 1.799700000000000188e-01 3.722190000000000509e+01 1.446069999999999993e+02 2.054980000000000018e+03
8.800000000000000877e-02 1.801085000000000047e-01 3.802499999999999858e+01 1.480364999999999895e+02 2.056110000000000127e+03
8.899999999999999578e-02 1.802469999999999906e-01 3.878154999999999575e+01 1.514585000000000150e+02 2.057239999999999782e+03
8.999999999999999667e-02 1.803855000000000042e-01 3.948315000000000197e+01 1.548329999999999984e+02 2.058369999999999891e+03
9.099999999999999756e-02 1.805209999999999870e-01 4.011809999999999832e+01 1.581134999999999877e+02 2.059470000000000255e+03
9.199999999999999845e-02 1.806530000000000080e-01 4.067274999999999352e+01 1.612514999999999930e+02 2.060550000000000182e+03
9.299999999999999933e-02 1.807795000000000096e-01 4.113240000000000407e+01 1.641965000000000146e+02 2.061590000000000146e+03
9.400000000000000022e-02 1.808985000000000176e-01 4.148234999999999673e+01 1.669035000000000082e+02 2.062565000000000055e+03
9.500000000000000111e-02 1.810085000000000166e-01 4.170889999999999986e+01 1.693300000000000125e+02 2.063469999999999800e+03
9.600000000000000200e-02 1.811085000000000056e-01 4.180024999999999835e+01 1.714420000000000073e+02 2.064295000000000073e+03
9.700000000000000289e-02 1.811965000000000103e-01 4.174710000000000321e+01 1.732139999999999986e+02 2.065020000000000437e+03
9.800000000000000377e-02 1.812719999999999887e-01 4.154344999999999999e+01 1.746295000000000073e+02 2.065644999999999982e+03
9.900000000000000466e-02 1.813345000000000096e-01 4.118710000000000093e+01 1.756814999999999998e+02 2.066170000000000073e+03
1.000000000000000056e-01 1.813829999999999887e-01 4.067954999999999899e+01 1.763754999999999882e+02 2.066574999999999818e+03
1.010000000000000064e-01 1.814179999999999959e-01 4.002655000000000030e+01 1.767239999999999895e+02 2.066875000000000000e+03
1.020000000000000073e-01 1.814395000000000036e-01 3.923754999999999882e+01 1.767500000000000000e+02 2.067065000000000055e+03
1.030000000000000082e-01 1.814494999999999858e-01 3.832580000000000098e+01 1.764850000000000136e+02 2.067154999999999745e+03
1.040000000000000091e-01 1.814479999999999982e-01 3.730734999999999957e+01 1.759669999999999845e+02 2.067154999999999745e+03
1.050000000000000100e-01 1.814365000000000006e-01 3.620085000000000264e+01 1.752375000000000114e+02 2.067070000000000164e+03
1.059999999999999970e-01 1.814164999999999806e-01 3.502649999999999864e+01 1.743430000000000177e+02 2.066920000000000073e+03
1.069999999999999979e-01 1.813895000000000091e-01 3.380534999999999712e+01 1.733284999999999911e+02 2.066704999999999927e+03
1.079999999999999988e-01 1.813575000000000048e-01 3.255855000000000388e+01 1.722395000000000209e+02 2.066454999999999927e+03
1.089999999999999997e-01 1.813214999999999966e-01 3.130624999999999858e+01 1.711179999999999950e+02 2.066164999999999964e+03
1.100000000000000006e-01 1.812834999999999863e-01 3.006705000000000183e+01 1.700020000000000095e+02 2.065860000000000127e+03
1.110000000000000014e-01 1.812449999999999894e-01 2.885745000000000005e+01 1.689219999999999970e+02 2.065545000000000073e+03
1.120000000000000023e-01 1.812070000000000070e-01 2.769115000000000038e+01 1.679035000000000082e+02 2.065235000000000127e+03
1.130000000000000032e-01 1.811705000000000121e-01 2.657860000000000156e+01 1.669630000000000223e+02 2.064935000000000400e+03
1.140000000000000041e-01 1.811355000000000048e-01 2.552690000000000126e+01 1.661100000000000136e+02 2.064650000000000091e+03
1.150000000000000050e-01 1.811035000000000006e-01 2.453974999999999795e+01 1.653455000000000155e+02 2.064385000000000218e+03
1.160000000000000059e-01 1.810740000000000127e-01 2.361730000000000018e+01 1.646639999999999873e+02 2.064139999999999873e+03
1.170000000000000068e-01 1.810470000000000135e-01 2.275659999999999883e+01 1.640529999999999973e+02 2.063909999999999854e+03
1.180000000000000077e-01 1.810220000000000162e-01 2.195195000000000007e+01 1.634934999999999832e+02 2.063704999999999927e+03
1.190000000000000085e-01 1.809985000000000066e-01 2.119505000000000194e+01 1.629639999999999986e+02 2.063505000000000109e+03
1.200000000000000094e-01 1.809764999999999846e-01 2.047599999999999909e+01 1.624375000000000000e+02 2.063319999999999709e+03
1.209999999999999964e-01 1.809534999999999894e-01 1.978365000000000151e+01 1.618880000000000052e+02 2.063130000000000109e+03
1.219999999999999973e-01 1.809304999999999941e-01 1.910640000000000072e+01 1.612884999999999991e+02 2.062940000000000055e+03
1.229999999999999982e-01 1.809049999999999825e-01 1.843265000000000242e+01 1.606129999999999995e+02 2.062729999999999563e+03
1.239999999999999991e-01 1.808770000000000100e-01 1.775175000000000125e+01 1.598394999999999868e+02 2.062494999999999891e+03
1.250000000000000000e-01 1.808454999999999924e-01 1.705440000000000111e+01 1.589510000000000218e+02 2.062234999999999673e+03
1.260000000000000009e-01 1.808099999999999985e-01 1.633314999999999984e+01 1.579334999999999809e+02 2.061949999999999818e+03
1.270000000000000018e-01 1.807694999999999996e-01 1.558289999999999864e+01 1.567814999999999941e+02 2.061614999999999782e+03
1.280000000000000027e-01 1.807245000000000101e-01 1.480105000000000004e+01 1.554945000000000164e+02 2.061250000000000000e+03
1.290000000000000036e-01 1.806745000000000156e-01 1.398780000000000001e+01 1.540790000000000077e+02 2.060845000000000255e+03
1.300000000000000044e-01 1.806200000000000028e-01 1.314604999999999890e+01 1.525480000000000018e+02 2.060399999999999636e+03
1.310000000000000053e-01 1.805609999999999993e-01 1.228133000000000052e+01 1.509199999999999875e+02 2.059925000000000182e+03
1.320000000000000062e-01 1.804985000000000062e-01 1.140135000000000076e+01 1.492194999999999823e+02 2.059420000000000073e+03
1.330000000000000071e-01 1.804335000000000244e-01 1.051587500000000119e+01 1.474730000000000132e+02 2.058890000000000327e+03
1.340000000000000080e-01 1.803664999999999852e-01 9.635979999999999990e+00 1.457115000000000009e+02 2.058350000000000364e+03
1.350000000000000089e-01 1.802985000000000004e-01 8.773609999999999687e+00 1.439650000000000034e+02 2.057800000000000182e+03
1.360000000000000098e-01 1.802314999999999889e-01 7.941124999999999545e+00 1.422649999999999864e+02 2.057255000000000109e+03
1.370000000000000107e-01 1.801655000000000062e-01 7.150290000000000035e+00 1.406394999999999982e+02 2.056720000000000255e+03
1.380000000000000115e-01 1.801019999999999843e-01 6.412209999999999965e+00 1.391154999999999973e+02 2.056204999999999927e+03
1.390000000000000124e-01 1.800419999999999798e-01 5.736520000000000508e+00 1.377139999999999986e+02 2.055715000000000146e+03
1.400000000000000133e-01 1.799864999999999937e-01 5.131099999999999994e+00 1.364524999999999864e+02 2.055260000000000218e+03
1.410000000000000142e-01 1.799354999999999982e-01 4.601750000000000007e+00 1.353414999999999964e+02 2.054845000000000255e+03
1.420000000000000151e-01 1.798899999999999944e-01 4.152009999999999756e+00 1.343870000000000005e+02 2.054469999999999800e+03
1.430000000000000160e-01 1.798504999999999965e-01 3.783079999999999998e+00 1.335889999999999986e+02 2.054144999999999982e+03
1.440000000000000169e-01 1.798164999999999902e-01 3.493880000000000319e+00 1.329435000000000002e+02 2.053864999999999782e+03
1.450000000000000178e-01 1.797874999999999890e-01 3.281169999999999476e+00 1.324399999999999977e+02 2.053625000000000000e+03
1.459999999999999909e-01 1.797644999999999937e-01 3.139775000000000205e+00 1.320645000000000095e+02 2.053429999999999836e+03
1.469999999999999918e-01 1.797460000000000169e-01 3.062879999999999825e+00 1.318004999999999995e+02 2.053269999999999982e+03
1.479999999999999927e-01 1.797320000000000029e-01 3.042349999999999888e+00 1.316295000000000073e+02 2.053150000000000091e+03
1.489999999999999936e-01 1.797214999999999785e-01 3.069099999999999717e+00 1.315300000000000011e+02 2.053059999999999945e+03
1.499999999999999944e-01 1.797139999999999849e-01 3.133449999999999847e+00 1.314809999999999945e+02 2.052994999999999891e+03
1.509999999999999953e-01 1.797084999999999932e-01 3.225489999999999746e+00 1.314629999999999939e+02 2.052940000000000055e+03
1.519999999999999962e-01 1.797044999999999892e-01 3.335420000000000051e+00 1.314549999999999841e+02 2.052904999999999745e+03
1.529999999999999971e-01 1.797004999999999852e-01 3.453834999999999766e+00 1.314389999999999930e+02 2.052875000000000000e+03
1.539999999999999980e-01 1.796975000000000100e-01 3.572025000000000006e+00 1.313990000000000009e+02 2.052849999999999909e+03
1.549999999999999989e-01 1.796940000000000204e-01 3.682190000000000296e+00 1.313209999999999980e+02 2.052815000000000055e+03
1.559999999999999998e-01 1.796889999999999876e-01 3.777639999999999887e+00 1.311945000000000050e+02 2.052775000000000091e+03
1.570000000000000007e-01 1.796824999999999950e-01 3.852895000000000181e+00 1.310115000000000123e+02 2.052719999999999800e+03
1.580000000000000016e-01 1.796745000000000148e-01 3.903850000000000264e+00 1.307660000000000196e+02 2.052654999999999745e+03
1.590000000000000024e-01 1.796639999999999904e-01 3.927735000000000198e+00 1.304555000000000007e+02 2.052570000000000164e+03
