# t [s], A [cm^2], U [cm/s], P [cPa], c [cm/s]
1.000000000000000021e-03 1.699910000000000032e-01 3.165864999999999929e-01 1.052854999999999990e+02 2.048414999999999964e+03
2.000000000000000042e-03 1.699414999999999953e-01 1.983862500000000084e+00 1.017887499999999932e+02 2.047974999999999909e+03
3.000000000000000062e-03 1.698044999999999971e-01 4.057684499999999694e+00 9.690045000000000641e+01 2.046804999999999836e+03
4.000000000000000083e-03 1.696150000000000158e-01 6.391054000000000457e+00 9.152164999999999395e+01 2.045215000000000146e+03
5.000000000000000104e-03 1.694110000000000060e-01 8.899504999999999555e+00 8.664740000000000464e+01 2.043509999999999991e+03
6.000000000000000125e-03 1.692140000000000033e-01 1.138878500000000038e+01 8.263685000000000969e+01 2.041894999999999982e+03
7.000000000000000146e-03 1.690305000000000002e-01 1.361557499999999976e+01 7.924450000000000216e+01 2.040414999999999964e+03
8.000000000000000167e-03 1.688625000000000265e-01 1.547766500000000178e+01 7.620695000000000618e+01 2.039079999999999927e+03
9.000000000000001055e-03 1.687154999999999905e-01 1.701559999999999917e+01 7.357450000000000045e+01 2.037934999999999945e+03
1.000000000000000194e-02 1.685915000000000052e-01 1.827309999999999945e+01 7.143815000000000737e+01 2.036980000000000018e+03
1.099999999999999936e-02 1.684915000000000163e-01 1.927309999999999945e+01 6.978040000000000020e+01 2.036219999999999800e+03
1.200000000000000025e-02 1.684134999999999938e-01 2.004010000000000247e+01 6.854675000000000296e+01 2.035630000000000109e+03
1.300000000000000114e-02 1.683534999999999893e-01 2.058605000000000018e+01 6.764365000000000805e+01 2.035190000000000055e+03
1.400000000000000203e-02 1.683074999999999988e-01 2.091805000000000092e+01 6.693460000000000321e+01 2.034860000000000127e+03
1.499999999999999944e-02 1.682715000000000183e-01 2.109045000000000059e+01 6.637024999999999864e+01 2.034610000000000127e+03
1.600000000000000033e-02 1.682484999999999953e-01 2.123450000000000060e+01 6.612704999999999700e+01 2.034460000000000036e+03
1.700000000000000122e-02 1.682474999999999943e-01 2.151429999999999865e+01 6.656094999999999118e+01 2.034465000000000146e+03
1.800000000000000211e-02 1.682770000000000099e-01 2.203924999999999912e+01 6.797919999999999163e+01 2.034695000000000164e+03
1.900000000000000300e-02 1.683394999999999753e-01 2.279905000000000115e+01 7.040385000000000559e+01 2.035190000000000055e+03
2.000000000000000042e-02 1.684289999999999954e-01 2.366214999999999691e+01 7.348895000000000266e+01 2.035880000000000109e+03
2.100000000000000130e-02 1.685304999999999997e-01 2.443130000000000024e+01 7.662624999999999886e+01 2.036675000000000182e+03
2.200000000000000219e-02 1.686254999999999837e-01 2.492114999999999725e+01 7.916819999999999879e+01 2.037440000000000055e+03
2.299999999999999961e-02 1.686980000000000146e-01 2.502430000000000021e+01 8.065549999999998931e+01 2.038035000000000082e+03
2.400000000000000050e-02 1.687394999999999867e-01 2.474040000000000106e+01 8.095635000000000048e+01 2.038384999999999991e+03
2.500000000000000139e-02 1.687489999999999823e-01 2.416300000000000026e+01 8.027315000000000111e+01 2.038490000000000009e+03
2.600000000000000228e-02 1.687345000000000095e-01 2.343380000000000152e+01 7.902895000000000891e+01 2.038394999999999982e+03
2.700000000000000316e-02 1.687075000000000102e-01 2.268710000000000093e+01 7.769055000000000177e+01 2.038195000000000164e+03
2.800000000000000058e-02 1.686785000000000090e-01 2.200584999999999880e+01 7.660450000000000159e+01 2.037980000000000018e+03
2.900000000000000147e-02 1.686555000000000137e-01 2.140469999999999828e+01 7.590324999999999989e+01 2.037789999999999964e+03
3.000000000000000236e-02 1.686380000000000101e-01 2.083950000000000102e+01 7.550244999999999607e+01 2.037650000000000091e+03
3.099999999999999978e-02 1.686239999999999961e-01 2.023629999999999995e+01 7.517430000000000234e+01 2.037539999999999964e+03
3.200000000000000067e-02 1.686064999999999925e-01 1.952745000000000175e+01 7.465979999999998995e+01 2.037404999999999973e+03
3.300000000000000155e-02 1.685805000000000220e-01 1.868265000000000242e+01 7.378085000000000093e+01 2.037210000000000036e+03
3.400000000000000244e-02 1.685435000000000128e-01 1.772690000000000055e+01 7.251775000000000659e+01 2.036929999999999836e+03
3.500000000000000333e-02 1.684974999999999945e-01 1.673894999999999911e+01 7.102985000000001037e+01 2.036574999999999818e+03
3.600000000000000422e-02 1.684494999999999743e-01 1.583244999999999969e+01 6.961519999999998731e+01 2.036204999999999927e+03
3.700000000000000511e-02 1.684090000000000031e-01 1.512495000000000189e+01 6.862394999999999357e+01 2.035884999999999991e+03
3.799999999999999906e-02 1.683859999999999801e-01 1.470560000000000045e+01 6.835394999999999754e+01 2.035684999999999945e+03
3.899999999999999994e-02 1.683864999999999945e-01 1.461135000000000161e+01 6.896399999999999864e+01 2.035674999999999955e+03
4.000000000000000083e-02 1.684145000000000225e-01 1.481765000000000043e+01 7.042804999999999893e+01 2.035875000000000000e+03
4.100000000000000172e-02 1.684664999999999913e-01 1.524484999999999957e+01 7.253974999999999795e+01 2.036259999999999991e+03
4.200000000000000261e-02 1.685355000000000047e-01 1.577570000000000050e+01 7.496020000000000039e+01 2.036784999999999854e+03
4.300000000000000350e-02 1.686099999999999821e-01 1.627905000000000157e+01 7.729075000000000273e+01 2.037360000000000127e+03
4.400000000000000439e-02 1.686794999999999822e-01 1.663260000000000005e+01 7.915000000000000568e+01 2.037904999999999973e+03
4.499999999999999833e-02 1.687319999999999931e-01 1.674074999999999847e+01 8.023769999999998959e+01 2.038325000000000045e+03
4.599999999999999922e-02 1.687600000000000211e-01 1.654455000000000098e+01 8.037364999999999782e+01 2.038549999999999955e+03
4.700000000000000011e-02 1.687575000000000047e-01 1.602394999999999925e+01 7.950880000000000791e+01 2.038549999999999955e+03
4.800000000000000100e-02 1.687239999999999851e-01 1.519269999999999854e+01 7.771080000000000609e+01 2.038304999999999836e+03
4.900000000000000189e-02 1.686610000000000054e-01 1.408975000000000044e+01 7.513204999999999245e+01 2.037824999999999818e+03
5.000000000000000278e-02 1.685734999999999872e-01 1.276818500000000078e+01 7.197055000000000291e+01 2.037155000000000200e+03
5.100000000000000366e-02 1.684670000000000056e-01 1.128673000000000037e+01 6.843429999999999325e+01 2.036329999999999927e+03
5.200000000000000455e-02 1.683465000000000100e-01 9.702870000000000772e+00 6.471420000000000528e+01 2.035400000000000091e+03
5.300000000000000544e-02 1.682190000000000074e-01 8.069969999999999644e+00 6.097090000000000032e+01 2.034400000000000091e+03
5.399999999999999939e-02 1.680889999999999884e-01 6.437100000000000044e+00 5.733299999999999841e+01 2.033389999999999873e+03
5.500000000000000028e-02 1.679615000000000136e-01 4.850124999999999353e+00 5.390354999999999563e+01 2.032385000000000218e+03
5.600000000000000117e-02 1.678394999999999748e-01 3.354060000000000041e+00 5.077055000000000007e+01 2.031430000000000064e+03
5.700000000000000205e-02 1.677270000000000150e-01 1.994179999999999842e+00 4.801689999999999969e+01 2.030539999999999964e+03
5.800000000000000294e-02 1.676279999999999992e-01 8.163149999999999018e-01 4.572589999999999577e+01 2.029759999999999991e+03
5.900000000000000383e-02 1.675444999999999851e-01 -1.343749999999999112e-01 4.398300000000000409e+01 2.029095000000000027e+03
6.000000000000000472e-02 1.674809999999999910e-01 -8.158439999999999026e-01 4.287140000000000128e+01 2.028579999999999927e+03
6.099999999999999867e-02 1.674399999999999777e-01 -1.192269000000000023e+00 4.246490000000000009e+01 2.028240000000000009e+03
6.199999999999999956e-02 1.674240000000000173e-01 -1.237239999999999895e+00 4.281895000000000095e+01 2.028095000000000027e+03
6.300000000000000044e-02 1.674344999999999861e-01 -9.363765000000000560e-01 4.396245000000000402e+01 2.028154999999999973e+03
6.400000000000000133e-02 1.674730000000000107e-01 -2.888500000000000512e-01 4.589254999999999995e+01 2.028430000000000064e+03
6.500000000000000222e-02 1.675389999999999935e-01 6.922749999999998627e-01 4.857229999999999848e+01 2.028920000000000073e+03
6.600000000000000311e-02 1.676314999999999888e-01 1.981001499999999860e+00 5.193299999999999983e+01 2.029619999999999891e+03
6.700000000000000400e-02 1.677474999999999938e-01 3.540251000000000037e+00 5.587895000000000323e+01 2.030509999999999991e+03
6.800000000000000488e-02 1.678844999999999921e-01 5.324410000000000309e+00 6.029470000000000596e+01 2.031565000000000055e+03
6.900000000000000577e-02 1.680384999999999796e-01 7.282119999999999926e+00 6.505334999999999468e+01 2.032755000000000109e+03
7.000000000000000666e-02 1.682055000000000078e-01 9.359194999999999709e+00 7.002420000000000755e+01 2.034050000000000182e+03
7.100000000000000755e-02 1.683804999999999885e-01 1.150122000000000000e+01 7.508074999999999477e+01 2.035414999999999964e+03
7.200000000000000844e-02 1.685599999999999876e-01 1.365612499999999940e+01 8.010660000000000025e+01 2.036820000000000164e+03
7.300000000000000933e-02 1.687394999999999867e-01 1.577655000000000030e+01 8.500100000000000477e+01 2.038235000000000127e+03
7.399999999999999634e-02 1.689160000000000106e-01 1.782174999999999798e+01 8.968335000000000434e+01 2.039630000000000109e+03
7.499999999999999722e-02 1.690860000000000141e-01 1.975929999999999964e+01 9.409604999999999109e+01 2.040974999999999909e+03
7.599999999999999811e-02 1.692480000000000095e-01 2.156595000000000084e+01 9.820589999999999975e+01 2.042269999999999982e+03
7.699999999999999900e-02 1.694005000000000094e-01 2.322845000000000226e+01 1.020055499999999995e+02 2.043490000000000009e+03
7.799999999999999989e-02 1.695440000000000003e-01 2.474309999999999832e+01 1.055099500000000035e+02 2.044634999999999991e+03
7.900000000000000078e-02 1.696779999999999955e-01 2.611469999999999914e+01 1.087539999999999907e+02 2.045710000000000036e+03
8.000000000000000167e-02 1.698030000000000095e-01 2.735519999999999996e+01 1.117870000000000061e+02 2.046725000000000136e+03
8.100000000000000255e-02 1.699225000000000041e-01 2.848179999999999978e+01 1.146680000000000064e+02 2.047684999999999945e+03
8.200000000000000344e-02 1.700365000000000071e-01 2.951435000000000031e+01 1.174569999999999936e+02 2.048605000000000018e+03
8.300000000000000433e-02 1.701469999999999927e-01 3.047364999999999924e+01 1.202120000000000033e+02 2.049494999999999891e+03
8.400000000000000522e-02 1.702569999999999917e-01 3.137890000000000157e+01 1.229809999999999945e+02 2.050380000000000109e+03
8.500000000000000611e-02 1.703669999999999907e-01 3.224660000000000082e+01 1.258000000000000114e+02 2.051269999999999982e+03
8.600000000000000699e-02 1.704775000000000040e-01 3.308874999999999744e+01 1.286899999999999977e+02 2.052159999999999854e+03
8.700000000000000788e-02 1.705909999999999926e-01 3.391259999999999764e+01 1.316555000000000177e+02 2.053074999999999818e+03
8.800000000000000877e-02 1.707060000000000244e-01 3.472005000000000052e+01 1.346860000000000070e+02 2.054000000000000000e+03
8.899999999999999578e-02 1.708224999999999882e-01 3.550804999999999723e+01 1.377570000000000050e+02 2.054934999999999945e+03
8.999999999999999667e-02 1.709399999999999809e-01 3.626914999999999623e+01 1.408329999999999984e+02 2.055880000000000109e+03
9.099999999999999756e-02 1.710565000000000002e-01 3.699204999999999899e+01 1.438700000000000045e+02 2.056819999999999709e+03
9.199999999999999845e-02 1.711715000000000042e-01 3.766275000000000261e+01 1.468195000000000050e+02 2.057750000000000000e+03
9.299999999999999933e-02 1.712829999999999908e-01 3.826565000000000083e+01 1.496299999999999955e+02 2.058650000000000091e+03
9.400000000000000022e-02 1.713895000000000002e-01 3.878444999999999965e+01 1.522529999999999859e+02 2.059505000000000109e+03
9.500000000000000111e-02 1.714890000000000025e-01 3.920319999999999538e+01 1.546410000000000196e+02 2.060315000000000055e+03
9.600000000000000200e-02 1.715800000000000103e-01 3.950735000000000241e+01 1.567554999999999836e+02 2.061050000000000182e+03
9.700000000000000289e-02 1.716610000000000080e-01 3.968449999999999989e+01 1.585629999999999882e+02 2.061715000000000146e+03
9.800000000000000377e-02 1.717309999999999948e-01 3.972520000000000095e+01 1.600395000000000039e+02 2.062284999999999854e+03
9.900000000000000466e-02 1.717890000000000250e-01 3.962335000000000207e+01 1.611719999999999970e+02 2.062765000000000327e+03
1.000000000000000056e-01 1.718354999999999744e-01 3.937675000000000125e+01 1.619560000000000173e+02 2.063144999999999982e+03
1.010000000000000064e-01 1.718689999999999940e-01 3.898725000000000307e+01 1.623980000000000246e+02 2.063430000000000291e+03
1.020000000000000073e-01 1.718899999999999872e-01 3.846089999999999520e+01 1.625134999999999934e+02 2.063614999999999782e+03
1.030000000000000082e-01 1.718999999999999972e-01 3.780734999999999957e+01 1.623290000000000077e+02 2.063704999999999927e+03
1.040000000000000091e-01 1.718985000000000096e-01 3.703979999999999961e+01 1.618764999999999930e+02 2.063704999999999927e+03
1.050000000000000100e-01 1.718874999999999986e-01 3.617440000000000566e+01 1.611949999999999932e+02 2.063625000000000000e+03
1.059999999999999970e-01 1.718679999999999930e-01 3.522930000000000206e+01 1.603269999999999982e+02 2.063480000000000018e+03
1.069999999999999979e-01 1.718414999999999804e-01 3.422409999999999997e+01 1.593174999999999955e+02 2.063279999999999745e+03
1.079999999999999988e-01 1.718100000000000183e-01 3.317869999999999919e+01 1.582115000000000009e+02 2.063024999999999636e+03
1.089999999999999997e-01 1.717739999999999823e-01 3.211294999999999789e+01 1.570525000000000091e+02 2.062744999999999891e+03
1.100000000000000006e-01 1.717354999999999854e-01 3.104554999999999865e+01 1.558795000000000073e+02 2.062440000000000055e+03
1.110000000000000014e-01 1.716960000000000153e-01 2.999340000000000117e+01 1.547280000000000086e+02 2.062125000000000000e+03
1.120000000000000023e-01 1.716570000000000040e-01 2.897109999999999985e+01 1.536254999999999882e+02 2.061810000000000400e+03
1.130000000000000032e-01 1.716189999999999938e-01 2.799065000000000225e+01 1.525944999999999823e+02 2.061500000000000000e+03
1.140000000000000041e-01 1.715824999999999989e-01 2.706074999999999875e+01 1.516494999999999891e+02 2.061210000000000036e+03
1.150000000000000050e-01 1.715490000000000070e-01 2.618694999999999951e+01 1.507969999999999970e+02 2.060930000000000291e+03
1.160000000000000059e-01 1.715180000000000038e-01 2.537160000000000082e+01 1.500364999999999895e+02 2.060680000000000291e+03
1.170000000000000068e-01 1.714899999999999758e-01 2.461355000000000004e+01 1.493609999999999900e+02 2.060445000000000164e+03
1.180000000000000077e-01 1.714640000000000053e-01 2.390874999999999773e+01 1.487554999999999836e+02 2.060234999999999673e+03
1.190000000000000085e-01 1.714400000000000091e-01 2.325059999999999860e+01 1.482009999999999934e+02 2.060039999999999964e+03
1.200000000000000094e-01 1.714180000000000148e-01 2.263009999999999877e+01 1.476740000000000066e+02 2.059855000000000018e+03
1.209999999999999964e-01 1.713965000000000072e-01 2.203674999999999784e+01 1.471479999999999961e+02 2.059680000000000291e+03
1.219999999999999973e-01 1.713749999999999996e-01 2.145889999999999986e+01 1.465949999999999989e+02 2.059500000000000000e+03
1.229999999999999982e-01 1.713524999999999909e-01 2.088470000000000226e+01 1.459864999999999782e+02 2.059315000000000055e+03
1.239999999999999991e-01 1.713274999999999937e-01 2.030245000000000033e+01 1.452969999999999970e+02 2.059119999999999891e+03
1.250000000000000000e-01 1.713000000000000078e-01 1.970179999999999865e+01 1.445045000000000073e+02 2.058894999999999982e+03
1.260000000000000009e-01 1.712690000000000046e-01 1.907354999999999734e+01 1.435905000000000200e+02 2.058644999999999982e+03
1.270000000000000018e-01 1.712339999999999973e-01 1.841100000000000136e+01 1.425430000000000064e+02 2.058359999999999673e+03
1.280000000000000027e-01 1.711940000000000128e-01 1.770984999999999943e+01 1.413559999999999945e+02 2.058039999999999964e+03
1.290000000000000036e-01 1.711489999999999956e-01 1.696869999999999834e+01 1.400310000000000059e+02 2.057684999999999945e+03
1.300000000000000044e-01 1.710995000000000155e-01 1.618890000000000029e+01 1.385769999999999982e+02 2.057289999999999964e+03
1.310000000000000053e-01 1.710454999999999892e-01 1.537504999999999988e+01 1.370095000000000027e+02 2.056860000000000127e+03
1.320000000000000062e-01 1.709880000000000011e-01 1.453415000000000035e+01 1.353500000000000227e+02 2.056394999999999982e+03
1.330000000000000071e-01 1.709269999999999956e-01 1.367585000000000051e+01 1.336254999999999882e+02 2.055909999999999854e+03
1.340000000000000080e-01 1.708635000000000015e-01 1.281150000000000055e+01 1.318675000000000068e+02 2.055404999999999745e+03
1.350000000000000089e-01 1.707994999999999930e-01 1.195405500000000032e+01 1.301084999999999923e+02 2.054889999999999873e+03
1.360000000000000098e-01 1.707349999999999979e-01 1.111697999999999986e+01 1.283839999999999861e+02 2.054375000000000000e+03
1.370000000000000107e-01 1.706719999999999904e-01 1.031398000000000081e+01 1.267270000000000039e+02 2.053864999999999782e+03
1.380000000000000115e-01 1.706104999999999983e-01 9.558085000000000164e+00 1.251684999999999945e+02 2.053380000000000109e+03
1.390000000000000124e-01 1.705530000000000102e-01 8.861195000000000377e+00 1.237365000000000066e+02 2.052914999999999964e+03
1.400000000000000133e-01 1.704999999999999849e-01 8.233484999999999943e+00 1.224540000000000077e+02 2.052484999999999673e+03
1.410000000000000142e-01 1.704515000000000058e-01 7.683080000000000354e+00 1.213379999999999939e+02 2.052095000000000255e+03
1.420000000000000151e-01 1.704094999999999915e-01 7.215654999999999930e+00 1.203990000000000009e+02 2.051750000000000000e+03
1.430000000000000160e-01 1.703729999999999967e-01 6.834349999999999703e+00 1.196424999999999983e+02 2.051454999999999927e+03
1.440000000000000169e-01 1.703434999999999810e-01 6.539735000000000298e+00 1.190665000000000049e+02 2.051210000000000036e+03
1.450000000000000178e-01 1.703195000000000126e-01 6.329905000000000115e+00 1.186634999999999991e+02 2.051014999999999873e+03
1.459999999999999909e-01 1.703020000000000089e-01 6.200689999999999813e+00 1.184219999999999970e+02 2.050864999999999782e+03
1.469999999999999918e-01 1.702905000000000113e-01 6.145920000000000272e+00 1.183255000000000052e+02 2.050764999999999873e+03
1.479999999999999927e-01 1.702839999999999909e-01 6.157814999999999372e+00 1.183555000000000064e+02 2.050704999999999927e+03
1.489999999999999936e-01 1.702814999999999745e-01 6.227339999999999876e+00 1.184894999999999925e+02 2.050680000000000291e+03
1.499999999999999944e-01 1.702835000000000043e-01 6.344619999999999926e+00 1.187049999999999983e+02 2.050695000000000164e+03
1.509999999999999953e-01 1.702889999999999959e-01 6.499349999999999739e+00 1.189799999999999898e+02 2.050725000000000364e+03
1.519999999999999962e-01 1.702960000000000029e-01 6.681185000000000151e+00 1.192924999999999898e+02 2.050780000000000200e+03
1.529999999999999971e-01 1.703049999999999842e-01 6.880055000000000476e+00 1.196214999999999975e+02 2.050845000000000255e+03
1.539999999999999980e-01 1.703145000000000076e-01 7.086489999999999512e+00 1.199484999999999957e+02 2.050925000000000182e+03
1.549999999999999989e-01 1.703244999999999898e-01 7.291900000000000048e+00 1.202574999999999932e+02 2.051000000000000000e+03
1.559999999999999998e-01 1.703339999999999854e-01 7.488744999999999763e+00 1.205345000000000084e+02 2.051074999999999818e+03
1.570000000000000007e-01 1.703429999999999944e-01 7.670720000000000205e+00 1.207694999999999936e+02 2.051140000000000327e+03
1.580000000000000016e-01 1.703505000000000158e-01 7.832860000000000156e+00 1.209549999999999983e+02 2.051204999999999927e+03
1.590000000000000024e-01 1.703564999999999940e-01 7.971569999999999823e+00 1.210875000000000057e+02 2.051255000000000109e+03
