# t [s], A [cm^2], U [cm/s], P [cPa], c [cm/s]
1.000000000000000021e-03 4.591020000000000101e-01 4.269949999999994583e-03 1.042274999999999920e+02 1.608400000000000091e+03
2.000000000000000042e-03 4.590965000000000185e-01 2.946500000000000334e-03 1.042049999999999983e+02 1.608400000000000091e+03
3.000000000000000062e-03 4.591404999999999514e-01 1.096270500000000037e-01 1.043190000000000026e+02 1.608429999999999836e+03
4.000000000000000083e-03 4.591720000000000246e-01 1.952643999999999769e-01 1.044290000000000020e+02 1.608460000000000036e+03
5.000000000000000104e-03 4.591484999999999594e-01 1.538378499999999982e-01 1.043509999999999991e+02 1.608444999999999936e+03
6.000000000000000125e-03 4.591024999999999689e-01 5.051299999999997459e-02 1.041175000000000068e+02 1.608390000000000100e+03
7.000000000000000146e-03 4.590570000000000483e-01 -5.886399999999997190e-02 1.038040000000000020e+02 1.608319999999999936e+03
8.000000000000000167e-03 4.589805000000000135e-01 -2.536649999999999183e-01 1.033245000000000005e+02 1.608210000000000036e+03
9.000000000000001055e-03 4.588565000000000005e-01 -5.784799999999998832e-01 1.025920000000000130e+02 1.608039999999999964e+03
1.000000000000000194e-02 4.586810000000000054e-01 -1.035330000000000084e+00 1.015604500000000030e+02 1.607799999999999955e+03
1.099999999999999936e-02 4.584399999999999586e-01 -1.642920000000000158e+00 1.001633999999999958e+02 1.607465000000000146e+03
1.200000000000000025e-02 4.581294999999999673e-01 -2.392135000000000122e+00 9.836584999999999468e+01 1.607029999999999973e+03
1.300000000000000114e-02 4.577760000000000162e-01 -3.189310000000000311e+00 9.624615000000000009e+01 1.606500000000000000e+03
1.400000000000000203e-02 4.574290000000000300e-01 -3.878000000000000114e+00 9.400225000000000364e+01 1.605920000000000073e+03
1.499999999999999944e-02 4.571334999999999704e-01 -4.314376499999999837e+00 9.186294999999999789e+01 1.605345000000000027e+03
1.600000000000000033e-02 4.569060000000000343e-01 -4.427189499999999889e+00 8.999115000000000464e+01 1.604805000000000064e+03
1.700000000000000122e-02 4.567364999999999897e-01 -4.231389499999999693e+00 8.843590000000000373e+01 1.604315000000000055e+03
1.800000000000000211e-02 4.565960000000000019e-01 -3.805153999999999925e+00 8.713804999999999268e+01 1.603884999999999991e+03
1.900000000000000300e-02 4.564515000000000100e-01 -3.251111499999999932e+00 8.597159999999999513e+01 1.603490000000000009e+03
2.000000000000000042e-02 4.562775000000000025e-01 -2.658086500000000019e+00 8.479935000000000400e+01 1.603090000000000146e+03
2.100000000000000130e-02 4.560635000000000661e-01 -2.075084999999999624e+00 8.352230000000000132e+01 1.602674999999999955e+03
2.200000000000000219e-02 4.558159999999999989e-01 -1.504955000000000043e+00 8.210675000000000523e+01 1.602224999999999909e+03
2.299999999999999961e-02 4.555510000000000392e-01 -9.183949999999998504e-01 8.058074999999999477e+01 1.601750000000000000e+03
2.400000000000000050e-02 4.552844999999999809e-01 -2.797450000000001324e-01 7.900575000000000614e+01 1.601264999999999873e+03
2.500000000000000139e-02 4.550265000000000004e-01 4.279700000000001836e-01 7.743905000000000882e+01 1.600775000000000091e+03
2.600000000000000228e-02 4.547775000000000012e-01 1.188389999999999835e+00 7.590344999999999231e+01 1.600295000000000073e+03
2.700000000000000316e-02 4.545239999999999836e-01 1.950534999999999908e+00 7.437299999999999045e+01 1.599809999999999945e+03
2.800000000000000058e-02 4.542475000000000263e-01 2.639110000000000511e+00 7.277655000000000030e+01 1.599309999999999945e+03
2.900000000000000147e-02 4.539274999999999838e-01 3.171959999999999447e+00 7.101614999999999611e+01 1.598769999999999982e+03
3.000000000000000236e-02 4.535460000000000047e-01 3.479910000000000281e+00 6.899490000000000123e+01 1.598174999999999955e+03
3.099999999999999978e-02 4.530984999999999596e-01 3.523865000000000247e+00 6.664570000000000505e+01 1.597514999999999873e+03
3.200000000000000067e-02 4.525879999999999903e-01 3.304945000000000022e+00 6.395510000000000161e+01 1.596764999999999873e+03
3.300000000000000155e-02 4.520334999999999770e-01 2.864609999999999879e+00 6.097294999999999732e+01 1.595950000000000045e+03
3.400000000000000244e-02 4.514605000000000423e-01 2.275560000000000027e+00 5.780830000000000268e+01 1.595079999999999927e+03
3.500000000000000333e-02 4.508989999999999942e-01 1.626755000000000173e+00 5.461164999999999736e+01 1.594190000000000055e+03
3.600000000000000422e-02 4.503780000000000006e-01 1.007949999999999235e+00 5.155124999999999602e+01 1.593329999999999927e+03
3.700000000000000511e-02 4.499230000000000174e-01 4.969250000000005052e-01 4.878999999999999915e+01 1.592525000000000091e+03
3.799999999999999906e-02 4.495525000000000215e-01 1.524399999999999089e-01 4.646649999999999636e+01 1.591829999999999927e+03
3.899999999999999994e-02 4.492779999999999552e-01 1.214999999999966107e-02 4.468404999999999916e+01 1.591255000000000109e+03
4.000000000000000083e-02 4.491050000000000320e-01 9.502999999999994785e-02 4.350714999999999577e+01 1.590844999999999800e+03
4.100000000000000172e-02 4.490330000000000155e-01 4.062249999999999472e-01 4.296430000000000149e+01 1.590590000000000146e+03
4.200000000000000261e-02 4.490609999999999880e-01 9.428235000000000365e-01 4.305554999999999666e+01 1.590509999999999991e+03
4.300000000000000350e-02 4.491835000000000133e-01 1.698764500000000011e+00 4.376104999999999734e+01 1.590595000000000027e+03
4.400000000000000439e-02 4.493964999999999765e-01 2.667927000000000159e+00 4.504994999999999550e+01 1.590855000000000018e+03
4.499999999999999833e-02 4.496955000000000258e-01 3.844880000000000297e+00 4.688599999999999568e+01 1.591264999999999873e+03
4.599999999999999922e-02 4.500760000000000316e-01 5.223711500000000285e+00 4.923059999999999548e+01 1.591829999999999927e+03
4.700000000000000011e-02 4.505314999999999737e-01 6.795617000000000019e+00 5.204229999999999734e+01 1.592534999999999854e+03
4.800000000000000100e-02 4.510544999999999694e-01 8.546451499999999868e+00 5.527570000000000050e+01 1.593355000000000018e+03
4.900000000000000189e-02 4.516375000000000250e-01 1.045522499999999866e+01 5.887895000000000323e+01 1.594299999999999955e+03
5.000000000000000278e-02 4.522694999999999910e-01 1.249354999999999905e+01 6.279279999999999973e+01 1.595339999999999918e+03
5.100000000000000366e-02 4.529385000000000217e-01 1.462701999999999991e+01 6.695120000000000005e+01 1.596460000000000036e+03
5.200000000000000455e-02 4.536324999999999941e-01 1.681719500000000167e+01 7.128315000000000623e+01 1.597639999999999873e+03
5.300000000000000544e-02 4.543399999999999661e-01 1.902439999999999998e+01 7.571649999999999636e+01 1.598869999999999891e+03
5.399999999999999939e-02 4.550490000000000368e-01 2.121079999999999899e+01 8.018189999999999884e+01 1.600130000000000109e+03
5.500000000000000028e-02 4.557510000000000172e-01 2.334269999999999712e+01 8.461650000000000205e+01 1.601389999999999873e+03
5.600000000000000117e-02 4.564369999999999816e-01 2.539235000000000042e+01 8.896925000000000239e+01 1.602644999999999982e+03
5.700000000000000205e-02 4.571034999999999959e-01 2.733924999999999983e+01 9.319970000000000709e+01 1.603880000000000109e+03
5.800000000000000294e-02 4.577475000000000294e-01 2.916979999999999862e+01 9.728284999999999627e+01 1.605085000000000036e+03
5.900000000000000383e-02 4.583674999999999833e-01 3.087729999999999819e+01 1.012071499999999986e+02 1.606255000000000109e+03
6.000000000000000472e-02 4.589655000000000262e-01 3.246079999999999899e+01 1.049729000000000099e+02 1.607394999999999982e+03
6.099999999999999867e-02 4.595434999999999937e-01 3.392409999999999570e+01 1.085909499999999923e+02 1.608494999999999891e+03
6.199999999999999956e-02 4.601045000000000273e-01 3.527465000000000117e+01 1.120794999999999959e+02 1.609565000000000055e+03
6.300000000000000044e-02 4.606529999999999792e-01 3.652190000000000225e+01 1.154629999999999939e+02 1.610599999999999909e+03
6.400000000000000133e-02 4.611934999999999785e-01 3.767685000000000173e+01 1.187674999999999983e+02 1.611619999999999891e+03
6.500000000000000222e-02 4.617284999999999862e-01 3.875069999999999482e+01 1.220180000000000007e+02 1.612615000000000009e+03
6.600000000000000311e-02 4.622619999999999507e-01 3.975379999999999825e+01 1.252390000000000043e+02 1.613610000000000127e+03
6.700000000000000400e-02 4.627965000000000551e-01 4.069509999999999650e+01 1.284484999999999957e+02 1.614594999999999800e+03
6.800000000000000488e-02 4.633334999999999537e-01 4.158115000000000094e+01 1.316589999999999918e+02 1.615575000000000045e+03
6.900000000000000577e-02 4.638725000000000209e-01 4.241564999999999941e+01 1.348759999999999764e+02 1.616554999999999836e+03
7.000000000000000666e-02 4.644119999999999915e-01 4.319930000000000092e+01 1.380954999999999870e+02 1.617539999999999964e+03
7.100000000000000755e-02 4.649510000000000032e-01 4.392934999999999945e+01 1.413064999999999998e+02 1.618519999999999982e+03
7.200000000000000844e-02 4.654840000000000089e-01 4.460049999999999670e+01 1.444900000000000091e+02 1.619490000000000009e+03
7.300000000000000933e-02 4.660080000000000333e-01 4.520490000000000208e+01 1.476209999999999809e+02 1.620450000000000045e+03
7.399999999999999634e-02 4.665169999999999595e-01 4.573319999999999652e+01 1.506699999999999875e+02 1.621384999999999991e+03
7.499999999999999722e-02 4.670060000000000322e-01 4.617534999999999457e+01 1.536045000000000016e+02 1.622295000000000073e+03
7.599999999999999811e-02 4.674699999999999966e-01 4.652114999999999867e+01 1.563924999999999841e+02 1.623170000000000073e+03
7.699999999999999900e-02 4.679039999999999866e-01 4.676165000000000305e+01 1.590029999999999859e+02 1.623989999999999782e+03
7.799999999999999989e-02 4.683035000000000392e-01 4.688909999999999911e+01 1.614085000000000036e+02 1.624755000000000109e+03
7.900000000000000078e-02 4.686655000000000126e-01 4.689784999999999826e+01 1.635860000000000127e+02 1.625465000000000146e+03
8.000000000000000167e-02 4.689875000000000016e-01 4.678484999999999872e+01 1.655180000000000007e+02 1.626105000000000018e+03
8.100000000000000255e-02 4.692684999999999773e-01 4.654945000000000022e+01 1.671949999999999932e+02 1.626670000000000073e+03
8.200000000000000344e-02 4.695079999999999809e-01 4.619389999999999930e+01 1.686125000000000114e+02 1.627159999999999854e+03
8.300000000000000433e-02 4.697059999999999569e-01 4.572294999999999732e+01 1.697735000000000127e+02 1.627579999999999927e+03
8.400000000000000522e-02 4.698654999999999360e-01 4.514400000000000546e+01 1.706879999999999882e+02 1.627920000000000073e+03
8.500000000000000611e-02 4.699875000000000025e-01 4.446680000000000632e+01 1.713689999999999998e+02 1.628190000000000055e+03
8.600000000000000699e-02 4.700765000000000082e-01 4.370304999999999751e+01 1.718375000000000057e+02 1.628400000000000091e+03
8.700000000000000788e-02 4.701355000000000395e-01 4.286599999999999966e+01 1.721159999999999854e+02 1.628545000000000073e+03
8.800000000000000877e-02 4.701690000000000036e-01 4.197015000000000384e+01 1.722325000000000159e+02 1.628644999999999982e+03
8.899999999999999578e-02 4.701819999999999888e-01 4.103065000000000140e+01 1.722135000000000105e+02 1.628690000000000055e+03
8.999999999999999667e-02 4.701779999999999848e-01 4.006284999999999741e+01 1.720894999999999868e+02 1.628704999999999927e+03
9.099999999999999756e-02 4.701629999999999976e-01 3.908155000000000001e+01 1.718885000000000218e+02 1.628684999999999945e+03
9.199999999999999845e-02 4.701394999999999880e-01 3.810074999999999790e+01 1.716370000000000005e+02 1.628644999999999982e+03
9.299999999999999933e-02 4.701124999999999887e-01 3.713280000000000314e+01 1.713605000000000018e+02 1.628595000000000027e+03
9.400000000000000022e-02 4.700840000000000574e-01 3.618820000000000192e+01 1.710784999999999911e+02 1.628530000000000200e+03
9.500000000000000111e-02 4.700570000000000026e-01 3.527524999999999977e+01 1.708089999999999975e+02 1.628465000000000146e+03
9.600000000000000200e-02 4.700334999999999930e-01 3.439950000000000330e+01 1.705635000000000048e+02 1.628394999999999982e+03
9.700000000000000289e-02 4.700134999999999730e-01 3.356405000000000172e+01 1.703485000000000014e+02 1.628339999999999918e+03
9.800000000000000377e-02 4.699975000000000125e-01 3.276930000000000121e+01 1.701670000000000016e+02 1.628280000000000200e+03
9.900000000000000466e-02 4.699844999999999717e-01 3.201330000000000098e+01 1.700155000000000030e+02 1.628230000000000018e+03
1.000000000000000056e-01 4.699740000000000029e-01 3.129189999999999827e+01 1.698874999999999886e+02 1.628190000000000055e+03
1.010000000000000064e-01 4.699630000000000196e-01 3.059919999999999973e+01 1.697730000000000246e+02 1.628150000000000091e+03
1.020000000000000073e-01 4.699505000000000488e-01 2.992794999999999916e+01 1.696585000000000036e+02 1.628110000000000127e+03
1.030000000000000082e-01 4.699340000000000184e-01 2.927009999999999934e+01 1.695305000000000177e+02 1.628065000000000055e+03
1.040000000000000091e-01 4.699105000000000087e-01 2.861724999999999852e+01 1.693729999999999905e+02 1.628014999999999873e+03
1.050000000000000100e-01 4.698780000000000179e-01 2.796110000000000184e+01 1.691709999999999923e+02 1.627949999999999818e+03
1.059999999999999970e-01 4.698350000000000026e-01 2.729399999999999693e+01 1.689105000000000132e+02 1.627880000000000109e+03
1.069999999999999979e-01 4.697790000000000021e-01 2.660914999999999964e+01 1.685809999999999889e+02 1.627789999999999964e+03
1.079999999999999988e-01 4.697100000000000164e-01 2.590129999999999910e+01 1.681714999999999804e+02 1.627670000000000073e+03
1.089999999999999997e-01 4.696259999999999879e-01 2.516649999999999920e+01 1.676779999999999973e+02 1.627534999999999854e+03
1.100000000000000006e-01 4.695274999999999865e-01 2.440285000000000082e+01 1.670960000000000036e+02 1.627375000000000000e+03
1.110000000000000014e-01 4.694150000000000267e-01 2.361014999999999731e+01 1.664279999999999973e+02 1.627190000000000055e+03
1.120000000000000023e-01 4.692889999999999562e-01 2.279035000000000011e+01 1.656779999999999973e+02 1.626985000000000127e+03
1.130000000000000032e-01 4.691520000000000135e-01 2.194700000000000273e+01 1.648550000000000182e+02 1.626755000000000109e+03
1.140000000000000041e-01 4.690059999999999785e-01 2.108555000000000135e+01 1.639705000000000155e+02 1.626505000000000109e+03
1.150000000000000050e-01 4.688525000000000054e-01 2.021280000000000143e+01 1.630389999999999873e+02 1.626244999999999891e+03
1.160000000000000059e-01 4.686949999999999728e-01 1.933695000000000164e+01 1.620765000000000100e+02 1.625970000000000027e+03
1.170000000000000068e-01 4.685375000000000512e-01 1.846685000000000088e+01 1.611014999999999873e+02 1.625690000000000055e+03
1.180000000000000077e-01 4.683810000000000473e-01 1.761195000000000022e+01 1.601315000000000168e+02 1.625410000000000082e+03
1.190000000000000085e-01 4.682300000000000351e-01 1.678154999999999930e+01 1.591870000000000118e+02 1.625130000000000109e+03
1.200000000000000094e-01 4.680865000000000165e-01 1.598479999999999990e+01 1.582835000000000036e+02 1.624865000000000009e+03
1.209999999999999964e-01 4.679535000000000222e-01 1.523025000000000162e+01 1.574385000000000048e+02 1.624605000000000018e+03
1.219999999999999973e-01 4.678329999999999433e-01 1.452499999999999858e+01 1.566659999999999968e+02 1.624369999999999891e+03
1.229999999999999982e-01 4.677259999999999751e-01 1.387513000000000041e+01 1.559764999999999873e+02 1.624155000000000200e+03
1.239999999999999991e-01 4.676339999999999941e-01 1.328498500000000071e+01 1.553779999999999859e+02 1.623954999999999927e+03
1.250000000000000000e-01 4.675575000000000148e-01 1.275718499999999977e+01 1.548754999999999882e+02 1.623784999999999854e+03
1.260000000000000009e-01 4.674969999999999959e-01 1.229265499999999989e+01 1.544695000000000107e+02 1.623650000000000091e+03
1.270000000000000018e-01 4.674515000000000198e-01 1.189048999999999978e+01 1.541580000000000155e+02 1.623530000000000200e+03
1.280000000000000027e-01 4.674189999999999734e-01 1.154819499999999977e+01 1.539350000000000023e+02 1.623445000000000164e+03
1.290000000000000036e-01 4.673990000000000089e-01 1.126189499999999910e+01 1.537930000000000064e+02 1.623375000000000000e+03
1.300000000000000044e-01 4.673899999999999721e-01 1.102647500000000136e+01 1.537214999999999918e+02 1.623329999999999927e+03
1.310000000000000053e-01 4.673895000000000133e-01 1.083591000000000015e+01 1.537079999999999984e+02 1.623304999999999836e+03
1.320000000000000062e-01 4.673955000000000193e-01 1.068358999999999881e+01 1.537394999999999925e+02 1.623295000000000073e+03
1.330000000000000071e-01 4.674054999999999738e-01 1.056261999999999901e+01 1.538040000000000020e+02 1.623289999999999964e+03
1.340000000000000080e-01 4.674175000000000413e-01 1.046620000000000061e+01 1.538874999999999886e+02 1.623299999999999955e+03
1.350000000000000089e-01 4.674309999999999854e-01 1.038759999999999906e+01 1.539780000000000086e+02 1.623309999999999945e+03
1.360000000000000098e-01 4.674420000000000242e-01 1.032080999999999982e+01 1.540660000000000025e+02 1.623325000000000045e+03
1.370000000000000107e-01 4.674515000000000198e-01 1.026028499999999966e+01 1.541415000000000077e+02 1.623340000000000146e+03
1.380000000000000115e-01 4.674575000000000258e-01 1.020142000000000060e+01 1.541974999999999909e+02 1.623349999999999909e+03
1.390000000000000124e-01 4.674595000000000278e-01 1.014037499999999881e+01 1.542289999999999850e+02 1.623355000000000018e+03
1.400000000000000133e-01 4.674564999999999970e-01 1.007426000000000066e+01 1.542325000000000159e+02 1.623355000000000018e+03
1.410000000000000142e-01 4.674494999999999623e-01 1.000105500000000092e+01 1.542069999999999936e+02 1.623345000000000027e+03
1.420000000000000151e-01 4.674379999999999646e-01 9.919515000000000526e+00 1.541524999999999750e+02 1.623335000000000036e+03
1.430000000000000160e-01 4.674220000000000041e-01 9.829209999999999781e+00 1.540709999999999980e+02 1.623309999999999945e+03
1.440000000000000169e-01 4.674024999999999985e-01 9.730404999999999305e+00 1.539644999999999868e+02 1.623279999999999973e+03
1.450000000000000178e-01 4.673800000000000177e-01 9.623905000000000598e+00 1.538385000000000105e+02 1.623244999999999891e+03
1.459999999999999909e-01 4.673559999999999937e-01 9.510905000000001053e+00 1.536954999999999814e+02 1.623210000000000036e+03
1.469999999999999918e-01 4.673300000000000232e-01 9.392915000000000347e+00 1.535409999999999968e+02 1.623170000000000073e+03
1.479999999999999927e-01 4.673030000000000239e-01 9.271729999999999805e+00 1.533799999999999955e+02 1.623125000000000000e+03
1.489999999999999936e-01 4.672764999999999835e-01 9.149055000000000604e+00 1.532164999999999964e+02 1.623075000000000045e+03
1.499999999999999944e-01 4.672505000000000130e-01 9.026609999999999800e+00 1.530535000000000139e+02 1.623029999999999973e+03
1.509999999999999953e-01 4.672250000000000014e-01 8.906069999999999709e+00 1.528954999999999984e+02 1.622985000000000127e+03
1.519999999999999962e-01 4.672009999999999774e-01 8.788724999999999454e+00 1.527445000000000164e+02 1.622940000000000055e+03
1.529999999999999971e-01 4.671785000000000521e-01 8.675695000000001045e+00 1.526020000000000039e+02 1.622900000000000091e+03
1.539999999999999980e-01 4.671579999999999622e-01 8.567640000000000811e+00 1.524689999999999941e+02 1.622860000000000127e+03
1.549999999999999989e-01 4.671385000000000121e-01 8.465004999999999669e+00 1.523455000000000155e+02 1.622820000000000164e+03
1.559999999999999998e-01 4.671205000000000496e-01 8.367874999999999730e+00 1.522300000000000182e+02 1.622785000000000082e+03
1.570000000000000007e-01 4.671044999999999781e-01 8.275959999999999539e+00 1.521214999999999975e+02 1.622755000000000109e+03
1.580000000000000016e-01 4.670879999999999477e-01 8.188810000000000144e+00 1.520185000000000173e+02 1.622720000000000027e+03
1.590000000000000024e-01 4.670720000000000427e-01 8.105784999999999130e+00 1.519180000000000064e+02 1.622690000000000055e+03
