# t [s], A [cm^2], U [cm/s], P [cPa], c [cm/s]
1.000000000000000021e-03 1.205090000000000050e-01 2.286199999999999899e-01 9.928499999999999659e+01 1.864930000000000064e+03
2.000000000000000042e-03 1.204955000000000054e-01 1.590805000000000025e+00 9.655445000000000277e+01 1.864744999999999891e+03
3.000000000000000062e-03 1.204310000000000103e-01 3.284104000000000134e+00 9.304249999999998977e+01 1.863965000000000146e+03
4.000000000000000083e-03 1.203305000000000069e-01 5.165059499999999915e+00 8.903714999999999691e+01 1.862750000000000000e+03
5.000000000000000104e-03 1.202100000000000113e-01 7.186004999999999754e+00 8.513335000000000719e+01 1.861320000000000164e+03
6.000000000000000125e-03 1.200829999999999953e-01 9.270265000000000200e+00 8.170330000000001291e+01 1.859819999999999936e+03
7.000000000000000146e-03 1.199584999999999957e-01 1.129636499999999977e+01 7.879984999999999218e+01 1.858360000000000127e+03
8.000000000000000167e-03 1.198390000000000011e-01 1.315085499999999996e+01 7.627809999999999491e+01 1.856985000000000127e+03
9.000000000000001055e-03 1.197264999999999857e-01 1.478701500000000024e+01 7.401894999999998959e+01 1.855699999999999818e+03
1.000000000000000194e-02 1.196234999999999937e-01 1.621495000000000175e+01 7.201964999999999861e+01 1.854550000000000182e+03
1.099999999999999936e-02 1.195319999999999994e-01 1.745400000000000063e+01 7.031270000000000664e+01 1.853529999999999973e+03
1.200000000000000025e-02 1.194525000000000031e-01 1.851385000000000147e+01 6.889520000000000266e+01 1.852650000000000091e+03
1.300000000000000114e-02 1.193845000000000045e-01 1.939924999999999855e+01 6.773140000000000782e+01 1.851909999999999854e+03
1.400000000000000203e-02 1.193265000000000020e-01 2.011260000000000048e+01 6.676805000000000234e+01 1.851289999999999964e+03
1.499999999999999944e-02 1.192780000000000090e-01 2.065659999999999741e+01 6.594245000000000800e+01 1.850769999999999982e+03
1.600000000000000033e-02 1.192364999999999953e-01 2.104615000000000080e+01 6.520834999999999582e+01 1.850335000000000036e+03
1.700000000000000122e-02 1.192010000000000014e-01 2.132059999999999889e+01 6.457715000000000316e+01 1.849965000000000146e+03
1.800000000000000211e-02 1.191725000000000007e-01 2.154404999999999859e+01 6.413840000000000430e+01 1.849684999999999945e+03
1.900000000000000300e-02 1.191540000000000099e-01 2.178900000000000148e+01 6.403314999999999202e+01 1.849500000000000000e+03
2.000000000000000042e-02 1.191480000000000039e-01 2.211135000000000161e+01 6.439150000000000773e+01 1.849445000000000164e+03
2.100000000000000130e-02 1.191564999999999985e-01 2.253204999999999814e+01 6.526874999999999716e+01 1.849549999999999955e+03
2.200000000000000219e-02 1.191784999999999928e-01 2.303144999999999953e+01 6.661209999999999809e+01 1.849805000000000064e+03
2.299999999999999961e-02 1.192129999999999995e-01 2.355859999999999843e+01 6.826824999999999477e+01 1.850194999999999936e+03
2.400000000000000050e-02 1.192554999999999865e-01 2.404789999999999850e+01 7.002445000000000164e+01 1.850670000000000073e+03
2.500000000000000139e-02 1.193010000000000043e-01 2.443829999999999814e+01 7.166344999999999743e+01 1.851184999999999945e+03
2.600000000000000228e-02 1.193445000000000061e-01 2.468784999999999741e+01 7.301324999999999932e+01 1.851679999999999836e+03
2.700000000000000316e-02 1.193825000000000025e-01 2.478065000000000140e+01 7.397919999999999163e+01 1.852115000000000009e+03
2.800000000000000058e-02 1.194125000000000048e-01 2.472585000000000122e+01 7.455074999999999363e+01 1.852480000000000018e+03
2.900000000000000147e-02 1.194349999999999995e-01 2.455030000000000001e+01 7.478700000000000614e+01 1.852740000000000009e+03
3.000000000000000236e-02 1.194500000000000006e-01 2.428810000000000002e+01 7.478620000000000800e+01 1.852924999999999955e+03
3.099999999999999978e-02 1.194594999999999962e-01 2.397005000000000052e+01 7.465215000000000600e+01 1.853034999999999854e+03
3.200000000000000067e-02 1.194649999999999879e-01 2.361645000000000039e+01 7.446555000000000746e+01 1.853110000000000127e+03
3.300000000000000155e-02 1.194669999999999899e-01 2.323454999999999870e+01 7.426804999999998813e+01 1.853139999999999873e+03
3.400000000000000244e-02 1.194675000000000042e-01 2.282045000000000101e+01 7.406114999999999782e+01 1.853154999999999973e+03
3.500000000000000333e-02 1.194660000000000027e-01 2.236384999999999934e+01 7.381700000000000728e+01 1.853144999999999982e+03
3.600000000000000422e-02 1.194619999999999987e-01 2.185519999999999996e+01 7.349670000000000414e+01 1.853099999999999909e+03
3.700000000000000511e-02 1.194550000000000056e-01 2.129110000000000014e+01 7.307040000000000646e+01 1.853025000000000091e+03
3.799999999999999906e-02 1.194445000000000090e-01 2.067889999999999873e+01 7.253294999999999959e+01 1.852914999999999964e+03
3.899999999999999994e-02 1.194304999999999950e-01 2.003734999999999999e+01 7.191204999999999359e+01 1.852769999999999982e+03
4.000000000000000083e-02 1.194149999999999934e-01 1.939529999999999887e+01 7.126695000000000846e+01 1.852599999999999909e+03
4.100000000000000172e-02 1.193990000000000051e-01 1.878669999999999973e+01 7.067914999999999281e+01 1.852429999999999836e+03
4.200000000000000261e-02 1.193845000000000045e-01 1.824535000000000196e+01 7.023629999999999995e+01 1.852269999999999982e+03
4.300000000000000350e-02 1.193740000000000079e-01 1.779840000000000089e+01 7.001480000000000814e+01 1.852144999999999982e+03
4.400000000000000439e-02 1.193684999999999885e-01 1.746215000000000117e+01 7.006450000000000955e+01 1.852085000000000036e+03
4.499999999999999833e-02 1.193700000000000039e-01 1.723915000000000219e+01 7.039849999999999852e+01 1.852095000000000027e+03
4.599999999999999922e-02 1.193779999999999980e-01 1.711854999999999905e+01 7.099080000000000723e+01 1.852179999999999836e+03
4.700000000000000011e-02 1.193929999999999991e-01 1.707779999999999987e+01 7.178045000000000186e+01 1.852335000000000036e+03
4.800000000000000100e-02 1.194125000000000048e-01 1.708675000000000210e+01 7.268160000000000309e+01 1.852549999999999955e+03
4.900000000000000189e-02 1.194355000000000000e-01 1.711159999999999926e+01 7.359649999999999181e+01 1.852795000000000073e+03
5.000000000000000278e-02 1.194590000000000096e-01 1.711939999999999884e+01 7.442900000000000205e+01 1.853049999999999955e+03
5.100000000000000366e-02 1.194810000000000039e-01 1.708129999999999882e+01 7.509544999999999959e+01 1.853295000000000073e+03
5.200000000000000455e-02 1.194995000000000085e-01 1.697489999999999810e+01 7.553270000000000550e+01 1.853500000000000000e+03
5.300000000000000544e-02 1.195125000000000076e-01 1.678515000000000157e+01 7.570204999999999984e+01 1.853640000000000100e+03
5.399999999999999939e-02 1.195189999999999864e-01 1.650404999999999944e+01 7.558840000000000714e+01 1.853715000000000146e+03
5.500000000000000028e-02 1.195180000000000131e-01 1.612979999999999947e+01 7.519720000000000937e+01 1.853715000000000146e+03
5.600000000000000117e-02 1.195094999999999907e-01 1.566544999999999987e+01 7.454945000000000732e+01 1.853625000000000000e+03
5.700000000000000205e-02 1.194945000000000035e-01 1.511744999999999806e+01 7.367615000000000691e+01 1.853465000000000146e+03
5.800000000000000294e-02 1.194729999999999959e-01 1.449455000000000027e+01 7.261310000000000286e+01 1.853224999999999909e+03
5.900000000000000383e-02 1.194454999999999961e-01 1.380675000000000097e+01 7.139744999999999209e+01 1.852924999999999955e+03
6.000000000000000472e-02 1.194125000000000048e-01 1.306535000000000046e+01 7.006569999999999254e+01 1.852565000000000055e+03
6.099999999999999867e-02 1.193760000000000099e-01 1.228262499999999946e+01 6.865309999999999491e+01 1.852160000000000082e+03
6.199999999999999956e-02 1.193354999999999971e-01 1.147225500000000054e+01 6.719424999999999670e+01 1.851714999999999918e+03
6.300000000000000044e-02 1.192934999999999968e-01 1.064936499999999953e+01 6.572444999999999027e+01 1.851255000000000109e+03
6.400000000000000133e-02 1.192505000000000093e-01 9.831039999999999779e+00 6.428069999999999595e+01 1.850775000000000091e+03
6.500000000000000222e-02 1.192074999999999940e-01 9.036125000000000185e+00 6.290290000000000248e+01 1.850299999999999955e+03
6.600000000000000311e-02 1.191655000000000075e-01 8.285170000000000812e+00 6.163375000000000625e+01 1.849835000000000036e+03
6.700000000000000400e-02 1.191259999999999958e-01 7.599674999999999514e+00 6.051850000000000307e+01 1.849394999999999982e+03
6.800000000000000488e-02 1.190910000000000024e-01 7.001619999999999955e+00 5.960334999999999894e+01 1.849000000000000000e+03
6.900000000000000577e-02 1.190610000000000002e-01 6.512405000000000221e+00 5.893370000000000175e+01 1.848660000000000082e+03
7.000000000000000666e-02 1.190374999999999905e-01 6.151920000000000499e+00 5.855160000000000053e+01 1.848394999999999982e+03
7.100000000000000755e-02 1.190219999999999889e-01 5.937599999999999767e+00 5.849365000000000236e+01 1.848215000000000146e+03
7.200000000000000844e-02 1.190154999999999963e-01 5.883539999999999992e+00 5.878860000000000241e+01 1.848134999999999991e+03
7.300000000000000933e-02 1.190195000000000003e-01 5.999850000000000350e+00 5.945595000000000141e+01 1.848164999999999964e+03
7.399999999999999634e-02 1.190335000000000143e-01 6.292229999999999990e+00 6.050464999999999804e+01 1.848309999999999945e+03
7.499999999999999722e-02 1.190589999999999982e-01 6.761784999999999712e+00 6.193295000000000528e+01 1.848574999999999818e+03
7.599999999999999811e-02 1.190954999999999930e-01 7.405089999999999506e+00 6.372839999999999350e+01 1.848970000000000027e+03
7.699999999999999900e-02 1.191424999999999845e-01 8.214525000000000077e+00 6.586914999999999054e+01 1.849480000000000018e+03
7.799999999999999989e-02 1.192005000000000148e-01 9.178734999999999644e+00 6.832529999999999859e+01 1.850110000000000127e+03
7.900000000000000078e-02 1.192684999999999995e-01 1.028339500000000051e+01 7.106065000000000964e+01 1.850849999999999909e+03
8.000000000000000167e-02 1.193455000000000071e-01 1.151185500000000062e+01 7.403515000000000157e+01 1.851700000000000045e+03
8.100000000000000255e-02 1.194300000000000084e-01 1.284601500000000129e+01 7.720654999999999291e+01 1.852630000000000109e+03
8.200000000000000344e-02 1.195220000000000032e-01 1.426710000000000100e+01 8.053305000000000291e+01 1.853639999999999873e+03
8.300000000000000433e-02 1.196194999999999897e-01 1.575634999999999941e+01 8.397454999999999359e+01 1.854720000000000027e+03
8.400000000000000522e-02 1.197209999999999941e-01 1.729589999999999961e+01 8.749474999999999625e+01 1.855855000000000018e+03
8.500000000000000611e-02 1.198265000000000025e-01 1.886894999999999811e+01 9.106194999999999595e+01 1.857025000000000091e+03
8.600000000000000699e-02 1.199344999999999994e-01 2.046034999999999826e+01 9.464979999999999905e+01 1.858235000000000127e+03
8.700000000000000788e-02 1.200444999999999984e-01 2.205689999999999884e+01 9.823779999999999291e+01 1.859465000000000146e+03
8.800000000000000877e-02 1.201559999999999989e-01 2.364719999999999800e+01 1.018101499999999930e+02 1.860710000000000036e+03
8.899999999999999578e-02 1.202669999999999850e-01 2.522175000000000011e+01 1.053564000000000078e+02 1.861964999999999918e+03
8.999999999999999667e-02 1.203784999999999994e-01 2.677254999999999896e+01 1.088700000000000045e+02 1.863219999999999800e+03
9.099999999999999756e-02 1.204899999999999999e-01 2.829314999999999714e+01 1.123470000000000084e+02 1.864480000000000018e+03
9.199999999999999845e-02 1.206004999999999994e-01 2.977819999999999823e+01 1.157860000000000014e+02 1.865735000000000127e+03
9.299999999999999933e-02 1.207109999999999850e-01 3.122305000000000064e+01 1.191854999999999905e+02 1.866985000000000127e+03
9.400000000000000022e-02 1.208199999999999968e-01 3.262364999999999782e+01 1.225430000000000064e+02 1.868230000000000018e+03
9.500000000000000111e-02 1.209289999999999948e-01 3.397625000000000028e+01 1.258574999999999875e+02 1.869460000000000036e+03
9.600000000000000200e-02 1.210364999999999913e-01 3.527714999999999890e+01 1.291250000000000000e+02 1.870684999999999945e+03
9.700000000000000289e-02 1.211424999999999863e-01 3.652285000000000537e+01 1.323405000000000200e+02 1.871900000000000091e+03
9.800000000000000377e-02 1.212474999999999942e-01 3.770959999999999468e+01 1.354964999999999975e+02 1.873099999999999909e+03
9.900000000000000466e-02 1.213505000000000000e-01 3.883364999999999867e+01 1.385854999999999961e+02 1.874284999999999854e+03
1.000000000000000056e-01 1.214520000000000044e-01 3.989135000000000275e+01 1.415985000000000014e+02 1.875449999999999818e+03
1.010000000000000064e-01 1.215515000000000068e-01 4.087895000000000323e+01 1.445244999999999891e+02 1.876594999999999800e+03
1.020000000000000073e-01 1.216480000000000061e-01 4.179290000000000305e+01 1.473539999999999850e+02 1.877704999999999927e+03
1.030000000000000082e-01 1.217425000000000035e-01 4.262969999999999970e+01 1.500754999999999768e+02 1.878789999999999964e+03
1.040000000000000091e-01 1.218329999999999969e-01 4.338620000000000232e+01 1.526794999999999902e+02 1.879840000000000146e+03
1.050000000000000100e-01 1.219205000000000011e-01 4.405930000000000035e+01 1.551549999999999727e+02 1.880855000000000018e+03
1.059999999999999970e-01 1.220045000000000018e-01 4.464645000000000152e+01 1.574934999999999832e+02 1.881825000000000045e+03
1.069999999999999979e-01 1.220834999999999976e-01 4.514529999999999887e+01 1.596865000000000236e+02 1.882750000000000000e+03
1.079999999999999988e-01 1.221590000000000037e-01 4.555389999999999873e+01 1.617255000000000109e+02 1.883625000000000000e+03
1.089999999999999997e-01 1.222300000000000053e-01 4.587084999999999724e+01 1.636045000000000016e+02 1.884450000000000045e+03
1.100000000000000006e-01 1.222959999999999881e-01 4.609515000000000384e+01 1.653170000000000073e+02 1.885214999999999918e+03
1.110000000000000014e-01 1.223569999999999935e-01 4.622629999999999484e+01 1.668589999999999804e+02 1.885934999999999945e+03
1.120000000000000023e-01 1.224124999999999935e-01 4.626465000000000316e+01 1.682270000000000039e+02 1.886585000000000036e+03
1.130000000000000032e-01 1.224630000000000024e-01 4.621105000000000018e+01 1.694205000000000041e+02 1.887179999999999836e+03
1.140000000000000041e-01 1.225080000000000058e-01 4.606709999999999638e+01 1.704395000000000095e+02 1.887710000000000036e+03
1.150000000000000050e-01 1.225474999999999898e-01 4.583554999999999779e+01 1.712849999999999966e+02 1.888174999999999955e+03
1.160000000000000059e-01 1.225819999999999965e-01 4.551959999999999695e+01 1.719624999999999773e+02 1.888579999999999927e+03
1.170000000000000068e-01 1.226105000000000111e-01 4.512359999999999616e+01 1.724770000000000039e+02 1.888920000000000073e+03
1.180000000000000077e-01 1.226339999999999930e-01 4.465250000000000341e+01 1.728369999999999891e+02 1.889200000000000045e+03
1.190000000000000085e-01 1.226529999999999981e-01 4.411220000000000141e+01 1.730520000000000209e+02 1.889429999999999836e+03
1.200000000000000094e-01 1.226665000000000116e-01 4.350915000000000532e+01 1.731340000000000146e+02 1.889599999999999909e+03
1.209999999999999964e-01 1.226760000000000073e-01 4.285025000000000261e+01 1.730944999999999823e+02 1.889715000000000146e+03
1.219999999999999973e-01 1.226814999999999989e-01 4.214294999999999902e+01 1.729479999999999791e+02 1.889789999999999964e+03
1.229999999999999982e-01 1.226830000000000004e-01 4.139470000000000027e+01 1.727065000000000055e+02 1.889815000000000055e+03
1.239999999999999991e-01 1.226809999999999845e-01 4.061305000000000121e+01 1.723849999999999909e+02 1.889805000000000064e+03
1.250000000000000000e-01 1.226764999999999939e-01 3.980519999999999925e+01 1.719970000000000141e+02 1.889755000000000109e+03
1.260000000000000009e-01 1.226700000000000013e-01 3.897830000000000439e+01 1.715540000000000020e+02 1.889675000000000182e+03
1.270000000000000018e-01 1.226600000000000051e-01 3.813880000000000337e+01 1.710679999999999836e+02 1.889574999999999818e+03
1.280000000000000027e-01 1.226489999999999941e-01 3.729250000000000398e+01 1.705475000000000136e+02 1.889445000000000164e+03
1.290000000000000036e-01 1.226365000000000094e-01 3.644460000000000122e+01 1.700024999999999977e+02 1.889300000000000182e+03
1.300000000000000044e-01 1.226225000000000093e-01 3.559955000000000069e+01 1.694379999999999882e+02 1.889139999999999873e+03
1.310000000000000053e-01 1.226075000000000081e-01 3.476075000000000159e+01 1.688605000000000018e+02 1.888969999999999800e+03
1.320000000000000062e-01 1.225915000000000060e-01 3.393104999999999905e+01 1.682719999999999914e+02 1.888785000000000082e+03
1.330000000000000071e-01 1.225745000000000029e-01 3.311220000000000141e+01 1.676740000000000066e+02 1.888595000000000027e+03
1.340000000000000080e-01 1.225580000000000003e-01 3.230545000000000044e+01 1.670670000000000073e+02 1.888394999999999982e+03
1.350000000000000089e-01 1.225400000000000100e-01 3.151109999999999900e+01 1.664495000000000005e+02 1.888190000000000055e+03
1.360000000000000098e-01 1.225214999999999915e-01 3.072895000000000110e+01 1.658199999999999932e+02 1.887970000000000027e+03
1.370000000000000107e-01 1.225025000000000003e-01 2.995795000000000385e+01 1.651740000000000066e+02 1.887750000000000000e+03
1.380000000000000115e-01 1.224824999999999942e-01 2.919704999999999728e+01 1.645074999999999932e+02 1.887525000000000091e+03
1.390000000000000124e-01 1.224619999999999875e-01 2.844440000000000168e+01 1.638174999999999955e+02 1.887289999999999964e+03
1.400000000000000133e-01 1.224409999999999943e-01 2.769825000000000159e+01 1.630980000000000132e+02 1.887034999999999854e+03
1.410000000000000142e-01 1.224184999999999995e-01 2.695640000000000214e+01 1.623460000000000036e+02 1.886779999999999973e+03
1.420000000000000151e-01 1.223955000000000043e-01 2.621685000000000088e+01 1.615554999999999950e+02 1.886509999999999991e+03
1.430000000000000160e-01 1.223710000000000075e-01 2.547760000000000247e+01 1.607239999999999895e+02 1.886224999999999909e+03
1.440000000000000169e-01 1.223450000000000093e-01 2.473689999999999856e+01 1.598480000000000132e+02 1.885924999999999955e+03
1.450000000000000178e-01 1.223180000000000101e-01 2.399324999999999974e+01 1.589250000000000114e+02 1.885610000000000127e+03
1.459999999999999909e-01 1.222894999999999954e-01 2.324544999999999817e+01 1.579544999999999959e+02 1.885280000000000200e+03
1.469999999999999918e-01 1.222594999999999932e-01 2.249295000000000044e+01 1.569360000000000070e+02 1.884934999999999945e+03
1.479999999999999927e-01 1.222280000000000033e-01 2.173545000000000016e+01 1.558700000000000045e+02 1.884570000000000164e+03
1.489999999999999936e-01 1.221949999999999981e-01 2.097354999999999947e+01 1.547604999999999791e+02 1.884190000000000055e+03
1.499999999999999944e-01 1.221600000000000047e-01 2.020810000000000173e+01 1.536100000000000136e+02 1.883795000000000073e+03
1.509999999999999953e-01 1.221249999999999974e-01 1.944069999999999965e+01 1.524244999999999948e+02 1.883384999999999991e+03
1.519999999999999962e-01 1.220880000000000021e-01 1.867360000000000042e+01 1.512090000000000032e+02 1.882954999999999927e+03
1.529999999999999971e-01 1.220500000000000057e-01 1.790944999999999965e+01 1.499720000000000084e+02 1.882525000000000091e+03
1.539999999999999980e-01 1.220114999999999950e-01 1.715135000000000076e+01 1.487214999999999918e+02 1.882074999999999818e+03
1.549999999999999989e-01 1.219725000000000115e-01 1.640279999999999916e+01 1.474664999999999964e+02 1.881630000000000109e+03
1.559999999999999998e-01 1.219324999999999992e-01 1.566764999999999830e+01 1.462164999999999964e+02 1.881175000000000182e+03
1.570000000000000007e-01 1.218930000000000013e-01 1.494969999999999999e+01 1.449809999999999945e+02 1.880715000000000146e+03
1.580000000000000016e-01 1.218539999999999901e-01 1.425300000000000011e+01 1.437694999999999936e+02 1.880269999999999982e+03
1.590000000000000024e-01 1.218150000000000066e-01 1.358135000000000048e+01 1.425905000000000200e+02 1.879820000000000164e+03
