# t [s], A [cm^2], U [cm/s], P [cPa], c [cm/s]
1.000000000000000021e-03 1.887949999999999906e-01 1.646360000000000046e-01 9.565989999999999327e+01 2.183659999999999854e+03
2.000000000000000042e-03 1.887524999999999897e-01 1.471989500000000062e+00 9.276465000000000316e+01 2.183324999999999818e+03
3.000000000000000062e-03 1.886315000000000075e-01 3.168792999999999971e+00 8.852934999999999377e+01 2.182420000000000073e+03
4.000000000000000083e-03 1.884625000000000050e-01 5.114882099999999987e+00 8.366580000000000439e+01 2.181184999999999945e+03
5.000000000000000104e-03 1.882785000000000153e-01 7.243325000000000458e+00 7.909340000000000259e+01 2.179849999999999909e+03
6.000000000000000125e-03 1.881019999999999914e-01 9.398519999999999541e+00 7.525405000000000655e+01 2.178579999999999927e+03
7.000000000000000146e-03 1.879369999999999929e-01 1.134903500000000065e+01 7.199370000000000402e+01 2.177425000000000182e+03
8.000000000000000167e-03 1.877854999999999941e-01 1.297419999999999973e+01 6.905854999999999677e+01 2.176385000000000218e+03
9.000000000000001055e-03 1.876530000000000142e-01 1.430069999999999908e+01 6.649014999999999986e+01 2.175484999999999673e+03
1.000000000000000194e-02 1.875414999999999999e-01 1.536994999999999933e+01 6.439414999999999623e+01 2.174739999999999782e+03
1.099999999999999936e-02 1.874525000000000219e-01 1.620500000000000185e+01 6.277585000000000548e+01 2.174155000000000200e+03
1.200000000000000025e-02 1.873845000000000094e-01 1.682659999999999911e+01 6.158740000000000236e+01 2.173704999999999927e+03
1.300000000000000114e-02 1.873329999999999995e-01 1.723904999999999887e+01 6.072050000000000125e+01 2.173380000000000109e+03
1.400000000000000203e-02 1.872925000000000006e-01 1.744395000000000095e+01 6.001984999999999815e+01 2.173130000000000109e+03
1.499999999999999944e-02 1.872604999999999964e-01 1.749709999999999965e+01 5.943694999999999595e+01 2.172940000000000055e+03
1.600000000000000033e-02 1.872415000000000052e-01 1.753455000000000297e+01 5.917109999999999559e+01 2.172829999999999927e+03
1.700000000000000122e-02 1.872445000000000082e-01 1.772109999999999985e+01 5.960174999999999557e+01 2.172855000000000018e+03
1.800000000000000211e-02 1.872785000000000144e-01 1.815984999999999872e+01 6.103894999999999982e+01 2.173090000000000146e+03
1.900000000000000300e-02 1.873454999999999981e-01 1.883230000000000004e+01 6.348604999999999876e+01 2.173539999999999964e+03
2.000000000000000042e-02 1.874375000000000069e-01 1.960439999999999827e+01 6.657460000000000377e+01 2.174159999999999854e+03
2.100000000000000130e-02 1.875390000000000112e-01 2.028759999999999764e+01 6.969325000000000614e+01 2.174855000000000018e+03
2.200000000000000219e-02 1.876309999999999922e-01 2.071584999999999965e+01 7.222155000000000769e+01 2.175494999999999891e+03
2.299999999999999961e-02 1.877000000000000057e-01 2.080395000000000039e+01 7.374904999999999688e+01 2.175994999999999891e+03
2.400000000000000050e-02 1.877395000000000036e-01 2.056660000000000110e+01 7.419075000000000841e+01 2.176284999999999854e+03
2.500000000000000139e-02 1.877504999999999868e-01 2.009740000000000038e+01 7.376794999999999902e+01 2.176385000000000218e+03
2.600000000000000228e-02 1.877424999999999788e-01 1.952105000000000246e+01 7.287975000000000136e+01 2.176344999999999800e+03
2.700000000000000316e-02 1.877249999999999752e-01 1.894239999999999924e+01 7.192994999999999095e+01 2.176239999999999782e+03
2.800000000000000058e-02 1.877070000000000127e-01 1.841134999999999877e+01 7.118045000000000755e+01 2.176110000000000127e+03
2.900000000000000147e-02 1.876924999999999844e-01 1.791394999999999982e+01 7.068180000000000973e+01 2.176010000000000218e+03
3.000000000000000236e-02 1.876784999999999981e-01 1.738935000000000031e+01 7.029234999999999900e+01 2.175914999999999964e+03
3.099999999999999978e-02 1.876614999999999811e-01 1.676229999999999976e+01 6.976709999999999923e+01 2.175800000000000182e+03
3.200000000000000067e-02 1.876349999999999962e-01 1.597970000000000113e+01 6.887779999999999347e+01 2.175625000000000000e+03
3.300000000000000155e-02 1.875950000000000117e-01 1.503885000000000005e+01 6.752195000000000391e+01 2.175359999999999673e+03
3.400000000000000244e-02 1.875425000000000009e-01 1.399804999999999922e+01 6.578499999999999659e+01 2.175010000000000218e+03
3.500000000000000333e-02 1.874830000000000108e-01 1.296539999999999893e+01 6.393344999999999345e+01 2.174614999999999782e+03
3.600000000000000422e-02 1.874274999999999969e-01 1.207044999999999924e+01 6.234329999999999927e+01 2.174230000000000018e+03
3.700000000000000511e-02 1.873859999999999970e-01 1.142763000000000062e+01 6.138819999999999766e+01 2.173934999999999945e+03
3.799999999999999906e-02 1.873684999999999934e-01 1.110555000000000092e+01 6.132880000000000109e+01 2.173800000000000182e+03
3.899999999999999994e-02 1.873790000000000178e-01 1.110995000000000132e+01 6.223855000000000359e+01 2.173855000000000018e+03
4.000000000000000083e-02 1.874184999999999879e-01 1.138455000000000084e+01 6.398570000000000135e+01 2.174100000000000364e+03
4.100000000000000172e-02 1.874794999999999934e-01 1.182680000000000042e+01 6.626945000000000618e+01 2.174500000000000000e+03
4.200000000000000261e-02 1.875519999999999965e-01 1.231210000000000093e+01 6.869360000000000355e+01 2.174984999999999673e+03
4.300000000000000350e-02 1.876240000000000130e-01 1.271865000000000023e+01 7.085235000000000127e+01 2.175475000000000364e+03
4.400000000000000439e-02 1.876849999999999907e-01 1.294784999999999897e+01 7.240690000000000737e+01 2.175894999999999982e+03
4.499999999999999833e-02 1.877245000000000164e-01 1.293649999999999878e+01 7.313630000000000564e+01 2.176180000000000291e+03
4.599999999999999922e-02 1.877379999999999882e-01 1.265954999999999941e+01 7.295584999999999809e+01 2.176284999999999854e+03
4.700000000000000011e-02 1.877240000000000020e-01 1.212485000000000035e+01 7.190534999999999854e+01 2.176199999999999818e+03
4.800000000000000100e-02 1.876835000000000031e-01 1.136337999999999937e+01 7.011509999999999820e+01 2.175940000000000055e+03
4.900000000000000189e-02 1.876204999999999956e-01 1.041770499999999977e+01 6.776220000000000709e+01 2.175524999999999636e+03
5.000000000000000278e-02 1.875399999999999845e-01 9.332254999999999967e+00 6.503024999999999523e+01 2.174980000000000018e+03
5.100000000000000366e-02 1.874474999999999891e-01 8.147114999999999441e+00 6.207995000000000374e+01 2.174355000000000018e+03
5.200000000000000455e-02 1.873469999999999858e-01 6.896214999999999762e+00 5.903600000000000136e+01 2.173664999999999964e+03
5.300000000000000544e-02 1.872420000000000195e-01 5.608634999999999593e+00 5.598834999999999695e+01 2.172954999999999927e+03
5.399999999999999939e-02 1.871359999999999968e-01 4.312190000000000190e+00 5.300359999999999872e+01 2.172230000000000018e+03
5.500000000000000028e-02 1.870314999999999894e-01 3.036925399999999886e+00 5.014029999999999632e+01 2.171514999999999873e+03
5.600000000000000117e-02 1.869310000000000138e-01 1.817932000000000103e+00 4.746325000000000216e+01 2.170819999999999709e+03
5.700000000000000205e-02 1.868370000000000031e-01 6.962249999999999828e-01 4.505230000000000246e+01 2.170180000000000291e+03
5.800000000000000294e-02 1.867540000000000033e-01 -2.824000000000000954e-01 4.300390000000000157e+01 2.169600000000000364e+03
5.900000000000000383e-02 1.866840000000000166e-01 -1.070270999999999972e+00 4.142614999999999981e+01 2.169109999999999673e+03
6.000000000000000472e-02 1.866319999999999923e-01 -1.621839500000000100e+00 4.042799999999999727e+01 2.168739999999999782e+03
6.099999999999999867e-02 1.866005000000000025e-01 -1.897880000000000233e+00 4.010710000000000264e+01 2.168510000000000218e+03
6.199999999999999956e-02 1.865939999999999821e-01 -1.869229999999999947e+00 4.053759999999999764e+01 2.168444999999999709e+03
6.300000000000000044e-02 1.866130000000000011e-01 -1.519397999999999804e+00 4.176120000000000232e+01 2.168550000000000182e+03
6.400000000000000133e-02 1.866599999999999926e-01 -8.458349999999998925e-01 4.378185000000000571e+01 2.168849999999999909e+03
6.500000000000000222e-02 1.867340000000000111e-01 1.401499999999999968e-01 4.656565000000000509e+01 2.169335000000000036e+03
6.600000000000000311e-02 1.868340000000000001e-01 1.414600000000000080e+00 5.004404999999999859e+01 2.170000000000000000e+03
6.700000000000000400e-02 1.869574999999999987e-01 2.942958999999999659e+00 5.412055000000000149e+01 2.170824999999999818e+03
6.800000000000000488e-02 1.871010000000000173e-01 4.682611999999999775e+00 5.867864999999999753e+01 2.171789999999999964e+03
6.900000000000000577e-02 1.872610000000000108e-01 6.585799999999999876e+00 6.359069999999999823e+01 2.172875000000000000e+03
7.000000000000000666e-02 1.874335000000000029e-01 8.602574999999999861e+00 6.872729999999999961e+01 2.174045000000000073e+03
7.100000000000000755e-02 1.876140000000000030e-01 1.068386500000000083e+01 7.396559999999999491e+01 2.175279999999999745e+03
7.200000000000000844e-02 1.877979999999999927e-01 1.278407499999999963e+01 7.919695000000000107e+01 2.176539999999999964e+03
7.300000000000000933e-02 1.879824999999999968e-01 1.486345000000000027e+01 8.433310000000000173e+01 2.177809999999999945e+03
7.399999999999999634e-02 1.881645000000000123e-01 1.688990000000000080e+01 8.931004999999998972e+01 2.179069999999999709e+03
7.499999999999999722e-02 1.883424999999999960e-01 1.883974999999999866e+01 9.408979999999999677e+01 2.180305000000000291e+03
7.599999999999999811e-02 1.885145000000000015e-01 2.069784999999999897e+01 9.866009999999999991e+01 2.181500000000000000e+03
7.699999999999999900e-02 1.886805000000000010e-01 2.245685000000000286e+01 1.030286499999999990e+02 2.182654999999999745e+03
7.799999999999999989e-02 1.888409999999999811e-01 2.411569999999999681e+01 1.072199999999999989e+02 2.183779999999999745e+03
7.900000000000000078e-02 1.889965000000000117e-01 2.567780000000000129e+01 1.112684999999999889e+02 2.184860000000000127e+03
8.000000000000000167e-02 1.891470000000000096e-01 2.714904999999999902e+01 1.152094999999999914e+02 2.185920000000000073e+03
8.100000000000000255e-02 1.892945000000000044e-01 2.853624999999999901e+01 1.190769999999999982e+02 2.186954999999999927e+03
8.200000000000000344e-02 1.894399999999999973e-01 2.984539999999999793e+01 1.228945000000000078e+02 2.187974999999999909e+03
8.300000000000000433e-02 1.895840000000000025e-01 3.108094999999999786e+01 1.266775000000000091e+02 2.188980000000000018e+03
8.400000000000000522e-02 1.897260000000000058e-01 3.224540000000000362e+01 1.304294999999999902e+02 2.189974999999999909e+03
8.500000000000000611e-02 1.898664999999999936e-01 3.333890000000000242e+01 1.341424999999999841e+02 2.190970000000000255e+03
8.600000000000000699e-02 1.900060000000000082e-01 3.435970000000000368e+01 1.378020000000000209e+02 2.191940000000000055e+03
8.700000000000000788e-02 1.901424999999999921e-01 3.530429999999999779e+01 1.413849999999999909e+02 2.192904999999999745e+03
8.800000000000000877e-02 1.902760000000000007e-01 3.616785000000000139e+01 1.448654999999999973e+02 2.193845000000000255e+03
8.899999999999999578e-02 1.904055000000000053e-01 3.694454999999999956e+01 1.482139999999999986e+02 2.194760000000000218e+03
8.999999999999999667e-02 1.905300000000000049e-01 3.762774999999999892e+01 1.514024999999999750e+02 2.195635000000000218e+03
9.099999999999999756e-02 1.906484999999999985e-01 3.821034999999999826e+01 1.543994999999999891e+02 2.196470000000000255e+03
9.199999999999999845e-02 1.907604999999999995e-01 3.868515000000000015e+01 1.571779999999999973e+02 2.197264999999999873e+03
9.299999999999999933e-02 1.908635000000000193e-01 3.904495000000000005e+01 1.597104999999999961e+02 2.197994999999999891e+03
9.400000000000000022e-02 1.909575000000000022e-01 3.928325000000000244e+01 1.619730000000000132e+02 2.198664999999999964e+03
9.500000000000000111e-02 1.910425000000000040e-01 3.939444999999999908e+01 1.639454999999999814e+02 2.199265000000000327e+03
9.600000000000000200e-02 1.911164999999999947e-01 3.937465000000000259e+01 1.656109999999999900e+02 2.199795000000000073e+03
9.700000000000000289e-02 1.911789999999999878e-01 3.922204999999999586e+01 1.669604999999999961e+02 2.200244999999999891e+03
9.800000000000000377e-02 1.912304999999999977e-01 3.893739999999999668e+01 1.679915000000000020e+02 2.200619999999999891e+03
9.900000000000000466e-02 1.912709999999999966e-01 3.852445000000000164e+01 1.687085000000000150e+02 2.200914999999999964e+03
1.000000000000000056e-01 1.912995000000000112e-01 3.798999999999999488e+01 1.691260000000000048e+02 2.201125000000000000e+03
1.010000000000000064e-01 1.913179999999999881e-01 3.734385000000000332e+01 1.692649999999999864e+02 2.201269999999999982e+03
1.020000000000000073e-01 1.913265000000000104e-01 3.659834999999999638e+01 1.691544999999999845e+02 2.201335000000000036e+03
1.030000000000000082e-01 1.913265000000000104e-01 3.576825000000000188e+01 1.688285000000000196e+02 2.201340000000000146e+03
1.040000000000000091e-01 1.913185000000000024e-01 3.486959999999999837e+01 1.683265000000000100e+02 2.201300000000000182e+03
1.050000000000000100e-01 1.913044999999999884e-01 3.391949999999999932e+01 1.676865000000000236e+02 2.201204999999999927e+03
1.059999999999999970e-01 1.912850000000000106e-01 3.293479999999999563e+01 1.669485000000000241e+02 2.201074999999999818e+03
1.069999999999999979e-01 1.912619999999999876e-01 3.193210000000000193e+01 1.661494999999999891e+02 2.200914999999999964e+03
1.079999999999999988e-01 1.912365000000000037e-01 3.092660000000000053e+01 1.653235000000000241e+02 2.200739999999999782e+03
1.089999999999999997e-01 1.912099999999999911e-01 2.993195000000000050e+01 1.644984999999999786e+02 2.200555000000000291e+03
1.100000000000000006e-01 1.911829999999999918e-01 2.895945000000000036e+01 1.636980000000000075e+02 2.200364999999999782e+03
1.110000000000000014e-01 1.911565000000000070e-01 2.801825000000000188e+01 1.629379999999999882e+02 2.200180000000000291e+03
1.120000000000000023e-01 1.911305000000000087e-01 2.711469999999999914e+01 1.622284999999999968e+02 2.199994999999999891e+03
1.130000000000000032e-01 1.911059999999999981e-01 2.625244999999999962e+01 1.615740000000000123e+02 2.199824999999999818e+03
1.140000000000000041e-01 1.910834999999999895e-01 2.543265000000000242e+01 1.609710000000000036e+02 2.199659999999999854e+03
1.150000000000000050e-01 1.910620000000000096e-01 2.465350000000000108e+01 1.604110000000000014e+02 2.199505000000000109e+03
1.160000000000000059e-01 1.910415000000000030e-01 2.391129999999999711e+01 1.598799999999999955e+02 2.199359999999999673e+03
1.170000000000000068e-01 1.910219999999999974e-01 2.320009999999999906e+01 1.593609999999999900e+02 2.199215000000000146e+03
1.180000000000000077e-01 1.910020000000000051e-01 2.251250000000000284e+01 1.588335000000000150e+02 2.199074999999999818e+03
1.190000000000000085e-01 1.909814999999999985e-01 2.184015000000000128e+01 1.582749999999999773e+02 2.198925000000000182e+03
1.200000000000000094e-01 1.909600000000000186e-01 2.117409999999999926e+01 1.576630000000000109e+02 2.198775000000000091e+03
1.209999999999999964e-01 1.909359999999999946e-01 2.050580000000000069e+01 1.569770000000000039e+02 2.198605000000000018e+03
1.219999999999999973e-01 1.909089999999999954e-01 1.982714999999999961e+01 1.561985000000000241e+02 2.198420000000000073e+03
1.229999999999999982e-01 1.908795000000000075e-01 1.913125000000000142e+01 1.553115000000000236e+02 2.198204999999999927e+03
1.239999999999999991e-01 1.908455000000000013e-01 1.841290000000000049e+01 1.543085000000000093e+02 2.197974999999999909e+03
1.250000000000000000e-01 1.908080000000000054e-01 1.766900000000000048e+01 1.531825000000000045e+02 2.197704999999999927e+03
1.260000000000000009e-01 1.907654999999999768e-01 1.689835000000000065e+01 1.519375000000000000e+02 2.197414999999999964e+03
1.270000000000000018e-01 1.907194999999999863e-01 1.610245000000000104e+01 1.505794999999999959e+02 2.197095000000000255e+03
1.280000000000000027e-01 1.906694999999999918e-01 1.528490000000000038e+01 1.491234999999999786e+02 2.196744999999999891e+03
1.290000000000000036e-01 1.906160000000000077e-01 1.445164999999999900e+01 1.475875000000000057e+02 2.196375000000000000e+03
1.300000000000000044e-01 1.905610000000000082e-01 1.361039999999999850e+01 1.459964999999999975e+02 2.195989999999999782e+03
1.310000000000000053e-01 1.905034999999999923e-01 1.277064999999999984e+01 1.443765000000000214e+02 2.195585000000000036e+03
1.320000000000000062e-01 1.904450000000000032e-01 1.194260000000000055e+01 1.427570000000000050e+02 2.195175000000000182e+03
1.330000000000000071e-01 1.903865000000000141e-01 1.113722500000000082e+01 1.411674999999999898e+02 2.194769999999999982e+03
1.340000000000000080e-01 1.903294999999999848e-01 1.036521499999999918e+01 1.396365000000000123e+02 2.194369999999999891e+03
1.350000000000000089e-01 1.902749999999999997e-01 9.636670000000000513e+00 1.381904999999999859e+02 2.193980000000000018e+03
1.360000000000000098e-01 1.902225000000000166e-01 8.960620000000000474e+00 1.368514999999999873e+02 2.193614999999999782e+03
1.370000000000000107e-01 1.901744999999999963e-01 8.344384999999999053e+00 1.356380000000000052e+02 2.193275000000000091e+03
1.380000000000000115e-01 1.901304999999999801e-01 7.793635000000000090e+00 1.345614999999999952e+02 2.192965000000000146e+03
1.390000000000000124e-01 1.900910000000000100e-01 7.311880000000000379e+00 1.336299999999999955e+02 2.192690000000000055e+03
1.400000000000000133e-01 1.900569999999999760e-01 6.900680000000000369e+00 1.328449999999999989e+02 2.192444999999999709e+03
1.410000000000000142e-01 1.900280000000000025e-01 6.559585000000000221e+00 1.322030000000000030e+02 2.192230000000000018e+03
1.420000000000000151e-01 1.900034999999999918e-01 6.286335000000000228e+00 1.316965000000000146e+02 2.192054999999999836e+03
1.430000000000000160e-01 1.899839999999999862e-01 6.077085000000000292e+00 1.313154999999999859e+02 2.191914999999999964e+03
1.440000000000000169e-01 1.899684999999999846e-01 5.926664999999999850e+00 1.310444999999999993e+02 2.191805000000000291e+03
1.450000000000000178e-01 1.899569999999999870e-01 5.828889999999999461e+00 1.308695000000000164e+02 2.191715000000000146e+03
1.459999999999999909e-01 1.899489999999999790e-01 5.776794999999999902e+00 1.307730000000000246e+02 2.191654999999999745e+03
1.469999999999999918e-01 1.899440000000000017e-01 5.762985000000000468e+00 1.307384999999999877e+02 2.191614999999999782e+03
1.479999999999999927e-01 1.899409999999999987e-01 5.779844999999999899e+00 1.307489999999999952e+02 2.191590000000000146e+03
1.489999999999999936e-01 1.899389999999999967e-01 5.819815000000000182e+00 1.307884999999999991e+02 2.191574999999999818e+03
1.499999999999999944e-01 1.899389999999999967e-01 5.875564999999999927e+00 1.308419999999999845e+02 2.191569999999999709e+03
1.509999999999999953e-01 1.899390000000000245e-01 5.940244999999999997e+00 1.308965000000000032e+02 2.191565000000000055e+03
1.519999999999999962e-01 1.899395000000000111e-01 6.007600000000000051e+00 1.309399999999999977e+02 2.191569999999999709e+03
1.529999999999999971e-01 1.899394999999999833e-01 6.072129999999999583e+00 1.309624999999999773e+02 2.191569999999999709e+03
1.539999999999999980e-01 1.899389999999999967e-01 6.129215000000000302e+00 1.309560000000000173e+02 2.191565000000000055e+03
1.549999999999999989e-01 1.899379999999999957e-01 6.175164999999999793e+00 1.309159999999999968e+02 2.191559999999999945e+03
1.559999999999999998e-01 1.899350000000000205e-01 6.207269999999999399e+00 1.308380000000000223e+02 2.191539999999999964e+03
1.570000000000000007e-01 1.899315000000000031e-01 6.223810000000000286e+00 1.307210000000000036e+02 2.191514999999999873e+03
1.580000000000000016e-01 1.899270000000000125e-01 6.224029999999999951e+00 1.305654999999999859e+02 2.191484999999999673e+03
1.590000000000000024e-01 1.899210000000000065e-01 6.208054999999999879e+00 1.303745000000000118e+02 2.191440000000000055e+03
