# t [s], A [cm^2], U [cm/s], P [cPa], c [cm/s]
1.000000000000000021e-03 1.257984999999999798e-01 3.626475000000000115e-01 8.872595000000001164e+01 1.891684999999999945e+03
2.000000000000000042e-03 1.257739999999999969e-01 1.815819500000000142e+00 8.571439999999999770e+01 1.891375000000000000e+03
3.000000000000000062e-03 1.256960000000000022e-01 3.553491499999999803e+00 8.183684999999999832e+01 1.890414999999999964e+03
4.000000000000000083e-03 1.255830000000000002e-01 5.468934500000000476e+00 7.771875000000000000e+01 1.889045000000000073e+03
5.000000000000000104e-03 1.254560000000000120e-01 7.509094999999999409e+00 7.404834999999999923e+01 1.887514999999999873e+03
6.000000000000000125e-03 1.253294999999999826e-01 9.548610000000000042e+00 7.106520000000000437e+01 1.886005000000000109e+03
7.000000000000000146e-03 1.252079999999999860e-01 1.142647999999999975e+01 6.859485000000000809e+01 1.884585000000000036e+03
8.000000000000000167e-03 1.250944999999999974e-01 1.305740499999999926e+01 6.640635000000000332e+01 1.883265000000000100e+03
9.000000000000001055e-03 1.249905000000000044e-01 1.445430999999999955e+01 6.446779999999999688e+01 1.882085000000000036e+03
1.000000000000000194e-02 1.248994999999999966e-01 1.564874999999999972e+01 6.283444999999999681e+01 1.881049999999999955e+03
1.099999999999999936e-02 1.248205000000000009e-01 1.665194999999999936e+01 6.150025000000000830e+01 1.880170000000000073e+03
1.200000000000000025e-02 1.247545000000000043e-01 1.746904999999999930e+01 6.041264999999999930e+01 1.879440000000000055e+03
1.300000000000000114e-02 1.246990000000000043e-01 1.810594999999999999e+01 5.951099999999999568e+01 1.878829999999999927e+03
1.400000000000000203e-02 1.246520000000000128e-01 1.856814999999999927e+01 5.872715000000000174e+01 1.878329999999999927e+03
1.499999999999999944e-02 1.246124999999999872e-01 1.887685000000000102e+01 5.801675000000000182e+01 1.877904999999999973e+03
1.600000000000000033e-02 1.245785000000000087e-01 1.909149999999999991e+01 5.742810000000000059e+01 1.877554999999999836e+03
1.700000000000000122e-02 1.245539999999999980e-01 1.930720000000000169e+01 5.713114999999999810e+01 1.877300000000000182e+03
1.800000000000000211e-02 1.245419999999999999e-01 1.962190000000000012e+01 5.735314999999999941e+01 1.877184999999999945e+03
1.900000000000000300e-02 1.245474999999999915e-01 2.009275000000000233e+01 5.825534999999999997e+01 1.877259999999999991e+03
2.000000000000000042e-02 1.245725000000000027e-01 2.070960000000000178e+01 5.982975000000000421e+01 1.877545000000000073e+03
2.100000000000000130e-02 1.246140000000000025e-01 2.139724999999999966e+01 6.187239999999999895e+01 1.878014999999999873e+03
2.200000000000000219e-02 1.246664999999999995e-01 2.204350000000000165e+01 6.404054999999999609e+01 1.878609999999999900e+03
2.299999999999999961e-02 1.247219999999999995e-01 2.253624999999999901e+01 6.595860000000000412e+01 1.879240000000000009e+03
2.400000000000000050e-02 1.247719999999999940e-01 2.279639999999999844e+01 6.732734999999999559e+01 1.879819999999999936e+03
2.500000000000000139e-02 1.248100000000000043e-01 2.279589999999999961e+01 6.799774999999999636e+01 1.880269999999999982e+03
2.600000000000000228e-02 1.248329999999999995e-01 2.255790000000000006e+01 6.799070000000000391e+01 1.880555000000000064e+03
2.700000000000000316e-02 1.248414999999999941e-01 2.214144999999999897e+01 6.746369999999998868e+01 1.880670000000000073e+03
2.800000000000000058e-02 1.248380000000000045e-01 2.161880000000000024e+01 6.664304999999998813e+01 1.880650000000000091e+03
2.900000000000000147e-02 1.248269999999999935e-01 2.105284999999999940e+01 6.574784999999999968e+01 1.880539999999999964e+03
3.000000000000000236e-02 1.248130000000000073e-01 2.048254999999999981e+01 6.493130000000000734e+01 1.880384999999999991e+03
3.099999999999999978e-02 1.247975000000000056e-01 1.991870000000000118e+01 6.425324999999999420e+01 1.880220000000000027e+03
3.200000000000000067e-02 1.247830000000000050e-01 1.934945000000000093e+01 6.368750000000000000e+01 1.880055000000000064e+03
3.300000000000000155e-02 1.247679999999999900e-01 1.875225000000000009e+01 6.315350000000000108e+01 1.879894999999999982e+03
3.400000000000000244e-02 1.247520000000000018e-01 1.810715000000000074e+01 6.256019999999999470e+01 1.879720000000000027e+03
3.500000000000000333e-02 1.247334999999999972e-01 1.740869999999999962e+01 6.184720000000000084e+01 1.879514999999999873e+03
3.600000000000000422e-02 1.247119999999999895e-01 1.667180000000000106e+01 6.101205000000000211e+01 1.879279999999999973e+03
3.700000000000000511e-02 1.246874999999999928e-01 1.593210000000000015e+01 6.011854999999999905e+01 1.879009999999999991e+03
3.799999999999999906e-02 1.246629999999999960e-01 1.523925000000000196e+01 5.928390000000000271e+01 1.878735000000000127e+03
3.899999999999999994e-02 1.246400000000000008e-01 1.464665000000000106e+01 5.865024999999999977e+01 1.878480000000000018e+03
4.000000000000000083e-02 1.246234999999999982e-01 1.419930000000000092e+01 5.834895000000000209e+01 1.878284999999999854e+03
4.100000000000000172e-02 1.246150000000000035e-01 1.392395000000000138e+01 5.846654999999999802e+01 1.878190000000000055e+03
4.200000000000000261e-02 1.246175000000000060e-01 1.382264999999999944e+01 5.902250000000000085e+01 1.878204999999999927e+03
4.300000000000000350e-02 1.246309999999999918e-01 1.387219999999999942e+01 5.996139999999999759e+01 1.878345000000000027e+03
4.400000000000000439e-02 1.246540000000000009e-01 1.402749999999999986e+01 6.116219999999999857e+01 1.878594999999999800e+03
4.499999999999999833e-02 1.246835000000000027e-01 1.422984999999999900e+01 6.245910000000000650e+01 1.878914999999999964e+03
4.599999999999999922e-02 1.247159999999999935e-01 1.441525000000000034e+01 6.366890000000000072e+01 1.879269999999999982e+03
4.700000000000000011e-02 1.247469999999999968e-01 1.452370000000000161e+01 6.461934999999999718e+01 1.879610000000000127e+03
4.800000000000000100e-02 1.247714999999999935e-01 1.450554999999999950e+01 6.517154999999999632e+01 1.879894999999999982e+03
4.900000000000000189e-02 1.247870000000000090e-01 1.432649999999999935e+01 6.523484999999999445e+01 1.880070000000000164e+03
5.000000000000000278e-02 1.247904999999999986e-01 1.396860000000000035e+01 6.477170000000000982e+01 1.880110000000000127e+03
5.100000000000000366e-02 1.247805000000000164e-01 1.342989999999999995e+01 6.379449999999999932e+01 1.880005000000000109e+03
5.200000000000000455e-02 1.247564999999999924e-01 1.272155000000000058e+01 6.235584999999999667e+01 1.879740000000000009e+03
5.300000000000000544e-02 1.247199999999999975e-01 1.186496499999999976e+01 6.053669999999999618e+01 1.879335000000000036e+03
5.399999999999999939e-02 1.246714999999999907e-01 1.088836000000000048e+01 5.843350000000000222e+01 1.878804999999999836e+03
5.500000000000000028e-02 1.246145000000000030e-01 9.824265000000000470e+00 5.614809999999999945e+01 1.878164999999999964e+03
5.600000000000000117e-02 1.245509999999999950e-01 8.707554999999999268e+00 5.378064999999999429e+01 1.877454999999999927e+03
5.700000000000000205e-02 1.244834999999999969e-01 7.574575000000000280e+00 5.142610000000000525e+01 1.876704999999999927e+03
5.800000000000000294e-02 1.244145000000000112e-01 6.462405000000000399e+00 4.917350000000000421e+01 1.875929999999999836e+03
5.900000000000000383e-02 1.243464999999999987e-01 5.408859999999999779e+00 4.710665000000000191e+01 1.875170000000000073e+03
6.000000000000000472e-02 1.242830000000000046e-01 4.452210000000000001e+00 4.530579999999999785e+01 1.874454999999999927e+03
6.099999999999999867e-02 1.242260000000000031e-01 3.630704999999999849e+00 4.384834999999999638e+01 1.873809999999999945e+03
6.199999999999999956e-02 1.241770000000000096e-01 2.981790000000000163e+00 4.280859999999999843e+01 1.873259999999999991e+03
6.300000000000000044e-02 1.241405000000000008e-01 2.540869999999999962e+00 4.225659999999999883e+01 1.872840000000000146e+03
6.400000000000000133e-02 1.241170000000000051e-01 2.339890000000000025e+00 4.225490000000000634e+01 1.872565000000000055e+03
6.500000000000000222e-02 1.241089999999999971e-01 2.405675000000000008e+00 4.285569999999999879e+01 1.872464999999999918e+03
6.600000000000000311e-02 1.241189999999999932e-01 2.758445000000000036e+00 4.409685000000000343e+01 1.872555000000000064e+03
6.700000000000000400e-02 1.241474999999999940e-01 3.410480000000000178e+00 4.599864999999999782e+01 1.872860000000000127e+03
6.800000000000000488e-02 1.241955000000000142e-01 4.365285000000000082e+00 4.856175000000000352e+01 1.873375000000000000e+03
6.900000000000000577e-02 1.242629999999999985e-01 5.617184999999999206e+00 5.176640000000000441e+01 1.874119999999999891e+03
7.000000000000000666e-02 1.243505000000000027e-01 7.151514999999999844e+00 5.557240000000000180e+01 1.875079999999999927e+03
7.100000000000000755e-02 1.244560000000000111e-01 8.945339999999999847e+00 5.992145000000000010e+01 1.876250000000000000e+03
7.200000000000000844e-02 1.245795000000000097e-01 1.096848500000000115e+01 6.473999999999999488e+01 1.877625000000000000e+03
7.300000000000000933e-02 1.247179999999999955e-01 1.318527999999999878e+01 6.994350000000000023e+01 1.879170000000000073e+03
7.399999999999999634e-02 1.248700000000000088e-01 1.555594999999999928e+01 7.544044999999999845e+01 1.880869999999999891e+03
7.499999999999999722e-02 1.250324999999999909e-01 1.803855000000000075e+01 8.113734999999999786e+01 1.882699999999999818e+03
7.599999999999999811e-02 1.252030000000000087e-01 2.059090000000000131e+01 8.694319999999999027e+01 1.884619999999999891e+03
7.699999999999999900e-02 1.253790000000000182e-01 2.317210000000000036e+01 9.277340000000000941e+01 1.886619999999999891e+03
7.799999999999999989e-02 1.255585000000000173e-01 2.574399999999999977e+01 9.855299999999999727e+01 1.888654999999999973e+03
7.900000000000000078e-02 1.257379999999999887e-01 2.827280000000000015e+01 1.042194499999999948e+02 1.890704999999999927e+03
8.000000000000000167e-02 1.259164999999999868e-01 3.072959999999999781e+01 1.097250999999999976e+02 1.892750000000000000e+03
8.100000000000000255e-02 1.260919999999999819e-01 3.309145000000000181e+01 1.150365000000000038e+02 1.894764999999999873e+03
8.200000000000000344e-02 1.262635000000000007e-01 3.534120000000000061e+01 1.201345000000000027e+02 1.896740000000000009e+03
8.300000000000000433e-02 1.264300000000000146e-01 3.746760000000000446e+01 1.250134999999999934e+02 1.898670000000000073e+03
8.400000000000000522e-02 1.265914999999999957e-01 3.946490000000000009e+01 1.296804999999999950e+02 1.900535000000000082e+03
8.500000000000000611e-02 1.267464999999999842e-01 4.133204999999999529e+01 1.341504999999999939e+02 1.902344999999999800e+03
8.600000000000000699e-02 1.268974999999999964e-01 4.307184999999999775e+01 1.384449999999999932e+02 1.904099999999999909e+03
8.700000000000000788e-02 1.270425000000000026e-01 4.468994999999999607e+01 1.425885000000000105e+02 1.905799999999999955e+03
8.800000000000000877e-02 1.271829999999999905e-01 4.619374999999999432e+01 1.466065000000000111e+02 1.907450000000000045e+03
8.899999999999999578e-02 1.273205000000000031e-01 4.759140000000000015e+01 1.505215000000000032e+02 1.909055000000000064e+03
8.999999999999999667e-02 1.274540000000000117e-01 4.889090000000000202e+01 1.543525000000000205e+02 1.910630000000000109e+03
9.099999999999999756e-02 1.275844999999999896e-01 5.009940000000000282e+01 1.581129999999999995e+02 1.912164999999999964e+03
9.199999999999999845e-02 1.277125000000000066e-01 5.122249999999999659e+01 1.618100000000000023e+02 1.913679999999999836e+03
9.299999999999999933e-02 1.278384999999999938e-01 5.226395000000000124e+01 1.654429999999999836e+02 1.915164999999999964e+03
9.400000000000000022e-02 1.279615000000000058e-01 5.322565000000000168e+01 1.690054999999999836e+02 1.916619999999999891e+03
9.500000000000000111e-02 1.280824999999999880e-01 5.410729999999999507e+01 1.724855000000000018e+02 1.918050000000000182e+03
9.600000000000000200e-02 1.282010000000000094e-01 5.490675000000000239e+01 1.758659999999999854e+02 1.919450000000000045e+03
9.700000000000000289e-02 1.283154999999999990e-01 5.562035000000000196e+01 1.791250000000000000e+02 1.920815000000000055e+03
9.800000000000000377e-02 1.284264999999999990e-01 5.624314999999999998e+01 1.822409999999999854e+02 1.922130000000000109e+03
9.900000000000000466e-02 1.285330000000000084e-01 5.676930000000000121e+01 1.851879999999999882e+02 1.923400000000000091e+03
1.000000000000000056e-01 1.286339999999999983e-01 5.719259999999999877e+01 1.879429999999999836e+02 1.924605000000000018e+03
1.010000000000000064e-01 1.287294999999999967e-01 5.750699999999999790e+01 1.904834999999999923e+02 1.925744999999999891e+03
1.020000000000000073e-01 1.288185000000000024e-01 5.770674999999999955e+01 1.927884999999999991e+02 1.926809999999999945e+03
1.030000000000000082e-01 1.289005000000000012e-01 5.778719999999999857e+01 1.948410000000000082e+02 1.927789999999999964e+03
1.040000000000000091e-01 1.289744999999999919e-01 5.774479999999999791e+01 1.966285000000000025e+02 1.928680000000000064e+03
1.050000000000000100e-01 1.290409999999999890e-01 5.757760000000000389e+01 1.981419999999999959e+02 1.929474999999999909e+03
1.059999999999999970e-01 1.290985000000000049e-01 5.728535000000000110e+01 1.993774999999999977e+02 1.930170000000000073e+03
1.069999999999999979e-01 1.291474999999999984e-01 5.687000000000000455e+01 2.003365000000000009e+02 1.930769999999999982e+03
1.079999999999999988e-01 1.291884999999999839e-01 5.633530000000000371e+01 2.010254999999999939e+02 1.931259999999999991e+03
1.089999999999999997e-01 1.292204999999999881e-01 5.568724999999999881e+01 2.014565000000000055e+02 1.931655000000000200e+03
1.100000000000000006e-01 1.292439999999999978e-01 5.493380000000000507e+01 2.016449999999999818e+02 1.931954999999999927e+03
1.110000000000000014e-01 1.292600000000000138e-01 5.408480000000000132e+01 2.016109999999999900e+02 1.932154999999999973e+03
1.120000000000000023e-01 1.292685000000000084e-01 5.315160000000000196e+01 2.013790000000000191e+02 1.932269999999999982e+03
1.130000000000000032e-01 1.292705000000000104e-01 5.214685000000000059e+01 2.009745000000000061e+02 1.932299999999999955e+03
1.140000000000000041e-01 1.292669999999999930e-01 5.108395000000000152e+01 2.004264999999999759e+02 1.932259999999999991e+03
1.150000000000000050e-01 1.292574999999999974e-01 4.997674999999999557e+01 1.997634999999999934e+02 1.932164999999999964e+03
1.160000000000000059e-01 1.292444999999999844e-01 4.883910000000000196e+01 1.990124999999999886e+02 1.932014999999999873e+03
1.170000000000000068e-01 1.292274999999999952e-01 4.768424999999999869e+01 1.982005000000000052e+02 1.931815000000000055e+03
1.180000000000000077e-01 1.292075000000000029e-01 4.652454999999999785e+01 1.973509999999999991e+02 1.931585000000000036e+03
1.190000000000000085e-01 1.291859999999999953e-01 4.537089999999999890e+01 1.964859999999999900e+02 1.931329999999999927e+03
1.200000000000000094e-01 1.291630000000000000e-01 4.423279999999999745e+01 1.956214999999999975e+02 1.931059999999999945e+03
1.209999999999999964e-01 1.291390000000000038e-01 4.311769999999999925e+01 1.947694999999999936e+02 1.930775000000000091e+03
1.219999999999999973e-01 1.291145000000000209e-01 4.203119999999999834e+01 1.939385000000000048e+02 1.930485000000000127e+03
1.229999999999999982e-01 1.290899999999999825e-01 4.097670000000000101e+01 1.931320000000000050e+02 1.930195000000000164e+03
1.239999999999999991e-01 1.290660000000000140e-01 3.995570000000000022e+01 1.923494999999999777e+02 1.929900000000000091e+03
1.250000000000000000e-01 1.290419999999999900e-01 3.896765000000000612e+01 1.915860000000000127e+02 1.929610000000000127e+03
1.260000000000000009e-01 1.290179999999999938e-01 3.801054999999999495e+01 1.908335000000000150e+02 1.929325000000000045e+03
1.270000000000000018e-01 1.289939999999999976e-01 3.708074999999999477e+01 1.900824999999999818e+02 1.929039999999999964e+03
1.280000000000000027e-01 1.289700000000000013e-01 3.617350000000000421e+01 1.893195000000000050e+02 1.928750000000000000e+03
1.290000000000000036e-01 1.289450000000000041e-01 3.528320000000000078e+01 1.885314999999999941e+02 1.928450000000000045e+03
1.300000000000000044e-01 1.289200000000000068e-01 3.440379999999999683e+01 1.877044999999999959e+02 1.928150000000000091e+03
1.310000000000000053e-01 1.288934999999999942e-01 3.352920000000000300e+01 1.868255000000000052e+02 1.927829999999999927e+03
1.320000000000000062e-01 1.288650000000000073e-01 3.265314999999999657e+01 1.858815000000000168e+02 1.927490000000000009e+03
1.330000000000000071e-01 1.288350000000000051e-01 3.177020000000000266e+01 1.848620000000000232e+02 1.927134999999999991e+03
1.340000000000000080e-01 1.288030000000000008e-01 3.087534999999999741e+01 1.837584999999999980e+02 1.926750000000000000e+03
1.350000000000000089e-01 1.287679999999999936e-01 2.996464999999999890e+01 1.825654999999999859e+02 1.926339999999999918e+03
1.360000000000000098e-01 1.287309999999999843e-01 2.903519999999999968e+01 1.812785000000000082e+02 1.925894999999999982e+03
1.370000000000000107e-01 1.286904999999999855e-01 2.808505000000000251e+01 1.798969999999999914e+02 1.925425000000000182e+03
1.380000000000000115e-01 1.286474999999999980e-01 2.711395000000000266e+01 1.784234999999999900e+02 1.924914999999999964e+03
1.390000000000000124e-01 1.286019999999999941e-01 2.612249999999999872e+01 1.768634999999999877e+02 1.924375000000000000e+03
1.400000000000000133e-01 1.285540000000000016e-01 2.511280000000000001e+01 1.752235000000000014e+02 1.923804999999999836e+03
1.410000000000000142e-01 1.285025000000000195e-01 2.408804999999999907e+01 1.735140000000000100e+02 1.923200000000000045e+03
1.420000000000000151e-01 1.284500000000000086e-01 2.305245000000000033e+01 1.717470000000000141e+02 1.922574999999999818e+03
1.430000000000000160e-01 1.283944999999999947e-01 2.201125000000000043e+01 1.699365000000000236e+02 1.921925000000000182e+03
1.440000000000000169e-01 1.283380000000000076e-01 2.097034999999999982e+01 1.680974999999999966e+02 1.921259999999999991e+03
1.450000000000000178e-01 1.282804999999999918e-01 1.993625000000000114e+01 1.662454999999999927e+02 1.920579999999999927e+03
1.459999999999999909e-01 1.282220000000000026e-01 1.891575000000000273e+01 1.643974999999999795e+02 1.919894999999999982e+03
1.469999999999999918e-01 1.281629999999999991e-01 1.791570000000000107e+01 1.625685000000000002e+02 1.919200000000000045e+03
1.479999999999999927e-01 1.281045000000000100e-01 1.694299999999999784e+01 1.607740000000000009e+02 1.918509999999999991e+03
1.489999999999999936e-01 1.280469999999999942e-01 1.600399999999999778e+01 1.590285000000000082e+02 1.917829999999999927e+03
1.499999999999999944e-01 1.279905000000000070e-01 1.510454999999999970e+01 1.573444999999999823e+02 1.917164999999999964e+03
1.509999999999999953e-01 1.279349999999999932e-01 1.424980000000000047e+01 1.557330000000000041e+02 1.916519999999999982e+03
1.519999999999999962e-01 1.278819999999999957e-01 1.344385000000000119e+01 1.542019999999999982e+02 1.915889999999999873e+03
1.529999999999999971e-01 1.278310000000000002e-01 1.268989999999999974e+01 1.527574999999999932e+02 1.915289999999999964e+03
1.539999999999999980e-01 1.277824999999999933e-01 1.199002499999999927e+01 1.514035000000000082e+02 1.914710000000000036e+03
1.549999999999999989e-01 1.277365000000000028e-01 1.134516499999999972e+01 1.501410000000000196e+02 1.914170000000000073e+03
1.559999999999999998e-01 1.276930000000000009e-01 1.075522499999999937e+01 1.489685000000000059e+02 1.913654999999999973e+03
1.570000000000000007e-01 1.276525000000000021e-01 1.021891000000000105e+01 1.478824999999999932e+02 1.913175000000000182e+03
1.580000000000000016e-01 1.276140000000000052e-01 9.734064999999999301e+00 1.468779999999999859e+02 1.912719999999999800e+03
1.590000000000000024e-01 1.275785000000000113e-01 9.297734999999999417e+00 1.459479999999999791e+02 1.912295000000000073e+03
