# t [s], A [cm^2], U [cm/s], P [cPa], c [cm/s]
1.000000000000000021e-03 1.307425000000000115e-01 4.895603999999999512e-01 9.081284999999999741e+01 1.929005000000000109e+03
2.000000000000000042e-03 1.307059999999999889e-01 2.161221999999999976e+00 8.722780000000000200e+01 1.928545000000000073e+03
3.000000000000000062e-03 1.306054999999999855e-01 4.129234499999999919e+00 8.264310000000000400e+01 1.927339999999999918e+03
4.000000000000000083e-03 1.304690000000000016e-01 6.298951500000000259e+00 7.802859999999999729e+01 1.925730000000000018e+03
5.000000000000000104e-03 1.303239999999999954e-01 8.587040000000000006e+00 7.417029999999999745e+01 1.924025000000000091e+03
6.000000000000000125e-03 1.301839999999999942e-01 1.079692499999999988e+01 7.113540000000000418e+01 1.922394999999999982e+03
7.000000000000000146e-03 1.300520000000000009e-01 1.274100999999999928e+01 6.855674999999999386e+01 1.920884999999999991e+03
8.000000000000000167e-03 1.299305000000000043e-01 1.438381499999999846e+01 6.623520000000000607e+01 1.919525000000000091e+03
9.000000000000001055e-03 1.298225000000000073e-01 1.577619999999999933e+01 6.424224999999999852e+01 1.918324999999999818e+03
1.000000000000000194e-02 1.297304999999999986e-01 1.694384999999999764e+01 6.261315000000000452e+01 1.917309999999999945e+03
1.099999999999999936e-02 1.296529999999999905e-01 1.789480000000000004e+01 6.128794999999999504e+01 1.916470000000000027e+03
1.200000000000000025e-02 1.295884999999999954e-01 1.864365000000000094e+01 6.020414999999999850e+01 1.915775000000000091e+03
1.300000000000000114e-02 1.295354999999999979e-01 1.920070000000000121e+01 5.929309999999999548e+01 1.915214999999999918e+03
1.400000000000000203e-02 1.294905000000000084e-01 1.958315000000000339e+01 5.848319999999999652e+01 1.914744999999999891e+03
1.499999999999999944e-02 1.294524999999999981e-01 1.985540000000000305e+01 5.780595000000000283e+01 1.914360000000000127e+03
1.600000000000000033e-02 1.294254999999999989e-01 2.014135000000000275e+01 5.747995000000000232e+01 1.914085000000000036e+03
1.700000000000000122e-02 1.294144999999999879e-01 2.057770000000000010e+01 5.783324999999999960e+01 1.913985000000000127e+03
1.800000000000000211e-02 1.294264999999999999e-01 2.124009999999999820e+01 5.909624999999999773e+01 1.914125000000000000e+03
1.900000000000000300e-02 1.294635000000000091e-01 2.209595000000000198e+01 6.121944999999999482e+01 1.914529999999999973e+03
2.000000000000000042e-02 1.295209999999999972e-01 2.301125000000000043e+01 6.383540000000000703e+01 1.915164999999999964e+03
2.100000000000000130e-02 1.295875000000000221e-01 2.380259999999999820e+01 6.637690000000000623e+01 1.915905000000000200e+03
2.200000000000000219e-02 1.296509999999999885e-01 2.430440000000000111e+01 6.827755000000000507e+01 1.916619999999999891e+03
2.299999999999999961e-02 1.296990000000000087e-01 2.442295000000000016e+01 6.915999999999999659e+01 1.917170000000000073e+03
2.400000000000000050e-02 1.297240000000000060e-01 2.415854999999999819e+01 6.894014999999998849e+01 1.917469999999999800e+03
2.500000000000000139e-02 1.297244999999999926e-01 2.359344999999999715e+01 6.781969999999999743e+01 1.917505000000000109e+03
2.600000000000000228e-02 1.297055000000000013e-01 2.285389999999999944e+01 6.618299999999999272e+01 1.917319999999999936e+03
2.700000000000000316e-02 1.296744999999999981e-01 2.206484999999999985e+01 6.444929999999999382e+01 1.916990000000000009e+03
2.800000000000000058e-02 1.296390000000000042e-01 2.131380000000000052e+01 6.293955000000000410e+01 1.916615000000000009e+03
2.900000000000000147e-02 1.296065000000000134e-01 2.063485000000000014e+01 6.180140000000000100e+01 1.916250000000000000e+03
3.000000000000000236e-02 1.295779999999999987e-01 2.001375000000000171e+01 6.100589999999999691e+01 1.915945000000000164e+03
3.099999999999999978e-02 1.295550000000000035e-01 1.940760000000000218e+01 6.040250000000000341e+01 1.915684999999999945e+03
3.200000000000000067e-02 1.295334999999999959e-01 1.877089999999999748e+01 5.980225000000000080e+01 1.915449999999999818e+03
3.300000000000000155e-02 1.295109999999999872e-01 1.807785000000000153e+01 5.906019999999999470e+01 1.915199999999999818e+03
3.400000000000000244e-02 1.294850000000000168e-01 1.733664999999999878e+01 5.813179999999999836e+01 1.914920000000000073e+03
3.500000000000000333e-02 1.294555000000000011e-01 1.659065000000000012e+01 5.709120000000000061e+01 1.914599999999999909e+03
3.600000000000000422e-02 1.294250000000000123e-01 1.590885000000000105e+01 5.611005000000000109e+01 1.914275000000000091e+03
3.700000000000000511e-02 1.293984999999999996e-01 1.536739999999999995e+01 5.540525000000000233e+01 1.913974999999999909e+03
3.799999999999999906e-02 1.293794999999999806e-01 1.502874999999999872e+01 5.517350000000000421e+01 1.913764999999999873e+03
3.899999999999999994e-02 1.293739999999999890e-01 1.492440000000000033e+01 5.553135000000000332e+01 1.913684999999999945e+03
4.000000000000000083e-02 1.293829999999999980e-01 1.504490000000000016e+01 5.647849999999999682e+01 1.913775000000000091e+03
4.100000000000000172e-02 1.294065000000000076e-01 1.534035000000000082e+01 5.789074999999999704e+01 1.914019999999999982e+03
4.200000000000000261e-02 1.294415000000000149e-01 1.572854999999999848e+01 5.954240000000000066e+01 1.914394999999999982e+03
4.300000000000000350e-02 1.294829999999999870e-01 1.610985000000000156e+01 6.114959999999999951e+01 1.914835000000000036e+03
4.400000000000000439e-02 1.295225000000000126e-01 1.638304999999999723e+01 6.242145000000000010e+01 1.915269999999999982e+03
4.499999999999999833e-02 1.295540000000000025e-01 1.646025000000000205e+01 6.310760000000000502e+01 1.915615000000000009e+03
4.599999999999999922e-02 1.295715000000000061e-01 1.627714999999999890e+01 6.303314999999999912e+01 1.915809999999999945e+03
4.700000000000000011e-02 1.295689999999999897e-01 1.579865000000000208e+01 6.211565000000000225e+01 1.915789999999999964e+03
4.800000000000000100e-02 1.295455000000000079e-01 1.501889999999999858e+01 6.036480000000000246e+01 1.915539999999999964e+03
4.900000000000000189e-02 1.294990000000000030e-01 1.395790000000000042e+01 5.786840000000000117e+01 1.915039999999999964e+03
5.000000000000000278e-02 1.294314999999999771e-01 1.265540999999999983e+01 5.476945000000000618e+01 1.914315000000000055e+03
5.100000000000000366e-02 1.293469999999999898e-01 1.116424500000000108e+01 5.124155000000000371e+01 1.913390000000000100e+03
5.200000000000000455e-02 1.292484999999999884e-01 9.544660000000000366e+00 4.746715000000000373e+01 1.912315000000000055e+03
5.300000000000000544e-02 1.291410000000000058e-01 7.859230000000000160e+00 4.362174999999999869e+01 1.911139999999999873e+03
5.399999999999999939e-02 1.290290000000000048e-01 6.170500000000000540e+00 3.986520000000000152e+01 1.909914999999999964e+03
5.500000000000000028e-02 1.289170000000000038e-01 4.539077500000000320e+00 3.633910000000000196e+01 1.908684999999999945e+03
5.600000000000000117e-02 1.288095000000000212e-01 3.023008499999999987e+00 3.316789999999999594e+01 1.907500000000000000e+03
5.700000000000000205e-02 1.287095000000000045e-01 1.677405000000000035e+00 3.046180000000000376e+01 1.906405000000000200e+03
5.800000000000000294e-02 1.286220000000000141e-01 5.537950000000000372e-01 2.831899999999999906e+01 1.905434999999999945e+03
5.900000000000000383e-02 1.285489999999999966e-01 -3.009800000000000253e-01 2.682655000000000101e+01 1.904630000000000109e+03
6.000000000000000472e-02 1.284945000000000115e-01 -8.463235000000000063e-01 2.605855000000000032e+01 1.904019999999999982e+03
6.099999999999999867e-02 1.284609999999999919e-01 -1.049900000000000055e+00 2.607254999999999967e+01 1.903630000000000109e+03
6.199999999999999956e-02 1.284494999999999942e-01 -8.896390000000000686e-01 2.690489999999999782e+01 1.903490000000000009e+03
6.300000000000000044e-02 1.284625000000000072e-01 -3.554804999999999771e-01 2.856640000000000157e+01 1.903610000000000127e+03
6.400000000000000133e-02 1.285004999999999897e-01 5.495200000000000085e-01 3.103910000000000124e+01 1.904000000000000000e+03
6.500000000000000222e-02 1.285624999999999962e-01 1.809035000000000171e+00 3.427509999999999479e+01 1.904659999999999854e+03
6.600000000000000311e-02 1.286484999999999990e-01 3.394196500000000061e+00 3.819849999999999568e+01 1.905574999999999818e+03
6.700000000000000400e-02 1.287560000000000093e-01 5.265335000000000321e+00 4.270955000000000013e+01 1.906735000000000127e+03
6.800000000000000488e-02 1.288825000000000109e-01 7.374385000000000190e+00 4.769109999999999872e+01 1.908099999999999909e+03
6.900000000000000577e-02 1.290250000000000008e-01 9.667605000000000004e+00 5.301585000000000036e+01 1.909654999999999973e+03
7.000000000000000666e-02 1.291805000000000037e-01 1.208869499999999952e+01 5.855410000000000537e+01 1.911345000000000027e+03
7.100000000000000755e-02 1.293445000000000011e-01 1.458151499999999956e+01 6.418129999999999313e+01 1.913150000000000091e+03
7.200000000000000844e-02 1.295139999999999902e-01 1.709254999999999924e+01 6.978369999999999607e+01 1.915009999999999991e+03
7.300000000000000933e-02 1.296849999999999947e-01 1.957304999999999851e+01 7.526340000000000430e+01 1.916904999999999973e+03
7.399999999999999634e-02 1.298555000000000126e-01 2.198100000000000165e+01 8.054140000000001010e+01 1.918795000000000073e+03
7.499999999999999722e-02 1.300219999999999987e-01 2.428194999999999837e+01 8.555979999999999563e+01 1.920650000000000091e+03
7.599999999999999811e-02 1.301835000000000075e-01 2.645045000000000002e+01 9.028270000000000550e+01 1.922454999999999927e+03
7.699999999999999900e-02 1.303374999999999950e-01 2.847010000000000218e+01 9.469579999999999131e+01 1.924184999999999945e+03
7.799999999999999989e-02 1.304839999999999889e-01 3.033404999999999774e+01 9.880625000000000568e+01 1.925829999999999927e+03
7.900000000000000078e-02 1.306225000000000025e-01 3.204384999999999906e+01 1.026386499999999984e+02 1.927394999999999982e+03
8.000000000000000167e-02 1.307534999999999947e-01 3.360934999999999917e+01 1.062351999999999919e+02 1.928880000000000109e+03
8.100000000000000255e-02 1.308779999999999943e-01 3.504685000000000628e+01 1.096474999999999937e+02 1.930295000000000073e+03
8.200000000000000344e-02 1.309970000000000023e-01 3.637749999999999773e+01 1.129364999999999952e+02 1.931644999999999982e+03
8.300000000000000433e-02 1.311120000000000063e-01 3.762550000000000239e+01 1.161645000000000039e+02 1.932954999999999927e+03
8.400000000000000522e-02 1.312250000000000083e-01 3.881579999999999586e+01 1.193930000000000007e+02 1.934239999999999782e+03
8.500000000000000611e-02 1.313370000000000093e-01 3.997225000000000250e+01 1.226744999999999948e+02 1.935519999999999982e+03
8.600000000000000699e-02 1.314500000000000113e-01 4.111594999999999800e+01 1.260519999999999925e+02 1.936805000000000064e+03
8.700000000000000788e-02 1.315645000000000009e-01 4.226314999999999600e+01 1.295534999999999854e+02 1.938114999999999782e+03
8.800000000000000877e-02 1.316819999999999935e-01 4.342464999999999975e+01 1.331915000000000191e+02 1.939454999999999927e+03
8.899999999999999578e-02 1.318030000000000035e-01 4.460505000000000564e+01 1.369619999999999891e+02 1.940835000000000036e+03
8.999999999999999667e-02 1.319270000000000165e-01 4.580234999999999701e+01 1.408444999999999823e+02 1.942250000000000000e+03
9.099999999999999756e-02 1.320544999999999913e-01 4.700854999999999961e+01 1.448034999999999854e+02 1.943700000000000045e+03
9.199999999999999845e-02 1.321829999999999949e-01 4.821000000000000085e+01 1.487930000000000064e+02 1.945170000000000073e+03
9.299999999999999933e-02 1.323129999999999862e-01 4.938885000000000502e+01 1.527565000000000168e+02 1.946650000000000091e+03
9.400000000000000022e-02 1.324420000000000042e-01 5.052394999999999925e+01 1.566334999999999980e+02 1.948130000000000109e+03
9.500000000000000111e-02 1.325685000000000058e-01 5.159224999999999994e+01 1.603600000000000136e+02 1.949579999999999927e+03
9.600000000000000200e-02 1.326910000000000034e-01 5.257044999999999391e+01 1.638765000000000214e+02 1.950990000000000009e+03
9.700000000000000289e-02 1.328074999999999950e-01 5.343604999999999450e+01 1.671260000000000048e+02 1.952329999999999927e+03
9.800000000000000377e-02 1.329164999999999930e-01 5.416864999999999952e+01 1.700595000000000141e+02 1.953590000000000146e+03
9.900000000000000466e-02 1.330164999999999820e-01 5.475110000000000099e+01 1.726390000000000100e+02 1.954750000000000000e+03
1.000000000000000056e-01 1.331065000000000165e-01 5.517000000000000171e+01 1.748349999999999795e+02 1.955789999999999964e+03
1.010000000000000064e-01 1.331849999999999978e-01 5.541655000000000086e+01 1.766320000000000050e+02 1.956704999999999927e+03
1.020000000000000073e-01 1.332520000000000093e-01 5.548684999999999690e+01 1.780249999999999773e+02 1.957485000000000127e+03
1.030000000000000082e-01 1.333064999999999944e-01 5.538185000000000002e+01 1.790205000000000268e+02 1.958130000000000109e+03
1.040000000000000091e-01 1.333495000000000097e-01 5.510739999999999839e+01 1.796365000000000123e+02 1.958635000000000218e+03
1.050000000000000100e-01 1.333805000000000129e-01 5.467385000000000161e+01 1.798994999999999891e+02 1.959009999999999991e+03
1.059999999999999970e-01 1.334005000000000052e-01 5.409555000000000291e+01 1.798460000000000036e+02 1.959250000000000000e+03
1.069999999999999979e-01 1.334095000000000142e-01 5.339010000000000389e+01 1.795165000000000077e+02 1.959380000000000109e+03
1.079999999999999988e-01 1.334104999999999874e-01 5.257779999999999632e+01 1.789580000000000268e+02 1.959394999999999982e+03
1.089999999999999997e-01 1.334029999999999938e-01 5.168049999999999500e+01 1.782185000000000059e+02 1.959325000000000045e+03
1.100000000000000006e-01 1.333889999999999798e-01 5.072079999999999700e+01 1.773474999999999966e+02 1.959175000000000182e+03
1.110000000000000014e-01 1.333705000000000029e-01 4.972144999999999726e+01 1.763915000000000077e+02 1.958965000000000146e+03
1.120000000000000023e-01 1.333475000000000077e-01 4.870390000000000441e+01 1.753960000000000150e+02 1.958715000000000146e+03
1.130000000000000032e-01 1.333225000000000104e-01 4.768815000000000026e+01 1.743994999999999891e+02 1.958430000000000064e+03
1.140000000000000041e-01 1.332959999999999978e-01 4.669165000000000276e+01 1.734365000000000236e+02 1.958130000000000109e+03
1.150000000000000050e-01 1.332694999999999852e-01 4.572905000000000086e+01 1.725324999999999989e+02 1.957825000000000045e+03
1.160000000000000059e-01 1.332440000000000013e-01 4.481154999999999688e+01 1.717069999999999936e+02 1.957529999999999973e+03
1.170000000000000068e-01 1.332194999999999907e-01 4.394684999999999775e+01 1.709710000000000036e+02 1.957250000000000000e+03
1.180000000000000077e-01 1.331964999999999955e-01 4.313909999999999911e+01 1.703269999999999982e+02 1.956985000000000127e+03
1.190000000000000085e-01 1.331764999999999755e-01 4.238880000000000337e+01 1.697719999999999914e+02 1.956744999999999891e+03
1.200000000000000094e-01 1.331579999999999986e-01 4.169315000000000282e+01 1.692934999999999945e+02 1.956530000000000200e+03
1.209999999999999964e-01 1.331414999999999960e-01 4.104649999999999466e+01 1.688750000000000000e+02 1.956329999999999927e+03
1.219999999999999973e-01 1.331265000000000087e-01 4.044064999999999799e+01 1.684954999999999927e+02 1.956155000000000200e+03
1.229999999999999982e-01 1.331124999999999947e-01 3.986534999999999940e+01 1.681299999999999955e+02 1.955994999999999891e+03
1.239999999999999991e-01 1.330994999999999817e-01 3.930935000000000201e+01 1.677514999999999930e+02 1.955829999999999927e+03
1.250000000000000000e-01 1.330850000000000088e-01 3.876040000000000418e+01 1.673335000000000150e+02 1.955664999999999964e+03
1.260000000000000009e-01 1.330704999999999805e-01 3.820655000000000001e+01 1.668505000000000109e+02 1.955490000000000009e+03
1.270000000000000018e-01 1.330540000000000056e-01 3.763620000000000232e+01 1.662769999999999868e+02 1.955299999999999955e+03
1.280000000000000027e-01 1.330350000000000144e-01 3.703909999999999769e+01 1.655949999999999989e+02 1.955074999999999818e+03
1.290000000000000036e-01 1.330129999999999924e-01 3.640659999999999741e+01 1.647869999999999777e+02 1.954824999999999818e+03
1.300000000000000044e-01 1.329869999999999941e-01 3.573214999999999719e+01 1.638435000000000059e+02 1.954529999999999973e+03
1.310000000000000053e-01 1.329579999999999929e-01 3.501170000000000471e+01 1.627599999999999909e+02 1.954195000000000164e+03
1.320000000000000062e-01 1.329245000000000010e-01 3.424385000000000190e+01 1.615374999999999943e+02 1.953809999999999945e+03
1.330000000000000071e-01 1.328869999999999774e-01 3.342974999999999852e+01 1.601845000000000141e+02 1.953380000000000109e+03
1.340000000000000080e-01 1.328455000000000052e-01 3.257345000000000113e+01 1.587139999999999986e+02 1.952909999999999854e+03
1.350000000000000089e-01 1.328010000000000024e-01 3.168119999999999692e+01 1.571444999999999936e+02 1.952400000000000091e+03
1.360000000000000098e-01 1.327530000000000099e-01 3.076164999999999949e+01 1.555000000000000000e+02 1.951849999999999909e+03
1.370000000000000107e-01 1.327025000000000010e-01 2.982525000000000404e+01 1.538064999999999998e+02 1.951269999999999982e+03
1.380000000000000115e-01 1.326495000000000035e-01 2.888369999999999749e+01 1.520939999999999941e+02 1.950674999999999955e+03
1.390000000000000124e-01 1.325969999999999926e-01 2.794960000000000022e+01 1.503915000000000077e+02 1.950065000000000055e+03
1.400000000000000133e-01 1.325434999999999808e-01 2.703569999999999851e+01 1.487295000000000016e+02 1.949454999999999927e+03
1.410000000000000142e-01 1.324905000000000110e-01 2.615460000000000207e+01 1.471365000000000123e+02 1.948855000000000018e+03
1.420000000000000151e-01 1.324400000000000022e-01 2.531815000000000282e+01 1.456384999999999934e+02 1.948269999999999982e+03
1.430000000000000160e-01 1.323914999999999953e-01 2.453665000000000163e+01 1.442570000000000050e+02 1.947715000000000146e+03
1.440000000000000169e-01 1.323460000000000192e-01 2.381904999999999717e+01 1.430110000000000241e+02 1.947190000000000055e+03
1.450000000000000178e-01 1.323040000000000049e-01 2.317210000000000036e+01 1.419130000000000109e+02 1.946710000000000036e+03
1.459999999999999909e-01 1.322665000000000091e-01 2.260050000000000026e+01 1.409710000000000036e+02 1.946269999999999982e+03
1.469999999999999918e-01 1.322329999999999894e-01 2.210660000000000025e+01 1.401879999999999882e+02 1.945889999999999873e+03
1.479999999999999927e-01 1.322045000000000026e-01 2.169050000000000011e+01 1.395620000000000118e+02 1.945555000000000064e+03
1.489999999999999936e-01 1.321799999999999919e-01 2.135009999999999764e+01 1.390850000000000080e+02 1.945275000000000091e+03
1.499999999999999944e-01 1.321604999999999863e-01 2.108140000000000214e+01 1.387459999999999809e+02 1.945045000000000073e+03
1.509999999999999953e-01 1.321454999999999991e-01 2.087854999999999706e+01 1.385299999999999727e+02 1.944865000000000009e+03
1.519999999999999962e-01 1.321340000000000015e-01 2.073450000000000060e+01 1.384215000000000089e+02 1.944730000000000018e+03
1.529999999999999971e-01 1.321265000000000078e-01 2.064099999999999824e+01 1.384004999999999939e+02 1.944630000000000109e+03
1.539999999999999980e-01 1.321215000000000028e-01 2.058915000000000006e+01 1.384480000000000075e+02 1.944570000000000164e+03
1.549999999999999989e-01 1.321189999999999864e-01 2.056985000000000241e+01 1.385445000000000277e+02 1.944539999999999964e+03
1.559999999999999998e-01 1.321180000000000132e-01 2.057390000000000185e+01 1.386705000000000041e+02 1.944525000000000091e+03
1.570000000000000007e-01 1.321195000000000008e-01 2.059259999999999735e+01 1.388089999999999975e+02 1.944529999999999973e+03
1.580000000000000016e-01 1.321209999999999885e-01 2.061775000000000091e+01 1.389440000000000168e+02 1.944550000000000182e+03
1.590000000000000024e-01 1.321229999999999905e-01 2.064215000000000089e+01 1.390629999999999882e+02 1.944570000000000164e+03
