# t [s], A [cm^2], U [cm/s], P [cPa], c [cm/s]
1.000000000000000021e-03 2.180619999999999781e-01 1.515615000000000157e-01 9.377044999999999675e+01 1.988425000000000182e+03
2.000000000000000042e-03 2.180194999999999772e-01 1.460523000000000016e+00 9.114019999999999300e+01 1.988134999999999991e+03
3.000000000000000062e-03 2.178795000000000037e-01 3.153030000000000221e+00 8.737624999999999886e+01 1.987244999999999891e+03
4.000000000000000083e-03 2.176754999999999940e-01 5.080220500000000250e+00 8.296365000000000123e+01 1.985974999999999909e+03
5.000000000000000104e-03 2.174444999999999850e-01 7.187115000000000364e+00 7.867574999999999363e+01 1.984545000000000073e+03
6.000000000000000125e-03 2.172155000000000058e-01 9.360699999999999577e+00 7.497010000000000218e+01 1.983139999999999873e+03
7.000000000000000146e-03 2.169989999999999974e-01 1.141383499999999884e+01 7.184209999999998786e+01 1.981835000000000036e+03
8.000000000000000167e-03 2.167970000000000175e-01 1.319765999999999906e+01 6.906324999999999648e+01 1.980639999999999873e+03
9.000000000000001055e-03 2.166140000000000010e-01 1.469230500000000106e+01 6.656175000000000352e+01 1.979575000000000045e+03
1.000000000000000194e-02 2.164550000000000085e-01 1.593590000000000018e+01 6.441745000000000232e+01 1.978664999999999964e+03
1.099999999999999936e-02 2.163220000000000143e-01 1.695414999999999850e+01 6.267369999999999663e+01 1.977905000000000200e+03
1.200000000000000025e-02 2.162140000000000173e-01 1.776589999999999847e+01 6.131319999999999482e+01 1.977299999999999955e+03
1.300000000000000114e-02 2.161295000000000022e-01 1.838734999999999786e+01 6.029079999999999728e+01 1.976829999999999927e+03
1.400000000000000203e-02 2.160640000000000061e-01 1.882215000000000060e+01 5.951950000000000074e+01 1.976474999999999909e+03
1.499999999999999944e-02 2.160119999999999818e-01 1.907695000000000007e+01 5.889140000000000441e+01 1.976199999999999818e+03
1.600000000000000033e-02 2.159705000000000097e-01 1.919960000000000022e+01 5.837859999999999872e+01 1.975985000000000127e+03
1.700000000000000122e-02 2.159435000000000104e-01 1.929495000000000005e+01 5.811650000000000205e+01 1.975855000000000018e+03
1.800000000000000211e-02 2.159395000000000064e-01 1.949099999999999966e+01 5.836504999999999654e+01 1.975844999999999800e+03
1.900000000000000300e-02 2.159679999999999933e-01 1.987950000000000017e+01 5.936159999999999570e+01 1.976009999999999991e+03
2.000000000000000042e-02 2.160320000000000018e-01 2.046989999999999910e+01 6.116445000000000221e+01 1.976380000000000109e+03
2.100000000000000130e-02 2.161270000000000135e-01 2.118265000000000242e+01 6.358395000000000152e+01 1.976925000000000182e+03
2.200000000000000219e-02 2.162410000000000165e-01 2.188054999999999950e+01 6.622780000000000200e+01 1.977579999999999927e+03
2.299999999999999961e-02 2.163545000000000051e-01 2.241904999999999859e+01 6.862975000000000136e+01 1.978255000000000109e+03
2.400000000000000050e-02 2.164519999999999778e-01 2.269399999999999906e+01 7.039785000000000537e+01 1.978835000000000036e+03
2.500000000000000139e-02 2.165214999999999779e-01 2.266929999999999978e+01 7.132515000000000782e+01 1.979259999999999991e+03
2.600000000000000228e-02 2.165580000000000005e-01 2.237969999999999970e+01 7.142955000000000609e+01 1.979500000000000000e+03
2.700000000000000316e-02 2.165659999999999807e-01 2.190919999999999845e+01 7.091700000000000159e+01 1.979570000000000164e+03
2.800000000000000058e-02 2.165535000000000099e-01 2.135745000000000005e+01 7.009010000000000673e+01 1.979510000000000218e+03
2.900000000000000147e-02 2.165310000000000012e-01 2.080635000000000190e+01 6.924009999999999820e+01 1.979390000000000100e+03
3.000000000000000236e-02 2.165084999999999926e-01 2.029784999999999684e+01 6.855959999999998900e+01 1.979259999999999991e+03
3.099999999999999978e-02 2.164885000000000004e-01 1.982815000000000083e+01 6.810099999999999909e+01 1.979140000000000100e+03
3.200000000000000067e-02 2.164734999999999854e-01 1.935790000000000077e+01 6.778575000000000728e+01 1.979049999999999955e+03
3.300000000000000155e-02 2.164570000000000105e-01 1.883249999999999957e+01 6.745409999999999684e+01 1.978954999999999927e+03
3.400000000000000244e-02 2.164349999999999885e-01 1.820530000000000115e+01 6.693534999999999968e+01 1.978829999999999927e+03
3.500000000000000333e-02 2.164015000000000244e-01 1.745795000000000030e+01 6.611654999999998950e+01 1.978644999999999982e+03
3.600000000000000422e-02 2.163554999999999784e-01 1.661144999999999783e+01 6.499049999999999727e+01 1.978389999999999873e+03
3.700000000000000511e-02 2.162994999999999779e-01 1.572575000000000145e+01 6.367045000000000243e+01 1.978069999999999936e+03
3.799999999999999906e-02 2.162405000000000022e-01 1.488689999999999891e+01 6.236714999999999520e+01 1.977730000000000018e+03
3.899999999999999994e-02 2.161870000000000180e-01 1.418694999999999951e+01 6.133610000000000184e+01 1.977420000000000073e+03
4.000000000000000083e-02 2.161504999999999954e-01 1.370169999999999888e+01 6.081139999999999901e+01 1.977195000000000164e+03
4.100000000000000172e-02 2.161379999999999968e-01 1.347305000000000064e+01 6.094575000000000387e+01 1.977109999999999900e+03
4.200000000000000261e-02 2.161544999999999994e-01 1.350009999999999977e+01 6.177280000000000371e+01 1.977184999999999945e+03
4.300000000000000350e-02 2.161985000000000157e-01 1.374034999999999940e+01 6.319944999999999879e+01 1.977425000000000182e+03
4.400000000000000439e-02 2.162649999999999850e-01 1.411925000000000097e+01 6.502655000000000030e+01 1.977789999999999964e+03
4.499999999999999833e-02 2.163454999999999961e-01 1.454475000000000051e+01 6.698959999999999582e+01 1.978244999999999891e+03
4.599999999999999922e-02 2.164274999999999949e-01 1.492295000000000016e+01 6.880799999999999272e+01 1.978724999999999909e+03
4.700000000000000011e-02 2.165015000000000134e-01 1.517229999999999990e+01 7.023104999999999620e+01 1.979154999999999973e+03
4.800000000000000100e-02 2.165569999999999995e-01 1.523269999999999946e+01 7.107250000000000512e+01 1.979480000000000018e+03
4.900000000000000189e-02 2.165860000000000007e-01 1.507014999999999993e+01 7.122934999999999661e+01 1.979664999999999964e+03
5.000000000000000278e-02 2.165865000000000151e-01 1.467609999999999992e+01 7.068319999999999936e+01 1.979674999999999955e+03
5.100000000000000366e-02 2.165569999999999995e-01 1.406315000000000026e+01 6.948740000000000805e+01 1.979519999999999982e+03
5.200000000000000455e-02 2.164995000000000114e-01 1.325844999999999985e+01 6.774564999999999770e+01 1.979204999999999927e+03
5.300000000000000544e-02 2.164179999999999993e-01 1.229679999999999929e+01 6.558689999999999998e+01 1.978740000000000009e+03
5.399999999999999939e-02 2.163180000000000103e-01 1.121500499999999967e+01 6.314350000000000307e+01 1.978164999999999964e+03
5.500000000000000028e-02 2.162044999999999939e-01 1.004824499999999965e+01 6.053524999999999778e+01 1.977514999999999873e+03
5.600000000000000117e-02 2.160819999999999963e-01 8.828385000000000815e+00 5.786155000000000115e+01 1.976809999999999945e+03
5.700000000000000205e-02 2.159550000000000081e-01 7.584310000000000329e+00 5.520109999999999673e+01 1.976069999999999936e+03
5.800000000000000294e-02 2.158275000000000055e-01 6.343625000000000291e+00 5.261679999999999779e+01 1.975329999999999927e+03
5.900000000000000383e-02 2.157020000000000048e-01 5.134134999999999671e+00 5.016299999999999670e+01 1.974599999999999909e+03
6.000000000000000472e-02 2.155819999999999959e-01 3.985494999999999788e+00 4.789270000000000493e+01 1.973900000000000091e+03
6.099999999999999867e-02 2.154710000000000236e-01 2.929751500000000064e+00 4.586329999999999529e+01 1.973250000000000000e+03
6.199999999999999956e-02 2.153714999999999935e-01 2.000951000000000146e+00 4.413819999999999766e+01 1.972664999999999964e+03
6.300000000000000044e-02 2.152870000000000061e-01 1.233780499999999947e+00 4.278569999999999851e+01 1.972164999999999964e+03
6.400000000000000133e-02 2.152209999999999956e-01 6.614809999999999857e-01 4.187444999999999595e+01 1.971769999999999982e+03
6.500000000000000222e-02 2.151770000000000072e-01 3.134280000000000399e-01 4.146764999999999901e+01 1.971500000000000000e+03
6.600000000000000311e-02 2.151575000000000015e-01 2.128244650000000182e-01 4.161650000000000205e+01 1.971369999999999891e+03
6.700000000000000400e-02 2.151649999999999952e-01 3.748070000000000013e-01 4.235434999999999661e+01 1.971389999999999873e+03
6.800000000000000488e-02 2.152005000000000168e-01 8.052309999999999190e-01 4.369294999999999618e+01 1.971575000000000045e+03
6.900000000000000577e-02 2.152649999999999841e-01 1.500261000000000067e+00 4.562049999999999983e+01 1.971934999999999945e+03
7.000000000000000666e-02 2.153579999999999939e-01 2.446691500000000019e+00 4.810229999999999961e+01 1.972450000000000045e+03
7.100000000000000755e-02 2.154765000000000152e-01 3.622924499999999881e+00 5.108315000000000339e+01 1.973125000000000000e+03
7.200000000000000844e-02 2.156199999999999783e-01 5.000384999999999636e+00 5.449130000000000251e+01 1.973940000000000055e+03
7.300000000000000933e-02 2.157834999999999892e-01 6.545189999999999841e+00 5.824354999999999905e+01 1.974875000000000000e+03
7.399999999999999634e-02 2.159645000000000037e-01 8.220145000000000479e+00 6.225010000000000332e+01 1.975914999999999964e+03
7.499999999999999722e-02 2.161579999999999890e-01 9.986485000000000056e+00 6.641995000000000005e+01 1.977034999999999854e+03
7.599999999999999811e-02 2.163599999999999968e-01 1.180587000000000053e+01 7.066570000000000107e+01 1.978204999999999927e+03
7.699999999999999900e-02 2.165674999999999961e-01 1.364199999999999946e+01 7.490815000000000623e+01 1.979410000000000082e+03
7.799999999999999989e-02 2.167749999999999955e-01 1.546229999999999905e+01 7.907959999999999923e+01 1.980625000000000000e+03
7.900000000000000078e-02 2.169804999999999928e-01 1.723915000000000219e+01 8.312694999999999368e+01 1.981829999999999927e+03
8.000000000000000167e-02 2.171815000000000273e-01 1.895069999999999766e+01 8.701324999999999932e+01 1.983009999999999991e+03
8.100000000000000255e-02 2.173765000000000003e-01 2.058140000000000214e+01 9.071815000000000850e+01 1.984160000000000082e+03
8.200000000000000344e-02 2.175639999999999796e-01 2.212190000000000012e+01 9.423714999999999975e+01 1.985269999999999982e+03
8.300000000000000433e-02 2.177435000000000065e-01 2.356850000000000023e+01 9.757949999999999591e+01 1.986340000000000146e+03
8.400000000000000522e-02 2.179159999999999986e-01 2.492249999999999943e+01 1.007652500000000089e+02 1.987364999999999782e+03
8.500000000000000611e-02 2.180819999999999981e-01 2.618880000000000052e+01 1.038213499999999954e+02 1.988349999999999909e+03
8.600000000000000699e-02 2.182425000000000059e-01 2.737490000000000023e+01 1.067794999999999987e+02 1.989304999999999836e+03
8.700000000000000788e-02 2.183979999999999810e-01 2.848924999999999841e+01 1.096684999999999945e+02 1.990240000000000009e+03
8.800000000000000877e-02 2.185515000000000096e-01 2.954054999999999964e+01 1.125155000000000030e+02 1.991150000000000091e+03
8.899999999999999578e-02 2.187020000000000075e-01 3.053634999999999877e+01 1.153410000000000082e+02 1.992049999999999955e+03
8.999999999999999667e-02 2.188514999999999766e-01 3.148269999999999769e+01 1.181580000000000013e+02 1.992944999999999936e+03
9.099999999999999756e-02 2.190000000000000002e-01 3.238340000000000174e+01 1.209710000000000036e+02 1.993835000000000036e+03
9.199999999999999845e-02 2.191484999999999961e-01 3.324009999999999820e+01 1.237764999999999986e+02 1.994720000000000027e+03
9.299999999999999933e-02 2.192955000000000043e-01 3.405205000000000126e+01 1.265639999999999930e+02 1.995599999999999909e+03
9.400000000000000022e-02 2.194415000000000115e-01 3.481655000000000655e+01 1.293160000000000025e+02 1.996470000000000027e+03
9.500000000000000111e-02 2.195844999999999880e-01 3.552875000000000227e+01 1.320124999999999886e+02 1.997324999999999818e+03
9.600000000000000200e-02 2.197250000000000036e-01 3.618264999999999532e+01 1.346270000000000095e+02 1.998164999999999964e+03
9.700000000000000289e-02 2.198610000000000009e-01 3.677089999999999748e+01 1.371340000000000146e+02 1.998980000000000018e+03
9.800000000000000377e-02 2.199909999999999921e-01 3.728565000000000396e+01 1.395049999999999955e+02 1.999764999999999873e+03
9.900000000000000466e-02 2.201144999999999907e-01 3.771864999999999668e+01 1.417144999999999868e+02 2.000505000000000109e+03
1.000000000000000056e-01 2.202294999999999947e-01 3.806194999999999595e+01 1.437370000000000232e+02 2.001200000000000045e+03
1.010000000000000064e-01 2.203355000000000175e-01 3.830804999999999438e+01 1.455500000000000114e+02 2.001835000000000036e+03
1.020000000000000073e-01 2.204305000000000014e-01 3.845045000000000357e+01 1.471349999999999909e+02 2.002414999999999964e+03
1.030000000000000082e-01 2.205145000000000022e-01 3.848420000000000130e+01 1.484764999999999873e+02 2.002924999999999955e+03
1.040000000000000091e-01 2.205860000000000043e-01 3.840585000000000093e+01 1.495645000000000095e+02 2.003365000000000009e+03
1.050000000000000100e-01 2.206454999999999944e-01 3.821405000000000030e+01 1.503944999999999936e+02 2.003724999999999909e+03
1.059999999999999970e-01 2.206919999999999993e-01 3.790990000000000038e+01 1.509679999999999893e+02 2.004014999999999873e+03
1.069999999999999979e-01 2.207264999999999922e-01 3.749670000000000414e+01 1.512905000000000086e+02 2.004230000000000018e+03
1.079999999999999988e-01 2.207474999999999854e-01 3.698035000000000139e+01 1.513754999999999882e+02 2.004365000000000009e+03
1.089999999999999997e-01 2.207574999999999954e-01 3.636889999999999645e+01 1.512409999999999854e+02 2.004434999999999945e+03
1.100000000000000006e-01 2.207564999999999944e-01 3.567249999999999943e+01 1.509095000000000084e+02 2.004440000000000055e+03
1.110000000000000014e-01 2.207449999999999968e-01 3.490314999999999657e+01 1.504080000000000155e+02 2.004384999999999991e+03
1.120000000000000023e-01 2.207260000000000055e-01 3.407390000000000185e+01 1.497660000000000196e+02 2.004275000000000091e+03
1.130000000000000032e-01 2.206989999999999785e-01 3.319859999999999900e+01 1.490124999999999886e+02 2.004119999999999891e+03
1.140000000000000041e-01 2.206664999999999877e-01 3.229139999999999588e+01 1.481795000000000186e+02 2.003929999999999836e+03
1.150000000000000050e-01 2.206295000000000062e-01 3.136605000000000132e+01 1.472959999999999923e+02 2.003714999999999918e+03
1.160000000000000059e-01 2.205894999999999939e-01 3.043564999999999898e+01 1.463884999999999934e+02 2.003485000000000127e+03
1.170000000000000068e-01 2.205479999999999940e-01 2.951210000000000022e+01 1.454815000000000111e+02 2.003235000000000127e+03
1.180000000000000077e-01 2.205060000000000076e-01 2.860569999999999879e+01 1.445944999999999823e+02 2.002985000000000127e+03
1.190000000000000085e-01 2.204639999999999933e-01 2.772504999999999953e+01 1.437434999999999832e+02 2.002730000000000018e+03
1.200000000000000094e-01 2.204234999999999944e-01 2.687669999999999959e+01 1.429389999999999930e+02 2.002490000000000009e+03
1.209999999999999964e-01 2.203844999999999832e-01 2.606504999999999939e+01 1.421875000000000000e+02 2.002255000000000109e+03
1.219999999999999973e-01 2.203474999999999739e-01 2.529250000000000043e+01 1.414895000000000209e+02 2.002035000000000082e+03
1.229999999999999982e-01 2.203129999999999811e-01 2.455910000000000082e+01 1.408430000000000177e+02 2.001820000000000164e+03
1.239999999999999991e-01 2.202799999999999758e-01 2.386305000000000121e+01 1.402394999999999925e+02 2.001625000000000000e+03
1.250000000000000000e-01 2.202490000000000003e-01 2.320074999999999932e+01 1.396684999999999945e+02 2.001430000000000064e+03
1.260000000000000009e-01 2.202184999999999837e-01 2.256694999999999851e+01 1.391159999999999854e+02 2.001250000000000000e+03
1.270000000000000018e-01 2.201894999999999825e-01 2.195530000000000115e+01 1.385654999999999859e+02 2.001070000000000164e+03
1.280000000000000027e-01 2.201595000000000080e-01 2.135849999999999937e+01 1.379995000000000118e+02 2.000889999999999873e+03
1.290000000000000036e-01 2.201290000000000191e-01 2.076894999999999669e+01 1.374004999999999939e+02 2.000704999999999927e+03
1.300000000000000044e-01 2.200965000000000005e-01 2.017885000000000062e+01 1.367514999999999930e+02 2.000514999999999873e+03
1.310000000000000053e-01 2.200619999999999798e-01 1.958100000000000307e+01 1.360360000000000014e+02 2.000299999999999955e+03
1.320000000000000062e-01 2.200234999999999830e-01 1.896880000000000166e+01 1.352415000000000020e+02 2.000074999999999818e+03
1.330000000000000071e-01 2.199814999999999965e-01 1.833689999999999998e+01 1.343564999999999827e+02 1.999824999999999818e+03
1.340000000000000080e-01 2.199355000000000060e-01 1.768120000000000047e+01 1.333760000000000048e+02 1.999549999999999955e+03
1.350000000000000089e-01 2.198844999999999827e-01 1.699954999999999927e+01 1.322969999999999970e+02 1.999250000000000000e+03
1.360000000000000098e-01 2.198295000000000110e-01 1.629139999999999944e+01 1.311204999999999927e+02 1.998920000000000073e+03
1.370000000000000107e-01 2.197695000000000065e-01 1.555805000000000149e+01 1.298539999999999850e+02 1.998565000000000055e+03
1.380000000000000115e-01 2.197049999999999836e-01 1.480274999999999963e+01 1.285084999999999980e+02 1.998179999999999836e+03
1.390000000000000124e-01 2.196369999999999989e-01 1.403045000000000009e+01 1.270979999999999990e+02 1.997780000000000200e+03
1.400000000000000133e-01 2.195654999999999968e-01 1.324765000000000015e+01 1.256405000000000030e+02 1.997360000000000127e+03
1.410000000000000142e-01 2.194924999999999793e-01 1.246209999999999951e+01 1.241560000000000059e+02 1.996924999999999955e+03
1.420000000000000151e-01 2.194180000000000019e-01 1.168252500000000005e+01 1.226674999999999898e+02 1.996480000000000018e+03
1.430000000000000160e-01 2.193439999999999834e-01 1.091803999999999952e+01 1.211970000000000027e+02 1.996035000000000082e+03
1.440000000000000169e-01 2.192695000000000061e-01 1.017803999999999931e+01 1.197690000000000055e+02 1.995599999999999909e+03
1.450000000000000178e-01 2.191980000000000040e-01 9.471669999999999590e+00 1.184030000000000058e+02 1.995170000000000073e+03
1.459999999999999909e-01 2.191295000000000048e-01 8.807320000000000704e+00 1.171200000000000045e+02 1.994759999999999991e+03
1.469999999999999918e-01 2.190644999999999953e-01 8.192460000000000520e+00 1.159360000000000070e+02 1.994375000000000000e+03
1.479999999999999927e-01 2.190039999999999765e-01 7.633300000000000196e+00 1.148640000000000043e+02 1.994009999999999991e+03
1.489999999999999936e-01 2.189495000000000191e-01 7.134560000000000457e+00 1.139145000000000039e+02 1.993679999999999836e+03
1.499999999999999944e-01 2.188999999999999835e-01 6.699355000000000615e+00 1.130930000000000035e+02 1.993384999999999991e+03
1.509999999999999953e-01 2.188570000000000237e-01 6.329145000000000465e+00 1.124009999999999962e+02 1.993125000000000000e+03
1.519999999999999962e-01 2.188205000000000011e-01 6.023789999999999978e+00 1.118359999999999985e+02 1.992900000000000091e+03
1.529999999999999971e-01 2.187894999999999979e-01 5.781595000000000262e+00 1.113924999999999983e+02 1.992710000000000036e+03
1.539999999999999980e-01 2.187645000000000006e-01 5.599499999999999922e+00 1.110630000000000024e+02 1.992559999999999945e+03
1.549999999999999989e-01 2.187449999999999950e-01 5.473240000000000549e+00 1.108365000000000009e+02 1.992434999999999945e+03
1.559999999999999998e-01 2.187310000000000088e-01 5.397590000000000110e+00 1.107005000000000052e+02 1.992345000000000027e+03
1.570000000000000007e-01 2.187209999999999988e-01 5.366580000000000794e+00 1.106410000000000053e+02 1.992279999999999973e+03
1.580000000000000016e-01 2.187149999999999928e-01 5.373734999999999928e+00 1.106444999999999936e+02 1.992244999999999891e+03
1.590000000000000024e-01 2.187115000000000031e-01 5.412290000000000489e+00 1.106965000000000003e+02 1.992220000000000027e+03
