# t [s], A [cm^2], U [cm/s], P [cPa], c [cm/s]
1.000000000000000021e-03 8.209435000000000482e-01 5.373599999999999210e-03 9.740704999999999814e+01 1.579434999999999945e+03
2.000000000000000042e-03 8.209279999999999911e-01 -5.077149999999999892e-03 9.737985000000000468e+01 1.579430000000000064e+03
3.000000000000000062e-03 8.209785000000000554e-01 6.058749999999999553e-02 9.744675000000000864e+01 1.579450000000000045e+03
4.000000000000000083e-03 8.210504999999999054e-01 1.618395499999999987e-01 9.756989999999998986e+01 1.579474999999999909e+03
5.000000000000000104e-03 8.210450000000000248e-01 1.759049999999999780e-01 9.757210000000000605e+01 1.579480000000000018e+03
6.000000000000000125e-03 8.209644999999999859e-01 9.283250000000001223e-02 9.740409999999999968e+01 1.579444999999999936e+03
7.000000000000000146e-03 8.208919999999999551e-01 1.483599999999996033e-02 9.718129999999999313e+01 1.579389999999999873e+03
8.000000000000000167e-03 8.208134999999999737e-01 -8.043399999999994998e-02 9.690189999999999770e+01 1.579329999999999927e+03
9.000000000000001055e-03 8.206740000000000146e-01 -2.717100000000000071e-01 9.647110000000000696e+01 1.579230000000000018e+03
1.000000000000000194e-02 8.204670000000000574e-01 -5.704799999999998761e-01 9.584759999999999991e+01 1.579085000000000036e+03
1.099999999999999936e-02 8.201834999999999543e-01 -9.820550000000000113e-01 9.499494999999998868e+01 1.578894999999999982e+03
1.200000000000000025e-02 8.197980000000000267e-01 -1.530065000000000230e+00 9.384975000000000023e+01 1.578630000000000109e+03
1.300000000000000114e-02 8.193105000000000526e-01 -2.198025000000000340e+00 9.239050000000000296e+01 1.578284999999999854e+03
1.400000000000000203e-02 8.187750000000000306e-01 -2.891695000000000348e+00 9.070090000000000430e+01 1.577884999999999991e+03
1.499999999999999944e-02 8.182705000000000117e-01 -3.473735500000000087e+00 8.894755000000000678e+01 1.577445000000000164e+03
1.600000000000000033e-02 8.178579999999999739e-01 -3.829973499999999920e+00 8.729999999999999716e+01 1.577019999999999982e+03
1.700000000000000122e-02 8.175520000000000564e-01 -3.912182500000000118e+00 8.586124999999999829e+01 1.576625000000000000e+03
1.800000000000000211e-02 8.173254999999999271e-01 -3.741680499999999743e+00 8.464269999999999072e+01 1.576269999999999982e+03
1.900000000000000300e-02 8.171265000000000889e-01 -3.386622499999999647e+00 8.357865000000001032e+01 1.575950000000000045e+03
2.000000000000000042e-02 8.169024999999999759e-01 -2.930143499999999790e+00 8.256315000000000737e+01 1.575630000000000109e+03
2.100000000000000130e-02 8.166154999999999387e-01 -2.441260999999999903e+00 8.149240000000000350e+01 1.575304999999999836e+03
2.200000000000000219e-02 8.162544999999999940e-01 -1.955925000000000136e+00 8.029939999999999145e+01 1.574949999999999818e+03
2.299999999999999961e-02 8.158320000000000016e-01 -1.472605000000000164e+00 7.897100000000000364e+01 1.574565000000000055e+03
2.400000000000000050e-02 8.153789999999999649e-01 -9.625450000000002060e-01 7.754419999999998936e+01 1.574154999999999973e+03
2.500000000000000139e-02 8.149279999999999857e-01 -3.895150000000002777e-01 7.608365000000000578e+01 1.573735000000000127e+03
2.600000000000000228e-02 8.145020000000000593e-01 2.695700000000003094e-01 7.465225000000000932e+01 1.573315000000000055e+03
2.700000000000000316e-02 8.141054999999999264e-01 1.010645000000000238e+00 7.328585000000001060e+01 1.572910000000000082e+03
2.800000000000000058e-02 8.137244999999999617e-01 1.798344999999999860e+00 7.197889999999999588e+01 1.572519999999999982e+03
2.900000000000000147e-02 8.133289999999999687e-01 2.571100000000000385e+00 7.068330000000000268e+01 1.572134999999999991e+03
3.000000000000000236e-02 8.128834999999999811e-01 3.253120000000000012e+00 6.931950000000000500e+01 1.571730000000000018e+03
3.099999999999999978e-02 8.123540000000000205e-01 3.770194999999999741e+00 6.779570000000001073e+01 1.571295000000000073e+03
3.200000000000000067e-02 8.117174999999999807e-01 4.065925000000000011e+00 6.603199999999999648e+01 1.570815000000000055e+03
3.300000000000000155e-02 8.109709999999999974e-01 4.114360000000000461e+00 6.398245000000000005e+01 1.570264999999999873e+03
3.400000000000000244e-02 8.101285000000000291e-01 3.925810000000000244e+00 6.165014999999999645e+01 1.569655000000000200e+03
3.500000000000000333e-02 8.092260000000000009e-01 3.543560000000000265e+00 5.908990000000000009e+01 1.568990000000000009e+03
3.600000000000000422e-02 8.083065000000000389e-01 3.033220000000000027e+00 5.639929999999999666e+01 1.568289999999999964e+03
3.700000000000000511e-02 8.074174999999998992e-01 2.469199999999999839e+00 5.370094999999999885e+01 1.567579999999999927e+03
3.799999999999999906e-02 8.066005000000000535e-01 1.921450000000000546e+00 5.112279999999999802e+01 1.566900000000000091e+03
3.899999999999999994e-02 8.058859999999999912e-01 1.446744999999999948e+00 4.878095000000000425e+01 1.566255000000000109e+03
4.000000000000000083e-02 8.052965000000000817e-01 1.084330000000000016e+00 4.676794999999999902e+01 1.565690000000000055e+03
4.100000000000000172e-02 8.048390000000000821e-01 8.561250000000000249e-01 4.514685000000000059e+01 1.565219999999999800e+03
4.200000000000000261e-02 8.045160000000000089e-01 7.698700000000000543e-01 4.395185000000000031e+01 1.564849999999999909e+03
4.300000000000000350e-02 8.043225000000000513e-01 8.240800000000000347e-01 4.319214999999999804e+01 1.564594999999999800e+03
4.400000000000000439e-02 8.042519999999999669e-01 1.013297000000000114e+00 4.285940000000000083e+01 1.564445000000000164e+03
4.499999999999999833e-02 8.042970000000000397e-01 1.332594999999999974e+00 4.293534999999999968e+01 1.564409999999999854e+03
4.599999999999999922e-02 8.044529999999999736e-01 1.780346499999999832e+00 4.339869999999999806e+01 1.564470000000000027e+03
4.700000000000000011e-02 8.047164999999999457e-01 2.358858999999999817e+00 4.422984999999999900e+01 1.564639999999999873e+03
4.800000000000000100e-02 8.050844999999999807e-01 3.073033999999999821e+00 4.541174999999999784e+01 1.564900000000000091e+03
4.900000000000000189e-02 8.055555000000000909e-01 3.927674999999999805e+00 4.692955000000000609e+01 1.565255000000000109e+03
5.000000000000000278e-02 8.061264999999999681e-01 4.924437499999999801e+00 4.876715000000000089e+01 1.565699999999999818e+03
5.100000000000000366e-02 8.067900000000000071e-01 6.059209499999999693e+00 5.090434999999999377e+01 1.566220000000000027e+03
5.200000000000000455e-02 8.075360000000000316e-01 7.320865000000000400e+00 5.331364999999999554e+01 1.566824999999999818e+03
5.300000000000000544e-02 8.083515000000000006e-01 8.690965000000000273e+00 5.595969999999999800e+01 1.567494999999999891e+03
5.399999999999999939e-02 8.092209999999999681e-01 1.014501499999999901e+01 5.879905000000000115e+01 1.568220000000000027e+03
5.500000000000000028e-02 8.101270000000000415e-01 1.165439499999999917e+01 6.178244999999999720e+01 1.568994999999999891e+03
5.600000000000000117e-02 8.110524999999999540e-01 1.318910499999999963e+01 6.485759999999999081e+01 1.569799999999999955e+03
5.700000000000000205e-02 8.119810000000000638e-01 1.471967000000000070e+01 6.797249999999999659e+01 1.570625000000000000e+03
5.800000000000000294e-02 8.128994999999999971e-01 1.621990500000000068e+01 7.107930000000000348e+01 1.571454999999999927e+03
5.900000000000000383e-02 8.137965000000000337e-01 1.766779999999999973e+01 7.413660000000000139e+01 1.572284999999999854e+03
6.000000000000000472e-02 8.146645000000000136e-01 1.904684999999999917e+01 7.711209999999999809e+01 1.573099999999999909e+03
6.099999999999999867e-02 8.154995000000000438e-01 2.034580000000000055e+01 7.998305000000000575e+01 1.573894999999999982e+03
6.199999999999999956e-02 8.162994999999999557e-01 2.155835000000000079e+01 8.273650000000000659e+01 1.574664999999999964e+03
6.300000000000000044e-02 8.170659999999999590e-01 2.268274999999999864e+01 8.536850000000001160e+01 1.575410000000000082e+03
6.400000000000000133e-02 8.178010000000000002e-01 2.372034999999999982e+01 8.788245000000000573e+01 1.576130000000000109e+03
6.500000000000000222e-02 8.185095000000000010e-01 2.467520000000000024e+01 9.028799999999999670e+01 1.576815000000000055e+03
6.600000000000000311e-02 8.191949999999998955e-01 2.555295000000000272e+01 9.259870000000000800e+01 1.577480000000000018e+03
6.700000000000000400e-02 8.198630000000000084e-01 2.636019999999999897e+01 9.483064999999999145e+01 1.578125000000000000e+03
6.800000000000000488e-02 8.205175000000000107e-01 2.710385000000000133e+01 9.700024999999999409e+01 1.578750000000000000e+03
6.900000000000000577e-02 8.211634999999999351e-01 2.779035000000000011e+01 9.912319999999999709e+01 1.579355000000000018e+03
7.000000000000000666e-02 8.218039999999999790e-01 2.842539999999999978e+01 1.012126999999999981e+02 1.579960000000000036e+03
7.100000000000000755e-02 8.224404999999999077e-01 2.901330000000000098e+01 1.032790999999999997e+02 1.580554999999999836e+03
7.200000000000000844e-02 8.230744999999999312e-01 2.955649999999999977e+01 1.053269999999999982e+02 1.581139999999999873e+03
7.300000000000000933e-02 8.237035000000000329e-01 3.005564999999999998e+01 1.073575000000000017e+02 1.581724999999999909e+03
7.399999999999999634e-02 8.243264999999999620e-01 3.050945000000000107e+01 1.093665000000000020e+02 1.582295000000000073e+03
7.499999999999999722e-02 8.249390000000000889e-01 3.091494999999999749e+01 1.113435000000000059e+02 1.582865000000000009e+03
7.599999999999999811e-02 8.255360000000000475e-01 3.126770000000000138e+01 1.132764999999999986e+02 1.583414999999999964e+03
7.699999999999999900e-02 8.261125000000000274e-01 3.156240000000000379e+01 1.151490000000000009e+02 1.583960000000000036e+03
7.799999999999999989e-02 8.266634999999999955e-01 3.179354999999999620e+01 1.169435000000000002e+02 1.584480000000000018e+03
7.900000000000000078e-02 8.271830000000000016e-01 3.195570000000000022e+01 1.186405000000000030e+02 1.584974999999999909e+03
8.000000000000000167e-02 8.276649999999999840e-01 3.204394999999999527e+01 1.202235000000000014e+02 1.585445000000000164e+03
8.100000000000000255e-02 8.281060000000000088e-01 3.205460000000000065e+01 1.216760000000000019e+02 1.585875000000000000e+03
8.200000000000000344e-02 8.285024999999999196e-01 3.198490000000000322e+01 1.229849999999999994e+02 1.586269999999999982e+03
8.300000000000000433e-02 8.288515000000000743e-01 3.183355000000000246e+01 1.241394999999999982e+02 1.586619999999999891e+03
8.400000000000000522e-02 8.291520000000000001e-01 3.160069999999999979e+01 1.251334999999999980e+02 1.586934999999999945e+03
8.500000000000000611e-02 8.294030000000000014e-01 3.128780000000000072e+01 1.259625000000000057e+02 1.587204999999999927e+03
8.600000000000000699e-02 8.296049999999999258e-01 3.089780000000000015e+01 1.266264999999999930e+02 1.587420000000000073e+03
8.700000000000000788e-02 8.297589999999999133e-01 3.043489999999999895e+01 1.271289999999999907e+02 1.587594999999999800e+03
8.800000000000000877e-02 8.298670000000000213e-01 2.990465000000000373e+01 1.274770000000000039e+02 1.587730000000000018e+03
8.899999999999999578e-02 8.299330000000000318e-01 2.931375000000000242e+01 1.276784999999999997e+02 1.587825000000000045e+03
8.999999999999999667e-02 8.299609999999999488e-01 2.867004999999999981e+01 1.277459999999999951e+02 1.587880000000000109e+03
9.099999999999999756e-02 8.299535000000000107e-01 2.798229999999999862e+01 1.276939999999999884e+02 1.587894999999999982e+03
9.199999999999999845e-02 8.299174999999999747e-01 2.725985000000000014e+01 1.275374999999999943e+02 1.587880000000000109e+03
9.299999999999999933e-02 8.298564999999999969e-01 2.651275000000000048e+01 1.272944999999999993e+02 1.587839999999999918e+03
9.400000000000000022e-02 8.297769999999999868e-01 2.575095000000000312e+01 1.269819999999999993e+02 1.587775000000000091e+03
9.500000000000000111e-02 8.296829999999999483e-01 2.498434999999999917e+01 1.266169999999999902e+02 1.587694999999999936e+03
9.600000000000000200e-02 8.295805000000000540e-01 2.422225000000000250e+01 1.262179999999999893e+02 1.587599999999999909e+03
9.700000000000000289e-02 8.294740000000000446e-01 2.347299999999999898e+01 1.258004999999999995e+02 1.587500000000000000e+03
9.800000000000000377e-02 8.293665000000000065e-01 2.274380000000000024e+01 1.253785000000000025e+02 1.587389999999999873e+03
9.900000000000000466e-02 8.292615000000000958e-01 2.204025000000000034e+01 1.249629999999999939e+02 1.587280000000000200e+03
1.000000000000000056e-01 8.291610000000000369e-01 2.136625000000000085e+01 1.245635000000000048e+02 1.587170000000000073e+03
1.010000000000000064e-01 8.290664999999999285e-01 2.072390000000000043e+01 1.241850000000000023e+02 1.587065000000000055e+03
1.020000000000000073e-01 8.289770000000000749e-01 2.011370000000000147e+01 1.238305000000000007e+02 1.586965000000000146e+03
1.030000000000000082e-01 8.288929999999999909e-01 1.953419999999999845e+01 1.234994999999999976e+02 1.586869999999999891e+03
1.040000000000000091e-01 8.288124999999999520e-01 1.898264999999999958e+01 1.231895000000000095e+02 1.586775000000000091e+03
1.050000000000000100e-01 8.287344999999999295e-01 1.845514999999999972e+01 1.228940000000000055e+02 1.586690000000000055e+03
1.059999999999999970e-01 8.286554999999999893e-01 1.794655000000000200e+01 1.226065000000000111e+02 1.586605000000000018e+03
1.069999999999999979e-01 8.285734999999999628e-01 1.745129999999999981e+01 1.223185000000000002e+02 1.586514999999999873e+03
1.079999999999999988e-01 8.284849999999999159e-01 1.696355000000000146e+01 1.220194999999999936e+02 1.586424999999999955e+03
1.089999999999999997e-01 8.283879999999999022e-01 1.647725000000000151e+01 1.217014999999999958e+02 1.586340000000000146e+03
1.100000000000000006e-01 8.282795000000000574e-01 1.598675000000000068e+01 1.213545000000000016e+02 1.586240000000000009e+03
1.110000000000000014e-01 8.281574999999999909e-01 1.548695000000000022e+01 1.209710000000000036e+02 1.586130000000000109e+03
1.120000000000000023e-01 8.280205000000000481e-01 1.497340000000000160e+01 1.205434999999999945e+02 1.586015000000000100e+03
1.130000000000000032e-01 8.278669999999999085e-01 1.444275000000000020e+01 1.200679999999999978e+02 1.585884999999999991e+03
1.140000000000000041e-01 8.276974999999999749e-01 1.389272500000000043e+01 1.195405000000000086e+02 1.585744999999999891e+03
1.150000000000000050e-01 8.275109999999999966e-01 1.332238499999999881e+01 1.189609999999999985e+02 1.585590000000000146e+03
1.160000000000000059e-01 8.273094999999999200e-01 1.273207500000000181e+01 1.183310000000000031e+02 1.585420000000000073e+03
1.170000000000000068e-01 8.270945000000000658e-01 1.212365000000000137e+01 1.176550000000000011e+02 1.585240000000000009e+03
1.180000000000000077e-01 8.268685000000000063e-01 1.150007000000000090e+01 1.169395000000000095e+02 1.585049999999999955e+03
1.190000000000000085e-01 8.266344999999999388e-01 1.086569500000000055e+01 1.161920000000000073e+02 1.584844999999999800e+03
1.200000000000000094e-01 8.263960000000000194e-01 1.022584499999999963e+01 1.154244999999999948e+02 1.584639999999999873e+03
1.209999999999999964e-01 8.261560000000000015e-01 9.586604999999998711e+00 1.146479999999999961e+02 1.584429999999999836e+03
1.219999999999999973e-01 8.259209999999999052e-01 8.954810000000000159e+00 1.138750000000000000e+02 1.584220000000000027e+03
1.229999999999999982e-01 8.256924999999999404e-01 8.337415000000000020e+00 1.131200000000000045e+02 1.584009999999999991e+03
1.239999999999999991e-01 8.254755000000000287e-01 7.741530000000000911e+00 1.123954999999999984e+02 1.583804999999999836e+03
1.250000000000000000e-01 8.252745000000000219e-01 7.173845000000000027e+00 1.117139999999999986e+02 1.583615000000000009e+03
1.260000000000000009e-01 8.250914999999999777e-01 6.640620000000000189e+00 1.110875000000000057e+02 1.583434999999999945e+03
1.270000000000000018e-01 8.249299999999999411e-01 6.147275000000000489e+00 1.105254999999999939e+02 1.583275000000000091e+03
1.280000000000000027e-01 8.247910000000000519e-01 5.698219999999999175e+00 1.100365000000000038e+02 1.583125000000000000e+03
1.290000000000000036e-01 8.246780000000000221e-01 5.296705000000000219e+00 1.096260000000000048e+02 1.583000000000000000e+03
1.300000000000000044e-01 8.245894999999999753e-01 4.944725000000000037e+00 1.092969999999999970e+02 1.582900000000000091e+03
1.310000000000000053e-01 8.245260000000000922e-01 4.642979999999999663e+00 1.090504999999999995e+02 1.582815000000000055e+03
1.320000000000000062e-01 8.244869999999999699e-01 4.390875000000000306e+00 1.088855000000000075e+02 1.582750000000000000e+03
1.330000000000000071e-01 8.244700000000000362e-01 4.186594999999999622e+00 1.087980000000000018e+02 1.582710000000000036e+03
1.340000000000000080e-01 8.244739999999999291e-01 4.027264999999999873e+00 1.087810000000000059e+02 1.582690000000000055e+03
1.350000000000000089e-01 8.244960000000000067e-01 3.909085000000000143e+00 1.088275000000000006e+02 1.582690000000000055e+03
1.360000000000000098e-01 8.245325000000000015e-01 3.827524999999999622e+00 1.089290000000000020e+02 1.582704999999999927e+03
1.370000000000000107e-01 8.245804999999999385e-01 3.777569999999999872e+00 1.090749999999999886e+02 1.582724999999999909e+03
1.380000000000000115e-01 8.246379999999999821e-01 3.753894999999999982e+00 1.092554999999999978e+02 1.582764999999999873e+03
1.390000000000000124e-01 8.247005000000000585e-01 3.751100000000000101e+00 1.094594999999999914e+02 1.582809999999999945e+03
1.400000000000000133e-01 8.247659999999999991e-01 3.763874999999999638e+00 1.096784999999999997e+02 1.582860000000000127e+03
1.410000000000000142e-01 8.248320000000000096e-01 3.787180000000000213e+00 1.099020000000000010e+02 1.582909999999999854e+03
1.420000000000000151e-01 8.248949999999999338e-01 3.816365000000000229e+00 1.101225000000000023e+02 1.582969999999999800e+03
1.430000000000000160e-01 8.249550000000001049e-01 3.847255000000000091e+00 1.103324999999999960e+02 1.583019999999999982e+03
1.440000000000000169e-01 8.250085000000000335e-01 3.876260000000000261e+00 1.105270000000000010e+02 1.583075000000000045e+03
1.450000000000000178e-01 8.250565000000000815e-01 3.900364999999999860e+00 1.106995000000000005e+02 1.583119999999999891e+03
1.459999999999999909e-01 8.250960000000000516e-01 3.917189999999999728e+00 1.108485000000000014e+02 1.583159999999999854e+03
1.469999999999999918e-01 8.251284999999999314e-01 3.924980000000000135e+00 1.109720000000000084e+02 1.583195000000000164e+03
1.479999999999999927e-01 8.251524999999999554e-01 3.922565000000000079e+00 1.110680000000000121e+02 1.583224999999999909e+03
1.489999999999999936e-01 8.251690000000000413e-01 3.909354999999999691e+00 1.111380000000000052e+02 1.583250000000000000e+03
1.499999999999999944e-01 8.251789999999999958e-01 3.885275000000000034e+00 1.111829999999999927e+02 1.583264999999999873e+03
1.509999999999999953e-01 8.251819999999999711e-01 3.850730000000000430e+00 1.112044999999999959e+02 1.583275000000000091e+03
1.519999999999999962e-01 8.251789999999999958e-01 3.806515000000000093e+00 1.112040000000000077e+02 1.583279999999999973e+03
1.529999999999999971e-01 8.251720000000000166e-01 3.753764999999999574e+00 1.111864999999999952e+02 1.583279999999999973e+03
1.539999999999999980e-01 8.251610000000000333e-01 3.693859999999999921e+00 1.111539999999999964e+02 1.583275000000000091e+03
1.549999999999999989e-01 8.251474999999999227e-01 3.628354999999999997e+00 1.111099999999999994e+02 1.583264999999999873e+03
1.559999999999999998e-01 8.251315000000000177e-01 3.558879999999999821e+00 1.110575000000000045e+02 1.583255000000000109e+03
1.570000000000000007e-01 8.251155000000000017e-01 3.487059999999999604e+00 1.110000000000000000e+02 1.583240000000000009e+03
1.580000000000000016e-01 8.250994999999999857e-01 3.414450000000000429e+00 1.109399999999999977e+02 1.583230000000000018e+03
1.590000000000000024e-01 8.250830000000000108e-01 3.342429999999999790e+00 1.108804999999999978e+02 1.583210000000000036e+03
