# t [s], A [cm^2], U [cm/s], P [cPa], c [cm/s]
1.000000000000000021e-03 2.059624999999999928e-01 2.179694999999999827e-01 1.029759999999999991e+02 2.075880000000000109e+03
2.000000000000000042e-03 2.059179999999999899e-01 1.673309499999999783e+00 9.990890000000000271e+01 2.075559999999999945e+03
3.000000000000000062e-03 2.057784999999999753e-01 3.521311999999999998e+00 9.558555000000001201e+01 2.074635000000000218e+03
4.000000000000000083e-03 2.055794999999999983e-01 5.612787849999999246e+00 9.065349999999999397e+01 2.073335000000000036e+03
5.000000000000000104e-03 2.053575000000000261e-01 7.881364999999999732e+00 8.599304999999999666e+01 2.071894999999999982e+03
6.000000000000000125e-03 2.051395000000000024e-01 1.018320999999999898e+01 8.204060000000001196e+01 2.070500000000000000e+03
7.000000000000000146e-03 2.049330000000000040e-01 1.230978500000000153e+01 7.869950000000000045e+01 2.069194999999999709e+03
8.000000000000000167e-03 2.047419999999999796e-01 1.413201499999999911e+01 7.572299999999999898e+01 2.068015000000000327e+03
9.000000000000001055e-03 2.045710000000000028e-01 1.565444999999999887e+01 7.308965000000000600e+01 2.066974999999999909e+03
1.000000000000000194e-02 2.044239999999999946e-01 1.691604999999999848e+01 7.088859999999999673e+01 2.066090000000000146e+03
1.099999999999999936e-02 2.043030000000000124e-01 1.793919999999999959e+01 6.913960000000000150e+01 2.065369999999999891e+03
1.200000000000000025e-02 2.042059999999999986e-01 1.873969999999999914e+01 6.780055000000000121e+01 2.064800000000000182e+03
1.300000000000000114e-02 2.041300000000000059e-01 1.932574999999999932e+01 6.678874999999999318e+01 2.064359999999999673e+03
1.400000000000000203e-02 2.040699999999999736e-01 1.970015000000000072e+01 6.598290000000000077e+01 2.064019999999999982e+03
1.499999999999999944e-02 2.040215000000000223e-01 1.989459999999999695e+01 6.530414999999999281e+01 2.063755000000000109e+03
1.600000000000000033e-02 2.039854999999999863e-01 2.000015000000000143e+01 6.483234999999999104e+01 2.063559999999999945e+03
1.700000000000000122e-02 2.039690000000000114e-01 2.015055000000000263e+01 6.481985000000000241e+01 2.063480000000000018e+03
1.800000000000000211e-02 2.039799999999999947e-01 2.046330000000000027e+01 6.555760000000000787e+01 2.063555000000000291e+03
1.900000000000000300e-02 2.040250000000000119e-01 2.098134999999999906e+01 6.718725000000000591e+01 2.063829999999999927e+03
2.000000000000000042e-02 2.041014999999999913e-01 2.165205000000000268e+01 6.958535000000000537e+01 2.064295000000000073e+03
2.100000000000000130e-02 2.042010000000000214e-01 2.235065000000000168e+01 7.238079999999999359e+01 2.064899999999999636e+03
2.200000000000000219e-02 2.043074999999999752e-01 2.293074999999999974e+01 7.508044999999999902e+01 2.065550000000000182e+03
2.299999999999999961e-02 2.044044999999999890e-01 2.327584999999999837e+01 7.723510000000000275e+01 2.066154999999999745e+03
2.400000000000000050e-02 2.044799999999999951e-01 2.333375000000000199e+01 7.857309999999999661e+01 2.066635000000000218e+03
2.500000000000000139e-02 2.045290000000000163e-01 2.312330000000000041e+01 7.905889999999999418e+01 2.066960000000000036e+03
2.600000000000000228e-02 2.045509999999999828e-01 2.271594999999999942e+01 7.886445000000000505e+01 2.067114999999999782e+03
2.700000000000000316e-02 2.045540000000000136e-01 2.220270000000000010e+01 7.827684999999999604e+01 2.067144999999999982e+03
2.800000000000000058e-02 2.045450000000000046e-01 2.166000000000000014e+01 7.758295000000001096e+01 2.067100000000000364e+03
2.900000000000000147e-02 2.045319999999999916e-01 2.112715000000000032e+01 7.697499999999999432e+01 2.067029999999999745e+03
3.000000000000000236e-02 2.045184999999999920e-01 2.060099999999999909e+01 7.650650000000000261e+01 2.066944999999999709e+03
3.099999999999999978e-02 2.045049999999999923e-01 2.004654999999999987e+01 7.610335000000000605e+01 2.066864999999999782e+03
3.200000000000000067e-02 2.044890000000000041e-01 1.941779999999999973e+01 7.561934999999999718e+01 2.066769999999999982e+03
3.300000000000000155e-02 2.044639999999999791e-01 1.868130000000000024e+01 7.491015000000000157e+01 2.066625000000000000e+03
3.400000000000000244e-02 2.044300000000000006e-01 1.783405000000000129e+01 7.390250000000000341e+01 2.066420000000000073e+03
3.500000000000000333e-02 2.043849999999999834e-01 1.691195000000000093e+01 7.263630000000000564e+01 2.066154999999999745e+03
3.600000000000000422e-02 2.043339999999999879e-01 1.598485000000000156e+01 7.126765000000000327e+01 2.065849999999999909e+03
3.700000000000000511e-02 2.042829999999999924e-01 1.514099999999999824e+01 7.003340000000000032e+01 2.065539999999999964e+03
3.799999999999999906e-02 2.042414999999999925e-01 1.446555000000000035e+01 6.918854999999999222e+01 2.065284999999999854e+03
3.899999999999999994e-02 2.042174999999999963e-01 1.401954999999999885e+01 6.893770000000000664e+01 2.065130000000000109e+03
4.000000000000000083e-02 2.042164999999999953e-01 1.382559999999999967e+01 6.938054999999999950e+01 2.065109999999999673e+03
4.100000000000000172e-02 2.042399999999999771e-01 1.386350000000000016e+01 7.048645000000000493e+01 2.065239999999999782e+03
4.200000000000000261e-02 2.042864999999999820e-01 1.407615000000000016e+01 7.210120000000000573e+01 2.065505000000000109e+03
4.300000000000000350e-02 2.043484999999999885e-01 1.438155000000000072e+01 7.398179999999999268e+01 2.065864999999999782e+03
4.400000000000000439e-02 2.044175000000000020e-01 1.468895000000000017e+01 7.584569999999999368e+01 2.066279999999999745e+03
4.499999999999999833e-02 2.044834999999999847e-01 1.491389999999999993e+01 7.742205000000001291e+01 2.066679999999999836e+03
4.599999999999999922e-02 2.045374999999999832e-01 1.498934999999999995e+01 7.849420000000000641e+01 2.067019999999999982e+03
4.700000000000000011e-02 2.045730000000000048e-01 1.487225000000000108e+01 7.892510000000000048e+01 2.067235000000000127e+03
4.800000000000000100e-02 2.045845000000000025e-01 1.454400000000000048e+01 7.866434999999999889e+01 2.067315000000000055e+03
4.900000000000000189e-02 2.045704999999999885e-01 1.400774999999999970e+01 7.773890000000000100e+01 2.067244999999999891e+03
5.000000000000000278e-02 2.045319999999999916e-01 1.328200000000000003e+01 7.623234999999999673e+01 2.067019999999999982e+03
5.100000000000000366e-02 2.044715000000000005e-01 1.239440000000000097e+01 7.426019999999999754e+01 2.066664999999999964e+03
5.200000000000000455e-02 2.043935000000000057e-01 1.137603000000000009e+01 7.194630000000000791e+01 2.066189999999999600e+03
5.300000000000000544e-02 2.043004999999999960e-01 1.025783000000000023e+01 6.940684999999999150e+01 2.065635000000000218e+03
5.399999999999999939e-02 2.041975000000000040e-01 9.069079999999999586e+00 6.674110000000000298e+01 2.065010000000000218e+03
5.500000000000000028e-02 2.040885000000000060e-01 7.837640000000000384e+00 6.403104999999999336e+01 2.064349999999999909e+03
5.600000000000000117e-02 2.039765000000000050e-01 6.591440000000000410e+00 6.134595000000000198e+01 2.063664999999999964e+03
5.700000000000000205e-02 2.038639999999999897e-01 5.360030000000000072e+00 5.874954999999999927e+01 2.062985000000000127e+03
5.800000000000000294e-02 2.037549999999999917e-01 4.175849999999999618e+00 5.630705000000000382e+01 2.062315000000000055e+03
5.900000000000000383e-02 2.036514999999999853e-01 3.074545000000000083e+00 5.409015000000000128e+01 2.061684999999999945e+03
6.000000000000000472e-02 2.035575000000000023e-01 2.094234000000000151e+00 5.217739999999999867e+01 2.061110000000000127e+03
6.099999999999999867e-02 2.034770000000000190e-01 1.273765000000000036e+00 5.065225000000000222e+01 2.060605000000000018e+03
6.199999999999999956e-02 2.034124999999999961e-01 6.503090000000000259e-01 4.959729999999999706e+01 2.060204999999999927e+03
6.300000000000000044e-02 2.033679999999999932e-01 2.566654999999999909e-01 4.908724999999999739e+01 2.059920000000000073e+03
6.400000000000000133e-02 2.033459999999999990e-01 1.187514999999999959e-01 4.918165000000000475e+01 2.059770000000000437e+03
6.500000000000000222e-02 2.033490000000000020e-01 2.535814000000000124e-01 4.991844999999999999e+01 2.059770000000000437e+03
6.600000000000000311e-02 2.033790000000000042e-01 6.680249999999999799e-01 5.131040000000000134e+01 2.059934999999999945e+03
6.700000000000000400e-02 2.034360000000000057e-01 1.358414000000000010e+00 5.334319999999999595e+01 2.060265000000000327e+03
6.800000000000000488e-02 2.035190000000000055e-01 2.310944999999999805e+00 5.597655000000000314e+01 2.060744999999999891e+03
6.900000000000000577e-02 2.036264999999999881e-01 3.502803000000000111e+00 5.914759999999999707e+01 2.061385000000000218e+03
7.000000000000000666e-02 2.037570000000000214e-01 4.903760000000000119e+00 6.277559999999999718e+01 2.062164999999999964e+03
7.100000000000000755e-02 2.039070000000000049e-01 6.478180000000000049e+00 6.676784999999999570e+01 2.063065000000000055e+03
7.200000000000000844e-02 2.040720000000000034e-01 8.187170000000000059e+00 7.102599999999999625e+01 2.064060000000000400e+03
7.300000000000000933e-02 2.042484999999999995e-01 9.990660000000000096e+00 7.545239999999999725e+01 2.065130000000000109e+03
7.399999999999999634e-02 2.044340000000000046e-01 1.184984500000000018e+01 7.995554999999998813e+01 2.066255000000000109e+03
7.499999999999999722e-02 2.046229999999999993e-01 1.372855000000000025e+01 8.445525000000000659e+01 2.067409999999999854e+03
7.599999999999999811e-02 2.048139999999999961e-01 1.559529999999999994e+01 8.888625000000000398e+01 2.068579999999999927e+03
7.699999999999999900e-02 2.050035000000000052e-01 1.742399999999999949e+01 9.320054999999999268e+01 2.069739999999999782e+03
7.799999999999999989e-02 2.051890000000000103e-01 1.919474999999999909e+01 9.736860000000000070e+01 2.070885000000000218e+03
7.900000000000000078e-02 2.053705000000000114e-01 2.089389999999999858e+01 1.013768000000000029e+02 2.072005000000000109e+03
8.000000000000000167e-02 2.055470000000000075e-01 2.251335000000000264e+01 1.052287499999999909e+02 2.073100000000000364e+03
8.100000000000000255e-02 2.057169999999999832e-01 2.405010000000000048e+01 1.089369999999999976e+02 2.074159999999999854e+03
8.200000000000000344e-02 2.058829999999999827e-01 2.550469999999999970e+01 1.125240000000000009e+02 2.075190000000000055e+03
8.300000000000000433e-02 2.060445000000000193e-01 2.688029999999999831e+01 1.160144999999999982e+02 2.076194999999999709e+03
8.400000000000000522e-02 2.062019999999999964e-01 2.818140000000000001e+01 1.194320000000000022e+02 2.077180000000000291e+03
8.500000000000000611e-02 2.063574999999999993e-01 2.941250000000000142e+01 1.227984999999999900e+02 2.078144999999999982e+03
8.600000000000000699e-02 2.065104999999999857e-01 3.057780000000000342e+01 1.261269999999999953e+02 2.079105000000000018e+03
8.700000000000000788e-02 2.066620000000000124e-01 3.167999999999999972e+01 1.294259999999999877e+02 2.080050000000000182e+03
8.800000000000000877e-02 2.068119999999999958e-01 3.272060000000000457e+01 1.326949999999999932e+02 2.080984999999999673e+03
8.899999999999999578e-02 2.069604999999999917e-01 3.369910000000000139e+01 1.359270000000000209e+02 2.081914999999999964e+03
8.999999999999999667e-02 2.071069999999999856e-01 3.461360000000000525e+01 1.391080000000000041e+02 2.082829999999999927e+03
9.099999999999999756e-02 2.072510000000000185e-01 3.546075000000000443e+01 1.422199999999999989e+02 2.083729999999999563e+03
9.199999999999999845e-02 2.073915000000000064e-01 3.623584999999999923e+01 1.452414999999999736e+02 2.084614999999999782e+03
9.299999999999999933e-02 2.075285000000000046e-01 3.693330000000000268e+01 1.481485000000000127e+02 2.085470000000000255e+03
9.400000000000000022e-02 2.076600000000000112e-01 3.754694999999999538e+01 1.509149999999999920e+02 2.086300000000000182e+03
9.500000000000000111e-02 2.077855000000000119e-01 3.806994999999999862e+01 1.535160000000000196e+02 2.087090000000000146e+03
9.600000000000000200e-02 2.079035000000000188e-01 3.849569999999999936e+01 1.559269999999999925e+02 2.087835000000000036e+03
9.700000000000000289e-02 2.080134999999999901e-01 3.881770000000000209e+01 1.581250000000000000e+02 2.088529999999999745e+03
9.800000000000000377e-02 2.081139999999999934e-01 3.903005000000000280e+01 1.600900000000000034e+02 2.089164999999999964e+03
9.900000000000000466e-02 2.082045000000000146e-01 3.912780000000000058e+01 1.618040000000000020e+02 2.089739999999999782e+03
1.000000000000000056e-01 2.082844999999999835e-01 3.910760000000000502e+01 1.632549999999999955e+02 2.090250000000000000e+03
1.010000000000000064e-01 2.083534999999999970e-01 3.896764999999999901e+01 1.644335000000000093e+02 2.090690000000000055e+03
1.020000000000000073e-01 2.084100000000000119e-01 3.870834999999999582e+01 1.653379999999999939e+02 2.091055000000000291e+03
1.030000000000000082e-01 2.084555000000000158e-01 3.833230000000000359e+01 1.659705000000000155e+02 2.091344999999999800e+03
1.040000000000000091e-01 2.084889999999999799e-01 3.784470000000000312e+01 1.663419999999999845e+02 2.091565000000000055e+03
1.050000000000000100e-01 2.085115000000000163e-01 3.725310000000000343e+01 1.664669999999999845e+02 2.091715000000000146e+03
1.059999999999999970e-01 2.085230000000000139e-01 3.656709999999999638e+01 1.663679999999999950e+02 2.091795000000000073e+03
1.069999999999999979e-01 2.085245000000000015e-01 3.579845000000000255e+01 1.660695000000000050e+02 2.091819999999999709e+03
1.079999999999999988e-01 2.085184999999999955e-01 3.496020000000000039e+01 1.656030000000000086e+02 2.091784999999999854e+03
1.089999999999999997e-01 2.085040000000000227e-01 3.406640000000000157e+01 1.649975000000000023e+02 2.091704999999999927e+03
1.100000000000000006e-01 2.084834999999999883e-01 3.313155000000000427e+01 1.642864999999999895e+02 2.091579999999999927e+03
1.110000000000000014e-01 2.084579999999999766e-01 3.216995000000000005e+01 1.635010000000000048e+02 2.091430000000000291e+03
1.120000000000000023e-01 2.084285000000000165e-01 3.119545000000000101e+01 1.626705000000000041e+02 2.091250000000000000e+03
1.130000000000000032e-01 2.083969999999999989e-01 3.022044999999999959e+01 1.618199999999999932e+02 2.091055000000000291e+03
1.140000000000000041e-01 2.083634999999999793e-01 2.925614999999999810e+01 1.609714999999999918e+02 2.090850000000000364e+03
1.150000000000000050e-01 2.083300000000000152e-01 2.831165000000000020e+01 1.601424999999999841e+02 2.090635000000000218e+03
1.160000000000000059e-01 2.082970000000000099e-01 2.739430000000000121e+01 1.593449999999999989e+02 2.090425000000000182e+03
1.170000000000000068e-01 2.082634999999999903e-01 2.650910000000000011e+01 1.585855000000000246e+02 2.090224999999999909e+03
1.180000000000000077e-01 2.082320000000000004e-01 2.565899999999999892e+01 1.578665000000000020e+02 2.090019999999999982e+03
1.190000000000000085e-01 2.082014999999999838e-01 2.484459999999999980e+01 1.571850000000000023e+02 2.089824999999999818e+03
1.200000000000000094e-01 2.081715000000000093e-01 2.406470000000000198e+01 1.565335000000000036e+02 2.089635000000000218e+03
1.209999999999999964e-01 2.081425000000000081e-01 2.331625000000000014e+01 1.559010000000000105e+02 2.089454999999999927e+03
1.219999999999999973e-01 2.081144999999999801e-01 2.259465000000000146e+01 1.552750000000000057e+02 2.089274999999999636e+03
1.229999999999999982e-01 2.080859999999999932e-01 2.189419999999999789e+01 1.546394999999999982e+02 2.089095000000000255e+03
1.239999999999999991e-01 2.080569999999999919e-01 2.120844999999999914e+01 1.539770000000000039e+02 2.088909999999999854e+03
1.250000000000000000e-01 2.080265000000000031e-01 2.053045000000000186e+01 1.532710000000000150e+02 2.088715000000000146e+03
1.260000000000000009e-01 2.079944999999999988e-01 1.985340000000000060e+01 1.525065000000000168e+02 2.088519999999999982e+03
1.270000000000000018e-01 2.079594999999999916e-01 1.917085000000000150e+01 1.516690000000000111e+02 2.088300000000000182e+03
1.280000000000000027e-01 2.079215000000000091e-01 1.847719999999999985e+01 1.507465000000000259e+02 2.088059999999999945e+03
1.290000000000000036e-01 2.078800000000000092e-01 1.776800000000000068e+01 1.497314999999999827e+02 2.087800000000000182e+03
1.300000000000000044e-01 2.078345000000000053e-01 1.704019999999999868e+01 1.486195000000000164e+02 2.087519999999999982e+03
1.310000000000000053e-01 2.077849999999999975e-01 1.629234999999999900e+01 1.474099999999999966e+02 2.087204999999999927e+03
1.320000000000000062e-01 2.077315000000000134e-01 1.552489999999999881e+01 1.461084999999999923e+02 2.086880000000000109e+03
1.330000000000000071e-01 2.076744999999999841e-01 1.473990000000000045e+01 1.447235000000000014e+02 2.086519999999999982e+03
1.340000000000000080e-01 2.076135000000000064e-01 1.394139999999999802e+01 1.432680000000000007e+02 2.086140000000000327e+03
1.350000000000000089e-01 2.075504999999999989e-01 1.313490000000000002e+01 1.417584999999999980e+02 2.085750000000000000e+03
1.360000000000000098e-01 2.074845000000000161e-01 1.232728499999999983e+01 1.402160000000000082e+02 2.085340000000000146e+03
1.370000000000000107e-01 2.074174999999999769e-01 1.152672499999999900e+01 1.386614999999999895e+02 2.084920000000000073e+03
1.380000000000000115e-01 2.073500000000000065e-01 1.074186500000000066e+01 1.371195000000000164e+02 2.084505000000000109e+03
1.390000000000000124e-01 2.072829999999999950e-01 9.981730000000000658e+00 1.356129999999999995e+02 2.084079999999999927e+03
1.400000000000000133e-01 2.072169999999999845e-01 9.255279999999999063e+00 1.341655000000000086e+02 2.083675000000000182e+03
1.410000000000000142e-01 2.071534999999999904e-01 8.570945000000000036e+00 1.327959999999999923e+02 2.083274999999999636e+03
1.420000000000000151e-01 2.070940000000000003e-01 7.936154999999999404e+00 1.315244999999999891e+02 2.082900000000000091e+03
1.430000000000000160e-01 2.070374999999999854e-01 7.357274999999999565e+00 1.303650000000000091e+02 2.082550000000000182e+03
1.440000000000000169e-01 2.069860000000000033e-01 6.839185000000000514e+00 1.293280000000000030e+02 2.082224999999999909e+03
1.450000000000000178e-01 2.069389999999999841e-01 6.385165000000000646e+00 1.284194999999999993e+02 2.081930000000000291e+03
1.459999999999999909e-01 2.068980000000000263e-01 5.996874999999999289e+00 1.276430000000000007e+02 2.081664999999999964e+03
1.469999999999999918e-01 2.068615000000000037e-01 5.674305000000000376e+00 1.269959999999999951e+02 2.081434999999999945e+03
1.479999999999999927e-01 2.068315000000000015e-01 5.415950000000000486e+00 1.264740000000000038e+02 2.081239999999999782e+03
1.489999999999999936e-01 2.068055000000000032e-01 5.218869999999999898e+00 1.260685000000000002e+02 2.081079999999999927e+03
1.499999999999999944e-01 2.067855000000000110e-01 5.078960000000000363e+00 1.257690000000000055e+02 2.080944999999999709e+03
1.509999999999999953e-01 2.067689999999999806e-01 4.991130000000000067e+00 1.255625000000000000e+02 2.080840000000000146e+03
1.519999999999999962e-01 2.067570000000000241e-01 4.949559999999999960e+00 1.254364999999999952e+02 2.080760000000000218e+03
1.529999999999999971e-01 2.067490000000000161e-01 4.947935000000000194e+00 1.253750000000000000e+02 2.080699999999999818e+03
1.539999999999999980e-01 2.067430000000000101e-01 4.979684999999999917e+00 1.253660000000000139e+02 2.080664999999999964e+03
1.549999999999999989e-01 2.067399999999999793e-01 5.038194999999999979e+00 1.253944999999999936e+02 2.080639999999999873e+03
1.559999999999999998e-01 2.067384999999999917e-01 5.117005000000000692e+00 1.254474999999999909e+02 2.080630000000000109e+03
1.570000000000000007e-01 2.067384999999999917e-01 5.209954999999999892e+00 1.255134999999999934e+02 2.080625000000000000e+03
1.580000000000000016e-01 2.067390000000000061e-01 5.311390000000000278e+00 1.255824999999999960e+02 2.080625000000000000e+03
1.590000000000000024e-01 2.067400000000000071e-01 5.416199999999999903e+00 1.256460000000000008e+02 2.080630000000000109e+03
