# t [s], A [cm^2], U [cm/s], P [cPa], c [cm/s]
1.000000000000000021e-03 2.090160000000000073e-01 6.504304999999999115e-02 8.879245000000000232e+01 2.093564999999999600e+03
2.000000000000000042e-03 2.089880000000000071e-01 1.115107000000000070e+00 8.655655000000000143e+01 2.093350000000000364e+03
3.000000000000000062e-03 2.088855000000000017e-01 2.520303999999999878e+00 8.332699999999999818e+01 2.092614999999999782e+03
4.000000000000000083e-03 2.087319999999999731e-01 4.141490000000000116e+00 7.941485000000000127e+01 2.091519999999999982e+03
5.000000000000000104e-03 2.085525000000000018e-01 5.931696999999999775e+00 7.546065000000000111e+01 2.090269999999999982e+03
6.000000000000000125e-03 2.083714999999999873e-01 7.813144999999999563e+00 7.192244999999999777e+01 2.089015000000000327e+03
7.000000000000000146e-03 2.081974999999999798e-01 9.639900000000000801e+00 6.889000000000000057e+01 2.087824999999999818e+03
8.000000000000000167e-03 2.080339999999999967e-01 1.126876000000000033e+01 6.619565000000000055e+01 2.086725000000000364e+03
9.000000000000001055e-03 2.078829999999999845e-01 1.265480499999999964e+01 6.374280000000000257e+01 2.085730000000000018e+03
1.000000000000000194e-02 2.077489999999999892e-01 1.382040500000000094e+01 6.158559999999999945e+01 2.084855000000000018e+03
1.099999999999999936e-02 2.076350000000000140e-01 1.478940000000000055e+01 5.978390000000000271e+01 2.084125000000000000e+03
1.200000000000000025e-02 2.075410000000000033e-01 1.557645000000000124e+01 5.834210000000000207e+01 2.083520000000000437e+03
1.300000000000000114e-02 2.074654999999999971e-01 1.619004999999999939e+01 5.722150000000000603e+01 2.083045000000000073e+03
1.400000000000000203e-02 2.074044999999999916e-01 1.662780000000000058e+01 5.633729999999999905e+01 2.082670000000000073e+03
1.499999999999999944e-02 2.073544999999999972e-01 1.688994999999999891e+01 5.558195000000000618e+01 2.082364999999999782e+03
1.600000000000000033e-02 2.073125000000000107e-01 1.701135000000000019e+01 5.491230000000000189e+01 2.082119999999999891e+03
1.700000000000000122e-02 2.072805000000000064e-01 1.707675000000000054e+01 5.442719999999999914e+01 2.081929999999999836e+03
1.800000000000000211e-02 2.072660000000000058e-01 1.719695000000000107e+01 5.434794999999999732e+01 2.081849999999999909e+03
1.900000000000000300e-02 2.072749999999999870e-01 1.746189999999999998e+01 5.490265000000000128e+01 2.081914999999999964e+03
2.000000000000000042e-02 2.073119999999999963e-01 1.789999999999999858e+01 5.619145000000000323e+01 2.082154999999999745e+03
2.100000000000000130e-02 2.073749999999999760e-01 1.846775000000000233e+01 5.811440000000000339e+01 2.082565000000000055e+03
2.200000000000000219e-02 2.074564999999999881e-01 1.907010000000000005e+01 6.039229999999999876e+01 2.083094999999999800e+03
2.299999999999999961e-02 2.075444999999999929e-01 1.959714999999999918e+01 6.265870000000000317e+01 2.083675000000000182e+03
2.400000000000000050e-02 2.076270000000000060e-01 1.996090000000000231e+01 6.457489999999999952e+01 2.084230000000000018e+03
2.500000000000000139e-02 2.076945000000000041e-01 2.011824999999999974e+01 6.592189999999999372e+01 2.084684999999999945e+03
2.600000000000000228e-02 2.077424999999999966e-01 2.007564999999999955e+01 6.664164999999999850e+01 2.085025000000000091e+03
2.700000000000000316e-02 2.077709999999999835e-01 1.987780000000000058e+01 6.682294999999999163e+01 2.085234999999999673e+03
2.800000000000000058e-02 2.077840000000000242e-01 1.958574999999999733e+01 6.664544999999999675e+01 2.085329999999999927e+03
2.900000000000000147e-02 2.077859999999999985e-01 1.925430000000000064e+01 6.630580000000000496e+01 2.085355000000000018e+03
3.000000000000000236e-02 2.077835000000000099e-01 1.891519999999999868e+01 6.595199999999999818e+01 2.085340000000000146e+03
3.099999999999999978e-02 2.077780000000000182e-01 1.857065000000000055e+01 6.564525000000000432e+01 2.085310000000000400e+03
3.200000000000000067e-02 2.077709999999999835e-01 1.819800000000000040e+01 6.535609999999999786e+01 2.085260000000000218e+03
3.300000000000000155e-02 2.077600000000000002e-01 1.776185000000000258e+01 6.499164999999999281e+01 2.085194999999999709e+03
3.400000000000000244e-02 2.077419999999999822e-01 1.723065000000000069e+01 6.444159999999999400e+01 2.085079999999999927e+03
3.500000000000000333e-02 2.077140000000000097e-01 1.659089999999999776e+01 6.362829999999999586e+01 2.084904999999999745e+03
3.600000000000000422e-02 2.076759999999999995e-01 1.585689999999999955e+01 6.254510000000000502e+01 2.084664999999999964e+03
3.700000000000000511e-02 2.076295000000000224e-01 1.507124999999999915e+01 6.127264999999999873e+01 2.084369999999999891e+03
3.799999999999999906e-02 2.075790000000000135e-01 1.429790000000000028e+01 5.996770000000000067e+01 2.084039999999999964e+03
3.899999999999999994e-02 2.075309999999999933e-01 1.360759999999999970e+01 5.882820000000000249e+01 2.083725000000000364e+03
4.000000000000000083e-02 2.074924999999999964e-01 1.306245000000000012e+01 5.804605000000000103e+01 2.083465000000000146e+03
4.100000000000000172e-02 2.074695000000000011e-01 1.270224999999999937e+01 5.776084999999999781e+01 2.083310000000000400e+03
4.200000000000000261e-02 2.074664999999999981e-01 1.253694999999999915e+01 5.802814999999999657e+01 2.083265000000000327e+03
4.300000000000000350e-02 2.074825000000000141e-01 1.254630000000000045e+01 5.880920000000000414e+01 2.083359999999999673e+03
4.400000000000000439e-02 2.075154999999999916e-01 1.268554999999999922e+01 5.998184999999999434e+01 2.083559999999999945e+03
4.499999999999999833e-02 2.075615000000000099e-01 1.289570000000000149e+01 6.136825000000000330e+01 2.083849999999999909e+03
4.599999999999999922e-02 2.076119999999999910e-01 1.311439999999999984e+01 6.276954999999999529e+01 2.084180000000000291e+03
4.700000000000000011e-02 2.076620000000000132e-01 1.328565000000000040e+01 6.400079999999999814e+01 2.084505000000000109e+03
4.800000000000000100e-02 2.077045000000000141e-01 1.336680000000000135e+01 6.491700000000000159e+01 2.084780000000000200e+03
4.900000000000000189e-02 2.077350000000000030e-01 1.333139999999999858e+01 6.542775000000000318e+01 2.084989999999999782e+03
5.000000000000000278e-02 2.077505000000000046e-01 1.316874999999999929e+01 6.549965000000000259e+01 2.085099999999999909e+03
5.100000000000000366e-02 2.077499999999999902e-01 1.288090000000000046e+01 6.514744999999999209e+01 2.085105000000000018e+03
5.200000000000000455e-02 2.077340000000000020e-01 1.247789999999999999e+01 6.441930000000000689e+01 2.085005000000000109e+03
5.300000000000000544e-02 2.077034999999999854e-01 1.197329999999999828e+01 6.337969999999999970e+01 2.084820000000000164e+03
5.399999999999999939e-02 2.076614999999999989e-01 1.138096999999999959e+01 6.209474999999999767e+01 2.084545000000000073e+03
5.500000000000000028e-02 2.076095000000000024e-01 1.071297000000000033e+01 6.062215000000000487e+01 2.084210000000000036e+03
5.600000000000000117e-02 2.075489999999999835e-01 9.979504999999999626e+00 5.900704999999999956e+01 2.083815000000000055e+03
5.700000000000000205e-02 2.074814999999999854e-01 9.189920000000000755e+00 5.728345000000000198e+01 2.083380000000000109e+03
5.800000000000000294e-02 2.074090000000000100e-01 8.354509999999999437e+00 5.547944999999999993e+01 2.082904999999999745e+03
5.900000000000000383e-02 2.073325000000000029e-01 7.486385000000000289e+00 5.362364999999999782e+01 2.082404999999999745e+03
6.000000000000000472e-02 2.072535000000000072e-01 6.603134999999999977e+00 5.175180000000000291e+01 2.081889999999999873e+03
6.099999999999999867e-02 2.071739999999999970e-01 5.727325000000000443e+00 4.991105000000000302e+01 2.081364999999999782e+03
6.199999999999999956e-02 2.070960000000000023e-01 4.886345000000000383e+00 4.816145000000000209e+01 2.080855000000000018e+03
6.300000000000000044e-02 2.070230000000000126e-01 4.111164999999999736e+00 4.657399999999999807e+01 2.080369999999999891e+03
6.400000000000000133e-02 2.069570000000000021e-01 3.434485000000000010e+00 4.522679999999999723e+01 2.079934999999999945e+03
6.500000000000000222e-02 2.069024999999999892e-01 2.888444999999999929e+00 4.419894999999999641e+01 2.079565000000000055e+03
6.600000000000000311e-02 2.068610000000000171e-01 2.502355000000000107e+00 4.356360000000000099e+01 2.079279999999999745e+03
6.700000000000000400e-02 2.068364999999999787e-01 2.300600000000000200e+00 4.338195000000000334e+01 2.079109999999999673e+03
6.800000000000000488e-02 2.068309999999999871e-01 2.301090000000000302e+00 4.369839999999999947e+01 2.079054999999999836e+03
6.900000000000000577e-02 2.068460000000000021e-01 2.514310000000000045e+00 4.453730000000000189e+01 2.079140000000000327e+03
7.000000000000000666e-02 2.068829999999999836e-01 2.942944999999999922e+00 4.590165000000000362e+01 2.079364999999999782e+03
7.100000000000000755e-02 2.069415000000000004e-01 3.582144999999999690e+00 4.777414999999999878e+01 2.079724999999999909e+03
7.200000000000000844e-02 2.070204999999999962e-01 4.420239999999999725e+00 5.011929999999999552e+01 2.080234999999999673e+03
7.300000000000000933e-02 2.071195000000000119e-01 5.439874999999999794e+00 5.288694999999999879e+01 2.080859999999999673e+03
7.399999999999999634e-02 2.072360000000000035e-01 6.619365000000000165e+00 5.601644999999999897e+01 2.081609999999999673e+03
7.499999999999999722e-02 2.073674999999999824e-01 7.934255000000000280e+00 5.944150000000000489e+01 2.082465000000000146e+03
7.599999999999999811e-02 2.075115000000000154e-01 9.358769999999999811e+00 6.309494999999999720e+01 2.083404999999999745e+03
7.699999999999999900e-02 2.076660000000000172e-01 1.086745999999999945e+01 6.691249999999999432e+01 2.084414999999999964e+03
7.799999999999999989e-02 2.078269999999999840e-01 1.243620999999999910e+01 7.083684999999999832e+01 2.085474999999999909e+03
7.900000000000000078e-02 2.079949999999999855e-01 1.404340000000000188e+01 7.481980000000000075e+01 2.086574999999999818e+03
8.000000000000000167e-02 2.081649999999999889e-01 1.567044999999999888e+01 7.882390000000000896e+01 2.087699999999999818e+03
8.100000000000000255e-02 2.083375000000000088e-01 1.730185000000000173e+01 8.282259999999999422e+01 2.088840000000000146e+03
8.200000000000000344e-02 2.085110000000000019e-01 1.892539999999999978e+01 8.679894999999999072e+01 2.089989999999999782e+03
8.300000000000000433e-02 2.086844999999999950e-01 2.053134999999999977e+01 9.074429999999999552e+01 2.091140000000000327e+03
8.400000000000000522e-02 2.088575000000000015e-01 2.211209999999999809e+01 9.465510000000000446e+01 2.092300000000000182e+03
8.500000000000000611e-02 2.090295000000000070e-01 2.366125000000000256e+01 9.853029999999999688e+01 2.093444999999999709e+03
8.600000000000000699e-02 2.092009999999999981e-01 2.517340000000000089e+01 1.023707500000000010e+02 2.094590000000000146e+03
8.700000000000000788e-02 2.093714999999999882e-01 2.664334999999999809e+01 1.061731499999999926e+02 2.095729999999999563e+03
8.800000000000000877e-02 2.095405000000000184e-01 2.806575000000000131e+01 1.099344999999999999e+02 2.096869999999999891e+03
8.899999999999999578e-02 2.097074999999999911e-01 2.943534999999999968e+01 1.136465000000000032e+02 2.097989999999999782e+03
8.999999999999999667e-02 2.098734999999999906e-01 3.074695000000000178e+01 1.172984999999999900e+02 2.099105000000000018e+03
9.099999999999999756e-02 2.100360000000000005e-01 3.199535000000000196e+01 1.208795000000000073e+02 2.100199999999999818e+03
9.199999999999999845e-02 2.101965000000000083e-01 3.317584999999999695e+01 1.243764999999999930e+02 2.101279999999999745e+03
9.299999999999999933e-02 2.103524999999999978e-01 3.428414999999999679e+01 1.277759999999999962e+02 2.102335000000000036e+03
9.400000000000000022e-02 2.105044999999999833e-01 3.531659999999999400e+01 1.310660000000000025e+02 2.103364999999999782e+03
9.500000000000000111e-02 2.106520000000000059e-01 3.626999999999999602e+01 1.342344999999999970e+02 2.104364999999999782e+03
9.600000000000000200e-02 2.107944999999999958e-01 3.714170000000000016e+01 1.372715000000000032e+02 2.105329999999999927e+03
9.700000000000000289e-02 2.109314999999999940e-01 3.792920000000000158e+01 1.401670000000000016e+02 2.106260000000000218e+03
9.800000000000000377e-02 2.110619999999999996e-01 3.863009999999999877e+01 1.429125000000000227e+02 2.107150000000000091e+03
9.900000000000000466e-02 2.111859999999999848e-01 3.924200000000000443e+01 1.454964999999999975e+02 2.107994999999999891e+03
1.000000000000000056e-01 2.113030000000000186e-01 3.976239999999999952e+01 1.479094999999999800e+02 2.108795000000000073e+03
1.010000000000000064e-01 2.114129999999999898e-01 4.018874999999999886e+01 1.501405000000000030e+02 2.109545000000000073e+03
1.020000000000000073e-01 2.115144999999999942e-01 4.051879999999999882e+01 1.521795000000000186e+02 2.110239999999999782e+03
1.030000000000000082e-01 2.116075000000000039e-01 4.075050000000000239e+01 1.540165000000000077e+02 2.110880000000000109e+03
1.040000000000000091e-01 2.116919999999999913e-01 4.088259999999999650e+01 1.556424999999999841e+02 2.111460000000000036e+03
1.050000000000000100e-01 2.117670000000000108e-01 4.091500000000000625e+01 1.570525000000000091e+02 2.111974999999999909e+03
1.059999999999999970e-01 2.118325000000000069e-01 4.084870000000000090e+01 1.582439999999999998e+02 2.112434999999999945e+03
1.069999999999999979e-01 2.118889999999999940e-01 4.068625000000000114e+01 1.592179999999999893e+02 2.112824999999999818e+03
1.079999999999999988e-01 2.119364999999999999e-01 4.043179999999999552e+01 1.599814999999999827e+02 2.113150000000000091e+03
1.089999999999999997e-01 2.119734999999999814e-01 4.009109999999999729e+01 1.605434999999999945e+02 2.113420000000000073e+03
1.100000000000000006e-01 2.120029999999999970e-01 3.967119999999999891e+01 1.609189999999999827e+02 2.113625000000000000e+03
1.110000000000000014e-01 2.120239999999999903e-01 3.918039999999999878e+01 1.611260000000000048e+02 2.113775000000000091e+03
1.120000000000000023e-01 2.120380000000000043e-01 3.862780000000000058e+01 1.611834999999999809e+02 2.113875000000000000e+03
1.130000000000000032e-01 2.120449999999999835e-01 3.802320000000000277e+01 1.611129999999999995e+02 2.113934999999999945e+03
1.140000000000000041e-01 2.120464999999999989e-01 3.737640000000000384e+01 1.609370000000000118e+02 2.113949999999999818e+03
1.150000000000000050e-01 2.120429999999999815e-01 3.669715000000000060e+01 1.606754999999999995e+02 2.113930000000000291e+03
1.160000000000000059e-01 2.120360000000000023e-01 3.599490000000000123e+01 1.603499999999999943e+02 2.113890000000000327e+03
1.170000000000000068e-01 2.120254999999999779e-01 3.527814999999999657e+01 1.599770000000000039e+02 2.113819999999999709e+03
1.180000000000000077e-01 2.120130000000000070e-01 3.455474999999999852e+01 1.595730000000000075e+02 2.113734999999999673e+03
1.190000000000000085e-01 2.119979999999999920e-01 3.383140000000000214e+01 1.591505000000000223e+02 2.113644999999999982e+03
1.200000000000000094e-01 2.119825000000000181e-01 3.311355000000000359e+01 1.587185000000000059e+02 2.113534999999999854e+03
1.209999999999999964e-01 2.119659999999999878e-01 3.240540000000000020e+01 1.582849999999999966e+02 2.113425000000000182e+03
1.219999999999999973e-01 2.119489999999999985e-01 3.170994999999999919e+01 1.578530000000000086e+02 2.113310000000000400e+03
1.229999999999999982e-01 2.119314999999999949e-01 3.102884999999999849e+01 1.574234999999999900e+02 2.113190000000000055e+03
1.239999999999999991e-01 2.119135000000000046e-01 3.036240000000000094e+01 1.569945000000000164e+02 2.113070000000000164e+03
1.250000000000000000e-01 2.118955000000000144e-01 2.970994999999999919e+01 1.565614999999999952e+02 2.112944999999999709e+03
1.260000000000000009e-01 2.118769999999999820e-01 2.906964999999999932e+01 1.561184999999999832e+02 2.112815000000000055e+03
1.270000000000000018e-01 2.118574999999999764e-01 2.843889999999999674e+01 1.556569999999999823e+02 2.112679999999999836e+03
1.280000000000000027e-01 2.118375000000000119e-01 2.781439999999999912e+01 1.551680000000000064e+02 2.112539999999999964e+03
1.290000000000000036e-01 2.118154999999999899e-01 2.719249999999999901e+01 1.546419999999999959e+02 2.112394999999999982e+03
1.300000000000000044e-01 2.117915000000000214e-01 2.656925000000000026e+01 1.540695000000000050e+02 2.112234999999999673e+03
1.310000000000000053e-01 2.117660000000000098e-01 2.594100000000000250e+01 1.534410000000000025e+02 2.112059999999999945e+03
1.320000000000000062e-01 2.117380000000000095e-01 2.530409999999999826e+01 1.527485000000000070e+02 2.111869999999999891e+03
1.330000000000000071e-01 2.117070000000000063e-01 2.465569999999999951e+01 1.519859999999999900e+02 2.111659999999999854e+03
1.340000000000000080e-01 2.116730000000000000e-01 2.399350000000000094e+01 1.511494999999999891e+02 2.111430000000000291e+03
1.350000000000000089e-01 2.116359999999999908e-01 2.331645000000000323e+01 1.502375000000000114e+02 2.111180000000000291e+03
1.360000000000000098e-01 2.115954999999999919e-01 2.262429999999999808e+01 1.492520000000000095e+02 2.110909999999999854e+03
1.370000000000000107e-01 2.115520000000000178e-01 2.191799999999999926e+01 1.481965000000000146e+02 2.110614999999999782e+03
1.380000000000000115e-01 2.115059999999999996e-01 2.119979999999999976e+01 1.470790000000000077e+02 2.110304999999999836e+03
1.390000000000000124e-01 2.114570000000000061e-01 2.047289999999999921e+01 1.459105000000000132e+02 2.109975000000000364e+03
1.400000000000000133e-01 2.114059999999999828e-01 1.974174999999999969e+01 1.447019999999999982e+02 2.109630000000000109e+03
1.410000000000000142e-01 2.113534999999999997e-01 1.901149999999999807e+01 1.434689999999999941e+02 2.109279999999999745e+03
1.420000000000000151e-01 2.112999999999999878e-01 1.828794999999999860e+01 1.422284999999999968e+02 2.108920000000000073e+03
1.430000000000000160e-01 2.112459999999999893e-01 1.757730000000000103e+01 1.409964999999999975e+02 2.108555000000000291e+03
1.440000000000000169e-01 2.111925000000000052e-01 1.688584999999999781e+01 1.397895000000000039e+02 2.108194999999999709e+03
1.450000000000000178e-01 2.111405000000000087e-01 1.621965000000000146e+01 1.386234999999999786e+02 2.107840000000000146e+03
1.459999999999999909e-01 2.110894999999999855e-01 1.558435000000000059e+01 1.375134999999999934e+02 2.107494999999999891e+03
1.469999999999999918e-01 2.110414999999999930e-01 1.498494999999999955e+01 1.364710000000000036e+02 2.107164999999999964e+03
1.479999999999999927e-01 2.109955000000000025e-01 1.442555000000000121e+01 1.355060000000000002e+02 2.106855000000000018e+03
1.489999999999999936e-01 2.109524999999999872e-01 1.390909999999999869e+01 1.346254999999999882e+02 2.106565000000000055e+03
1.499999999999999944e-01 2.109135000000000038e-01 1.343779999999999930e+01 1.338329999999999984e+02 2.106300000000000182e+03
1.509999999999999953e-01 2.108784999999999965e-01 1.301265000000000072e+01 1.331310000000000002e+02 2.106059999999999945e+03
1.519999999999999962e-01 2.108464999999999923e-01 1.263360000000000127e+01 1.325185000000000173e+02 2.105840000000000146e+03
1.529999999999999971e-01 2.108184999999999920e-01 1.229974999999999952e+01 1.319915000000000020e+02 2.105644999999999982e+03
1.539999999999999980e-01 2.107939999999999814e-01 1.200939999999999941e+01 1.315455000000000041e+02 2.105475000000000364e+03
1.549999999999999989e-01 2.107729999999999881e-01 1.176010000000000133e+01 1.311739999999999782e+02 2.105329999999999927e+03
1.559999999999999998e-01 2.107549999999999979e-01 1.154895000000000138e+01 1.308689999999999998e+02 2.105199999999999818e+03
1.570000000000000007e-01 2.107399999999999829e-01 1.137250000000000050e+01 1.306240000000000236e+02 2.105095000000000255e+03
1.580000000000000016e-01 2.107275000000000120e-01 1.122725000000000151e+01 1.304295000000000186e+02 2.105010000000000218e+03
1.590000000000000024e-01 2.107169999999999876e-01 1.110930000000000106e+01 1.302785000000000082e+02 2.104934999999999945e+03
