# t [s], A [cm^2], U [cm/s], P [cPa], c [cm/s]
1.000000000000000021e-03 6.375839999999999286e-01 7.702000000000007451e-03 9.694685000000001196e+01 1.814369999999999891e+03
2.000000000000000042e-03 6.375729999999999453e-01 -2.112549999999996028e-04 9.690654999999999575e+01 1.814369999999999891e+03
3.000000000000000062e-03 6.376390000000000668e-01 1.373854499999999923e-01 9.707184999999999775e+01 1.814394999999999982e+03
4.000000000000000083e-03 6.376710000000000989e-01 2.298425000000000051e-01 9.718099999999999739e+01 1.814420000000000073e+03
5.000000000000000104e-03 6.376030000000000308e-01 1.348175000000000068e-01 9.696444999999999936e+01 1.814380000000000109e+03
6.000000000000000125e-03 6.375284999999999425e-01 1.431700000000002415e-02 9.660314999999999941e+01 1.814304999999999836e+03
7.000000000000000146e-03 6.374495000000000022e-01 -1.285199999999999676e-01 9.614759999999999707e+01 1.814215000000000146e+03
8.000000000000000167e-03 6.372994999999999077e-01 -4.382299999999998974e-01 9.539574999999999250e+01 1.814065000000000055e+03
9.000000000000001055e-03 6.370804999999999385e-01 -9.115249999999999186e-01 9.429544999999998822e+01 1.813849999999999909e+03
1.000000000000000194e-02 6.367760000000000087e-01 -1.568929999999999936e+00 9.276724999999999000e+01 1.813545000000000073e+03
1.099999999999999936e-02 6.363604999999999956e-01 -2.443920000000000314e+00 9.069814999999999827e+01 1.813130000000000109e+03
1.200000000000000025e-02 6.358755000000000379e-01 -3.421785000000000299e+00 8.818260000000000787e+01 1.812610000000000127e+03
1.300000000000000114e-02 6.354254999999999765e-01 -4.249815000000000786e+00 8.557110000000000127e+01 1.812055000000000064e+03
1.400000000000000203e-02 6.350955000000000350e-01 -4.703742499999999715e+00 8.325454999999999472e+01 1.811530000000000200e+03
1.499999999999999944e-02 6.348979999999999624e-01 -4.711265000000000036e+00 8.144085000000001173e+01 1.811085000000000036e+03
1.600000000000000033e-02 6.347810000000000397e-01 -4.356345000000000134e+00 8.008605000000000018e+01 1.810720000000000027e+03
1.700000000000000122e-02 6.346674999999999400e-01 -3.808110000000000106e+00 7.896285000000000309e+01 1.810400000000000091e+03
1.800000000000000211e-02 6.344905000000000683e-01 -3.231814999999999660e+00 7.779265000000000896e+01 1.810079999999999927e+03
1.900000000000000300e-02 6.342224999999999113e-01 -2.719730500000000273e+00 7.637579999999999814e+01 1.809719999999999800e+03
2.000000000000000042e-02 6.338814999999999866e-01 -2.266004999999999825e+00 7.466749999999998977e+01 1.809304999999999836e+03
2.100000000000000130e-02 6.335140000000000216e-01 -1.793395000000000072e+00 7.276965000000001282e+01 1.808849999999999909e+03
2.200000000000000219e-02 6.331674999999999942e-01 -1.213079999999999714e+00 7.085204999999999131e+01 1.808385000000000218e+03
2.299999999999999961e-02 6.328644999999999410e-01 -4.827449999999997576e-01 6.905264999999999986e+01 1.807934999999999945e+03
2.400000000000000050e-02 6.325965000000000060e-01 3.630600000000003824e-01 6.740465000000000373e+01 1.807514999999999873e+03
2.500000000000000139e-02 6.323244999999999560e-01 1.215799999999999770e+00 6.581354999999999222e+01 1.807105000000000018e+03
2.600000000000000228e-02 6.319939999999999447e-01 1.922120000000000273e+00 6.408259999999999934e+01 1.806670000000000073e+03
2.700000000000000316e-02 6.315524999999999611e-01 2.328135000000000510e+00 6.197445000000000448e+01 1.806174999999999955e+03
2.800000000000000058e-02 6.309690000000000021e-01 2.326849999999999419e+00 5.929179999999999495e+01 1.805570000000000164e+03
2.900000000000000147e-02 6.302465000000000428e-01 1.893220000000000347e+00 5.595130000000000337e+01 1.804835000000000036e+03
3.000000000000000236e-02 6.294210000000000083e-01 1.092405000000000292e+00 5.202159999999999940e+01 1.803980000000000018e+03
3.099999999999999978e-02 6.285534999999999872e-01 5.759999999999987352e-02 4.771035000000000537e+01 1.803039999999999964e+03
3.200000000000000067e-02 6.277120000000000477e-01 -1.049980000000000580e+00 4.331085000000000207e+01 1.802070000000000164e+03
3.300000000000000155e-02 6.269540000000000113e-01 -2.080929999999999502e+00 3.913344999999999629e+01 1.801125000000000000e+03
3.400000000000000244e-02 6.263205000000000577e-01 -2.923760000000000137e+00 3.544729999999999848e+01 1.800264999999999873e+03
3.500000000000000333e-02 6.258330000000000837e-01 -3.514080000000000314e+00 3.244454999999999956e+01 1.799534999999999854e+03
3.600000000000000422e-02 6.254950000000000232e-01 -3.830691499999999916e+00 3.022895000000000110e+01 1.798965000000000146e+03
3.700000000000000511e-02 6.252975000000000616e-01 -3.882589999999999542e+00 2.882475000000000165e+01 1.798565000000000055e+03
3.799999999999999906e-02 6.252284999999999648e-01 -3.692815000000000403e+00 2.819874999999999687e+01 1.798340000000000146e+03
3.899999999999999994e-02 6.252735000000000376e-01 -3.283845000000000347e+00 2.828819999999999979e+01 1.798279999999999973e+03
4.000000000000000083e-02 6.254235000000000211e-01 -2.668156850000000357e+00 2.902595000000000169e+01 1.798369999999999891e+03
4.100000000000000172e-02 6.256730000000000347e-01 -1.846234999999999848e+00 3.035569999999999879e+01 1.798599999999999909e+03
4.200000000000000261e-02 6.260189999999999921e-01 -8.115199999999997971e-01 3.223539999999999850e+01 1.798964999999999918e+03
4.300000000000000350e-02 6.264585000000000292e-01 4.407550000000002299e-01 3.463020000000000209e+01 1.799450000000000045e+03
4.400000000000000439e-02 6.269860000000000433e-01 1.904839999999999645e+00 3.750065000000000026e+01 1.800045000000000073e+03
4.499999999999999833e-02 6.275884999999999936e-01 3.559020000000000294e+00 4.079194999999999993e+01 1.800744999999999891e+03
4.599999999999999922e-02 6.282490000000000574e-01 5.364700000000000024e+00 4.442864999999999753e+01 1.801525000000000091e+03
4.700000000000000011e-02 6.289470000000000338e-01 7.270100000000000229e+00 4.831530000000000058e+01 1.802375000000000000e+03
4.800000000000000100e-02 6.296610000000000262e-01 9.216165000000000163e+00 5.234340000000000259e+01 1.803269999999999982e+03
4.900000000000000189e-02 6.303699999999999859e-01 1.114386999999999972e+01 5.640155000000000030e+01 1.804179999999999836e+03
5.000000000000000278e-02 6.310554999999999914e-01 1.300075500000000162e+01 6.038670000000000471e+01 1.805095000000000027e+03
5.100000000000000366e-02 6.317045000000000021e-01 1.474545499999999976e+01 6.421365000000000123e+01 1.805985000000000127e+03
5.200000000000000455e-02 6.323109999999999564e-01 1.635004999999999953e+01 6.782184999999999775e+01 1.806839999999999918e+03
5.300000000000000544e-02 6.328715000000000312e-01 1.779974999999999952e+01 7.117715000000001169e+01 1.807644999999999982e+03
5.399999999999999939e-02 6.333885000000000209e-01 1.909144999999999825e+01 7.427134999999999820e+01 1.808394999999999982e+03
5.500000000000000028e-02 6.338664999999999994e-01 2.023120000000000118e+01 7.711780000000000257e+01 1.809094999999999800e+03
5.600000000000000117e-02 6.343119999999999870e-01 2.123154999999999859e+01 7.974694999999999823e+01 1.809755000000000109e+03
5.700000000000000205e-02 6.347339999999999094e-01 2.210965000000000202e+01 8.220095000000000596e+01 1.810365000000000009e+03
5.800000000000000294e-02 6.351409999999999556e-01 2.288500000000000156e+01 8.452824999999999989e+01 1.810945000000000164e+03
5.900000000000000383e-02 6.355410000000000226e-01 2.357809999999999917e+01 8.677909999999999968e+01 1.811509999999999991e+03
6.000000000000000472e-02 6.359425000000000772e-01 2.420855000000000246e+01 8.900059999999999150e+01 1.812059999999999945e+03
6.099999999999999867e-02 6.363514999999999588e-01 2.479359999999999786e+01 9.123265000000000668e+01 1.812605000000000018e+03
6.199999999999999956e-02 6.367709999999999759e-01 2.534600000000000009e+01 9.350374999999999659e+01 1.813154999999999973e+03
6.300000000000000044e-02 6.372020000000000461e-01 2.587330000000000041e+01 9.582814999999999372e+01 1.813719999999999800e+03
6.400000000000000133e-02 6.376425000000000010e-01 2.637675000000000125e+01 9.820420000000000016e+01 1.814289999999999964e+03
6.500000000000000222e-02 6.380885000000000584e-01 2.685170000000000101e+01 1.006145999999999958e+02 1.814869999999999891e+03
6.600000000000000311e-02 6.385319999999999885e-01 2.728835000000000122e+01 1.030281500000000108e+02 1.815450000000000045e+03
6.700000000000000400e-02 6.389654999999999641e-01 2.767360000000000042e+01 1.054044999999999987e+02 1.816019999999999982e+03
6.800000000000000488e-02 6.393805000000000183e-01 2.799239999999999995e+01 1.076949999999999932e+02 1.816575000000000045e+03
6.900000000000000577e-02 6.397669999999999746e-01 2.822984999999999900e+01 1.098524999999999920e+02 1.817105000000000018e+03
7.000000000000000666e-02 6.401185000000000347e-01 2.837270000000000181e+01 1.118310000000000031e+02 1.817595000000000027e+03
7.100000000000000755e-02 6.404279999999999973e-01 2.840995000000000203e+01 1.135904999999999916e+02 1.818035000000000082e+03
7.200000000000000844e-02 6.406914999999999694e-01 2.833399999999999963e+01 1.150995000000000061e+02 1.818424999999999955e+03
7.300000000000000933e-02 6.409065000000000456e-01 2.814075000000000060e+01 1.163375000000000057e+02 1.818755000000000109e+03
7.399999999999999634e-02 6.410700000000000287e-01 2.782965000000000089e+01 1.172920000000000016e+02 1.819019999999999982e+03
7.499999999999999722e-02 6.411839999999999762e-01 2.740390000000000015e+01 1.179625000000000057e+02 1.819220000000000027e+03
7.599999999999999811e-02 6.412504999999999455e-01 2.687010000000000076e+01 1.183580000000000041e+02 1.819355000000000018e+03
7.699999999999999900e-02 6.412725000000000231e-01 2.623799999999999955e+01 1.184939999999999998e+02 1.819424999999999955e+03
7.799999999999999989e-02 6.412550000000000194e-01 2.552064999999999984e+01 1.183969999999999914e+02 1.819440000000000055e+03
7.900000000000000078e-02 6.412039999999999962e-01 2.473344999999999771e+01 1.180974999999999966e+02 1.819410000000000082e+03
8.000000000000000167e-02 6.411259999999999737e-01 2.389385000000000048e+01 1.176314999999999884e+02 1.819335000000000036e+03
8.100000000000000255e-02 6.410279999999999312e-01 2.302055000000000007e+01 1.170384999999999991e+02 1.819220000000000027e+03
8.200000000000000344e-02 6.409169999999999590e-01 2.213244999999999862e+01 1.163569999999999993e+02 1.819079999999999927e+03
8.300000000000000433e-02 6.408000000000000362e-01 2.124795000000000300e+01 1.156274999999999977e+02 1.818930000000000064e+03
8.400000000000000522e-02 6.406830000000000025e-01 2.038364999999999938e+01 1.148859999999999957e+02 1.818769999999999982e+03
8.500000000000000611e-02 6.405704999999999316e-01 1.955385000000000062e+01 1.141624999999999943e+02 1.818605000000000018e+03
8.600000000000000699e-02 6.404659999999999798e-01 1.876924999999999955e+01 1.134824999999999875e+02 1.818445000000000164e+03
8.700000000000000788e-02 6.403725000000000112e-01 1.803719999999999857e+01 1.128625000000000114e+02 1.818300000000000182e+03
8.800000000000000877e-02 6.402909999999999435e-01 1.736104999999999876e+01 1.123120000000000118e+02 1.818159999999999854e+03
8.899999999999999578e-02 6.402205000000000812e-01 1.674030000000000129e+01 1.118319999999999936e+02 1.818039999999999964e+03
8.999999999999999667e-02 6.401589999999999225e-01 1.617099999999999937e+01 1.114159999999999968e+02 1.817934999999999945e+03
9.099999999999999756e-02 6.401040000000000063e-01 1.564620000000000033e+01 1.110510000000000019e+02 1.817835000000000036e+03
9.199999999999999845e-02 6.400525000000000242e-01 1.515654999999999930e+01 1.107195000000000107e+02 1.817744999999999891e+03
9.299999999999999933e-02 6.399995000000000545e-01 1.469110000000000049e+01 1.103994999999999891e+02 1.817664999999999964e+03
9.400000000000000022e-02 6.399415000000000520e-01 1.423780000000000001e+01 1.100664999999999907e+02 1.817579999999999927e+03
9.500000000000000111e-02 6.398734999999999840e-01 1.378439999999999976e+01 1.096970000000000027e+02 1.817490000000000009e+03
9.600000000000000200e-02 6.397924999999999862e-01 1.331925000000000026e+01 1.092665000000000077e+02 1.817384999999999991e+03
9.700000000000000289e-02 6.396945000000000547e-01 1.283184999999999931e+01 1.087549999999999955e+02 1.817264999999999873e+03
9.800000000000000377e-02 6.395770000000000621e-01 1.231383999999999901e+01 1.081460000000000008e+02 1.817125000000000000e+03
9.900000000000000466e-02 6.394385000000000208e-01 1.175937499999999858e+01 1.074284999999999997e+02 1.816960000000000036e+03
1.000000000000000056e-01 6.392795000000000005e-01 1.116577999999999982e+01 1.065970000000000084e+02 1.816775000000000091e+03
1.010000000000000064e-01 6.391010000000000302e-01 1.053357000000000099e+01 1.056545000000000130e+02 1.816565000000000055e+03
1.020000000000000073e-01 6.389050000000000562e-01 9.866855000000001041e+00 1.046095499999999987e+02 1.816329999999999927e+03
1.030000000000000082e-01 6.386950000000000127e-01 9.172774999999999679e+00 1.034793999999999983e+02 1.816075000000000045e+03
1.040000000000000091e-01 6.384765000000000024e-01 8.461325000000000429e+00 1.022849500000000091e+02 1.815805000000000064e+03
1.050000000000000100e-01 6.382529999999999593e-01 7.744595000000000340e+00 1.010535500000000013e+02 1.815525000000000091e+03
1.059999999999999970e-01 6.380310000000000148e-01 7.036170000000000258e+00 9.981440000000000623e+01 1.815240000000000009e+03
1.069999999999999979e-01 6.378159999999999386e-01 6.350179999999999936e+00 9.859909999999999286e+01 1.814949999999999818e+03
1.079999999999999988e-01 6.376135000000000552e-01 5.700484999999999580e+00 9.743805000000000405e+01 1.814674999999999955e+03
1.089999999999999997e-01 6.374279999999999946e-01 5.099935000000000329e+00 9.635984999999999445e+01 1.814420000000000073e+03
1.100000000000000006e-01 6.372634999999999827e-01 4.559625000000000483e+00 9.538880000000000337e+01 1.814184999999999945e+03
1.110000000000000014e-01 6.371229999999999949e-01 4.088295000000000456e+00 9.454425000000000523e+01 1.813974999999999909e+03
1.120000000000000023e-01 6.370084999999999775e-01 3.691945000000000032e+00 9.383965000000000600e+01 1.813795000000000073e+03
1.130000000000000032e-01 6.369200000000000417e-01 3.373585000000000278e+00 9.328164999999999907e+01 1.813639999999999873e+03
1.140000000000000041e-01 6.368575000000000763e-01 3.133225000000000371e+00 9.287035000000000196e+01 1.813525000000000091e+03
1.150000000000000050e-01 6.368190000000000239e-01 2.968024999999999913e+00 9.259964999999999691e+01 1.813440000000000055e+03
1.160000000000000059e-01 6.368020000000000902e-01 2.872605000000000075e+00 9.245779999999999177e+01 1.813384999999999991e+03
1.170000000000000068e-01 6.368030000000000079e-01 2.839534999999999698e+00 9.242869999999999209e+01 1.813355000000000018e+03
1.180000000000000077e-01 6.368190000000000239e-01 2.859820000000000029e+00 9.249305000000001087e+01 1.813355000000000018e+03
1.190000000000000085e-01 6.368460000000000232e-01 2.923474999999999824e+00 9.262960000000001060e+01 1.813365000000000009e+03
1.200000000000000094e-01 6.368795000000000428e-01 3.020080000000000098e+00 9.281655000000000655e+01 1.813394999999999982e+03
1.209999999999999964e-01 6.369164999999999965e-01 3.139285000000000103e+00 9.303274999999999295e+01 1.813434999999999945e+03
1.219999999999999973e-01 6.369529999999999914e-01 3.271209999999999951e+00 9.325835000000000719e+01 1.813480000000000018e+03
1.229999999999999982e-01 6.369875000000000398e-01 3.406805000000000305e+00 9.347620000000000573e+01 1.813519999999999982e+03
1.239999999999999991e-01 6.370164999999999855e-01 3.538109999999999644e+00 9.367164999999999964e+01 1.813565000000000055e+03
1.250000000000000000e-01 6.370390000000000219e-01 3.658440000000000136e+00 9.383330000000000837e+01 1.813599999999999909e+03
1.260000000000000009e-01 6.370534999999999393e-01 3.762499999999999734e+00 9.395314999999999372e+01 1.813625000000000000e+03
1.270000000000000018e-01 6.370595000000000008e-01 3.846429999999999794e+00 9.402620000000000289e+01 1.813644999999999982e+03
1.280000000000000027e-01 6.370569999999999844e-01 3.907839999999999758e+00 9.405064999999999031e+01 1.813655000000000200e+03
1.290000000000000036e-01 6.370465000000000710e-01 3.945734999999999992e+00 9.402750000000000341e+01 1.813654999999999973e+03
1.300000000000000044e-01 6.370289999999999564e-01 3.960490000000000066e+00 9.396020000000000039e+01 1.813639999999999873e+03
1.310000000000000053e-01 6.370050000000000434e-01 3.953664999999999985e+00 9.385435000000001082e+01 1.813625000000000000e+03
1.320000000000000062e-01 6.369765000000000565e-01 3.927859999999999907e+00 9.371725000000000705e+01 1.813594999999999800e+03
1.330000000000000071e-01 6.369449999999999834e-01 3.886495000000000033e+00 9.355734999999999957e+01 1.813565000000000055e+03
1.340000000000000080e-01 6.369119999999999227e-01 3.833550000000000235e+00 9.338380000000000791e+01 1.813529999999999973e+03
1.350000000000000089e-01 6.368795000000000428e-01 3.773265000000000313e+00 9.320574999999999477e+01 1.813490000000000009e+03
1.360000000000000098e-01 6.368485000000000396e-01 3.709850000000000314e+00 9.303194999999999482e+01 1.813449999999999818e+03
1.370000000000000107e-01 6.368205000000000116e-01 3.647205000000000030e+00 9.287004999999999200e+01 1.813409999999999854e+03
1.380000000000000115e-01 6.367970000000000574e-01 3.588665000000000216e+00 9.272624999999999318e+01 1.813380000000000109e+03
1.390000000000000124e-01 6.367769999999999264e-01 3.536810000000000009e+00 9.260490000000000066e+01 1.813349999999999909e+03
1.400000000000000133e-01 6.367625000000000091e-01 3.493335000000000079e+00 9.250815000000000055e+01 1.813329999999999927e+03
1.410000000000000142e-01 6.367519999999999847e-01 3.459000000000000075e+00 9.243619999999999948e+01 1.813309999999999945e+03
1.420000000000000151e-01 6.367454999999999643e-01 3.433699999999999974e+00 9.238700000000000045e+01 1.813295000000000073e+03
1.430000000000000160e-01 6.367419999999999192e-01 3.416529999999999845e+00 9.235695000000001187e+01 1.813289999999999964e+03
1.440000000000000169e-01 6.367410000000000014e-01 3.405974999999999753e+00 9.234094999999999231e+01 1.813279999999999973e+03
1.450000000000000178e-01 6.367399999999999727e-01 3.400095000000000312e+00 9.233305000000000007e+01 1.813275000000000091e+03
1.459999999999999909e-01 6.367399999999999727e-01 3.396745000000000125e+00 9.232689999999999486e+01 1.813275000000000091e+03
1.469999999999999918e-01 6.367374999999999563e-01 3.393749999999999822e+00 9.231639999999998736e+01 1.813269999999999982e+03
1.479999999999999927e-01 6.367329999999999934e-01 3.389120000000000132e+00 9.229585000000000150e+01 1.813269999999999982e+03
1.489999999999999936e-01 6.367259999999999032e-01 3.381149999999999878e+00 9.226064999999999827e+01 1.813255000000000109e+03
1.499999999999999944e-01 6.367150000000000309e-01 3.368549999999999933e+00 9.220734999999999104e+01 1.813244999999999891e+03
1.509999999999999953e-01 6.367005000000000026e-01 3.350509999999999877e+00 9.213394999999999868e+01 1.813230000000000018e+03
1.519999999999999962e-01 6.366825000000000401e-01 3.326735000000000220e+00 9.203990000000000293e+01 1.813204999999999927e+03
1.529999999999999971e-01 6.366604999999999626e-01 3.297439999999999927e+00 9.192595000000000027e+01 1.813180000000000064e+03
1.539999999999999980e-01 6.366354999999999098e-01 3.263354999999999784e+00 9.179439999999999600e+01 1.813155000000000200e+03
1.549999999999999989e-01 6.366089999999999804e-01 3.225665000000000227e+00 9.164869999999999095e+01 1.813119999999999891e+03
1.559999999999999998e-01 6.365800000000000347e-01 3.185985000000000067e+00 9.149309999999999832e+01 1.813085000000000036e+03
1.570000000000000007e-01 6.365514999999999368e-01 3.146264999999999645e+00 9.133305000000000007e+01 1.813049999999999955e+03
1.580000000000000016e-01 6.365225000000001021e-01 3.108735000000000248e+00 9.117429999999998813e+01 1.813009999999999991e+03
1.590000000000000024e-01 6.364965000000000206e-01 3.075775000000000148e+00 9.102305000000001201e+01 1.812980000000000018e+03
