# t [s], A [cm^2], U [cm/s], P [cPa], c [cm/s]
1.000000000000000021e-03 2.011809999999999987e-01 2.991019999999999790e-01 1.002177000000000078e+02 2.117849999999999909e+03
2.000000000000000042e-03 2.011209999999999942e-01 1.879537999999999931e+00 9.677250000000000796e+01 2.117430000000000291e+03
3.000000000000000062e-03 2.009640000000000037e-01 3.854751000000000261e+00 9.189464999999999861e+01 2.116359999999999673e+03
4.000000000000000083e-03 2.007510000000000128e-01 6.090441499999999841e+00 8.656905000000000427e+01 2.114935000000000400e+03
5.000000000000000104e-03 2.005264999999999964e-01 8.498529999999998807e+00 8.181794999999999618e+01 2.113444999999999709e+03
6.000000000000000125e-03 2.003134999999999777e-01 1.086416999999999966e+01 7.794964999999999122e+01 2.112045000000000073e+03
7.000000000000000146e-03 2.001155000000000017e-01 1.293507500000000121e+01 7.464685000000000059e+01 2.110775000000000091e+03
8.000000000000000167e-03 1.999365000000000170e-01 1.463586000000000098e+01 7.167934999999999945e+01 2.109649999999999636e+03
9.000000000000001055e-03 1.997825000000000017e-01 1.602260000000000062e+01 6.915205000000000268e+01 2.108695000000000164e+03
1.000000000000000194e-02 1.996554999999999858e-01 1.713439999999999941e+01 6.714379999999999882e+01 2.107914999999999964e+03
1.099999999999999936e-02 1.995544999999999958e-01 1.799484999999999957e+01 6.562020000000001119e+01 2.107305000000000291e+03
1.200000000000000025e-02 1.994785000000000030e-01 1.862764999999999915e+01 6.451444999999999652e+01 2.106849999999999909e+03
1.300000000000000114e-02 1.994205000000000005e-01 1.903804999999999836e+01 6.369950000000000045e+01 2.106515000000000327e+03
1.400000000000000203e-02 1.993750000000000244e-01 1.924289999999999878e+01 6.303305000000000291e+01 2.106260000000000218e+03
1.499999999999999944e-02 1.993415000000000048e-01 1.933469999999999800e+01 6.255044999999999789e+01 2.106079999999999927e+03
1.600000000000000033e-02 1.993274999999999908e-01 1.948579999999999757e+01 6.256700000000000017e+01 2.106005000000000109e+03
1.700000000000000122e-02 1.993445000000000078e-01 1.986505000000000010e+01 6.351295000000000357e+01 2.106125000000000000e+03
1.800000000000000211e-02 1.994024999999999825e-01 2.053580000000000183e+01 6.561809999999999832e+01 2.106484999999999673e+03
1.900000000000000300e-02 1.994989999999999819e-01 2.141114999999999924e+01 6.869339999999999691e+01 2.107069999999999709e+03
2.000000000000000042e-02 1.996180000000000176e-01 2.228965000000000174e+01 7.214834999999999354e+01 2.107819999999999709e+03
2.100000000000000130e-02 1.997369999999999979e-01 2.294245000000000090e+01 7.521444999999999936e+01 2.108574999999999818e+03
2.200000000000000219e-02 1.998344999999999982e-01 2.320364999999999966e+01 7.724000000000000909e+01 2.109199999999999818e+03
2.299999999999999961e-02 1.998929999999999874e-01 2.302584999999999837e+01 7.791875000000000284e+01 2.109595000000000255e+03
2.400000000000000050e-02 1.999099999999999766e-01 2.248369999999999891e+01 7.736345000000000027e+01 2.109730000000000018e+03
2.500000000000000139e-02 1.998929999999999874e-01 2.172885000000000133e+01 7.601120000000000232e+01 2.109644999999999982e+03
2.600000000000000228e-02 1.998570000000000069e-01 2.092279999999999873e+01 7.441800000000000637e+01 2.109434999999999945e+03
2.700000000000000316e-02 1.998159999999999936e-01 2.017745000000000033e+01 7.304030000000000200e+01 2.109185000000000400e+03
2.800000000000000058e-02 1.997809999999999864e-01 1.952465000000000117e+01 7.209100000000000819e+01 2.108965000000000146e+03
2.900000000000000147e-02 1.997545000000000015e-01 1.892215000000000202e+01 7.151134999999999309e+01 2.108795000000000073e+03
3.000000000000000236e-02 1.997324999999999795e-01 1.828589999999999804e+01 7.104795000000000016e+01 2.108650000000000091e+03
3.099999999999999978e-02 1.997070000000000234e-01 1.753450000000000131e+01 7.039115000000001032e+01 2.108489999999999782e+03
3.200000000000000067e-02 1.996700000000000141e-01 1.662920000000000087e+01 6.931970000000001164e+01 2.108269999999999982e+03
3.300000000000000155e-02 1.996189999999999909e-01 1.559759999999999991e+01 6.780445000000000277e+01 2.107960000000000036e+03
3.400000000000000244e-02 1.995569999999999844e-01 1.453289999999999971e+01 6.603889999999999816e+01 2.107579999999999927e+03
3.500000000000000333e-02 1.994934999999999903e-01 1.357000000000000028e+01 6.438779999999999859e+01 2.107180000000000291e+03
3.600000000000000422e-02 1.994420000000000082e-01 1.284629999999999939e+01 6.327405000000000257e+01 2.106849999999999909e+03
3.700000000000000511e-02 1.994144999999999945e-01 1.246114999999999995e+01 6.304520000000000124e+01 2.106670000000000073e+03
3.799999999999999906e-02 1.994205000000000005e-01 1.244804999999999851e+01 6.386464999999999748e+01 2.106690000000000055e+03
3.899999999999999994e-02 1.994620000000000004e-01 1.276535000000000153e+01 6.566134999999999877e+01 2.106920000000000073e+03
4.000000000000000083e-02 1.995335000000000025e-01 1.330760000000000076e+01 6.814655000000000484e+01 2.107345000000000255e+03
4.100000000000000172e-02 1.996224999999999805e-01 1.393004999999999960e+01 7.088394999999999868e+01 2.107894999999999982e+03
4.200000000000000261e-02 1.997154999999999903e-01 1.447889999999999944e+01 7.338765000000000782e+01 2.108470000000000255e+03
4.300000000000000350e-02 1.997959999999999736e-01 1.481840000000000046e+01 7.521869999999999834e+01 2.108974999999999909e+03
4.400000000000000439e-02 1.998495000000000132e-01 1.485069999999999979e+01 7.605934999999999491e+01 2.109324999999999818e+03
4.499999999999999833e-02 1.998674999999999757e-01 1.452464999999999939e+01 7.575124999999999886e+01 2.109449999999999818e+03
4.599999999999999922e-02 1.998449999999999949e-01 1.383479999999999954e+01 7.429619999999999891e+01 2.109329999999999927e+03
4.700000000000000011e-02 1.997835000000000027e-01 1.281245000000000012e+01 7.182704999999999984e+01 2.108960000000000036e+03
4.800000000000000100e-02 1.996864999999999890e-01 1.151270000000000060e+01 6.855989999999999895e+01 2.108364999999999782e+03
4.900000000000000189e-02 1.995615000000000028e-01 1.000212999999999930e+01 6.474420000000000641e+01 2.107599999999999909e+03
5.000000000000000278e-02 1.994164999999999965e-01 8.348414999999999253e+00 6.062104999999999677e+01 2.106699999999999818e+03
5.100000000000000366e-02 1.992595000000000061e-01 6.614679999999999893e+00 5.639764999999999873e+01 2.105719999999999800e+03
5.200000000000000455e-02 1.990969999999999962e-01 4.858062999999999576e+00 5.223935000000000173e+01 2.104704999999999927e+03
5.300000000000000544e-02 1.989354999999999873e-01 3.131047000000000136e+00 4.827479999999999905e+01 2.103694999999999709e+03
5.399999999999999939e-02 1.987800000000000122e-01 1.483929999999999971e+00 4.460880000000000223e+01 2.102720000000000255e+03
5.500000000000000028e-02 1.986354999999999926e-01 -3.279499999999990756e-02 4.133594999999999686e+01 2.101809999999999945e+03
5.600000000000000117e-02 1.985060000000000158e-01 -1.367500000000000160e+00 3.855145000000000266e+01 2.100989999999999782e+03
5.700000000000000205e-02 1.983960000000000168e-01 -2.468452499999999716e+00 3.635384999999999422e+01 2.100289999999999964e+03
5.800000000000000294e-02 1.983090000000000130e-01 -3.286389999999999922e+00 3.484244999999999948e+01 2.099724999999999909e+03
5.900000000000000383e-02 1.982494999999999952e-01 -3.778340000000000032e+00 3.410800000000000409e+01 2.099340000000000146e+03
6.000000000000000472e-02 1.982214999999999949e-01 -3.911604999999999777e+00 3.422169999999999845e+01 2.099139999999999873e+03
6.099999999999999867e-02 1.982264999999999999e-01 -3.667209999999999859e+00 3.522440000000000282e+01 2.099145000000000437e+03
6.199999999999999956e-02 1.982665000000000122e-01 -3.041995000000000005e+00 3.711870000000000402e+01 2.099375000000000000e+03
6.300000000000000044e-02 1.983405000000000029e-01 -2.049221499999999807e+00 3.986610000000000298e+01 2.099815000000000055e+03
6.400000000000000133e-02 1.984484999999999999e-01 -7.175400000000000666e-01 4.338875000000000171e+01 2.100465000000000146e+03
6.500000000000000222e-02 1.985854999999999981e-01 9.111850000000001337e-01 4.757545000000000357e+01 2.101300000000000182e+03
6.600000000000000311e-02 1.987484999999999946e-01 2.784925000000000317e+00 5.229075000000000273e+01 2.102300000000000182e+03
6.700000000000000400e-02 1.989319999999999977e-01 4.844810999999999979e+00 5.738450000000000273e+01 2.103434999999999945e+03
6.800000000000000488e-02 1.991314999999999891e-01 7.028559999999999697e+00 6.270225000000000648e+01 2.104675000000000182e+03
6.900000000000000577e-02 1.993395000000000028e-01 9.273630000000000706e+00 6.809409999999999741e+01 2.105975000000000364e+03
7.000000000000000666e-02 1.995514999999999928e-01 1.152058000000000071e+01 7.342265000000000441e+01 2.107304999999999836e+03
7.100000000000000755e-02 1.997619999999999951e-01 1.371554000000000073e+01 7.857019999999999982e+01 2.108630000000000109e+03
7.200000000000000844e-02 1.999670000000000059e-01 1.581290000000000084e+01 8.344384999999999764e+01 2.109925000000000182e+03
7.300000000000000933e-02 2.001625000000000210e-01 1.777725000000000222e+01 8.797964999999999236e+01 2.111164999999999964e+03
7.399999999999999634e-02 2.003464999999999829e-01 1.958464999999999989e+01 9.214490000000000691e+01 2.112335000000000036e+03
7.499999999999999722e-02 2.005175000000000152e-01 2.122299999999999898e+01 9.593739999999999668e+01 2.113434999999999945e+03
7.599999999999999811e-02 2.006755000000000067e-01 2.269160000000000110e+01 9.938300000000000978e+01 2.114444999999999709e+03
7.699999999999999900e-02 2.008209999999999995e-01 2.399980000000000047e+01 1.025322999999999922e+02 2.115380000000000109e+03
7.799999999999999989e-02 2.009565000000000101e-01 2.516469999999999985e+01 1.054495000000000005e+02 2.116255000000000109e+03
7.900000000000000078e-02 2.010839999999999850e-01 2.620850000000000080e+01 1.082090000000000032e+02 2.117074999999999818e+03
8.000000000000000167e-02 2.012059999999999960e-01 2.715590000000000259e+01 1.108845000000000027e+02 2.117859999999999673e+03
8.100000000000000255e-02 2.013240000000000030e-01 2.803125000000000000e+01 1.135424999999999898e+02 2.118625000000000000e+03
8.200000000000000344e-02 2.014424999999999966e-01 2.885649999999999693e+01 1.162365000000000066e+02 2.119385000000000218e+03
8.300000000000000433e-02 2.015609999999999902e-01 2.964905000000000257e+01 1.190019999999999953e+02 2.120149999999999636e+03
8.400000000000000522e-02 2.016820000000000002e-01 3.042094999999999771e+01 1.218559999999999945e+02 2.120930000000000291e+03
8.500000000000000611e-02 2.018059999999999854e-01 3.117815000000000225e+01 1.247969999999999970e+02 2.121720000000000255e+03
8.600000000000000699e-02 2.019320000000000004e-01 3.192060000000000031e+01 1.278040000000000020e+02 2.122529999999999745e+03
8.700000000000000788e-02 2.020600000000000174e-01 3.264269999999999783e+01 1.308435000000000059e+02 2.123349999999999909e+03
8.800000000000000877e-02 2.021879999999999789e-01 3.333424999999999727e+01 1.338689999999999998e+02 2.124175000000000182e+03
8.899999999999999578e-02 2.023149999999999948e-01 3.398114999999999952e+01 1.368274999999999864e+02 2.124984999999999673e+03
8.999999999999999667e-02 2.024390000000000078e-01 3.456680000000000064e+01 1.396620000000000061e+02 2.125779999999999745e+03
9.099999999999999756e-02 2.025565000000000004e-01 3.507354999999999734e+01 1.423160000000000025e+02 2.126539999999999964e+03
9.199999999999999845e-02 2.026675000000000004e-01 3.548349999999999937e+01 1.447344999999999970e+02 2.127250000000000000e+03
9.299999999999999933e-02 2.027684999999999904e-01 3.577974999999999994e+01 1.468700000000000045e+02 2.127904999999999745e+03
9.400000000000000022e-02 2.028579999999999828e-01 3.594780000000000086e+01 1.486829999999999927e+02 2.128480000000000018e+03
9.500000000000000111e-02 2.029340000000000033e-01 3.597589999999999577e+01 1.501434999999999889e+02 2.128985000000000127e+03
9.600000000000000200e-02 2.029964999999999964e-01 3.585625000000000284e+01 1.512325000000000159e+02 2.129389999999999873e+03
9.700000000000000289e-02 2.030440000000000023e-01 3.558539999999999992e+01 1.519429999999999836e+02 2.129704999999999927e+03
9.800000000000000377e-02 2.030770000000000075e-01 3.516440000000000055e+01 1.522810000000000059e+02 2.129925000000000182e+03
9.900000000000000466e-02 2.030945000000000111e-01 3.459919999999999618e+01 1.522624999999999886e+02 2.130054999999999836e+03
1.000000000000000056e-01 2.030985000000000151e-01 3.390014999999999645e+01 1.519159999999999968e+02 2.130090000000000146e+03
1.010000000000000064e-01 2.030890000000000195e-01 3.308149999999999835e+01 1.512785000000000082e+02 2.130039999999999964e+03
1.020000000000000073e-01 2.030679999999999985e-01 3.216100000000000136e+01 1.503944999999999936e+02 2.129914999999999964e+03
1.030000000000000082e-01 2.030374999999999819e-01 3.115874999999999773e+01 1.493139999999999930e+02 2.129730000000000018e+03
1.040000000000000091e-01 2.029984999999999984e-01 3.009639999999999915e+01 1.480869999999999891e+02 2.129484999999999673e+03
1.050000000000000100e-01 2.029535000000000089e-01 2.899620000000000175e+01 1.467660000000000196e+02 2.129204999999999927e+03
1.059999999999999970e-01 2.029044999999999876e-01 2.787995000000000090e+01 1.454004999999999939e+02 2.128894999999999982e+03
1.069999999999999979e-01 2.028530000000000055e-01 2.676845000000000141e+01 1.440349999999999966e+02 2.128569999999999709e+03
1.079999999999999988e-01 2.028015000000000234e-01 2.568014999999999759e+01 1.427094999999999914e+02 2.128239999999999782e+03
1.089999999999999997e-01 2.027499999999999858e-01 2.463094999999999857e+01 1.414555000000000007e+02 2.127914999999999964e+03
1.100000000000000006e-01 2.027014999999999789e-01 2.363360000000000127e+01 1.402969999999999970e+02 2.127599999999999909e+03
1.110000000000000014e-01 2.026560000000000028e-01 2.269720000000000226e+01 1.392495000000000118e+02 2.127304999999999836e+03
1.120000000000000023e-01 2.026144999999999752e-01 2.182710000000000150e+01 1.383185000000000002e+02 2.127034999999999854e+03
1.130000000000000032e-01 2.025764999999999927e-01 2.102475000000000094e+01 1.375014999999999930e+02 2.126784999999999854e+03
1.140000000000000041e-01 2.025425000000000142e-01 2.028775000000000261e+01 1.367880000000000109e+02 2.126565000000000055e+03
1.150000000000000050e-01 2.025119999999999976e-01 1.961035000000000039e+01 1.361585000000000036e+02 2.126364999999999782e+03
1.160000000000000059e-01 2.024845000000000117e-01 1.898380000000000223e+01 1.355879999999999939e+02 2.126184999999999945e+03
1.170000000000000068e-01 2.024590000000000001e-01 1.839685000000000059e+01 1.350475000000000136e+02 2.126015000000000327e+03
1.180000000000000077e-01 2.024345000000000172e-01 1.783655000000000257e+01 1.345034999999999741e+02 2.125849999999999909e+03
1.190000000000000085e-01 2.024095000000000200e-01 1.728904999999999959e+01 1.339219999999999970e+02 2.125685000000000400e+03
1.200000000000000094e-01 2.023825000000000207e-01 1.674070000000000036e+01 1.332704999999999984e+02 2.125514999999999873e+03
1.209999999999999964e-01 2.023524999999999907e-01 1.617835000000000178e+01 1.325194999999999936e+02 2.125320000000000164e+03
1.219999999999999973e-01 2.023189999999999988e-01 1.559059999999999846e+01 1.316444999999999936e+02 2.125109999999999673e+03
1.229999999999999982e-01 2.022809999999999886e-01 1.496845000000000070e+01 1.306270000000000095e+02 2.124859999999999673e+03
1.239999999999999991e-01 2.022364999999999857e-01 1.430549999999999855e+01 1.294579999999999984e+02 2.124585000000000036e+03
1.250000000000000000e-01 2.021870000000000056e-01 1.359894999999999854e+01 1.281340000000000146e+02 2.124264999999999873e+03
1.260000000000000009e-01 2.021315000000000195e-01 1.284925000000000139e+01 1.266639999999999873e+02 2.123909999999999854e+03
1.270000000000000018e-01 2.020704999999999862e-01 1.206036500000000089e+01 1.250625000000000000e+02 2.123529999999999745e+03
1.280000000000000027e-01 2.020045000000000035e-01 1.123963499999999982e+01 1.233539999999999992e+02 2.123110000000000127e+03
1.290000000000000036e-01 2.019345000000000168e-01 1.039724000000000004e+01 1.215679999999999978e+02 2.122664999999999964e+03
1.300000000000000044e-01 2.018614999999999993e-01 9.545650000000000190e+00 1.197400000000000091e+02 2.122204999999999927e+03
1.310000000000000053e-01 2.017875000000000085e-01 8.699194999999999567e+00 1.179089999999999918e+02 2.121724999999999909e+03
1.320000000000000062e-01 2.017130000000000034e-01 7.872970000000000468e+00 1.161140000000000043e+02 2.121255000000000109e+03
1.330000000000000071e-01 2.016399999999999859e-01 7.082114999999999938e+00 1.143935000000000031e+02 2.120789999999999964e+03
1.340000000000000080e-01 2.015704999999999858e-01 6.341230000000000366e+00 1.127835000000000036e+02 2.120340000000000146e+03
1.350000000000000089e-01 2.015049999999999897e-01 5.663445000000000285e+00 1.113160000000000025e+02 2.119920000000000073e+03
1.360000000000000098e-01 2.014449999999999852e-01 5.059905000000000541e+00 1.100159999999999911e+02 2.119539999999999964e+03
1.370000000000000107e-01 2.013915000000000011e-01 4.539254999999999818e+00 1.089014999999999986e+02 2.119194999999999709e+03
1.380000000000000115e-01 2.013449999999999962e-01 4.107359999999999900e+00 1.079844999999999970e+02 2.118889999999999873e+03
1.390000000000000124e-01 2.013064999999999993e-01 3.767129999999999868e+00 1.072690000000000055e+02 2.118640000000000327e+03
1.400000000000000133e-01 2.012754999999999961e-01 3.518505000000000216e+00 1.067505000000000024e+02 2.118434999999999945e+03
1.410000000000000142e-01 2.012519999999999865e-01 3.358635000000000481e+00 1.064194999999999993e+02 2.118279999999999745e+03
1.420000000000000151e-01 2.012364999999999848e-01 3.282109999999999861e+00 1.062605000000000075e+02 2.118170000000000073e+03
1.430000000000000160e-01 2.012265000000000026e-01 3.281340000000000146e+00 1.062529999999999859e+02 2.118105000000000018e+03
1.440000000000000169e-01 2.012240000000000140e-01 3.346954999999999902e+00 1.063739999999999952e+02 2.118074999999999818e+03
1.450000000000000178e-01 2.012249999999999872e-01 3.468304999999999971e+00 1.065964999999999918e+02 2.118085000000000036e+03
1.459999999999999909e-01 2.012309999999999932e-01 3.633874999999999744e+00 1.068954999999999984e+02 2.118119999999999891e+03
1.469999999999999918e-01 2.012404999999999888e-01 3.831834999999999880e+00 1.072425000000000068e+02 2.118170000000000073e+03
1.479999999999999927e-01 2.012519999999999865e-01 4.050385000000000346e+00 1.076135000000000019e+02 2.118234999999999673e+03
1.489999999999999936e-01 2.012645000000000128e-01 4.278269999999999129e+00 1.079840000000000089e+02 2.118309999999999945e+03
1.499999999999999944e-01 2.012769999999999837e-01 4.505034999999999457e+00 1.083329999999999984e+02 2.118395000000000437e+03
1.509999999999999953e-01 2.012889999999999957e-01 4.721415000000000362e+00 1.086430000000000007e+02 2.118470000000000255e+03
1.519999999999999962e-01 2.012999999999999790e-01 4.919525000000000148e+00 1.088995000000000033e+02 2.118539999999999964e+03
1.529999999999999971e-01 2.013090000000000157e-01 5.093080000000000496e+00 1.090914999999999964e+02 2.118594999999999800e+03
1.539999999999999980e-01 2.013154999999999806e-01 5.237465000000000259e+00 1.092135000000000105e+02 2.118640000000000327e+03
1.549999999999999989e-01 2.013194999999999846e-01 5.349849999999999994e+00 1.092620000000000005e+02 2.118670000000000073e+03
1.559999999999999998e-01 2.013214999999999866e-01 5.429104999999999848e+00 1.092384999999999877e+02 2.118675000000000182e+03
1.570000000000000007e-01 2.013205000000000133e-01 5.475740000000000052e+00 1.091479999999999961e+02 2.118675000000000182e+03
1.580000000000000016e-01 2.013170000000000237e-01 5.491749999999999687e+00 1.089964999999999975e+02 2.118654999999999745e+03
1.590000000000000024e-01 2.013110000000000177e-01 5.480360000000000120e+00 1.087944999999999993e+02 2.118619999999999891e+03
