# t [s], A [cm^2], U [cm/s], P [cPa], c [cm/s]
1.000000000000000021e-03 5.282094999999999985e-01 2.792900000000000937e-03 1.059470000000000027e+02 1.604360000000000127e+03
2.000000000000000042e-03 5.282089999999999286e-01 1.627270000000000105e-02 1.059314999999999998e+02 1.604355000000000018e+03
3.000000000000000062e-03 5.282774999999999554e-01 1.661140000000000116e-01 1.060929999999999893e+02 1.604394999999999982e+03
4.000000000000000083e-03 5.282964999999999467e-01 2.249065000000000092e-01 1.061599999999999966e+02 1.604420000000000073e+03
5.000000000000000104e-03 5.282405000000000017e-01 1.212715000000000043e-01 1.059585000000000008e+02 1.604375000000000000e+03
6.000000000000000125e-03 5.281700000000000284e-01 -2.265000000000000346e-02 1.055919999999999987e+02 1.604295000000000073e+03
7.000000000000000146e-03 5.280774999999999775e-01 -2.280799999999999494e-01 1.050594999999999999e+02 1.604179999999999836e+03
8.000000000000000167e-03 5.279119999999999369e-01 -6.041500000000000759e-01 1.042044999999999959e+02 1.604000000000000000e+03
9.000000000000001055e-03 5.276710000000000012e-01 -1.151065000000000005e+00 1.029629500000000064e+02 1.603720000000000027e+03
1.000000000000000194e-02 5.273459999999999814e-01 -1.866870000000000251e+00 1.012835000000000036e+02 1.603344999999999800e+03
1.099999999999999936e-02 5.269165000000000099e-01 -2.766314999999999635e+00 9.909340000000000259e+01 1.602835000000000036e+03
1.200000000000000025e-02 5.264014999999999667e-01 -3.774659999999999904e+00 9.643340000000000600e+01 1.602210000000000036e+03
1.300000000000000114e-02 5.258749999999999813e-01 -4.693054999999999310e+00 9.354220000000000823e+01 1.601500000000000000e+03
1.400000000000000203e-02 5.254199999999999982e-01 -5.292049999999999699e+00 9.077334999999999354e+01 1.600789999999999964e+03
1.499999999999999944e-02 5.250865000000000116e-01 -5.429561999999999777e+00 8.842560000000000286e+01 1.600144999999999982e+03
1.600000000000000033e-02 5.248690000000000300e-01 -5.102289999999999992e+00 8.662379999999998859e+01 1.599599999999999909e+03
1.700000000000000122e-02 5.247209999999999930e-01 -4.425759999999999472e+00 8.529614999999999725e+01 1.599154999999999973e+03
1.800000000000000211e-02 5.245794999999999764e-01 -3.573914999999999509e+00 8.422955000000000325e+01 1.598764999999999873e+03
1.900000000000000300e-02 5.243895000000000639e-01 -2.709211999999999954e+00 8.316694999999999993e+01 1.598390000000000100e+03
2.000000000000000042e-02 5.241234999999999644e-01 -1.928005000000000191e+00 8.190725000000000477e+01 1.597990000000000009e+03
2.100000000000000130e-02 5.237879999999999203e-01 -1.242139999999999800e+00 8.036724999999999852e+01 1.597529999999999973e+03
2.200000000000000219e-02 5.234094999999999720e-01 -6.023549999999997517e-01 7.858124999999999716e+01 1.597019999999999982e+03
2.299999999999999961e-02 5.230204999999999993e-01 5.367999999999994998e-02 7.664924999999999500e+01 1.596474999999999909e+03
2.400000000000000050e-02 5.226379999999999360e-01 7.560900000000003729e-01 7.466615000000000180e+01 1.595904999999999973e+03
2.500000000000000139e-02 5.222584999999999589e-01 1.478839999999999932e+00 7.266759999999999309e+01 1.595329999999999927e+03
2.600000000000000228e-02 5.218595000000000317e-01 2.141030000000000211e+00 7.060705000000000098e+01 1.594735000000000127e+03
2.700000000000000316e-02 5.214069999999999538e-01 2.627714999999999801e+00 6.836674999999999613e+01 1.594099999999999909e+03
2.800000000000000058e-02 5.208660000000000512e-01 2.821340000000000181e+00 6.579304999999999382e+01 1.593384999999999991e+03
2.900000000000000147e-02 5.202109999999999790e-01 2.634749999999999481e+00 6.274645000000000294e+01 1.592574999999999818e+03
3.000000000000000236e-02 5.194380000000000663e-01 2.036559999999999704e+00 5.914999999999999858e+01 1.591644999999999982e+03
3.099999999999999978e-02 5.185644999999999838e-01 1.062599999999999767e+00 5.502340000000000231e+01 1.590585000000000036e+03
3.200000000000000067e-02 5.176270000000000593e-01 -1.908500000000001862e-01 5.049115000000000464e+01 1.589429999999999836e+03
3.300000000000000155e-02 5.166779999999999706e-01 -1.586850000000000094e+00 4.576545000000000130e+01 1.588215000000000146e+03
3.400000000000000244e-02 5.157714999999999383e-01 -2.974625000000000519e+00 4.111019999999999897e+01 1.586994999999999891e+03
3.500000000000000333e-02 5.149584999999999857e-01 -4.213605000000000267e+00 3.679964999999999975e+01 1.585835000000000036e+03
3.600000000000000422e-02 5.142789999999999306e-01 -5.190400000000000347e+00 3.308079999999999643e+01 1.584800000000000182e+03
3.700000000000000511e-02 5.137605000000000643e-01 -5.826844999999999608e+00 3.014654999999999774e+01 1.583934999999999945e+03
3.799999999999999906e-02 5.134174999999999711e-01 -6.079674999999999940e+00 2.812265000000000015e+01 1.583284999999999854e+03
3.899999999999999994e-02 5.132539999999999880e-01 -5.934820000000000206e+00 2.706684999999999874e+01 1.582865000000000009e+03
4.000000000000000083e-02 5.132650000000000823e-01 -5.399074999999999847e+00 2.697820000000000107e+01 1.582684999999999945e+03
4.100000000000000172e-02 5.134385000000000199e-01 -4.491520000000000401e+00 2.781115000000000137e+01 1.582755000000000109e+03
4.200000000000000261e-02 5.137625000000000108e-01 -3.237375000000000114e+00 2.949169999999999803e+01 1.583045000000000073e+03
4.300000000000000350e-02 5.142200000000000104e-01 -1.664990000000000414e+00 3.192964999999999876e+01 1.583545000000000073e+03
4.400000000000000439e-02 5.147960000000000313e-01 1.939799999999998192e-01 3.502679999999999438e+01 1.584235000000000127e+03
4.499999999999999833e-02 5.154714999999999714e-01 2.302604999999999791e+00 3.867999999999999972e+01 1.585079999999999927e+03
4.599999999999999922e-02 5.162274999999999503e-01 4.616369999999999862e+00 4.278144999999999953e+01 1.586070000000000164e+03
4.700000000000000011e-02 5.170420000000000016e-01 7.082220000000000404e+00 4.721799999999999642e+01 1.587160000000000082e+03
4.800000000000000100e-02 5.178935000000000066e-01 9.639314999999999856e+00 5.187154999999999916e+01 1.588335000000000036e+03
4.900000000000000189e-02 5.187585000000000113e-01 1.222204999999999941e+01 5.662185000000000201e+01 1.589550000000000182e+03
5.000000000000000278e-02 5.196144999999999792e-01 1.476450499999999977e+01 6.135129999999999484e+01 1.590789999999999964e+03
5.100000000000000366e-02 5.204425000000000301e-01 1.720492499999999936e+01 6.595154999999999745e+01 1.592015000000000100e+03
5.200000000000000455e-02 5.212255000000000082e-01 1.949050000000000082e+01 7.032975000000000421e+01 1.593204999999999927e+03
5.300000000000000544e-02 5.219530000000000003e-01 2.158065000000000211e+01 7.441479999999999961e+01 1.594340000000000146e+03
5.399999999999999939e-02 5.226180000000000270e-01 2.344870000000000232e+01 7.816075000000000728e+01 1.595405000000000200e+03
5.500000000000000028e-02 5.232200000000000184e-01 2.508249999999999957e+01 8.154884999999998740e+01 1.596384999999999991e+03
5.600000000000000117e-02 5.237619999999999498e-01 2.648324999999999818e+01 8.458584999999999354e+01 1.597289999999999964e+03
5.700000000000000205e-02 5.242499999999999938e-01 2.766369999999999862e+01 8.730124999999999602e+01 1.598110000000000127e+03
5.800000000000000294e-02 5.246954999999999814e-01 2.864549999999999841e+01 8.974289999999999168e+01 1.598860000000000127e+03
5.900000000000000383e-02 5.251090000000000479e-01 2.945710000000000051e+01 9.197129999999999939e+01 1.599550000000000182e+03
6.000000000000000472e-02 5.255035000000000123e-01 3.013125000000000142e+01 9.405490000000000350e+01 1.600195000000000164e+03
6.099999999999999867e-02 5.258909999999999973e-01 3.070305000000000106e+01 9.606494999999999607e+01 1.600819999999999936e+03
6.199999999999999956e-02 5.262839999999999741e-01 3.120830000000000126e+01 9.807159999999998945e+01 1.601425000000000182e+03
6.300000000000000044e-02 5.266934999999999256e-01 3.168155000000000143e+01 1.001392500000000041e+02 1.602050000000000182e+03
6.400000000000000133e-02 5.271295000000000286e-01 3.215480000000000160e+01 1.023250000000000028e+02 1.602684999999999945e+03
6.500000000000000222e-02 5.275989999999999291e-01 3.265529999999999688e+01 1.046730000000000018e+02 1.603360000000000127e+03
6.600000000000000311e-02 5.281069999999999931e-01 3.320394999999999897e+01 1.072139999999999986e+02 1.604075000000000045e+03
6.700000000000000400e-02 5.286554999999999449e-01 3.381400000000000006e+01 1.099635000000000105e+02 1.604839999999999918e+03
6.800000000000000488e-02 5.292415000000000314e-01 3.448964999999999748e+01 1.129170000000000016e+02 1.605654999999999973e+03
6.900000000000000577e-02 5.298599999999999977e-01 3.522599999999999909e+01 1.160529999999999973e+02 1.606519999999999982e+03
7.000000000000000666e-02 5.305035000000000167e-01 3.600919999999999987e+01 1.193325000000000102e+02 1.607420000000000073e+03
7.100000000000000755e-02 5.311600000000000765e-01 3.681774999999999665e+01 1.227019999999999982e+02 1.608349999999999909e+03
7.200000000000000844e-02 5.318175000000000541e-01 3.762420000000000186e+01 1.260960000000000036e+02 1.609284999999999854e+03
7.300000000000000933e-02 5.324610000000000731e-01 3.839719999999999800e+01 1.294415000000000191e+02 1.610215000000000146e+03
7.399999999999999634e-02 5.330770000000000231e-01 3.910399999999999920e+01 1.326634999999999991e+02 1.611130000000000109e+03
7.499999999999999722e-02 5.336529999999999330e-01 3.971274999999999977e+01 1.356895000000000095e+02 1.611994999999999891e+03
7.599999999999999811e-02 5.341759999999999842e-01 4.019440000000000168e+01 1.384535000000000196e+02 1.612804999999999836e+03
7.699999999999999900e-02 5.346370000000000289e-01 4.052474999999999739e+01 1.408994999999999891e+02 1.613530000000000200e+03
7.799999999999999989e-02 5.350300000000000056e-01 4.068529999999999802e+01 1.429855000000000018e+02 1.614175000000000182e+03
7.900000000000000078e-02 5.353499999999999925e-01 4.066460000000000008e+01 1.446850000000000023e+02 1.614719999999999800e+03
8.000000000000000167e-02 5.355959999999999610e-01 4.045830000000000126e+01 1.459864999999999782e+02 1.615155000000000200e+03
8.100000000000000255e-02 5.357695000000000096e-01 4.006920000000000215e+01 1.468954999999999984e+02 1.615490000000000009e+03
8.200000000000000344e-02 5.358754999999999491e-01 3.950695000000000334e+01 1.474314999999999998e+02 1.615724999999999909e+03
8.300000000000000433e-02 5.359194999999999931e-01 3.878730000000000189e+01 1.476260000000000048e+02 1.615865000000000009e+03
8.400000000000000522e-02 5.359104999999999563e-01 3.793110000000000070e+01 1.475224999999999795e+02 1.615920000000000073e+03
8.500000000000000611e-02 5.358579999999999455e-01 3.696325000000000216e+01 1.471730000000000018e+02 1.615900000000000091e+03
8.600000000000000699e-02 5.357724999999999849e-01 3.591145000000000209e+01 1.466315000000000168e+02 1.615820000000000164e+03
8.700000000000000788e-02 5.356640000000000290e-01 3.480480000000000018e+01 1.459585000000000150e+02 1.615690000000000055e+03
8.800000000000000877e-02 5.355429999999999913e-01 3.367249999999999943e+01 1.452099999999999795e+02 1.615534999999999854e+03
8.899999999999999578e-02 5.354200000000000070e-01 3.254269999999999641e+01 1.444404999999999859e+02 1.615360000000000127e+03
8.999999999999999667e-02 5.353029999999999733e-01 3.144079999999999941e+01 1.436985000000000241e+02 1.615180000000000064e+03
9.099999999999999756e-02 5.351989999999999803e-01 3.038894999999999769e+01 1.430255000000000223e+02 1.615014999999999873e+03
9.199999999999999845e-02 5.351145000000000485e-01 2.940485000000000326e+01 1.424534999999999911e+02 1.614860000000000127e+03
9.299999999999999933e-02 5.350510000000000543e-01 2.850124999999999886e+01 1.420039999999999907e+02 1.614730000000000018e+03
9.400000000000000022e-02 5.350120000000000431e-01 2.768570000000000064e+01 1.416879999999999882e+02 1.614634999999999991e+03
9.500000000000000111e-02 5.349960000000000271e-01 2.696025000000000205e+01 1.415064999999999884e+02 1.614569999999999936e+03
9.600000000000000200e-02 5.350019999999999776e-01 2.632205000000000084e+01 1.414515000000000100e+02 1.614529999999999973e+03
9.700000000000000289e-02 5.350249999999999728e-01 2.576339999999999719e+01 1.415045000000000073e+02 1.614519999999999982e+03
9.800000000000000377e-02 5.350610000000000088e-01 2.527274999999999849e+01 1.416405000000000030e+02 1.614539999999999964e+03
9.900000000000000466e-02 5.351034999999999542e-01 2.483514999999999873e+01 1.418299999999999841e+02 1.614570000000000164e+03
1.000000000000000056e-01 5.351474999999999982e-01 2.443379999999999797e+01 1.420370000000000061e+02 1.614610000000000127e+03
1.010000000000000064e-01 5.351850000000000218e-01 2.405030000000000001e+01 1.422280000000000086e+02 1.614650000000000091e+03
1.020000000000000073e-01 5.352099999999999635e-01 2.366629999999999967e+01 1.423659999999999854e+02 1.614674999999999955e+03
1.030000000000000082e-01 5.352164999999999839e-01 2.326435000000000031e+01 1.424184999999999945e+02 1.614684999999999945e+03
1.040000000000000091e-01 5.351995000000000502e-01 2.282845000000000013e+01 1.423555000000000064e+02 1.614675000000000182e+03
1.050000000000000100e-01 5.351550000000000473e-01 2.234550000000000125e+01 1.421550000000000011e+02 1.614625000000000000e+03
1.059999999999999970e-01 5.350804999999999589e-01 2.180550000000000210e+01 1.417984999999999900e+02 1.614539999999999964e+03
1.069999999999999979e-01 5.349749999999999783e-01 2.120224999999999937e+01 1.412775000000000034e+02 1.614414999999999964e+03
1.079999999999999988e-01 5.348384999999999945e-01 2.053350000000000009e+01 1.405905000000000200e+02 1.614250000000000000e+03
1.089999999999999997e-01 5.346729999999999539e-01 1.980120000000000147e+01 1.397445000000000164e+02 1.614035000000000082e+03
1.100000000000000006e-01 5.344805000000000250e-01 1.901135000000000019e+01 1.387535000000000025e+02 1.613784999999999854e+03
1.110000000000000014e-01 5.342670000000000474e-01 1.817345000000000255e+01 1.376385000000000218e+02 1.613500000000000000e+03
1.120000000000000023e-01 5.340369999999999839e-01 1.730045000000000144e+01 1.364275000000000091e+02 1.613190000000000055e+03
1.130000000000000032e-01 5.337965000000000071e-01 1.640775000000000006e+01 1.351504999999999939e+02 1.612860000000000127e+03
1.140000000000000041e-01 5.335520000000000262e-01 1.551269500000000079e+01 1.338439999999999941e+02 1.612509999999999991e+03
1.150000000000000050e-01 5.333109999999999795e-01 1.463355500000000120e+01 1.325439999999999827e+02 1.612159999999999854e+03
1.160000000000000059e-01 5.330789999999999695e-01 1.378871000000000002e+01 1.312855000000000132e+02 1.611820000000000164e+03
1.170000000000000068e-01 5.328634999999999344e-01 1.299580500000000072e+01 1.301034999999999968e+02 1.611485000000000127e+03
1.180000000000000077e-01 5.326690000000000591e-01 1.227085999999999899e+01 1.290285000000000082e+02 1.611179999999999836e+03
1.190000000000000085e-01 5.325005000000000432e-01 1.162738000000000049e+01 1.280854999999999961e+02 1.610905000000000200e+03
1.200000000000000094e-01 5.323610000000000841e-01 1.107614500000000035e+01 1.272950000000000017e+02 1.610664999999999964e+03
1.209999999999999964e-01 5.322519999999999474e-01 1.062431499999999929e+01 1.266699999999999875e+02 1.610464999999999918e+03
1.219999999999999973e-01 5.321750000000000647e-01 1.027544999999999931e+01 1.262154999999999916e+02 1.610305000000000064e+03
1.229999999999999982e-01 5.321289999999999631e-01 1.002947499999999970e+01 1.259325000000000045e+02 1.610194999999999936e+03
1.239999999999999991e-01 5.321124999999999883e-01 9.882760000000001099e+00 1.258114999999999952e+02 1.610125000000000000e+03
1.250000000000000000e-01 5.321219999999999839e-01 9.828379999999999228e+00 1.258395000000000010e+02 1.610090000000000146e+03
1.260000000000000009e-01 5.321544999999999748e-01 9.856580000000001007e+00 1.259975000000000023e+02 1.610099999999999909e+03
1.270000000000000018e-01 5.322050000000000392e-01 9.955550000000000566e+00 1.262634999999999934e+02 1.610139999999999873e+03
1.280000000000000027e-01 5.322700000000000209e-01 1.011173999999999928e+01 1.266119999999999948e+02 1.610199999999999818e+03
1.290000000000000036e-01 5.323435000000000805e-01 1.031059499999999929e+01 1.270169999999999959e+02 1.610284999999999854e+03
1.300000000000000044e-01 5.324204999999999632e-01 1.053740999999999950e+01 1.274515000000000100e+02 1.610384999999999991e+03
1.310000000000000053e-01 5.324975000000000680e-01 1.077759999999999962e+01 1.278905000000000030e+02 1.610485000000000127e+03
1.320000000000000062e-01 5.325689999999999591e-01 1.101754999999999995e+01 1.283110000000000070e+02 1.610590000000000146e+03
1.330000000000000071e-01 5.326330000000000231e-01 1.124500000000000099e+01 1.286935000000000002e+02 1.610684999999999945e+03
1.340000000000000080e-01 5.326859999999999928e-01 1.144950000000000045e+01 1.290209999999999866e+02 1.610769999999999982e+03
1.350000000000000089e-01 5.327269999999999506e-01 1.162255000000000038e+01 1.292824999999999989e+02 1.610844999999999800e+03
1.360000000000000098e-01 5.327539999999999498e-01 1.175789999999999935e+01 1.294695000000000107e+02 1.610900000000000091e+03
1.370000000000000107e-01 5.327664999999999207e-01 1.185164999999999935e+01 1.295790000000000077e+02 1.610940000000000055e+03
1.380000000000000115e-01 5.327650000000000441e-01 1.190214500000000086e+01 1.296109999999999900e+02 1.610954999999999927e+03
1.390000000000000124e-01 5.327515000000000445e-01 1.191004500000000021e+01 1.295720000000000027e+02 1.610954999999999927e+03
1.400000000000000133e-01 5.327264999999999917e-01 1.187781500000000001e+01 1.294675000000000011e+02 1.610940000000000055e+03
1.410000000000000142e-01 5.326929999999999721e-01 1.180984000000000123e+01 1.293095000000000141e+02 1.610914999999999964e+03
1.420000000000000151e-01 5.326524999999999732e-01 1.171170000000000044e+01 1.291105000000000018e+02 1.610869999999999891e+03
1.430000000000000160e-01 5.326085000000000402e-01 1.159012000000000064e+01 1.288829999999999814e+02 1.610819999999999936e+03
1.440000000000000169e-01 5.325625000000000497e-01 1.145253500000000102e+01 1.286424999999999841e+02 1.610764999999999873e+03
1.450000000000000178e-01 5.325180000000000469e-01 1.130646499999999932e+01 1.284029999999999916e+02 1.610704999999999927e+03
1.459999999999999909e-01 5.324774999999999370e-01 1.115932499999999905e+01 1.281769999999999925e+02 1.610650000000000091e+03
1.469999999999999918e-01 5.324419999999999709e-01 1.101815500000000014e+01 1.279765000000000157e+02 1.610599999999999909e+03
1.479999999999999927e-01 5.324139999999999429e-01 1.088903499999999980e+01 1.278114999999999952e+02 1.610550000000000182e+03
1.489999999999999936e-01 5.323940000000000339e-01 1.077693000000000012e+01 1.276889999999999930e+02 1.610514999999999873e+03
1.499999999999999944e-01 5.323839999999999684e-01 1.068565999999999860e+01 1.276134999999999877e+02 1.610494999999999891e+03
1.509999999999999953e-01 5.323824999999999807e-01 1.061752999999999858e+01 1.275870000000000033e+02 1.610480000000000018e+03
1.519999999999999962e-01 5.323904999999999887e-01 1.057355000000000089e+01 1.276094999999999970e+02 1.610480000000000018e+03
1.529999999999999971e-01 5.324065000000000047e-01 1.055330000000000013e+01 1.276765000000000043e+02 1.610494999999999891e+03
1.539999999999999980e-01 5.324290000000000411e-01 1.055517000000000039e+01 1.277830000000000013e+02 1.610514999999999873e+03
1.549999999999999989e-01 5.324575000000000280e-01 1.057634999999999970e+01 1.279224999999999994e+02 1.610545000000000073e+03
1.559999999999999998e-01 5.324895000000000600e-01 1.061333000000000126e+01 1.280859999999999843e+02 1.610579999999999927e+03
1.570000000000000007e-01 5.325239999999999974e-01 1.066194000000000131e+01 1.282640000000000100e+02 1.610625000000000000e+03
1.580000000000000016e-01 5.325584999999999347e-01 1.071762000000000015e+01 1.284470000000000027e+02 1.610670000000000073e+03
1.590000000000000024e-01 5.325914999999999955e-01 1.077576000000000001e+01 1.286264999999999930e+02 1.610719999999999800e+03
