# t [s], A [cm^2], U [cm/s], P [cPa], c [cm/s]
1.000000000000000021e-03 6.543760000000000687e-01 5.372450000000000836e-03 1.012120000000000033e+02 1.674029999999999973e+03
2.000000000000000042e-03 6.543670000000000320e-01 -6.926650000000000775e-04 1.011850000000000023e+02 1.674025000000000091e+03
3.000000000000000062e-03 6.544229999999999769e-01 9.870239999999999569e-02 1.012969999999999970e+02 1.674045000000000073e+03
4.000000000000000083e-03 6.544689999999999674e-01 1.910024100000000113e-01 1.014170000000000016e+02 1.674069999999999936e+03
5.000000000000000104e-03 6.544395000000000628e-01 1.589592699999999859e-01 1.013474999999999966e+02 1.674059999999999945e+03
6.000000000000000125e-03 6.543749999999999289e-01 6.212799999999996103e-02 1.011204999999999927e+02 1.674019999999999982e+03
7.000000000000000146e-03 6.543185000000000251e-01 -2.969450000000001255e-02 1.008319999999999936e+02 1.673965000000000146e+03
8.000000000000000167e-03 6.542265000000000441e-01 -1.970700000000000784e-01 1.003988499999999959e+02 1.673880000000000109e+03
9.000000000000001055e-03 6.540709999999999580e-01 -4.921500000000000874e-01 9.972669999999999391e+01 1.673744999999999891e+03
1.000000000000000194e-02 6.538475000000000259e-01 -9.230249999999999844e-01 9.876425000000000409e+01 1.673559999999999945e+03
1.099999999999999936e-02 6.535355000000000469e-01 -1.512275000000000036e+00 9.743919999999999959e+01 1.673295000000000073e+03
1.200000000000000025e-02 6.531320000000000459e-01 -2.248199999999999754e+00 9.571580000000000155e+01 1.672950000000000045e+03
1.300000000000000114e-02 6.526784999999999393e-01 -3.031214999999999993e+00 9.368630000000000280e+01 1.672529999999999973e+03
1.400000000000000203e-02 6.522425000000000583e-01 -3.705449999999999910e+00 9.155375000000000796e+01 1.672074999999999818e+03
1.499999999999999944e-02 6.518785000000000274e-01 -4.137602499999999850e+00 8.953610000000000468e+01 1.671619999999999891e+03
1.600000000000000033e-02 6.516010000000000968e-01 -4.270749499999999976e+00 8.777209999999999468e+01 1.671204999999999927e+03
1.700000000000000122e-02 6.513904999999999834e-01 -4.129067500000000557e+00 8.628555000000000064e+01 1.670825000000000045e+03
1.800000000000000211e-02 6.512059999999999516e-01 -3.789594999999999825e+00 8.500339999999999918e+01 1.670480000000000018e+03
1.900000000000000300e-02 6.510055000000000147e-01 -3.343388000000000027e+00 8.380379999999999541e+01 1.670150000000000091e+03
2.000000000000000042e-02 6.507629999999999804e-01 -2.861569400000000041e+00 8.256970000000001164e+01 1.669820000000000164e+03
2.100000000000000130e-02 6.504719999999999391e-01 -2.375693499999999680e+00 8.123085000000000377e+01 1.669470000000000027e+03
2.200000000000000219e-02 6.501455000000000428e-01 -1.877400000000000180e+00 7.978024999999999523e+01 1.669099999999999909e+03
2.299999999999999961e-02 6.498074999999999823e-01 -1.335684999999999789e+00 7.826154999999999973e+01 1.668710000000000036e+03
2.400000000000000050e-02 6.494775000000000409e-01 -7.223049999999999748e-01 7.673624999999999829e+01 1.668320000000000164e+03
2.500000000000000139e-02 6.491629999999999345e-01 -3.344499999999994699e-02 7.524795000000000300e+01 1.667940000000000055e+03
2.600000000000000228e-02 6.488559999999999883e-01 7.001700000000001811e-01 7.379704999999999870e+01 1.667554999999999836e+03
2.700000000000000316e-02 6.485349999999999726e-01 1.416304999999999925e+00 7.233389999999999986e+01 1.667174999999999955e+03
2.800000000000000058e-02 6.481715000000000115e-01 2.034664999999999946e+00 7.076954999999999529e+01 1.666775000000000091e+03
2.900000000000000147e-02 6.477374999999999661e-01 2.475844999999999629e+00 6.899965000000000259e+01 1.666335000000000036e+03
3.000000000000000236e-02 6.472164999999999724e-01 2.680919999999999970e+00 6.693465000000000487e+01 1.665845000000000027e+03
3.099999999999999978e-02 6.466060000000000141e-01 2.626154999999999795e+00 6.452790000000000248e+01 1.665284999999999854e+03
3.200000000000000067e-02 6.459209999999999674e-01 2.328605000000000036e+00 6.179379999999999740e+01 1.664664999999999964e+03
3.300000000000000155e-02 6.451919999999999877e-01 1.841609999999999747e+00 5.880949999999999989e+01 1.663990000000000009e+03
3.400000000000000244e-02 6.444570000000000576e-01 1.241419999999999746e+00 5.570229999999999393e+01 1.663279999999999973e+03
3.500000000000000333e-02 6.437530000000000197e-01 6.112450000000002603e-01 5.262689999999999912e+01 1.662579999999999927e+03
3.600000000000000422e-02 6.431149999999999922e-01 2.685500000000029530e-02 4.974004999999999654e+01 1.661900000000000091e+03
3.700000000000000511e-02 6.425695000000000157e-01 -4.526849999999997820e-01 4.717985000000000184e+01 1.661285000000000082e+03
3.799999999999999906e-02 6.421299999999999786e-01 -7.883000000000000007e-01 4.505264999999999986e+01 1.660750000000000000e+03
3.899999999999999994e-02 6.418055000000000287e-01 -9.593200000000001726e-01 4.342779999999999774e+01 1.660324999999999818e+03
4.000000000000000083e-02 6.415965000000000140e-01 -9.586000000000001187e-01 4.234009999999999962e+01 1.660014999999999873e+03
4.100000000000000172e-02 6.415005000000000290e-01 -7.864944999999998743e-01 4.179710000000000036e+01 1.659815000000000055e+03
4.200000000000000261e-02 6.415135000000000698e-01 -4.453369999999999829e-01 4.178829999999999956e+01 1.659744999999999891e+03
4.300000000000000350e-02 6.416319999999999801e-01 6.412499999999998757e-02 4.229435000000000144e+01 1.659795000000000073e+03
4.400000000000000439e-02 6.418524999999999370e-01 7.438299999999999912e-01 4.329285000000000139e+01 1.659960000000000036e+03
4.499999999999999833e-02 6.421725000000000350e-01 1.597124999999999906e+00 4.476104999999999734e+01 1.660235000000000127e+03
4.599999999999999922e-02 6.425879999999999370e-01 2.625925000000000065e+00 4.667560000000000286e+01 1.660615000000000009e+03
4.700000000000000011e-02 6.430949999999999722e-01 3.827434999999999476e+00 4.900919999999999987e+01 1.661099999999999909e+03
4.800000000000000100e-02 6.436840000000000339e-01 5.191784999999999428e+00 5.172764999999999702e+01 1.661674999999999955e+03
4.900000000000000189e-02 6.443460000000000854e-01 6.700639999999999930e+00 5.478739999999999810e+01 1.662340000000000146e+03
5.000000000000000278e-02 6.450659999999999172e-01 8.327749300000000687e+00 5.813460000000000605e+01 1.663069999999999936e+03
5.100000000000000366e-02 6.458304999999999740e-01 1.004090000000000060e+01 6.170720000000000027e+01 1.663869999999999891e+03
5.200000000000000455e-02 6.466229999999999478e-01 1.180433500000000002e+01 6.543720000000000425e+01 1.664710000000000036e+03
5.300000000000000544e-02 6.474280000000000035e-01 1.358204000000000100e+01 6.925570000000000448e+01 1.665585000000000036e+03
5.399999999999999939e-02 6.482319999999999194e-01 1.534037999999999968e+01 7.309704999999999586e+01 1.666469999999999800e+03
5.500000000000000028e-02 6.490245000000000042e-01 1.705026499999999956e+01 7.690324999999999989e+01 1.667365000000000009e+03
5.600000000000000117e-02 6.497960000000000402e-01 1.868874999999999886e+01 8.062715000000000032e+01 1.668244999999999891e+03
5.700000000000000205e-02 6.505419999999999536e-01 2.023959999999999937e+01 8.423435000000000628e+01 1.669115000000000009e+03
5.800000000000000294e-02 6.512594999999999912e-01 2.169275000000000020e+01 8.770359999999999445e+01 1.669960000000000036e+03
5.900000000000000383e-02 6.519479999999999720e-01 2.304390000000000072e+01 9.102660000000000196e+01 1.670775000000000091e+03
6.000000000000000472e-02 6.526099999999999124e-01 2.429364999999999952e+01 9.420535000000000991e+01 1.671565000000000055e+03
6.099999999999999867e-02 6.532485000000000097e-01 2.544585000000000008e+01 9.725159999999999627e+01 1.672320000000000164e+03
6.199999999999999956e-02 6.538680000000000048e-01 2.650704999999999956e+01 1.001811999999999898e+02 1.673055000000000064e+03
6.300000000000000044e-02 6.544719999999999427e-01 2.748505000000000109e+01 1.030162499999999994e+02 1.673769999999999982e+03
6.400000000000000133e-02 6.550664999999999960e-01 2.838799999999999812e+01 1.057779999999999916e+02 1.674460000000000036e+03
6.500000000000000222e-02 6.556530000000000413e-01 2.922370000000000090e+01 1.084859999999999900e+02 1.675144999999999982e+03
6.600000000000000311e-02 6.562354999999999716e-01 2.999854999999999805e+01 1.111574999999999989e+02 1.675815000000000055e+03
6.700000000000000400e-02 6.568149999999999267e-01 3.071710000000000207e+01 1.138029999999999973e+02 1.676474999999999909e+03
6.800000000000000488e-02 6.573925000000000463e-01 3.138175000000000381e+01 1.164269999999999925e+02 1.677134999999999991e+03
6.900000000000000577e-02 6.579650000000000221e-01 3.199230000000000018e+01 1.190285000000000082e+02 1.677784999999999854e+03
7.000000000000000666e-02 6.585309999999999775e-01 3.254645000000000010e+01 1.215974999999999966e+02 1.678429999999999836e+03
7.100000000000000755e-02 6.590860000000000607e-01 3.304005000000000081e+01 1.241200000000000045e+02 1.679065000000000055e+03
7.200000000000000844e-02 6.596254999999999757e-01 3.346739999999999782e+01 1.265764999999999958e+02 1.679679999999999836e+03
7.300000000000000933e-02 6.601445000000000229e-01 3.382229999999999848e+01 1.289445000000000050e+02 1.680284999999999854e+03
7.399999999999999634e-02 6.606380000000000585e-01 3.409834999999999638e+01 1.311995000000000005e+02 1.680860000000000127e+03
7.499999999999999722e-02 6.611009999999999387e-01 3.428969999999999629e+01 1.333190000000000168e+02 1.681400000000000091e+03
7.599999999999999811e-02 6.615284999999999638e-01 3.439150000000000063e+01 1.352805000000000177e+02 1.681910000000000082e+03
7.699999999999999900e-02 6.619180000000000064e-01 3.440014999999999645e+01 1.370654999999999859e+02 1.682380000000000109e+03
7.799999999999999989e-02 6.622654999999999514e-01 3.431360000000000099e+01 1.386594999999999800e+02 1.682804999999999836e+03
7.900000000000000078e-02 6.625699999999999923e-01 3.413145000000000095e+01 1.400515000000000043e+02 1.683184999999999945e+03
8.000000000000000167e-02 6.628294999999999604e-01 3.385499999999999687e+01 1.412350000000000136e+02 1.683509999999999991e+03
8.100000000000000255e-02 6.630460000000000242e-01 3.348730000000000473e+01 1.422104999999999961e+02 1.683789999999999964e+03
8.200000000000000344e-02 6.632180000000000852e-01 3.303324999999999534e+01 1.429789999999999850e+02 1.684025000000000091e+03
8.300000000000000433e-02 6.633495000000000363e-01 3.249934999999999974e+01 1.435504999999999995e+02 1.684204999999999927e+03
8.400000000000000522e-02 6.634415000000000173e-01 3.189359999999999928e+01 1.439365000000000236e+02 1.684340000000000146e+03
8.500000000000000611e-02 6.634990000000000610e-01 3.122569999999999624e+01 1.441514999999999986e+02 1.684434999999999945e+03
8.600000000000000699e-02 6.635254999999999903e-01 3.050635000000000119e+01 1.442164999999999964e+02 1.684490000000000009e+03
8.700000000000000788e-02 6.635250000000000314e-01 2.974735000000000085e+01 1.441510000000000105e+02 1.684505000000000109e+03
8.800000000000000877e-02 6.635029999999999539e-01 2.896090000000000231e+01 1.439789999999999850e+02 1.684500000000000000e+03
8.899999999999999578e-02 6.634649999999999714e-01 2.815925000000000011e+01 1.437239999999999895e+02 1.684460000000000036e+03
8.999999999999999667e-02 6.634145000000000181e-01 2.735425000000000040e+01 1.434095000000000084e+02 1.684404999999999973e+03
9.099999999999999756e-02 6.633569999999999744e-01 2.655684999999999718e+01 1.430585000000000093e+02 1.684340000000000146e+03
9.199999999999999845e-02 6.632964999999999556e-01 2.577649999999999864e+01 1.426904999999999859e+02 1.684264999999999873e+03
9.299999999999999933e-02 6.632365000000000066e-01 2.502094999999999914e+01 1.423224999999999909e+02 1.684190000000000055e+03
9.400000000000000022e-02 6.631780000000000452e-01 2.429574999999999818e+01 1.419689999999999941e+02 1.684105000000000018e+03
9.500000000000000111e-02 6.631245000000000056e-01 2.360410000000000252e+01 1.416390000000000100e+02 1.684025000000000091e+03
9.600000000000000200e-02 6.630754999999999288e-01 2.294715000000000060e+01 1.413375000000000057e+02 1.683954999999999927e+03
9.700000000000000289e-02 6.630305000000000781e-01 2.232365000000000066e+01 1.410649999999999977e+02 1.683884999999999991e+03
9.800000000000000377e-02 6.629890000000000505e-01 2.173055000000000092e+01 1.408190000000000168e+02 1.683819999999999936e+03
9.900000000000000466e-02 6.629495000000000804e-01 2.116315000000000168e+01 1.405919999999999845e+02 1.683755000000000109e+03
1.000000000000000056e-01 6.629089999999999705e-01 2.061554999999999893e+01 1.403759999999999764e+02 1.683699999999999818e+03
1.010000000000000064e-01 6.628665000000000251e-01 2.008104999999999762e+01 1.401599999999999966e+02 1.683639999999999873e+03
1.020000000000000073e-01 6.628190000000000470e-01 1.955255000000000010e+01 1.399320000000000164e+02 1.683585000000000036e+03
1.030000000000000082e-01 6.627635000000000609e-01 1.902305000000000135e+01 1.396800000000000068e+02 1.683519999999999982e+03
1.040000000000000091e-01 6.626985000000000792e-01 1.848600000000000065e+01 1.393930000000000007e+02 1.683450000000000045e+03
1.050000000000000100e-01 6.626225000000000032e-01 1.793554999999999922e+01 1.390620000000000118e+02 1.683369999999999891e+03
1.059999999999999970e-01 6.625339999999999563e-01 1.736720000000000041e+01 1.386794999999999902e+02 1.683275000000000091e+03
1.069999999999999979e-01 6.624324999999999797e-01 1.677745000000000175e+01 1.382404999999999973e+02 1.683174999999999955e+03
1.079999999999999988e-01 6.623175000000000034e-01 1.616460000000000008e+01 1.377429999999999950e+02 1.683059999999999945e+03
1.089999999999999997e-01 6.621905000000000152e-01 1.552834999999999965e+01 1.371884999999999764e+02 1.682930000000000064e+03
1.100000000000000006e-01 6.620519999999999738e-01 1.487030000000000030e+01 1.365810000000000173e+02 1.682789999999999964e+03
1.110000000000000014e-01 6.619049999999999656e-01 1.419340000000000046e+01 1.359279999999999973e+02 1.682639999999999873e+03
1.120000000000000023e-01 6.617515000000000480e-01 1.350229000000000035e+01 1.352400000000000091e+02 1.682474999999999909e+03
1.130000000000000032e-01 6.615940000000000154e-01 1.280269499999999994e+01 1.345289999999999964e+02 1.682315000000000055e+03
1.140000000000000041e-01 6.614364999999999828e-01 1.210143500000000039e+01 1.338095000000000141e+02 1.682144999999999982e+03
1.150000000000000050e-01 6.612819999999999254e-01 1.140607999999999933e+01 1.330969999999999800e+02 1.681974999999999909e+03
1.160000000000000059e-01 6.611335000000000406e-01 1.072442500000000010e+01 1.324074999999999989e+02 1.681804999999999836e+03
1.170000000000000068e-01 6.609955000000000691e-01 1.006437000000000026e+01 1.317560000000000002e+02 1.681654999999999973e+03
1.180000000000000077e-01 6.608700000000000685e-01 9.433334999999999582e+00 1.311579999999999870e+02 1.681505000000000109e+03
1.190000000000000085e-01 6.607604999999999729e-01 8.838255000000000194e+00 1.306264999999999930e+02 1.681369999999999891e+03
1.200000000000000094e-01 6.606685000000001029e-01 8.284845000000000681e+00 1.301714999999999804e+02 1.681255000000000109e+03
1.209999999999999964e-01 6.605959999999999610e-01 7.777770000000000294e+00 1.298029999999999973e+02 1.681150000000000091e+03
1.219999999999999973e-01 6.605430000000001023e-01 7.320240000000000080e+00 1.295254999999999939e+02 1.681069999999999936e+03
1.229999999999999982e-01 6.605110000000000703e-01 6.913929999999999687e+00 1.293404999999999916e+02 1.681014999999999873e+03
1.239999999999999991e-01 6.604980000000000295e-01 6.559065000000000367e+00 1.292485000000000070e+02 1.680974999999999909e+03
1.250000000000000000e-01 6.605039999999999800e-01 6.254405000000000214e+00 1.292450000000000045e+02 1.680960000000000036e+03
1.260000000000000009e-01 6.605270000000000863e-01 5.997400000000000730e+00 1.293224999999999909e+02 1.680960000000000036e+03
1.270000000000000018e-01 6.605639999999999290e-01 5.784385000000000332e+00 1.294725000000000250e+02 1.680985000000000127e+03
1.280000000000000027e-01 6.606140000000000345e-01 5.610784999999999911e+00 1.296854999999999905e+02 1.681019999999999982e+03
1.290000000000000036e-01 6.606734999999999136e-01 5.471420000000000172e+00 1.299479999999999791e+02 1.681070000000000164e+03
1.300000000000000044e-01 6.607399999999999940e-01 5.360714999999999897e+00 1.302495000000000118e+02 1.681130000000000109e+03
1.310000000000000053e-01 6.608110000000000372e-01 5.272994999999999877e+00 1.305755000000000052e+02 1.681200000000000045e+03
1.320000000000000062e-01 6.608840000000000270e-01 5.202669999999999462e+00 1.309159999999999968e+02 1.681269999999999982e+03
1.330000000000000071e-01 6.609570000000000167e-01 5.144445000000000157e+00 1.312584999999999980e+02 1.681345000000000027e+03
1.340000000000000080e-01 6.610274999999999901e-01 5.093469999999999942e+00 1.315939999999999941e+02 1.681420000000000073e+03
1.350000000000000089e-01 6.610949999999999882e-01 5.045440000000000147e+00 1.319145000000000039e+02 1.681500000000000000e+03
1.360000000000000098e-01 6.611569999999999947e-01 4.996665000000000134e+00 1.322119999999999891e+02 1.681565000000000055e+03
1.370000000000000107e-01 6.612130000000000507e-01 4.944110000000000227e+00 1.324830000000000041e+02 1.681634999999999991e+03
1.380000000000000115e-01 6.612625000000000863e-01 4.885394999999999932e+00 1.327235000000000014e+02 1.681694999999999936e+03
1.390000000000000124e-01 6.613054999999999906e-01 4.818794999999999717e+00 1.329314999999999998e+02 1.681744999999999891e+03
1.400000000000000133e-01 6.613415000000000266e-01 4.743174999999999919e+00 1.331050000000000182e+02 1.681789999999999964e+03
1.410000000000000142e-01 6.613704999999999723e-01 4.657975000000000421e+00 1.332464999999999975e+02 1.681829999999999927e+03
1.420000000000000151e-01 6.613934999999999675e-01 4.563145000000000451e+00 1.333550000000000182e+02 1.681860000000000127e+03
1.430000000000000160e-01 6.614105000000000123e-01 4.459075000000000344e+00 1.334339999999999975e+02 1.681880000000000109e+03
1.440000000000000169e-01 6.614219999999999544e-01 4.346519999999999939e+00 1.334859999999999900e+02 1.681900000000000091e+03
1.450000000000000178e-01 6.614284999999999748e-01 4.226535000000000153e+00 1.335134999999999934e+02 1.681914999999999964e+03
1.459999999999999909e-01 6.614309999999999912e-01 4.100374999999999659e+00 1.335190000000000055e+02 1.681914999999999964e+03
1.469999999999999918e-01 6.614299999999999624e-01 3.969440000000000079e+00 1.335065000000000168e+02 1.681920000000000073e+03
1.479999999999999927e-01 6.614260000000000694e-01 3.835160000000000124e+00 1.334790000000000134e+02 1.681920000000000073e+03
1.489999999999999936e-01 6.614195000000000491e-01 3.698949999999999960e+00 1.334385000000000048e+02 1.681914999999999964e+03
1.499999999999999944e-01 6.614115000000000411e-01 3.562104999999999855e+00 1.333870000000000005e+02 1.681900000000000091e+03
1.509999999999999953e-01 6.614009999999999057e-01 3.425754999999999661e+00 1.333274999999999864e+02 1.681889999999999873e+03
1.519999999999999962e-01 6.613900000000000334e-01 3.290820000000000078e+00 1.332595000000000027e+02 1.681875000000000000e+03
1.529999999999999971e-01 6.613769999999999927e-01 3.158009999999999984e+00 1.331850000000000023e+02 1.681860000000000127e+03
1.539999999999999980e-01 6.613625000000000753e-01 3.027754999999999974e+00 1.331034999999999968e+02 1.681845000000000027e+03
1.549999999999999989e-01 6.613459999999999894e-01 2.900280000000000413e+00 1.330140000000000100e+02 1.681825000000000045e+03
1.559999999999999998e-01 6.613280000000000269e-01 2.775610000000000355e+00 1.329159999999999968e+02 1.681805000000000064e+03
1.570000000000000007e-01 6.613074999999999370e-01 2.653610000000000024e+00 1.328084999999999809e+02 1.681780000000000200e+03
1.580000000000000016e-01 6.612849999999999007e-01 2.534060000000000201e+00 1.326904999999999859e+02 1.681755000000000109e+03
1.590000000000000024e-01 6.612590000000000412e-01 2.416714999999999947e+00 1.325604999999999905e+02 1.681720000000000027e+03
