# t [s], A [cm^2], U [cm/s], P [cPa], c [cm/s]
1.000000000000000021e-03 1.355365000000000042e-01 2.564764999999999961e-01 8.607294999999999163e+01 1.983550000000000182e+03
2.000000000000000042e-03 1.355124999999999802e-01 1.545404000000000000e+00 8.336365000000000691e+01 1.983244999999999891e+03
3.000000000000000062e-03 1.354339999999999988e-01 3.131377999999999773e+00 7.971514999999999418e+01 1.982289999999999964e+03
4.000000000000000083e-03 1.353214999999999835e-01 4.902448500000000209e+00 7.568444999999999823e+01 1.980934999999999945e+03
5.000000000000000104e-03 1.351954999999999962e-01 6.811590000000000700e+00 7.197544999999999504e+01 1.979434999999999945e+03
6.000000000000000125e-03 1.350705000000000100e-01 8.744400000000000617e+00 6.890505000000000280e+01 1.977960000000000036e+03
7.000000000000000146e-03 1.349520000000000164e-01 1.053280499999999975e+01 6.635014999999999930e+01 1.976579999999999927e+03
8.000000000000000167e-03 1.348404999999999743e-01 1.207371999999999979e+01 6.407434999999999548e+01 1.975315000000000055e+03
9.000000000000001055e-03 1.347399999999999987e-01 1.337434999999999974e+01 6.204245000000000232e+01 1.974184999999999945e+03
1.000000000000000194e-02 1.346519999999999939e-01 1.446979999999999933e+01 6.032885000000000275e+01 1.973210000000000036e+03
1.099999999999999936e-02 1.345780000000000032e-01 1.537580000000000169e+01 5.894859999999999900e+01 1.972394999999999982e+03
1.200000000000000025e-02 1.345169999999999977e-01 1.609994999999999976e+01 5.786074999999999591e+01 1.971730000000000018e+03
1.300000000000000114e-02 1.344674999999999898e-01 1.664610000000000056e+01 5.699984999999999502e+01 1.971199999999999818e+03
1.400000000000000203e-02 1.344269999999999909e-01 1.701374999999999815e+01 5.627495000000000402e+01 1.970775000000000091e+03
1.499999999999999944e-02 1.343929999999999847e-01 1.722115000000000151e+01 5.561695000000000277e+01 1.970420000000000073e+03
1.600000000000000033e-02 1.343639999999999834e-01 1.733380000000000010e+01 5.507269999999999754e+01 1.970134999999999991e+03
1.700000000000000122e-02 1.343449999999999922e-01 1.746079999999999899e+01 5.484064999999999657e+01 1.969949999999999818e+03
1.800000000000000211e-02 1.343405000000000016e-01 1.771265000000000001e+01 5.518784999999999741e+01 1.969909999999999854e+03
1.900000000000000300e-02 1.343560000000000032e-01 1.814860000000000184e+01 5.629630000000000223e+01 1.970085000000000036e+03
2.000000000000000042e-02 1.343920000000000115e-01 1.874779999999999802e+01 5.814180000000000348e+01 1.970484999999999900e+03
2.100000000000000130e-02 1.344449999999999812e-01 1.941734999999999900e+01 6.047145000000000437e+01 1.971074999999999818e+03
2.200000000000000219e-02 1.345069999999999877e-01 2.002785000000000082e+01 6.288145000000000095e+01 1.971775000000000091e+03
2.299999999999999961e-02 1.345695000000000086e-01 2.045870000000000033e+01 6.494925000000000637e+01 1.972480000000000018e+03
2.400000000000000050e-02 1.346224999999999783e-01 2.063419999999999987e+01 6.636095000000000255e+01 1.973085000000000036e+03
2.500000000000000139e-02 1.346594999999999875e-01 2.053999999999999915e+01 6.698910000000000764e+01 1.973525000000000091e+03
2.600000000000000228e-02 1.346800000000000219e-01 2.021744999999999948e+01 6.690229999999999677e+01 1.973779999999999973e+03
2.700000000000000316e-02 1.346844999999999848e-01 1.974159999999999826e+01 6.631239999999999668e+01 1.973855000000000018e+03
2.800000000000000058e-02 1.346784999999999788e-01 1.919265000000000043e+01 6.548619999999999663e+01 1.973799999999999955e+03
2.900000000000000147e-02 1.346660000000000079e-01 1.863090000000000046e+01 6.465590000000000259e+01 1.973674999999999955e+03
3.000000000000000236e-02 1.346525000000000083e-01 1.808355000000000246e+01 6.395739999999999270e+01 1.973525000000000091e+03
3.099999999999999978e-02 1.346390000000000087e-01 1.754429999999999978e+01 6.341074999999999307e+01 1.973380000000000109e+03
3.200000000000000067e-02 1.346259999999999957e-01 1.698449999999999704e+01 6.294119999999999493e+01 1.973235000000000127e+03
3.300000000000000155e-02 1.346124999999999960e-01 1.636965000000000003e+01 6.242719999999999914e+01 1.973085000000000036e+03
3.400000000000000244e-02 1.345955000000000068e-01 1.567680000000000007e+01 6.175745000000000573e+01 1.972900000000000091e+03
3.500000000000000333e-02 1.345739999999999992e-01 1.490675000000000061e+01 6.087984999999999758e+01 1.972664999999999964e+03
3.600000000000000422e-02 1.345469999999999999e-01 1.408919999999999995e+01 5.982770000000000010e+01 1.972375000000000000e+03
3.700000000000000511e-02 1.345169999999999977e-01 1.327834999999999965e+01 5.871954999999999814e+01 1.972045000000000073e+03
3.799999999999999906e-02 1.344869999999999954e-01 1.254165000000000063e+01 5.773144999999999527e+01 1.971714999999999918e+03
3.899999999999999994e-02 1.344619999999999982e-01 1.194415000000000049e+01 5.705235000000000412e+01 1.971434999999999945e+03
4.000000000000000083e-02 1.344460000000000099e-01 1.153325000000000067e+01 5.683514999999999873e+01 1.971250000000000000e+03
4.100000000000000172e-02 1.344424999999999926e-01 1.132830000000000048e+01 5.715755000000000052e+01 1.971194999999999936e+03
4.200000000000000261e-02 1.344525000000000026e-01 1.131650000000000134e+01 5.800215000000000032e+01 1.971289999999999964e+03
4.300000000000000350e-02 1.344755000000000256e-01 1.145575000000000010e+01 5.925905000000000200e+01 1.971529999999999973e+03
4.400000000000000439e-02 1.345080000000000164e-01 1.168299999999999983e+01 6.074769999999999470e+01 1.971875000000000000e+03
4.499999999999999833e-02 1.345454999999999846e-01 1.192545000000000144e+01 6.225050000000000239e+01 1.972289999999999964e+03
4.599999999999999922e-02 1.345834999999999948e-01 1.211185000000000045e+01 6.355049999999999955e+01 1.972704999999999927e+03
4.700000000000000011e-02 1.346160000000000134e-01 1.218175000000000097e+01 6.446365000000000123e+01 1.973070000000000164e+03
4.800000000000000100e-02 1.346390000000000087e-01 1.209199999999999875e+01 6.486095000000000255e+01 1.973329999999999927e+03
4.900000000000000189e-02 1.346490000000000187e-01 1.181850000000000023e+01 6.467849999999999966e+01 1.973445000000000164e+03
5.000000000000000278e-02 1.346434999999999993e-01 1.135569999999999879e+01 6.391525000000000034e+01 1.973394999999999982e+03
5.100000000000000366e-02 1.346229999999999927e-01 1.071327499999999944e+01 6.262120000000000175e+01 1.973179999999999836e+03
5.200000000000000455e-02 1.345879999999999854e-01 9.911595000000000155e+00 6.088134999999999764e+01 1.972799999999999955e+03
5.300000000000000544e-02 1.345410000000000217e-01 8.977294999999999803e+00 5.879789999999999850e+01 1.972280000000000200e+03
5.399999999999999939e-02 1.344835000000000058e-01 7.939865000000000173e+00 5.647594999999999743e+01 1.971644999999999982e+03
5.500000000000000028e-02 1.344180000000000097e-01 6.829184999999999839e+00 5.401364999999999839e+01 1.970925000000000182e+03
5.600000000000000117e-02 1.343475000000000086e-01 5.674904999999999866e+00 5.149784999999999968e+01 1.970144999999999982e+03
5.700000000000000205e-02 1.342740000000000045e-01 4.506205000000000460e+00 4.900410000000000110e+01 1.969329999999999927e+03
5.800000000000000294e-02 1.342005000000000003e-01 3.352570999999999746e+00 4.659960000000000235e+01 1.968505000000000109e+03
5.900000000000000383e-02 1.341275000000000106e-01 2.244350000000000289e+00 4.434749999999999659e+01 1.967700000000000045e+03
6.000000000000000472e-02 1.340594999999999981e-01 1.213160000000000238e+00 4.231040000000000134e+01 1.966929999999999836e+03
6.099999999999999867e-02 1.339960000000000040e-01 2.915699999999999958e-01 4.055205000000000126e+01 1.966224999999999909e+03
6.199999999999999956e-02 1.339405000000000179e-01 -4.877000000000001334e-01 3.913739999999999952e+01 1.965599999999999909e+03
6.300000000000000044e-02 1.338949999999999863e-01 -1.093231000000000064e+00 3.813015000000000043e+01 1.965085000000000036e+03
6.400000000000000133e-02 1.338614999999999944e-01 -1.496598000000000095e+00 3.758885000000000076e+01 1.964695000000000164e+03
6.500000000000000222e-02 1.338409999999999878e-01 -1.674224999999999852e+00 3.756215000000000259e+01 1.964460000000000036e+03
6.600000000000000311e-02 1.338360000000000105e-01 -1.608995000000000175e+00 3.808474999999999966e+01 1.964380000000000109e+03
6.700000000000000400e-02 1.338465000000000071e-01 -1.291485500000000064e+00 3.917349999999999710e+01 1.964489999999999782e+03
6.800000000000000488e-02 1.338745000000000074e-01 -7.206424999999998526e-01 4.082535000000000025e+01 1.964775000000000091e+03
6.900000000000000577e-02 1.339190000000000103e-01 9.609499999999993047e-02 4.301684999999999803e+01 1.965244999999999891e+03
7.000000000000000666e-02 1.339790000000000147e-01 1.143329999999999957e+00 4.570579999999999643e+01 1.965894999999999982e+03
7.100000000000000755e-02 1.340544999999999931e-01 2.398625000000000007e+00 4.883359999999999701e+01 1.966715000000000146e+03
7.200000000000000844e-02 1.341434999999999989e-01 3.833875999999999618e+00 5.232920000000000016e+01 1.967690000000000055e+03
7.300000000000000933e-02 1.342440000000000022e-01 5.416890000000000427e+00 5.611374999999999602e+01 1.968795000000000073e+03
7.399999999999999634e-02 1.343540000000000012e-01 7.113150000000000084e+00 6.010495000000000232e+01 1.970014999999999873e+03
7.499999999999999722e-02 1.344715000000000216e-01 8.887444999999999595e+00 6.422209999999999752e+01 1.971315000000000055e+03
7.599999999999999811e-02 1.345939999999999914e-01 1.070564500000000052e+01 6.839000000000000057e+01 1.972675000000000182e+03
7.699999999999999900e-02 1.347194999999999920e-01 1.253618499999999969e+01 7.254279999999999973e+01 1.974075000000000045e+03
7.799999999999999989e-02 1.348455000000000070e-01 1.435109999999999886e+01 7.662669999999999959e+01 1.975490000000000009e+03
7.900000000000000078e-02 1.349710000000000076e-01 1.612715000000000032e+01 8.060150000000000148e+01 1.976900000000000091e+03
8.000000000000000167e-02 1.350939999999999919e-01 1.784625000000000128e+01 8.444155000000000655e+01 1.978295000000000073e+03
8.100000000000000255e-02 1.352150000000000019e-01 1.949549999999999983e+01 8.813495000000000346e+01 1.979655000000000200e+03
8.200000000000000344e-02 1.353320000000000078e-01 2.106714999999999804e+01 9.168244999999998868e+01 1.980985000000000127e+03
8.300000000000000433e-02 1.354454999999999965e-01 2.255785000000000196e+01 9.509495000000001141e+01 1.982280000000000200e+03
8.400000000000000522e-02 1.355560000000000098e-01 2.396784999999999854e+01 9.839029999999999632e+01 1.983539999999999964e+03
8.500000000000000611e-02 1.356634999999999924e-01 2.530030000000000001e+01 1.015910000000000082e+02 1.984769999999999982e+03
8.600000000000000699e-02 1.357685000000000142e-01 2.655999999999999872e+01 1.047208499999999987e+02 1.985970000000000027e+03
8.700000000000000788e-02 1.358715000000000062e-01 2.775244999999999962e+01 1.078009999999999877e+02 1.987150000000000091e+03
8.800000000000000877e-02 1.359724999999999961e-01 2.888309999999999889e+01 1.108504999999999967e+02 1.988315000000000055e+03
8.899999999999999578e-02 1.360729999999999995e-01 2.995660000000000167e+01 1.138810000000000002e+02 1.989470000000000027e+03
8.999999999999999667e-02 1.361729999999999885e-01 3.097625000000000028e+01 1.168995000000000033e+02 1.990615000000000009e+03
9.099999999999999756e-02 1.362714999999999899e-01 3.194374999999999787e+01 1.199050000000000011e+02 1.991755000000000109e+03
9.199999999999999845e-02 1.363705000000000056e-01 3.285909999999999798e+01 1.228909999999999911e+02 1.992889999999999873e+03
9.299999999999999933e-02 1.364679999999999782e-01 3.372030000000000172e+01 1.258435000000000059e+02 1.994019999999999982e+03
9.400000000000000022e-02 1.365645000000000053e-01 3.452379999999999427e+01 1.287464999999999975e+02 1.995130000000000109e+03
9.500000000000000111e-02 1.366590000000000027e-01 3.526479999999999393e+01 1.315774999999999864e+02 1.996224999999999909e+03
9.600000000000000200e-02 1.367514999999999981e-01 3.593720000000000425e+01 1.343135000000000048e+02 1.997299999999999955e+03
9.700000000000000289e-02 1.368409999999999904e-01 3.653435000000000343e+01 1.369290000000000020e+02 1.998340000000000146e+03
9.800000000000000377e-02 1.369269999999999932e-01 3.704895000000000493e+01 1.394000000000000057e+02 1.999335000000000036e+03
9.900000000000000466e-02 1.370089999999999919e-01 3.747395000000000209e+01 1.417015000000000100e+02 2.000285000000000082e+03
1.000000000000000056e-01 1.370850000000000124e-01 3.780259999999999820e+01 1.438125000000000000e+02 2.001170000000000073e+03
1.010000000000000064e-01 1.371560000000000001e-01 3.802890000000000015e+01 1.457135000000000105e+02 2.002000000000000000e+03
1.020000000000000073e-01 1.372205000000000230e-01 3.814799999999999613e+01 1.473880000000000052e+02 2.002755000000000109e+03
1.030000000000000082e-01 1.372780000000000111e-01 3.815639999999999787e+01 1.488255000000000052e+02 2.003429999999999836e+03
1.040000000000000091e-01 1.373284999999999922e-01 3.805240000000000578e+01 1.500180000000000007e+02 2.004029999999999973e+03
1.050000000000000100e-01 1.373719999999999941e-01 3.783610000000000184e+01 1.509644999999999868e+02 2.004539999999999964e+03
1.059999999999999970e-01 1.374075000000000157e-01 3.750995000000000346e+01 1.516675000000000182e+02 2.004960000000000036e+03
1.069999999999999979e-01 1.374354999999999882e-01 3.707835000000000036e+01 1.521365000000000123e+02 2.005299999999999955e+03
1.079999999999999988e-01 1.374564999999999815e-01 3.654774999999999352e+01 1.523845000000000027e+02 2.005555000000000064e+03
1.089999999999999997e-01 1.374704999999999955e-01 3.592659999999999343e+01 1.524300000000000068e+02 2.005730000000000018e+03
1.100000000000000006e-01 1.374785000000000035e-01 3.522499999999999432e+01 1.522944999999999993e+02 2.005829999999999927e+03
1.110000000000000014e-01 1.374805000000000055e-01 3.445444999999999425e+01 1.520029999999999859e+02 2.005860000000000127e+03
1.120000000000000023e-01 1.374765000000000015e-01 3.362724999999999653e+01 1.515815000000000055e+02 2.005835000000000036e+03
1.130000000000000032e-01 1.374695000000000222e-01 3.275619999999999976e+01 1.510575000000000045e+02 2.005755000000000109e+03
1.140000000000000041e-01 1.374579999999999969e-01 3.185425000000000040e+01 1.504585000000000150e+02 2.005630000000000109e+03
1.150000000000000050e-01 1.374440000000000106e-01 3.093384999999999962e+01 1.498079999999999927e+02 2.005474999999999909e+03
1.160000000000000059e-01 1.374279999999999946e-01 3.000670000000000215e+01 1.491304999999999836e+02 2.005295000000000073e+03
1.170000000000000068e-01 1.374104999999999910e-01 2.908335000000000292e+01 1.484459999999999980e+02 2.005089999999999918e+03
1.180000000000000077e-01 1.373920000000000141e-01 2.817295000000000016e+01 1.477694999999999936e+02 2.004884999999999991e+03
1.190000000000000085e-01 1.373734999999999817e-01 2.728294999999999959e+01 1.471145000000000209e+02 2.004670000000000073e+03
1.200000000000000094e-01 1.373550000000000049e-01 2.641904999999999859e+01 1.464884999999999877e+02 2.004450000000000045e+03
1.209999999999999964e-01 1.373364999999999725e-01 2.558514999999999873e+01 1.458965000000000032e+02 2.004240000000000009e+03
1.219999999999999973e-01 1.373194999999999832e-01 2.478329999999999700e+01 1.453379999999999939e+02 2.004034999999999854e+03
1.229999999999999982e-01 1.373024999999999940e-01 2.401379999999999981e+01 1.448095000000000141e+02 2.003835000000000036e+03
1.239999999999999991e-01 1.372855000000000047e-01 2.327530000000000143e+01 1.443050000000000068e+02 2.003644999999999982e+03
1.250000000000000000e-01 1.372700000000000031e-01 2.256510000000000105e+01 1.438139999999999930e+02 2.003454999999999927e+03
1.260000000000000009e-01 1.372539999999999871e-01 2.187934999999999874e+01 1.433269999999999982e+02 2.003269999999999982e+03
1.270000000000000018e-01 1.372384999999999855e-01 2.121325000000000216e+01 1.428294999999999959e+02 2.003085000000000036e+03
1.280000000000000027e-01 1.372220000000000106e-01 2.056139999999999901e+01 1.423095000000000141e+02 2.002894999999999982e+03
1.290000000000000036e-01 1.372050000000000214e-01 1.991814999999999714e+01 1.417529999999999859e+02 2.002695000000000164e+03
1.300000000000000044e-01 1.371870000000000034e-01 1.927769999999999939e+01 1.411479999999999961e+02 2.002485000000000127e+03
1.310000000000000053e-01 1.371674999999999978e-01 1.863479999999999848e+01 1.404830000000000041e+02 2.002259999999999991e+03
1.320000000000000062e-01 1.371465000000000045e-01 1.798445000000000249e+01 1.397490000000000236e+02 2.002010000000000218e+03
1.330000000000000071e-01 1.371235000000000093e-01 1.732284999999999897e+01 1.389390000000000214e+02 2.001740000000000009e+03
1.340000000000000080e-01 1.370979999999999976e-01 1.664699999999999847e+01 1.380484999999999900e+02 2.001444999999999936e+03
1.350000000000000089e-01 1.370699999999999974e-01 1.595509999999999984e+01 1.370760000000000218e+02 2.001125000000000000e+03
1.360000000000000098e-01 1.370399999999999952e-01 1.524675000000000047e+01 1.360250000000000057e+02 2.000775000000000091e+03
1.370000000000000107e-01 1.370069999999999899e-01 1.452305000000000135e+01 1.349005000000000223e+02 2.000404999999999973e+03
1.380000000000000115e-01 1.369719999999999827e-01 1.378620000000000090e+01 1.337099999999999795e+02 2.000000000000000000e+03
1.390000000000000124e-01 1.369354999999999878e-01 1.303999999999999915e+01 1.324660000000000082e+02 1.999575000000000045e+03
1.400000000000000133e-01 1.368975000000000053e-01 1.228914999999999935e+01 1.311820000000000164e+02 1.999134999999999991e+03
1.410000000000000142e-01 1.368580000000000074e-01 1.153960499999999989e+01 1.298750000000000000e+02 1.998679999999999836e+03
1.420000000000000151e-01 1.368169999999999942e-01 1.079788999999999888e+01 1.285614999999999952e+02 1.998214999999999918e+03
1.430000000000000160e-01 1.367764999999999953e-01 1.007105999999999923e+01 1.272599999999999909e+02 1.997744999999999891e+03
1.440000000000000169e-01 1.367355000000000098e-01 9.366295000000000925e+00 1.259875000000000114e+02 1.997279999999999973e+03
1.450000000000000178e-01 1.366954999999999976e-01 8.690714999999999080e+00 1.247625000000000028e+02 1.996815000000000055e+03
1.459999999999999909e-01 1.366570000000000007e-01 8.050975000000001103e+00 1.235995000000000061e+02 1.996375000000000000e+03
1.469999999999999918e-01 1.366205000000000058e-01 7.453049999999999287e+00 1.225130000000000052e+02 1.995945000000000164e+03
1.479999999999999927e-01 1.365850000000000120e-01 6.902009999999999756e+00 1.215134999999999934e+02 1.995539999999999964e+03
1.489999999999999936e-01 1.365529999999999800e-01 6.401830000000000354e+00 1.206099999999999994e+02 1.995159999999999854e+03
1.499999999999999944e-01 1.365230000000000055e-01 5.955289999999999750e+00 1.198075000000000045e+02 1.994815000000000055e+03
1.509999999999999953e-01 1.364960000000000062e-01 5.563914999999999722e+00 1.191080000000000041e+02 1.994500000000000000e+03
1.519999999999999962e-01 1.364719999999999822e-01 5.227924999999999933e+00 1.185099999999999909e+02 1.994220000000000027e+03
1.529999999999999971e-01 1.364509999999999890e-01 4.946360000000000312e+00 1.180120000000000005e+02 1.993974999999999909e+03
1.539999999999999980e-01 1.364330000000000265e-01 4.717100000000000293e+00 1.176059999999999945e+02 1.993759999999999991e+03
1.549999999999999989e-01 1.364179999999999837e-01 4.537060000000000315e+00 1.172849999999999966e+02 1.993585000000000036e+03
1.559999999999999998e-01 1.364049999999999985e-01 4.402289999999999814e+00 1.170399999999999920e+02 1.993429999999999836e+03
1.570000000000000007e-01 1.363955000000000028e-01 4.308180000000000121e+00 1.168594999999999970e+02 1.993309999999999945e+03
1.580000000000000016e-01 1.363869999999999805e-01 4.249654999999999738e+00 1.167330000000000041e+02 1.993210000000000036e+03
1.590000000000000024e-01 1.363804999999999878e-01 4.221339999999999648e+00 1.166490000000000009e+02 1.993134999999999991e+03
