# t [s], A [cm^2], U [cm/s], P [cPa], c [cm/s]
1.000000000000000021e-03 6.763449999999999740e-01 6.431200000000004968e-03 1.076069999999999993e+02 1.651234999999999900e+03
2.000000000000000042e-03 6.763325000000000031e-01 -4.529410100000000675e-03 1.075790000000000077e+02 1.651230000000000018e+03
3.000000000000000062e-03 6.763719999999999732e-01 5.788959999999999939e-02 1.076500000000000057e+02 1.651244999999999891e+03
4.000000000000000083e-03 6.764284999999999881e-01 1.559175999999999895e-01 1.077785000000000082e+02 1.651279999999999973e+03
5.000000000000000104e-03 6.764244999999999841e-01 1.688580000000000081e-01 1.077830000000000013e+02 1.651285000000000082e+03
6.000000000000000125e-03 6.763639999999999652e-01 8.944900000000000073e-02 1.076150000000000091e+02 1.651244999999999891e+03
7.000000000000000146e-03 6.763120000000000243e-01 1.940200000000003033e-02 1.073979999999999961e+02 1.651194999999999936e+03
8.000000000000000167e-03 6.762550000000000505e-01 -6.713849999999998985e-02 1.071255000000000024e+02 1.651130000000000109e+03
9.000000000000001055e-03 6.761524999999999341e-01 -2.446495000000000752e-01 1.067030000000000030e+02 1.651029999999999973e+03
1.000000000000000194e-02 6.759975000000000289e-01 -5.271799999999999820e-01 1.060850000000000080e+02 1.650884999999999991e+03
1.099999999999999936e-02 6.757790000000000186e-01 -9.285099999999999465e-01 1.052224999999999966e+02 1.650690000000000055e+03
1.200000000000000025e-02 6.754765000000000352e-01 -1.471110000000000140e+00 1.040475500000000011e+02 1.650414999999999964e+03
1.300000000000000114e-02 6.751000000000000334e-01 -2.124134999999999884e+00 1.025542499999999961e+02 1.650055000000000064e+03
1.400000000000000203e-02 6.746974999999999500e-01 -2.780384999999999884e+00 1.008492499999999978e+02 1.649639999999999873e+03
1.499999999999999944e-02 6.743295000000000261e-01 -3.305033499999999957e+00 9.910665000000000191e+01 1.649190000000000055e+03
1.600000000000000033e-02 6.740325000000000344e-01 -3.601030500000000245e+00 9.748215000000000430e+01 1.648755000000000109e+03
1.700000000000000122e-02 6.738079999999999625e-01 -3.640940000000000065e+00 9.605004999999999882e+01 1.648349999999999909e+03
1.800000000000000211e-02 6.736265000000000169e-01 -3.459815500000000377e+00 9.479519999999999413e+01 1.647980000000000018e+03
1.900000000000000300e-02 6.734489999999999643e-01 -3.126937499999999925e+00 9.363824999999999932e+01 1.647619999999999891e+03
2.000000000000000042e-02 6.732390000000000319e-01 -2.713994200000000134e+00 9.247800000000000864e+01 1.647259999999999991e+03
2.100000000000000130e-02 6.729785000000000350e-01 -2.270830000000000126e+00 9.123175000000000523e+01 1.646880000000000109e+03
2.200000000000000219e-02 6.726669999999999039e-01 -1.814075000000000326e+00 8.986099999999999000e+01 1.646469999999999800e+03
2.299999999999999961e-02 6.723209999999999464e-01 -1.329870000000000108e+00 8.837860000000000582e+01 1.646025000000000091e+03
2.400000000000000050e-02 6.719640000000000057e-01 -7.880149999999999100e-01 8.683535000000000537e+01 1.645570000000000164e+03
2.500000000000000139e-02 6.716174999999999784e-01 -1.610000000000000320e-01 8.529495000000000005e+01 1.645110000000000127e+03
2.600000000000000228e-02 6.712910000000000821e-01 5.594850000000000101e-01 8.380705000000000382e+01 1.644659999999999854e+03
2.700000000000000316e-02 6.709825000000000372e-01 1.353820000000000023e+00 8.238714999999999122e+01 1.644219999999999800e+03
2.800000000000000058e-02 6.706750000000000211e-01 2.174884999999999735e+00 8.100969999999999516e+01 1.643795000000000073e+03
2.900000000000000147e-02 6.703440000000000509e-01 2.956339999999999968e+00 7.961275000000000546e+01 1.643360000000000127e+03
3.000000000000000236e-02 6.699649999999999217e-01 3.626064999999999650e+00 7.811345000000000027e+01 1.642910000000000082e+03
3.099999999999999978e-02 6.695165000000000699e-01 4.121584999999999610e+00 7.642969999999999686e+01 1.642424999999999955e+03
3.200000000000000067e-02 6.689899999999999736e-01 4.403719999999999857e+00 7.450310000000000343e+01 1.641884999999999991e+03
3.300000000000000155e-02 6.683915000000000273e-01 4.465180000000000149e+00 7.231665000000000987e+01 1.641284999999999854e+03
3.400000000000000244e-02 6.677400000000000002e-01 4.330724999999999270e+00 6.990229999999999677e+01 1.640630000000000109e+03
3.500000000000000333e-02 6.670660000000000478e-01 4.049775000000000347e+00 6.733599999999999852e+01 1.639940000000000055e+03
3.600000000000000422e-02 6.664015000000000910e-01 3.684124999999999872e+00 6.472305000000000064e+01 1.639235000000000127e+03
3.700000000000000511e-02 6.657764999999999933e-01 3.295484999999999776e+00 6.217945000000000277e+01 1.638535000000000082e+03
3.799999999999999906e-02 6.652154999999999596e-01 2.935634999999999994e+00 5.981410000000000338e+01 1.637880000000000109e+03
3.899999999999999994e-02 6.647345000000000059e-01 2.641495000000000370e+00 5.771625000000000227e+01 1.637280000000000200e+03
4.000000000000000083e-02 6.643414999999999182e-01 2.434759999999999813e+00 5.594939999999999714e+01 1.636764999999999873e+03
4.100000000000000172e-02 6.640380000000000171e-01 2.324405000000000499e+00 5.455069999999999908e+01 1.636335000000000036e+03
4.200000000000000261e-02 6.638215000000000643e-01 2.311405000000000154e+00 5.353480000000000416e+01 1.636014999999999873e+03
4.300000000000000350e-02 6.636895000000000433e-01 2.393732950000000415e+00 5.290070000000000050e+01 1.635784999999999854e+03
4.400000000000000439e-02 6.636390000000000899e-01 2.570574999999999832e+00 5.263904999999999745e+01 1.635659999999999854e+03
4.499999999999999833e-02 6.636670000000000069e-01 2.844929999999999737e+00 5.273845000000000027e+01 1.635634999999999991e+03
4.599999999999999922e-02 6.637744999999999340e-01 3.224059999999999704e+00 5.318945000000000078e+01 1.635704999999999927e+03
4.700000000000000011e-02 6.639615000000000933e-01 3.718090000000000117e+00 5.398555000000000348e+01 1.635875000000000000e+03
4.800000000000000100e-02 6.642289999999999583e-01 4.337195000000000356e+00 5.512174999999999869e+01 1.636139999999999873e+03
4.900000000000000189e-02 6.645764999999999034e-01 5.088490000000000180e+00 5.659135000000000559e+01 1.636494999999999891e+03
5.000000000000000278e-02 6.649994999999999656e-01 5.973354999999999748e+00 5.838224999999999909e+01 1.636945000000000164e+03
5.100000000000000366e-02 6.654934999999999601e-01 6.985844999999999416e+00 6.047420000000000329e+01 1.637469999999999800e+03
5.200000000000000455e-02 6.660479999999999734e-01 8.112565000000000026e+00 6.283704999999999785e+01 1.638079999999999927e+03
5.300000000000000544e-02 6.666535000000000100e-01 9.333440000000001291e+00 6.543155000000000143e+01 1.638759999999999991e+03
5.399999999999999939e-02 6.672960000000000003e-01 1.062384000000000128e+01 6.821065000000000111e+01 1.639490000000000009e+03
5.500000000000000028e-02 6.679625000000000146e-01 1.195679999999999943e+01 7.112309999999999377e+01 1.640269999999999982e+03
5.600000000000000117e-02 6.686404999999999710e-01 1.330552999999999919e+01 7.411670000000000869e+01 1.641075000000000045e+03
5.700000000000000205e-02 6.693199999999999150e-01 1.464546499999999973e+01 7.714195000000000846e+01 1.641904999999999973e+03
5.800000000000000294e-02 6.699910000000000032e-01 1.595571999999999946e+01 8.015545000000000186e+01 1.642735000000000127e+03
5.900000000000000383e-02 6.706475000000000630e-01 1.722019999999999840e+01 8.312199999999999989e+01 1.643565000000000055e+03
6.000000000000000472e-02 6.712860000000000493e-01 1.842749999999999844e+01 8.601554999999999040e+01 1.644380000000000109e+03
6.099999999999999867e-02 6.719039999999999457e-01 1.957075000000000031e+01 8.881960000000000832e+01 1.645180000000000064e+03
6.199999999999999956e-02 6.725014999999999743e-01 2.064655000000000129e+01 9.152634999999999366e+01 1.645960000000000036e+03
6.300000000000000044e-02 6.730795000000000528e-01 2.165469999999999828e+01 9.413470000000000937e+01 1.646710000000000036e+03
6.400000000000000133e-02 6.736394999999999467e-01 2.259680000000000177e+01 9.665045000000000641e+01 1.647444999999999936e+03
6.500000000000000222e-02 6.741850000000000342e-01 2.347550000000000026e+01 9.908089999999999975e+01 1.648159999999999854e+03
6.600000000000000311e-02 6.747170000000000112e-01 2.429400000000000048e+01 1.014375000000000000e+02 1.648849999999999909e+03
6.700000000000000400e-02 6.752384999999999637e-01 2.505519999999999925e+01 1.037302999999999997e+02 1.649525000000000091e+03
6.800000000000000488e-02 6.757505000000000317e-01 2.576129999999999853e+01 1.059679999999999893e+02 1.650179999999999836e+03
6.900000000000000577e-02 6.762535000000000629e-01 2.641355000000000075e+01 1.081574999999999989e+02 1.650825000000000045e+03
7.000000000000000666e-02 6.767480000000000162e-01 2.701205000000000211e+01 1.103015000000000043e+02 1.651460000000000036e+03
7.100000000000000755e-02 6.772329999999999739e-01 2.755555000000000021e+01 1.124000000000000057e+02 1.652075000000000045e+03
7.200000000000000844e-02 6.777064999999999895e-01 2.804180000000000206e+01 1.144470000000000027e+02 1.652680000000000064e+03
7.300000000000000933e-02 6.781660000000000466e-01 2.846750000000000114e+01 1.164364999999999952e+02 1.653269999999999982e+03
7.399999999999999634e-02 6.786084999999999479e-01 2.882910000000000039e+01 1.183559999999999945e+02 1.653840000000000146e+03
7.499999999999999722e-02 6.790315000000000101e-01 2.912290000000000134e+01 1.201945000000000050e+02 1.654389999999999873e+03
7.599999999999999811e-02 6.794324999999999948e-01 2.934530000000000172e+01 1.219379999999999882e+02 1.654914999999999964e+03
7.699999999999999900e-02 6.798070000000000501e-01 2.949370000000000047e+01 1.235739999999999981e+02 1.655409999999999854e+03
7.799999999999999989e-02 6.801539999999999253e-01 2.956604999999999706e+01 1.250914999999999964e+02 1.655875000000000000e+03
7.900000000000000078e-02 6.804704999999999782e-01 2.956149999999999878e+01 1.264784999999999968e+02 1.656299999999999955e+03
8.000000000000000167e-02 6.807559999999999167e-01 2.948004999999999853e+01 1.277284999999999968e+02 1.656695000000000164e+03
8.100000000000000255e-02 6.810089999999999755e-01 2.932264999999999944e+01 1.288360000000000127e+02 1.657045000000000073e+03
8.200000000000000344e-02 6.812290000000000845e-01 2.909114999999999895e+01 1.297959999999999923e+02 1.657355000000000018e+03
8.300000000000000433e-02 6.814160000000000217e-01 2.878810000000000002e+01 1.306080000000000041e+02 1.657619999999999891e+03
8.400000000000000522e-02 6.815694999999999393e-01 2.841685000000000016e+01 1.312729999999999961e+02 1.657849999999999909e+03
8.500000000000000611e-02 6.816915000000000058e-01 2.798134999999999906e+01 1.317930000000000064e+02 1.658034999999999854e+03
8.600000000000000699e-02 6.817824999999999580e-01 2.748649999999999949e+01 1.321734999999999900e+02 1.658174999999999955e+03
8.700000000000000788e-02 6.818440000000000056e-01 2.693775000000000119e+01 1.324215000000000089e+02 1.658284999999999854e+03
8.800000000000000877e-02 6.818785000000000540e-01 2.634154999999999802e+01 1.325440000000000111e+02 1.658355000000000018e+03
8.899999999999999578e-02 6.818874999999999797e-01 2.570499999999999829e+01 1.325529999999999973e+02 1.658384999999999991e+03
8.999999999999999667e-02 6.818739999999999801e-01 2.503589999999999804e+01 1.324590000000000032e+02 1.658389999999999873e+03
9.099999999999999756e-02 6.818420000000000591e-01 2.434254999999999924e+01 1.322760000000000105e+02 1.658365000000000009e+03
9.199999999999999845e-02 6.817945000000000810e-01 2.363360000000000127e+01 1.320190000000000055e+02 1.658315000000000055e+03
9.299999999999999933e-02 6.817340000000000622e-01 2.291750000000000043e+01 1.317015000000000100e+02 1.658244999999999891e+03
9.400000000000000022e-02 6.816640000000000477e-01 2.220244999999999891e+01 1.313389999999999986e+02 1.658160000000000082e+03
9.500000000000000111e-02 6.815879999999999717e-01 2.149585000000000079e+01 1.309445000000000050e+02 1.658059999999999945e+03
9.600000000000000200e-02 6.815090000000000314e-01 2.080404999999999660e+01 1.305310000000000059e+02 1.657954999999999927e+03
9.700000000000000289e-02 6.814279999999999227e-01 2.013204999999999956e+01 1.301099999999999852e+02 1.657840000000000146e+03
9.800000000000000377e-02 6.813464999999999661e-01 1.948355000000000103e+01 1.296885000000000048e+02 1.657724999999999909e+03
9.900000000000000466e-02 6.812659999999999272e-01 1.886039999999999850e+01 1.292729999999999961e+02 1.657610000000000127e+03
1.000000000000000056e-01 6.811865000000000281e-01 1.826314999999999955e+01 1.288659999999999854e+02 1.657490000000000009e+03
1.010000000000000064e-01 6.811080000000000467e-01 1.769084999999999752e+01 1.284695000000000107e+02 1.657375000000000000e+03
1.020000000000000073e-01 6.810294999999999543e-01 1.714134999999999920e+01 1.280810000000000173e+02 1.657264999999999873e+03
1.030000000000000082e-01 6.809500000000000552e-01 1.661135000000000161e+01 1.276974999999999909e+02 1.657150000000000091e+03
1.040000000000000091e-01 6.808680000000000287e-01 1.609700000000000131e+01 1.273125000000000000e+02 1.657029999999999973e+03
1.050000000000000100e-01 6.807829999999999160e-01 1.559379999999999988e+01 1.269214999999999947e+02 1.656914999999999964e+03
1.059999999999999970e-01 6.806919999999999638e-01 1.509719999999999906e+01 1.265169999999999959e+02 1.656800000000000182e+03
1.069999999999999979e-01 6.805950000000000610e-01 1.460244999999999926e+01 1.260925000000000011e+02 1.656674999999999955e+03
1.079999999999999988e-01 6.804900000000000393e-01 1.410534999999999783e+01 1.256419999999999959e+02 1.656545000000000073e+03
1.089999999999999997e-01 6.803759999999999808e-01 1.360189499999999896e+01 1.251599999999999966e+02 1.656409999999999854e+03
1.100000000000000006e-01 6.802524999999999267e-01 1.308890000000000065e+01 1.246415000000000077e+02 1.656259999999999991e+03
1.110000000000000014e-01 6.801189999999999181e-01 1.256399000000000044e+01 1.240865000000000009e+02 1.656105000000000018e+03
1.120000000000000023e-01 6.799764999999999837e-01 1.202575000000000038e+01 1.234915000000000020e+02 1.655934999999999945e+03
1.130000000000000032e-01 6.798245000000000537e-01 1.147375000000000078e+01 1.228584999999999923e+02 1.655759999999999991e+03
1.140000000000000041e-01 6.796644999999998937e-01 1.090878499999999995e+01 1.221910000000000025e+02 1.655575000000000045e+03
1.150000000000000050e-01 6.794979999999999354e-01 1.033267000000000024e+01 1.214945000000000022e+02 1.655380000000000109e+03
1.160000000000000059e-01 6.793270000000000142e-01 9.748339999999998895e+00 1.207740000000000009e+02 1.655179999999999836e+03
1.170000000000000068e-01 6.791544999999999943e-01 9.159670000000000201e+00 1.200399999999999920e+02 1.654970000000000027e+03
1.180000000000000077e-01 6.789815000000000156e-01 8.571400000000000574e+00 1.193025000000000091e+02 1.654764999999999873e+03
1.190000000000000085e-01 6.788115000000000121e-01 7.988865000000000549e+00 1.185709999999999980e+02 1.654559999999999945e+03
1.200000000000000094e-01 6.786479999999999180e-01 7.417899999999999494e+00 1.178584999999999923e+02 1.654355000000000018e+03
1.209999999999999964e-01 6.784924999999999429e-01 6.864414999999999267e+00 1.171769999999999925e+02 1.654159999999999854e+03
1.219999999999999973e-01 6.783479999999999510e-01 6.334294999999999121e+00 1.165374999999999943e+02 1.653974999999999909e+03
1.229999999999999982e-01 6.782174999999999176e-01 5.833160000000000345e+00 1.159519999999999982e+02 1.653799999999999955e+03
1.239999999999999991e-01 6.781025000000000524e-01 5.366035000000000110e+00 1.154284999999999997e+02 1.653644999999999982e+03
1.250000000000000000e-01 6.780055000000000387e-01 4.937210000000000321e+00 1.149759999999999991e+02 1.653505000000000109e+03
1.260000000000000009e-01 6.779264999999999874e-01 4.550034999999999386e+00 1.146009999999999991e+02 1.653385000000000218e+03
1.270000000000000018e-01 6.778664999999999274e-01 4.206815000000000637e+00 1.143075000000000045e+02 1.653289999999999964e+03
1.280000000000000027e-01 6.778264999999999985e-01 3.908719999999999750e+00 1.140964999999999918e+02 1.653215000000000146e+03
1.290000000000000036e-01 6.778040000000000731e-01 3.655794999999999906e+00 1.139685000000000059e+02 1.653164999999999964e+03
1.300000000000000044e-01 6.778005000000000280e-01 3.446964999999999613e+00 1.139190000000000111e+02 1.653135000000000218e+03
1.310000000000000053e-01 6.778129999999999988e-01 3.280155000000000154e+00 1.139445000000000050e+02 1.653125000000000000e+03
1.320000000000000062e-01 6.778399999999999981e-01 3.152409999999999712e+00 1.140380000000000109e+02 1.653135000000000218e+03
1.330000000000000071e-01 6.778800000000000381e-01 3.060080000000000133e+00 1.141905000000000001e+02 1.653159999999999854e+03
1.340000000000000080e-01 6.779294999999999627e-01 2.999019999999999797e+00 1.143940000000000055e+02 1.653204999999999927e+03
1.350000000000000089e-01 6.779880000000000351e-01 2.964739999999999931e+00 1.146389999999999958e+02 1.653259999999999991e+03
1.360000000000000098e-01 6.780530000000000168e-01 2.952650000000000219e+00 1.149149999999999920e+02 1.653325000000000045e+03
1.370000000000000107e-01 6.781209999999999738e-01 2.958165000000000155e+00 1.152125000000000057e+02 1.653404999999999973e+03
1.380000000000000115e-01 6.781920000000000170e-01 2.976910000000000167e+00 1.155225000000000080e+02 1.653485000000000127e+03
1.390000000000000124e-01 6.782624999999999904e-01 3.004774999999999974e+00 1.158375000000000057e+02 1.653565000000000055e+03
1.400000000000000133e-01 6.783319999999999350e-01 3.038025000000000198e+00 1.161490000000000009e+02 1.653650000000000091e+03
1.410000000000000142e-01 6.783989999999999743e-01 3.073380000000000223e+00 1.164519999999999982e+02 1.653730000000000018e+03
1.420000000000000151e-01 6.784624999999999684e-01 3.107990000000000030e+00 1.167400000000000091e+02 1.653809999999999945e+03
1.430000000000000160e-01 6.785209999999999297e-01 3.139489999999999892e+00 1.170109999999999957e+02 1.653889999999999873e+03
1.440000000000000169e-01 6.785754999999999981e-01 3.166009999999999991e+00 1.172599999999999909e+02 1.653960000000000036e+03
1.450000000000000178e-01 6.786250000000000338e-01 3.186139999999999972e+00 1.174869999999999948e+02 1.654025000000000091e+03
1.459999999999999909e-01 6.786695000000000366e-01 3.198900000000000077e+00 1.176899999999999977e+02 1.654085000000000036e+03
1.469999999999999918e-01 6.787084999999999368e-01 3.203759999999999941e+00 1.178695000000000022e+02 1.654139999999999873e+03
1.479999999999999927e-01 6.787429999999999852e-01 3.200585000000000235e+00 1.180254999999999939e+02 1.654184999999999945e+03
1.489999999999999936e-01 6.787725000000000009e-01 3.189564999999999984e+00 1.181599999999999966e+02 1.654230000000000018e+03
1.499999999999999944e-01 6.787974999999999426e-01 3.171194999999999986e+00 1.182745000000000033e+02 1.654264999999999873e+03
1.509999999999999953e-01 6.788194999999999091e-01 3.146209999999999951e+00 1.183704999999999927e+02 1.654300000000000182e+03
1.519999999999999962e-01 6.788380000000000525e-01 3.115524999999999878e+00 1.184500000000000028e+02 1.654325000000000045e+03
1.529999999999999971e-01 6.788540000000000685e-01 3.080140000000000100e+00 1.185155000000000030e+02 1.654349999999999909e+03
1.539999999999999980e-01 6.788674999999999571e-01 3.041100000000000136e+00 1.185699999999999932e+02 1.654365000000000009e+03
1.549999999999999989e-01 6.788790000000000102e-01 2.999419999999999753e+00 1.186135000000000019e+02 1.654384999999999991e+03
1.559999999999999998e-01 6.788894999999999236e-01 2.956020000000000092e+00 1.186490000000000009e+02 1.654400000000000091e+03
1.570000000000000007e-01 6.788974999999999316e-01 2.911690000000000111e+00 1.186775000000000091e+02 1.654409999999999854e+03
1.580000000000000016e-01 6.789054999999999396e-01 2.867049999999999876e+00 1.186989999999999981e+02 1.654420000000000073e+03
1.590000000000000024e-01 6.789110000000000422e-01 2.822529999999999983e+00 1.187150000000000034e+02 1.654420000000000073e+03
