# t [s], A [cm^2], U [cm/s], P [cPa], c [cm/s]
1.000000000000000021e-03 5.060599999999999543e-01 2.740899999999997505e-03 9.733559999999999945e+01 1.529449999999999818e+03
2.000000000000000042e-03 5.060544999999999627e-01 2.132829999999999622e-03 9.731725000000000136e+01 1.529444999999999936e+03
3.000000000000000062e-03 5.060974999999999779e-01 9.135994999999999533e-02 9.740555000000000518e+01 1.529465000000000146e+03
4.000000000000000083e-03 5.061360000000000303e-01 1.765082000000000040e-01 9.751149999999999807e+01 1.529500000000000000e+03
5.000000000000000104e-03 5.061229999999999896e-01 1.582632499999999942e-01 9.748040000000000305e+01 1.529494999999999891e+03
6.000000000000000125e-03 5.060810000000000031e-01 7.428999999999999493e-02 9.731264999999999077e+01 1.529460000000000036e+03
7.000000000000000146e-03 5.060385000000000577e-01 -1.590500000000000247e-02 9.707314999999999827e+01 1.529404999999999973e+03
8.000000000000000167e-03 5.059749999999999526e-01 -1.577525000000000177e-01 9.672029999999999461e+01 1.529325000000000045e+03
9.000000000000001055e-03 5.058660000000000379e-01 -4.050850000000000284e-01 9.617395000000000493e+01 1.529190000000000055e+03
1.000000000000000194e-02 5.057059999999999889e-01 -7.667950000000000044e-01 9.538875000000000171e+01 1.529000000000000000e+03
1.099999999999999936e-02 5.054849999999999621e-01 -1.252660000000000107e+00 9.431895000000000095e+01 1.528744999999999891e+03
1.200000000000000025e-02 5.051935000000000731e-01 -1.868485000000000174e+00 9.292144999999999300e+01 1.528394999999999982e+03
1.300000000000000114e-02 5.048429999999999307e-01 -2.571524999999999839e+00 9.121240000000000236e+01 1.527950000000000045e+03
1.400000000000000203e-02 5.044684999999999864e-01 -3.259724999999999984e+00 8.929810000000000514e+01 1.527445000000000164e+03
1.499999999999999944e-02 5.041149999999999798e-01 -3.810049999999999493e+00 8.734325000000001182e+01 1.526914999999999964e+03
1.600000000000000033e-02 5.038145000000000540e-01 -4.128927000000000014e+00 8.550690000000000168e+01 1.526384999999999991e+03
1.700000000000000122e-02 5.035749999999999948e-01 -4.180969699999999456e+00 8.388935000000000741e+01 1.525889999999999873e+03
1.800000000000000211e-02 5.033845000000000125e-01 -3.989021000000000150e+00 8.251220000000000709e+01 1.525440000000000055e+03
1.900000000000000300e-02 5.032179999999999431e-01 -3.615115999999999996e+00 8.132795000000000130e+01 1.525034999999999854e+03
2.000000000000000042e-02 5.030485000000000095e-01 -3.134328000000000003e+00 8.024850000000000705e+01 1.524650000000000091e+03
2.100000000000000130e-02 5.028555000000000108e-01 -2.610634000000000121e+00 7.917949999999999022e+01 1.524269999999999982e+03
2.200000000000000219e-02 5.026300000000000212e-01 -2.081189999999999873e+00 7.805010000000000048e+01 1.523875000000000000e+03
2.299999999999999961e-02 5.023750000000000160e-01 -1.552955000000000085e+00 7.682959999999999923e+01 1.523470000000000027e+03
2.400000000000000050e-02 5.021010000000000195e-01 -1.011359999999999815e+00 7.552590000000000714e+01 1.523034999999999854e+03
2.500000000000000139e-02 5.018205000000000027e-01 -4.360699999999999577e-01 7.417015000000000668e+01 1.522595000000000027e+03
2.600000000000000228e-02 5.015420000000000433e-01 1.831899999999997419e-01 7.279495000000000005e+01 1.522144999999999982e+03
2.700000000000000316e-02 5.012645000000000017e-01 8.364349999999998175e-01 7.141560000000001196e+01 1.521690000000000055e+03
2.800000000000000058e-02 5.009804999999999398e-01 1.491130000000000067e+00 7.001959999999999695e+01 1.521224999999999909e+03
2.900000000000000147e-02 5.006764999999999688e-01 2.097234999999999960e+00 6.856620000000000914e+01 1.520750000000000000e+03
3.000000000000000236e-02 5.003355000000000441e-01 2.597195000000000142e+00 6.699535000000000196e+01 1.520250000000000000e+03
3.099999999999999978e-02 4.999434999999999851e-01 2.938149999999999373e+00 6.524224999999999852e+01 1.519699999999999818e+03
3.200000000000000067e-02 4.994914999999999772e-01 3.083355000000000068e+00 6.325489999999999924e+01 1.519095000000000027e+03
3.300000000000000155e-02 4.989805000000000490e-01 3.020345000000000280e+00 6.100934999999999775e+01 1.518424999999999955e+03
3.400000000000000244e-02 4.984190000000000009e-01 2.763665000000000038e+00 5.851935000000000286e+01 1.517700000000000045e+03
3.500000000000000333e-02 4.978245000000000031e-01 2.352500000000000036e+00 5.583854999999999791e+01 1.516920000000000073e+03
3.600000000000000422e-02 4.972210000000000241e-01 1.843135000000000190e+00 5.305429999999999779e+01 1.516110000000000127e+03
3.700000000000000511e-02 4.966329999999999911e-01 1.299675000000000580e+00 5.027599999999999625e+01 1.515295000000000073e+03
3.799999999999999906e-02 4.960844999999999838e-01 7.850049999999999528e-01 4.762104999999999677e+01 1.514500000000000000e+03
3.899999999999999994e-02 4.955959999999999810e-01 3.535149999999998016e-01 4.520154999999999745e+01 1.513760000000000218e+03
4.000000000000000083e-02 4.951834999999999987e-01 4.723999999999994870e-02 4.311339999999999861e+01 1.513095000000000027e+03
4.100000000000000172e-02 4.948575000000000057e-01 -1.052349999999999675e-01 4.143030000000000257e+01 1.512534999999999854e+03
4.200000000000000261e-02 4.946240000000000081e-01 -8.750500000000016598e-02 4.020125000000000171e+01 1.512095000000000027e+03
4.300000000000000350e-02 4.944839999999999791e-01 1.074899999999998634e-01 3.945194999999999652e+01 1.511785000000000082e+03
4.400000000000000439e-02 4.944379999999999886e-01 4.807209999999999539e-01 3.918859999999999388e+01 1.511615000000000009e+03
4.499999999999999833e-02 4.944824999999999360e-01 1.029954000000000036e+00 3.940285000000000082e+01 1.511579999999999927e+03
4.599999999999999922e-02 4.946144999999999570e-01 1.751661899999999994e+00 4.007654999999999745e+01 1.511679999999999836e+03
4.700000000000000011e-02 4.948299999999999921e-01 2.641769499999999660e+00 4.118560000000000088e+01 1.511904999999999973e+03
4.800000000000000100e-02 4.951234999999999387e-01 3.695244000000000195e+00 4.270204999999999984e+01 1.512259999999999991e+03
4.900000000000000189e-02 4.954910000000000148e-01 4.904992499999999644e+00 4.459494999999999720e+01 1.512735000000000127e+03
5.000000000000000278e-02 4.959255000000000191e-01 6.260688000000000031e+00 4.682994999999999663e+01 1.513309999999999945e+03
5.100000000000000366e-02 4.964195000000000135e-01 7.747520500000000254e+00 4.936884999999999479e+01 1.513985000000000127e+03
5.200000000000000455e-02 4.969639999999999613e-01 9.346219999999998862e+00 5.216890000000000072e+01 1.514750000000000000e+03
5.300000000000000544e-02 4.975500000000000478e-01 1.103317999999999977e+01 5.518314999999999770e+01 1.515579999999999927e+03
5.399999999999999939e-02 4.981659999999999977e-01 1.278161500000000039e+01 5.836140000000000327e+01 1.516480000000000018e+03
5.500000000000000028e-02 4.988020000000000231e-01 1.456307999999999936e+01 6.165184999999999604e+01 1.517420000000000073e+03
5.600000000000000117e-02 4.994474999999999887e-01 1.634926000000000101e+01 6.500354999999998995e+01 1.518385000000000218e+03
5.700000000000000205e-02 5.000940000000000385e-01 1.811380000000000123e+01 6.836899999999999977e+01 1.519380000000000109e+03
5.800000000000000294e-02 5.007329999999999837e-01 1.983344999999999914e+01 7.170605000000000473e+01 1.520375000000000000e+03
5.900000000000000383e-02 5.013594999999999580e-01 2.148934999999999818e+01 7.498024999999999807e+01 1.521365000000000009e+03
6.000000000000000472e-02 5.019685000000000397e-01 2.306770000000000209e+01 7.816624999999999091e+01 1.522335000000000036e+03
6.099999999999999867e-02 5.025589999999999780e-01 2.455935000000000201e+01 8.124770000000000891e+01 1.523289999999999964e+03
6.199999999999999956e-02 5.031295000000000073e-01 2.596014999999999873e+01 8.421784999999999854e+01 1.524220000000000027e+03
6.300000000000000044e-02 5.036819999999999631e-01 2.726980000000000004e+01 8.707810000000000628e+01 1.525125000000000000e+03
6.400000000000000133e-02 5.042179999999999440e-01 2.849164999999999992e+01 8.983719999999999573e+01 1.526005000000000109e+03
6.500000000000000222e-02 5.047409999999999952e-01 2.963139999999999930e+01 9.250935000000001196e+01 1.526855000000000018e+03
6.600000000000000311e-02 5.052544999999999398e-01 3.069655000000000200e+01 9.511169999999999902e+01 1.527695000000000164e+03
6.700000000000000400e-02 5.057625000000000037e-01 3.169549999999999912e+01 9.766474999999999795e+01 1.528514999999999873e+03
6.800000000000000488e-02 5.062679999999999403e-01 3.263665000000000305e+01 1.001868499999999926e+02 1.529329999999999927e+03
6.900000000000000577e-02 5.067734999999999879e-01 3.352790000000000248e+01 1.026969500000000011e+02 1.530139999999999873e+03
7.000000000000000666e-02 5.072830000000000394e-01 3.437614999999999554e+01 1.052088500000000124e+02 1.530945000000000164e+03
7.100000000000000755e-02 5.077964999999999840e-01 3.518630000000000280e+01 1.077340000000000089e+02 1.531755000000000109e+03
7.200000000000000844e-02 5.083149999999999613e-01 3.596150000000000091e+01 1.102769999999999868e+02 1.532565000000000055e+03
7.300000000000000933e-02 5.088380000000000125e-01 3.670265000000000555e+01 1.128370000000000033e+02 1.533384999999999991e+03
7.399999999999999634e-02 5.093630000000000102e-01 3.740829999999999700e+01 1.154099999999999966e+02 1.534204999999999927e+03
7.499999999999999722e-02 5.098880000000000079e-01 3.807500000000000284e+01 1.179830000000000041e+02 1.535025000000000091e+03
7.599999999999999811e-02 5.104094999999999605e-01 3.869729999999999848e+01 1.205395000000000039e+02 1.535840000000000146e+03
7.699999999999999900e-02 5.109224999999999461e-01 3.926859999999999928e+01 1.230610000000000070e+02 1.536650000000000091e+03
7.799999999999999989e-02 5.114229999999999610e-01 3.978109999999999502e+01 1.255254999999999939e+02 1.537445000000000164e+03
7.900000000000000078e-02 5.119065000000000420e-01 4.022684999999999889e+01 1.279074999999999989e+02 1.538220000000000027e+03
8.000000000000000167e-02 5.123685000000000045e-01 4.059785000000000110e+01 1.301839999999999975e+02 1.538964999999999918e+03
8.100000000000000255e-02 5.128040000000000376e-01 4.088689999999999714e+01 1.323329999999999984e+02 1.539670000000000073e+03
8.200000000000000344e-02 5.132094999999999851e-01 4.108769999999999811e+01 1.343324999999999818e+02 1.540340000000000146e+03
8.300000000000000433e-02 5.135819999999999830e-01 4.119549999999999557e+01 1.361670000000000016e+02 1.540960000000000036e+03
8.400000000000000522e-02 5.139190000000000147e-01 4.120704999999999529e+01 1.378220000000000027e+02 1.541529999999999973e+03
8.500000000000000611e-02 5.142195000000000515e-01 4.112099999999999511e+01 1.392884999999999991e+02 1.542045000000000073e+03
8.600000000000000699e-02 5.144815000000000360e-01 4.093795000000000073e+01 1.405625000000000000e+02 1.542505000000000109e+03
8.700000000000000788e-02 5.147059999999999969e-01 4.066039999999999566e+01 1.416430000000000007e+02 1.542904999999999973e+03
8.800000000000000877e-02 5.148945000000000327e-01 4.029274999999999807e+01 1.425344999999999800e+02 1.543244999999999891e+03
8.899999999999999578e-02 5.150479999999999503e-01 3.984104999999999563e+01 1.432439999999999998e+02 1.543530000000000200e+03
8.999999999999999667e-02 5.151684999999999182e-01 3.931289999999999907e+01 1.437849999999999966e+02 1.543759999999999991e+03
9.099999999999999756e-02 5.152594999999999814e-01 3.871729999999999450e+01 1.441714999999999804e+02 1.543940000000000055e+03
9.199999999999999845e-02 5.153244999999999632e-01 3.806430000000000291e+01 1.444199999999999875e+02 1.544074999999999818e+03
9.299999999999999933e-02 5.153669999999999085e-01 3.736455000000000126e+01 1.445495000000000232e+02 1.544170000000000073e+03
9.400000000000000022e-02 5.153900000000000148e-01 3.662915000000000276e+01 1.445799999999999841e+02 1.544230000000000018e+03
9.500000000000000111e-02 5.153985000000000927e-01 3.586925000000000097e+01 1.445314999999999941e+02 1.544259999999999991e+03
9.600000000000000200e-02 5.153950000000000475e-01 3.509564999999999912e+01 1.444234999999999900e+02 1.544259999999999991e+03
9.700000000000000289e-02 5.153834999999999944e-01 3.431839999999999691e+01 1.442740000000000009e+02 1.544250000000000000e+03
9.800000000000000377e-02 5.153674999999999784e-01 3.354645000000000010e+01 1.441000000000000227e+02 1.544224999999999909e+03
9.900000000000000466e-02 5.153484999999999872e-01 3.278770000000000095e+01 1.439155000000000086e+02 1.544190000000000055e+03
1.000000000000000056e-01 5.153300000000000658e-01 3.204814999999999969e+01 1.437319999999999993e+02 1.544150000000000091e+03
1.010000000000000064e-01 5.153114999999999224e-01 3.133234999999999815e+01 1.435579999999999927e+02 1.544105000000000018e+03
1.020000000000000073e-01 5.152955000000000174e-01 3.064284999999999926e+01 1.433990000000000009e+02 1.544065000000000055e+03
1.030000000000000082e-01 5.152814999999999479e-01 2.998069999999999879e+01 1.432560000000000002e+02 1.544019999999999982e+03
1.040000000000000091e-01 5.152685000000000182e-01 2.934499999999999886e+01 1.431285000000000025e+02 1.543985000000000127e+03
1.050000000000000100e-01 5.152560000000000473e-01 2.873349999999999937e+01 1.430120000000000005e+02 1.543944999999999936e+03
1.059999999999999970e-01 5.152434999999999654e-01 2.814274999999999949e+01 1.429010000000000105e+02 1.543910000000000082e+03
1.069999999999999979e-01 5.152280000000000193e-01 2.756804999999999950e+01 1.427864999999999895e+02 1.543869999999999891e+03
1.079999999999999988e-01 5.152090000000000281e-01 2.700424999999999898e+01 1.426595000000000084e+02 1.543829999999999927e+03
1.089999999999999997e-01 5.151829999999999465e-01 2.644574999999999676e+01 1.425099999999999909e+02 1.543779999999999973e+03
1.100000000000000006e-01 5.151499999999999968e-01 2.588680000000000092e+01 1.423269999999999982e+02 1.543724999999999909e+03
1.110000000000000014e-01 5.151059999999999528e-01 2.532209999999999894e+01 1.421020000000000039e+02 1.543659999999999854e+03
1.120000000000000023e-01 5.150520000000000653e-01 2.474670000000000059e+01 1.418255000000000052e+02 1.543575000000000045e+03
1.130000000000000032e-01 5.149844999999999562e-01 2.415644999999999953e+01 1.414909999999999854e+02 1.543480000000000018e+03
1.140000000000000041e-01 5.149040000000000283e-01 2.354814999999999969e+01 1.410930000000000177e+02 1.543365000000000009e+03
1.150000000000000050e-01 5.148105000000000597e-01 2.291985000000000028e+01 1.406295000000000073e+02 1.543224999999999909e+03
1.160000000000000059e-01 5.147030000000000216e-01 2.227060000000000173e+01 1.400989999999999895e+02 1.543074999999999818e+03
1.170000000000000068e-01 5.145824999999999427e-01 2.160094999999999743e+01 1.395029999999999859e+02 1.542904999999999973e+03
1.180000000000000077e-01 5.144499999999999629e-01 2.091250000000000142e+01 1.388469999999999800e+02 1.542714999999999918e+03
1.190000000000000085e-01 5.143074999999999175e-01 2.020824999999999960e+01 1.381370000000000005e+02 1.542505000000000109e+03
1.200000000000000094e-01 5.141569999999999752e-01 1.949230000000000018e+01 1.373810000000000002e+02 1.542279999999999973e+03
1.209999999999999964e-01 5.139989999999999837e-01 1.876964999999999861e+01 1.365894999999999868e+02 1.542049999999999955e+03
1.219999999999999973e-01 5.138380000000000170e-01 1.804625000000000057e+01 1.357750000000000057e+02 1.541804999999999836e+03
1.229999999999999982e-01 5.136755000000000626e-01 1.732849999999999824e+01 1.349495000000000005e+02 1.541549999999999955e+03
1.239999999999999991e-01 5.135140000000000260e-01 1.662324999999999875e+01 1.341265000000000214e+02 1.541299999999999955e+03
1.250000000000000000e-01 5.133560000000000345e-01 1.593745000000000189e+01 1.333199999999999932e+02 1.541049999999999955e+03
1.260000000000000009e-01 5.132050000000000223e-01 1.527779999999999916e+01 1.325424999999999898e+02 1.540809999999999945e+03
1.270000000000000018e-01 5.130624999999999769e-01 1.465080000000000027e+01 1.318060000000000116e+02 1.540579999999999927e+03
1.280000000000000027e-01 5.129304999999999559e-01 1.406215500000000063e+01 1.311214999999999975e+02 1.540360000000000127e+03
1.290000000000000036e-01 5.128114999999999757e-01 1.351670999999999978e+01 1.304975000000000023e+02 1.540154999999999973e+03
1.300000000000000044e-01 5.127059999999999951e-01 1.301844000000000001e+01 1.299424999999999955e+02 1.539965000000000146e+03
1.310000000000000053e-01 5.126144999999999730e-01 1.257009000000000043e+01 1.294610000000000127e+02 1.539799999999999955e+03
1.320000000000000062e-01 5.125385000000000080e-01 1.217317500000000052e+01 1.290554999999999950e+02 1.539654999999999973e+03
1.330000000000000071e-01 5.124770000000000714e-01 1.182805000000000106e+01 1.287264999999999873e+02 1.539529999999999973e+03
1.340000000000000080e-01 5.124305000000000110e-01 1.153377499999999856e+01 1.284724999999999966e+02 1.539434999999999945e+03
1.350000000000000089e-01 5.123965000000000325e-01 1.128842000000000034e+01 1.282905000000000086e+02 1.539355000000000018e+03
1.360000000000000098e-01 5.123750000000000249e-01 1.108896999999999977e+01 1.281730000000000018e+02 1.539289999999999964e+03
1.370000000000000107e-01 5.123645000000000005e-01 1.093156499999999909e+01 1.281140000000000043e+02 1.539255000000000109e+03
1.380000000000000115e-01 5.123630000000000129e-01 1.081174500000000016e+01 1.281045000000000016e+02 1.539230000000000018e+03
1.390000000000000124e-01 5.123689999999999634e-01 1.072458999999999918e+01 1.281365000000000123e+02 1.539214999999999918e+03
1.400000000000000133e-01 5.123805000000000165e-01 1.066485000000000127e+01 1.281999999999999886e+02 1.539215000000000146e+03
1.410000000000000142e-01 5.123955000000000037e-01 1.062726999999999933e+01 1.282860000000000014e+02 1.539224999999999909e+03
1.420000000000000151e-01 5.124124999999999375e-01 1.060675499999999971e+01 1.283859999999999957e+02 1.539244999999999891e+03
1.430000000000000160e-01 5.124299999999999411e-01 1.059837999999999880e+01 1.284909999999999854e+02 1.539264999999999873e+03
1.440000000000000169e-01 5.124474999999999447e-01 1.059763500000000036e+01 1.285945000000000107e+02 1.539285000000000082e+03
1.450000000000000178e-01 5.124630000000000019e-01 1.060066499999999934e+01 1.286904999999999859e+02 1.539305000000000064e+03
1.459999999999999909e-01 5.124750000000000139e-01 1.060406500000000030e+01 1.287740000000000009e+02 1.539325000000000045e+03
1.469999999999999918e-01 5.124849999999999683e-01 1.060505500000000012e+01 1.288420000000000130e+02 1.539340000000000146e+03
1.479999999999999927e-01 5.124914999999999887e-01 1.060147999999999868e+01 1.288915000000000077e+02 1.539355000000000018e+03
1.489999999999999936e-01 5.124935000000000462e-01 1.059198500000000109e+01 1.289225000000000136e+02 1.539360000000000127e+03
1.499999999999999944e-01 5.124930000000000874e-01 1.057563000000000031e+01 1.289345000000000141e+02 1.539365000000000009e+03
1.509999999999999953e-01 5.124895000000000422e-01 1.055215000000000103e+01 1.289295000000000186e+02 1.539365000000000009e+03
1.519999999999999962e-01 5.124830000000000219e-01 1.052172499999999999e+01 1.289085000000000036e+02 1.539359999999999900e+03
1.529999999999999971e-01 5.124739999999999851e-01 1.048492999999999853e+01 1.288754999999999882e+02 1.539355000000000018e+03
1.539999999999999980e-01 5.124640000000000306e-01 1.044275500000000001e+01 1.288325000000000102e+02 1.539340000000000146e+03
1.549999999999999989e-01 5.124530000000000474e-01 1.039643500000000031e+01 1.287839999999999918e+02 1.539329999999999927e+03
1.559999999999999998e-01 5.124425000000000230e-01 1.034731999999999985e+01 1.287319999999999993e+02 1.539315000000000055e+03
1.570000000000000007e-01 5.124315000000000397e-01 1.029681000000000068e+01 1.286809999999999832e+02 1.539305000000000064e+03
1.580000000000000016e-01 5.124225000000000030e-01 1.024641499999999894e+01 1.286335000000000264e+02 1.539289999999999964e+03
1.590000000000000024e-01 5.124144999999999950e-01 1.019748500000000035e+01 1.285919999999999845e+02 1.539280000000000200e+03
