# t [s], A [cm^2], U [cm/s], P [cPa], c [cm/s]
1.000000000000000021e-03 6.906750000000000389e-01 5.729350000000001109e-03 1.071390000000000100e+02 1.661605000000000018e+03
2.000000000000000042e-03 6.906654999999999323e-01 1.018694999999999583e-03 1.071105000000000018e+02 1.661599999999999909e+03
3.000000000000000062e-03 6.907330000000000414e-01 1.144086500000000006e-01 1.072385000000000019e+02 1.661625000000000000e+03
4.000000000000000083e-03 6.907790000000000319e-01 2.047107999999999983e-01 1.073524999999999920e+02 1.661655000000000200e+03
5.000000000000000104e-03 6.907345000000000290e-01 1.536098499999999922e-01 1.072454999999999927e+02 1.661630000000000109e+03
6.000000000000000125e-03 6.906579999999999941e-01 4.375050000000002548e-02 1.069765000000000015e+02 1.661579999999999927e+03
7.000000000000000146e-03 6.905850000000000044e-01 -6.926000000000004375e-02 1.066314999999999884e+02 1.661500000000000000e+03
8.000000000000000167e-03 6.904589999999999339e-01 -2.871299999999999963e-01 1.060949999999999989e+02 1.661390000000000100e+03
9.000000000000001055e-03 6.902580000000000382e-01 -6.493399999999999173e-01 1.052779999999999916e+02 1.661210000000000036e+03
1.000000000000000194e-02 6.899754999999999638e-01 -1.157445000000000057e+00 1.041320000000000050e+02 1.660964999999999918e+03
1.099999999999999936e-02 6.895875000000000199e-01 -1.836605000000000265e+00 1.025750500000000045e+02 1.660625000000000000e+03
1.200000000000000025e-02 6.890935000000000255e-01 -2.663135000000000030e+00 1.005811999999999955e+02 1.660179999999999836e+03
1.300000000000000114e-02 6.885529999999999706e-01 -3.506104999999999805e+00 9.827955000000000041e+01 1.659650000000000091e+03
1.400000000000000203e-02 6.880524999999999558e-01 -4.177623999999999782e+00 9.592699999999999250e+01 1.659090000000000146e+03
1.499999999999999944e-02 6.876545000000000574e-01 -4.531164799999999993e+00 9.377445000000000164e+01 1.658545000000000073e+03
1.600000000000000033e-02 6.873685000000000489e-01 -4.520157999999999454e+00 9.196225000000001160e+01 1.658059999999999945e+03
1.700000000000000122e-02 6.871585000000000054e-01 -4.195960000000000356e+00 9.048494999999999777e+01 1.657634999999999991e+03
1.800000000000000211e-02 6.869669999999999943e-01 -3.668318999999999885e+00 8.922280000000000655e+01 1.657250000000000000e+03
1.900000000000000300e-02 6.867395000000000582e-01 -3.055096499999999882e+00 8.800679999999999836e+01 1.656875000000000000e+03
2.000000000000000042e-02 6.864440000000000541e-01 -2.439638500000000043e+00 8.668989999999999441e+01 1.656485000000000127e+03
2.100000000000000130e-02 6.860794999999999533e-01 -1.848929999999999962e+00 8.519774999999999920e+01 1.656059999999999945e+03
2.200000000000000219e-02 6.856700000000000017e-01 -1.259064999999999879e+00 8.354259999999999309e+01 1.655599999999999909e+03
2.299999999999999961e-02 6.852495000000000669e-01 -6.230050000000000310e-01 8.179734999999999445e+01 1.655115000000000009e+03
2.400000000000000050e-02 6.848434999999999384e-01 9.482999999999996987e-02 8.004750000000001364e+01 1.654634999999999991e+03
2.500000000000000139e-02 6.844589999999999286e-01 8.931949999999999612e-01 7.834524999999999295e+01 1.654150000000000091e+03
2.600000000000000228e-02 6.840809999999999391e-01 1.725505000000000067e+00 7.668184999999999718e+01 1.653674999999999955e+03
2.700000000000000316e-02 6.836769999999999792e-01 2.507920000000000371e+00 7.498439999999999372e+01 1.653195000000000164e+03
2.800000000000000058e-02 6.832095000000000251e-01 3.139084999999999681e+00 7.313464999999999350e+01 1.652684999999999945e+03
2.900000000000000147e-02 6.826444999999999874e-01 3.525344999999999729e+00 7.100284999999999513e+01 1.652115000000000009e+03
3.000000000000000236e-02 6.819625000000000270e-01 3.604944999999999844e+00 6.848709999999999809e+01 1.651465000000000146e+03
3.099999999999999978e-02 6.811674999999999258e-01 3.364430000000000032e+00 6.554784999999999684e+01 1.650730000000000018e+03
3.200000000000000067e-02 6.802859999999999463e-01 2.842359999999999776e+00 6.222565000000000168e+01 1.649904999999999973e+03
3.300000000000000155e-02 6.793609999999999927e-01 2.119240000000000457e+00 5.863884999999999792e+01 1.649019999999999982e+03
3.400000000000000244e-02 6.784440000000000470e-01 1.298804999999999765e+00 5.496144999999999925e+01 1.648105000000000018e+03
3.500000000000000333e-02 6.775864999999999805e-01 4.870400000000003615e-01 5.139204999999999757e+01 1.647195000000000164e+03
3.600000000000000422e-02 6.768300000000000427e-01 -2.246199999999998198e-01 4.812255000000000393e+01 1.646344999999999800e+03
3.700000000000000511e-02 6.762029999999999985e-01 -7.688799999999997858e-01 4.531345000000000312e+01 1.645594999999999800e+03
3.799999999999999906e-02 6.757235000000000325e-01 -1.104864999999999764e+00 4.308010000000000161e+01 1.644970000000000027e+03
3.899999999999999994e-02 6.753964999999999552e-01 -1.214830000000000076e+00 4.148874999999999602e+01 1.644494999999999891e+03
4.000000000000000083e-02 6.752190000000000136e-01 -1.097334999999999949e+00 4.056204999999999927e+01 1.644170000000000073e+03
4.100000000000000172e-02 6.751844999999999652e-01 -7.595700000000000784e-01 4.028884999999999650e+01 1.644005000000000109e+03
4.200000000000000261e-02 6.752839999999999954e-01 -2.106975000000000375e-01 4.063774999999999693e+01 1.644009999999999991e+03
4.300000000000000350e-02 6.755100000000000549e-01 5.421100000000000918e-01 4.156770000000000209e+01 1.644154999999999973e+03
4.400000000000000439e-02 6.758545000000000247e-01 1.494394999999999918e+00 4.303549999999999898e+01 1.644444999999999936e+03
4.499999999999999833e-02 6.763095000000000079e-01 2.642405000000000115e+00 4.499894999999999357e+01 1.644865000000000009e+03
4.599999999999999922e-02 6.768684999999999841e-01 3.979580000000000339e+00 4.741509999999999536e+01 1.645404999999999973e+03
4.700000000000000011e-02 6.775204999999999700e-01 5.493030000000000079e+00 5.023720000000000141e+01 1.646065000000000055e+03
4.800000000000000100e-02 6.782515000000000072e-01 7.161242500000000177e+00 5.341114999999999924e+01 1.646815000000000055e+03
4.900000000000000189e-02 6.790460000000000385e-01 8.953842999999999108e+00 5.687384999999999735e+01 1.647644999999999982e+03
5.000000000000000278e-02 6.798865000000000602e-01 1.083312000000000097e+01 6.055344999999999800e+01 1.648539999999999964e+03
5.100000000000000366e-02 6.807520000000000238e-01 1.275692000000000093e+01 6.437265000000000725e+01 1.649485000000000127e+03
5.200000000000000455e-02 6.816245000000000775e-01 1.468234999999999957e+01 6.825300000000000011e+01 1.650465000000000146e+03
5.300000000000000544e-02 6.824870000000000658e-01 1.656944999999999979e+01 7.212045000000000528e+01 1.651450000000000045e+03
5.399999999999999939e-02 6.833270000000000177e-01 1.838410000000000011e+01 7.591039999999999566e+01 1.652430000000000064e+03
5.500000000000000028e-02 6.841334999999999500e-01 2.009994999999999976e+01 7.957194999999998686e+01 1.653385000000000218e+03
5.600000000000000117e-02 6.849020000000000108e-01 2.169920000000000115e+01 8.306995000000000573e+01 1.654320000000000164e+03
5.700000000000000205e-02 6.856310000000001015e-01 2.317264999999999731e+01 8.638604999999999734e+01 1.655210000000000036e+03
5.800000000000000294e-02 6.863205000000000000e-01 2.451845000000000141e+01 8.951769999999999072e+01 1.656059999999999945e+03
5.900000000000000383e-02 6.869764999999999899e-01 2.574099999999999966e+01 9.247565000000000168e+01 1.656875000000000000e+03
6.000000000000000472e-02 6.876039999999999930e-01 2.684929999999999950e+01 9.528204999999999814e+01 1.657650000000000091e+03
6.099999999999999867e-02 6.882105000000000583e-01 2.785560000000000258e+01 9.796490000000000009e+01 1.658400000000000091e+03
6.199999999999999956e-02 6.888030000000000541e-01 2.877400000000000091e+01 1.005582500000000010e+02 1.659125000000000000e+03
6.300000000000000044e-02 6.893894999999999884e-01 2.961914999999999765e+01 1.030956000000000046e+02 1.659825000000000045e+03
6.400000000000000133e-02 6.899760000000000337e-01 3.040514999999999901e+01 1.056094999999999970e+02 1.660525000000000091e+03
6.500000000000000222e-02 6.905689999999999884e-01 3.114459999999999695e+01 1.081269999999999953e+02 1.661220000000000027e+03
6.600000000000000311e-02 6.911704999999999099e-01 3.184734999999999872e+01 1.106690000000000111e+02 1.661914999999999964e+03
6.700000000000000400e-02 6.917834999999999956e-01 3.251995000000000147e+01 1.132475000000000023e+02 1.662619999999999891e+03
6.800000000000000488e-02 6.924049999999999372e-01 3.316495000000000459e+01 1.158640000000000043e+02 1.663335000000000036e+03
6.900000000000000577e-02 6.930344999999999978e-01 3.378090000000000259e+01 1.185109999999999957e+02 1.664054999999999836e+03
7.000000000000000666e-02 6.936655000000000459e-01 3.436254999999999882e+01 1.211705000000000041e+02 1.664775000000000091e+03
7.100000000000000755e-02 6.942909999999999915e-01 3.490144999999999698e+01 1.238169999999999931e+02 1.665490000000000009e+03
7.200000000000000844e-02 6.949035000000000073e-01 3.538675000000000637e+01 1.264180000000000064e+02 1.666204999999999927e+03
7.300000000000000933e-02 6.954945000000000155e-01 3.580639999999999645e+01 1.289384999999999764e+02 1.666894999999999982e+03
7.399999999999999634e-02 6.960545000000000204e-01 3.614815000000000111e+01 1.313410000000000082e+02 1.667565000000000055e+03
7.499999999999999722e-02 6.965775000000000716e-01 3.640039999999999765e+01 1.335905000000000200e+02 1.668190000000000055e+03
7.599999999999999811e-02 6.970560000000000089e-01 3.655334999999999468e+01 1.356539999999999964e+02 1.668775000000000091e+03
7.699999999999999900e-02 6.974839999999999929e-01 3.659919999999999618e+01 1.375060000000000002e+02 1.669309999999999945e+03
7.799999999999999989e-02 6.978575000000000195e-01 3.653300000000000125e+01 1.391260000000000048e+02 1.669779999999999973e+03
7.900000000000000078e-02 6.981745000000000312e-01 3.635264999999999702e+01 1.405000000000000000e+02 1.670194999999999936e+03
8.000000000000000167e-02 6.984345000000000692e-01 3.605930000000000035e+01 1.416245000000000118e+02 1.670545000000000073e+03
8.100000000000000255e-02 6.986390000000000100e-01 3.565690000000000026e+01 1.424995000000000118e+02 1.670829999999999927e+03
8.200000000000000344e-02 6.987894999999999524e-01 3.515230000000000388e+01 1.431359999999999957e+02 1.671050000000000182e+03
8.300000000000000433e-02 6.988914999999999988e-01 3.455505000000000138e+01 1.435490000000000066e+02 1.671214999999999918e+03
8.400000000000000522e-02 6.989484999999999726e-01 3.387695000000000078e+01 1.437595000000000027e+02 1.671320000000000164e+03
8.500000000000000611e-02 6.989674999999999638e-01 3.313134999999999764e+01 1.437934999999999945e+02 1.671375000000000000e+03
8.600000000000000699e-02 6.989540000000000752e-01 3.233324999999999960e+01 1.436785000000000139e+02 1.671389999999999873e+03
8.700000000000000788e-02 6.989159999999999817e-01 3.149799999999999756e+01 1.434449999999999932e+02 1.671360000000000127e+03
8.800000000000000877e-02 6.988594999999999668e-01 3.064130000000000109e+01 1.431235000000000070e+02 1.671309999999999945e+03
8.899999999999999578e-02 6.987915000000000099e-01 2.977810000000000201e+01 1.427445000000000164e+02 1.671240000000000009e+03
8.999999999999999667e-02 6.987174999999999914e-01 2.892220000000000013e+01 1.423349999999999795e+02 1.671154999999999973e+03
9.099999999999999756e-02 6.986429999999999030e-01 2.808569999999999922e+01 1.419189999999999827e+02 1.671054999999999836e+03
9.199999999999999845e-02 6.985725000000000406e-01 2.727830000000000155e+01 1.415180000000000007e+02 1.670960000000000036e+03
9.299999999999999933e-02 6.985069999999999890e-01 2.650715000000000288e+01 1.411454999999999984e+02 1.670865000000000009e+03
9.400000000000000022e-02 6.984500000000000153e-01 2.577669999999999817e+01 1.408115000000000236e+02 1.670779999999999973e+03
9.500000000000000111e-02 6.984019999999999673e-01 2.508830000000000027e+01 1.405204999999999984e+02 1.670699999999999818e+03
9.600000000000000200e-02 6.983604999999999396e-01 2.444089999999999918e+01 1.402710000000000150e+02 1.670630000000000109e+03
9.700000000000000289e-02 6.983249999999999735e-01 2.383064999999999856e+01 1.400559999999999832e+02 1.670565000000000055e+03
9.800000000000000377e-02 6.982924999999999827e-01 2.325189999999999912e+01 1.398659999999999854e+02 1.670505000000000109e+03
9.900000000000000466e-02 6.982595000000000329e-01 2.269735000000000014e+01 1.396864999999999952e+02 1.670450000000000045e+03
1.000000000000000056e-01 6.982224999999999682e-01 2.215850000000000009e+01 1.395020000000000095e+02 1.670394999999999982e+03
1.010000000000000064e-01 6.981774999999998954e-01 2.162630000000000052e+01 1.392964999999999804e+02 1.670340000000000146e+03
1.020000000000000073e-01 6.981209999999999916e-01 2.109194999999999709e+01 1.390504999999999995e+02 1.670264999999999873e+03
1.030000000000000082e-01 6.980490000000000306e-01 2.054670000000000130e+01 1.387509999999999764e+02 1.670190000000000055e+03
1.040000000000000091e-01 6.979595000000000660e-01 1.998324999999999818e+01 1.383820000000000050e+02 1.670095000000000027e+03
1.050000000000000100e-01 6.978500000000000814e-01 1.939529999999999887e+01 1.379329999999999927e+02 1.669980000000000018e+03
1.059999999999999970e-01 6.977189999999999781e-01 1.877850000000000108e+01 1.373960000000000150e+02 1.669845000000000027e+03
1.069999999999999979e-01 6.975670000000000481e-01 1.813044999999999973e+01 1.367674999999999841e+02 1.669690000000000055e+03
1.079999999999999988e-01 6.973934999999999995e-01 1.745094999999999885e+01 1.360490000000000066e+02 1.669505000000000109e+03
1.089999999999999997e-01 6.972005000000000008e-01 1.674210000000000065e+01 1.352445000000000164e+02 1.669304999999999836e+03
1.100000000000000006e-01 6.969914999999999861e-01 1.600795000000000101e+01 1.343634999999999877e+02 1.669079999999999927e+03
1.110000000000000014e-01 6.967689999999999717e-01 1.525479999999999947e+01 1.334194999999999993e+02 1.668845000000000027e+03
1.120000000000000023e-01 6.965369999999999617e-01 1.449061500000000002e+01 1.324290000000000020e+02 1.668595000000000027e+03
1.130000000000000032e-01 6.963015000000000176e-01 1.372477999999999909e+01 1.314120000000000061e+02 1.668335000000000036e+03
1.140000000000000041e-01 6.960665000000000324e-01 1.296755500000000083e+01 1.303880000000000052e+02 1.668065000000000055e+03
1.150000000000000050e-01 6.958370000000000388e-01 1.222967999999999833e+01 1.293804999999999836e+02 1.667800000000000182e+03
1.160000000000000059e-01 6.956180000000000696e-01 1.152192999999999934e+01 1.284110000000000014e+02 1.667545000000000073e+03
1.170000000000000068e-01 6.954145000000000465e-01 1.085453500000000027e+01 1.274989999999999952e+02 1.667299999999999955e+03
1.180000000000000077e-01 6.952304999999999735e-01 1.023674499999999910e+01 1.266640000000000015e+02 1.667065000000000055e+03
1.190000000000000085e-01 6.950684999999999780e-01 9.676244999999999763e+00 1.259219999999999970e+02 1.666860000000000127e+03
1.200000000000000094e-01 6.949315000000000353e-01 9.179209999999999425e+00 1.252839999999999918e+02 1.666674999999999955e+03
1.209999999999999964e-01 6.948209999999999109e-01 8.749614999999998588e+00 1.247590000000000003e+02 1.666519999999999982e+03
1.219999999999999973e-01 6.947369999999999379e-01 8.389509999999999579e+00 1.243509999999999991e+02 1.666394999999999982e+03
1.229999999999999982e-01 6.946790000000000465e-01 8.098734999999999573e+00 1.240584999999999951e+02 1.666295000000000073e+03
1.239999999999999991e-01 6.946460000000000967e-01 7.875090000000000146e+00 1.238774999999999977e+02 1.666220000000000027e+03
1.250000000000000000e-01 6.946350000000000025e-01 7.714579999999999771e+00 1.237999999999999972e+02 1.666174999999999955e+03
1.260000000000000009e-01 6.946440000000000392e-01 7.611629999999999896e+00 1.238145000000000095e+02 1.666159999999999854e+03
1.270000000000000018e-01 6.946689999999999809e-01 7.559424999999999173e+00 1.239080000000000013e+02 1.666164999999999964e+03
1.280000000000000027e-01 6.947075000000000333e-01 7.550254999999999939e+00 1.240649999999999977e+02 1.666184999999999945e+03
1.290000000000000036e-01 6.947544999999999416e-01 7.575904999999999667e+00 1.242690000000000055e+02 1.666219999999999800e+03
1.300000000000000044e-01 6.948075000000000223e-01 7.628004999999999924e+00 1.245054999999999978e+02 1.666264999999999873e+03
1.310000000000000053e-01 6.948630000000000084e-01 7.698335000000000150e+00 1.247579999999999956e+02 1.666319999999999936e+03
1.320000000000000062e-01 6.949174999999999658e-01 7.779155000000000264e+00 1.250130000000000052e+02 1.666375000000000000e+03
1.330000000000000071e-01 6.949689999999999479e-01 7.863375000000000448e+00 1.252574999999999932e+02 1.666434999999999945e+03
1.340000000000000080e-01 6.950144999999999795e-01 7.944815000000000182e+00 1.254825000000000017e+02 1.666485000000000127e+03
1.350000000000000089e-01 6.950540000000000607e-01 8.018274999999999153e+00 1.256784999999999997e+02 1.666534999999999854e+03
1.360000000000000098e-01 6.950844999999999940e-01 8.079634999999999678e+00 1.258409999999999940e+02 1.666579999999999927e+03
1.370000000000000107e-01 6.951069999999999194e-01 8.125875000000000625e+00 1.259660000000000082e+02 1.666615000000000009e+03
1.380000000000000115e-01 6.951205000000000300e-01 8.155079999999999885e+00 1.260519999999999925e+02 1.666634999999999991e+03
1.390000000000000124e-01 6.951264999999999805e-01 8.166370000000000573e+00 1.261004999999999967e+02 1.666654999999999973e+03
1.400000000000000133e-01 6.951244999999999230e-01 8.159839999999999094e+00 1.261135000000000019e+02 1.666660000000000082e+03
1.410000000000000142e-01 6.951160000000000672e-01 8.136440000000000339e+00 1.260949999999999989e+02 1.666660000000000082e+03
1.420000000000000151e-01 6.951024999999999565e-01 8.097879999999999967e+00 1.260494999999999948e+02 1.666654999999999973e+03
1.430000000000000160e-01 6.950849999999999529e-01 8.046419999999999462e+00 1.259834999999999923e+02 1.666644999999999982e+03
1.440000000000000169e-01 6.950650000000000439e-01 7.984804999999999708e+00 1.259025000000000034e+02 1.666630000000000109e+03
1.450000000000000178e-01 6.950439999999999952e-01 7.916014999999999802e+00 1.258139999999999930e+02 1.666610000000000127e+03
1.459999999999999909e-01 6.950229999999999464e-01 7.843164999999999054e+00 1.257224999999999966e+02 1.666590000000000146e+03
1.469999999999999918e-01 6.950045000000000250e-01 7.769284999999999997e+00 1.256359999999999957e+02 1.666569999999999936e+03
1.479999999999999927e-01 6.949885000000000090e-01 7.697225000000000428e+00 1.255575000000000045e+02 1.666549999999999955e+03
1.489999999999999936e-01 6.949754999999999683e-01 7.629465000000000607e+00 1.254920000000000044e+02 1.666534999999999854e+03
1.499999999999999944e-01 6.949665000000000425e-01 7.568060000000000009e+00 1.254424999999999955e+02 1.666525000000000091e+03
1.509999999999999953e-01 6.949620000000000797e-01 7.514514999999999390e+00 1.254110000000000014e+02 1.666514999999999873e+03
1.519999999999999962e-01 6.949620000000000797e-01 7.469775000000000276e+00 1.253975000000000080e+02 1.666510000000000218e+03
1.529999999999999971e-01 6.949655000000000138e-01 7.434189999999999188e+00 1.254020000000000010e+02 1.666509999999999991e+03
1.539999999999999980e-01 6.949734999999999108e-01 7.407555000000000334e+00 1.254224999999999994e+02 1.666509999999999991e+03
1.549999999999999989e-01 6.949834999999999763e-01 7.389200000000000657e+00 1.254560000000000031e+02 1.666519999999999982e+03
1.559999999999999998e-01 6.949954999999999883e-01 7.378025000000000055e+00 1.255000000000000000e+02 1.666525000000000091e+03
1.570000000000000007e-01 6.950084999999999180e-01 7.372659999999999769e+00 1.255504999999999995e+02 1.666539999999999964e+03
1.580000000000000016e-01 6.950220000000000287e-01 7.371549999999999159e+00 1.256024999999999920e+02 1.666554999999999836e+03
1.590000000000000024e-01 6.950340000000000407e-01 7.373109999999999609e+00 1.256529999999999916e+02 1.666565000000000055e+03
