# t [s], A [cm^2], U [cm/s], P [cPa], c [cm/s]
1.000000000000000021e-03 4.790039999999999853e-01 2.744999999999997442e-03 9.262014999999999532e+01 1.542960000000000036e+03
2.000000000000000042e-03 4.789984999999999937e-01 3.076635000000000307e-03 9.259934999999998695e+01 1.542954999999999927e+03
3.000000000000000062e-03 4.790455000000000130e-01 1.101474500000000079e-01 9.270539999999999736e+01 1.542990000000000009e+03
4.000000000000000083e-03 4.790799999999999503e-01 1.970400999999999958e-01 9.281010000000000559e+01 1.543019999999999982e+03
5.000000000000000104e-03 4.790570000000000661e-01 1.593034500000000131e-01 9.274134999999999707e+01 1.543009999999999991e+03
6.000000000000000125e-03 4.790070000000000161e-01 5.502500000000004610e-02 9.252070000000000505e+01 1.542950000000000045e+03
7.000000000000000146e-03 4.789565000000000072e-01 -5.914649999999999075e-02 9.221715000000000373e+01 1.542869999999999891e+03
8.000000000000000167e-03 4.788744999999999807e-01 -2.547349999999999337e-01 9.175704999999999245e+01 1.542750000000000000e+03
9.000000000000001055e-03 4.787405000000000133e-01 -5.785200000000000342e-01 9.105684999999999718e+01 1.542565000000000055e+03
1.000000000000000194e-02 4.785534999999999650e-01 -1.028830000000000133e+00 9.007835000000000036e+01 1.542295000000000073e+03
1.099999999999999936e-02 4.782999999999999474e-01 -1.620405000000000095e+00 8.876800000000000068e+01 1.541934999999999945e+03
1.200000000000000025e-02 4.779709999999999792e-01 -2.356334999999999624e+00 8.708180000000000121e+01 1.541454999999999927e+03
1.300000000000000114e-02 4.775869999999999838e-01 -3.165859999999999896e+00 8.506905000000000427e+01 1.540875000000000000e+03
1.400000000000000203e-02 4.771989999999999843e-01 -3.904859999999999776e+00 8.289905000000000257e+01 1.540224999999999909e+03
1.499999999999999944e-02 4.768584999999999630e-01 -4.420475999999999850e+00 8.079710000000000036e+01 1.539569999999999936e+03
1.600000000000000033e-02 4.765955000000000608e-01 -4.617966000000000015e+00 7.895029999999999859e+01 1.538954999999999927e+03
1.700000000000000122e-02 4.764085000000000125e-01 -4.488247499999999945e+00 7.744460000000000832e+01 1.538414999999999964e+03
1.800000000000000211e-02 4.762709999999999999e-01 -4.095934999999999881e+00 7.625289999999999679e+01 1.537950000000000045e+03
1.900000000000000300e-02 4.761454999999999993e-01 -3.545390000000000263e+00 7.526359999999999673e+01 1.537539999999999964e+03
2.000000000000000042e-02 4.759979999999999767e-01 -2.941324500000000342e+00 7.432980000000000587e+01 1.537150000000000091e+03
2.100000000000000130e-02 4.758080000000000087e-01 -2.356664499999999940e+00 7.332229999999999848e+01 1.536744999999999891e+03
2.200000000000000219e-02 4.755719999999999947e-01 -1.816910000000000025e+00 7.216759999999999309e+01 1.536315000000000055e+03
2.299999999999999961e-02 4.753034999999999899e-01 -1.305154999999999843e+00 7.085925000000000296e+01 1.535840000000000146e+03
2.400000000000000050e-02 4.750205000000000122e-01 -7.831499999999997907e-01 6.944194999999999141e+01 1.535335000000000036e+03
2.500000000000000139e-02 4.747385000000000077e-01 -2.174949999999999939e-01 6.797854999999999848e+01 1.534815000000000055e+03
2.600000000000000228e-02 4.744654999999999845e-01 4.000849999999998019e-01 6.651675000000000182e+01 1.534295000000000073e+03
2.700000000000000316e-02 4.741960000000000064e-01 1.044145000000000323e+00 6.506614999999999327e+01 1.533764999999999873e+03
2.800000000000000058e-02 4.739154999999999895e-01 1.658815000000000150e+00 6.359125000000000227e+01 1.533230000000000018e+03
2.900000000000000147e-02 4.736035000000000106e-01 2.170140000000000402e+00 6.201900000000000546e+01 1.532664999999999964e+03
3.000000000000000236e-02 4.732385000000000064e-01 2.503205000000000346e+00 6.025820000000000221e+01 1.532055000000000064e+03
3.099999999999999978e-02 4.728060000000000596e-01 2.599895000000000067e+00 5.822469999999999857e+01 1.531375000000000000e+03
3.200000000000000067e-02 4.723015000000000407e-01 2.433005000000000528e+00 5.586645000000000039e+01 1.530605000000000018e+03
3.300000000000000155e-02 4.717320000000000402e-01 2.013294999999999835e+00 5.318200000000000216e+01 1.529744999999999891e+03
3.400000000000000244e-02 4.711175000000000224e-01 1.388150000000000439e+00 5.022714999999999463e+01 1.528809999999999945e+03
3.500000000000000333e-02 4.704855000000000009e-01 6.321150000000006486e-01 4.710940000000000083e+01 1.527815000000000055e+03
3.600000000000000422e-02 4.698670000000000346e-01 -1.662550000000004857e-01 4.397225000000000250e+01 1.526809999999999945e+03
3.700000000000000511e-02 4.692939999999999889e-01 -9.186449999999997118e-01 4.097454999999999359e+01 1.525829999999999927e+03
3.799999999999999906e-02 4.687925000000000009e-01 -1.547835000000000072e+00 3.827004999999999768e+01 1.524914999999999964e+03
3.899999999999999994e-02 4.683829999999999938e-01 -1.994840000000000391e+00 3.599060000000000059e+01 1.524119999999999891e+03
4.000000000000000083e-02 4.680779999999999941e-01 -2.221000000000000085e+00 3.423564999999999969e+01 1.523465000000000146e+03
4.100000000000000172e-02 4.678840000000000221e-01 -2.206570000000000142e+00 3.306784999999999997e+01 1.522980000000000018e+03
4.200000000000000261e-02 4.678019999999999956e-01 -1.946792499999999926e+00 3.251465000000000316e+01 1.522684999999999945e+03
4.300000000000000350e-02 4.678280000000000216e-01 -1.446830000000000060e+00 3.257375000000000398e+01 1.522574999999999818e+03
4.400000000000000439e-02 4.679569999999999563e-01 -7.170699999999999852e-01 3.322124999999999773e+01 1.522655000000000200e+03
4.499999999999999833e-02 4.681819999999999871e-01 2.302900000000001057e-01 3.441929999999999978e+01 1.522920000000000073e+03
4.599999999999999922e-02 4.684960000000000235e-01 1.382765000000000244e+00 3.612310000000000088e+01 1.523349999999999909e+03
4.700000000000000011e-02 4.688904999999999879e-01 2.727430000000000021e+00 3.828419999999999845e+01 1.523945000000000164e+03
4.800000000000000100e-02 4.693585000000000118e-01 4.249469999999999636e+00 4.085259999999999536e+01 1.524680000000000064e+03
4.900000000000000189e-02 4.698904999999999887e-01 5.930600000000000094e+00 4.377629999999999910e+01 1.525539999999999964e+03
5.000000000000000278e-02 4.704760000000000053e-01 7.747419999999999973e+00 4.700019999999999953e+01 1.526515000000000100e+03
5.100000000000000366e-02 4.711049999999999960e-01 9.671397999999999939e+00 5.046555000000000035e+01 1.527574999999999818e+03
5.200000000000000455e-02 4.717649999999999899e-01 1.166943000000000019e+01 5.411019999999999897e+01 1.528715000000000146e+03
5.300000000000000544e-02 4.724430000000000573e-01 1.370545499999999883e+01 5.787005000000000621e+01 1.529904999999999973e+03
5.399999999999999939e-02 4.731279999999999930e-01 1.574279499999999921e+01 6.168144999999999811e+01 1.531134999999999991e+03
5.500000000000000028e-02 4.738084999999999658e-01 1.774686499999999967e+01 6.548470000000000368e+01 1.532380000000000109e+03
5.600000000000000117e-02 4.744764999999999677e-01 1.968700000000000117e+01 6.922709999999999297e+01 1.533615000000000009e+03
5.700000000000000205e-02 4.751239999999999908e-01 2.153860000000000241e+01 7.286584999999999468e+01 1.534840000000000146e+03
5.800000000000000294e-02 4.757465000000000166e-01 2.328385000000000105e+01 7.637024999999999864e+01 1.536034999999999854e+03
5.900000000000000383e-02 4.763425000000000020e-01 2.491209999999999880e+01 7.972270000000000323e+01 1.537195000000000164e+03
6.000000000000000472e-02 4.769130000000000313e-01 2.641955000000000098e+01 8.291825000000000045e+01 1.538309999999999945e+03
6.099999999999999867e-02 4.774590000000000223e-01 2.780829999999999913e+01 8.596365000000000123e+01 1.539384999999999991e+03
6.199999999999999956e-02 4.779855000000000076e-01 2.908539999999999992e+01 8.887569999999999482e+01 1.540425000000000182e+03
6.300000000000000044e-02 4.784960000000000324e-01 3.026160000000000139e+01 9.167844999999999800e+01 1.541434999999999945e+03
6.400000000000000133e-02 4.789970000000000061e-01 3.134980000000000189e+01 9.440049999999999386e+01 1.542410000000000082e+03
6.500000000000000222e-02 4.794935000000000169e-01 3.236449999999999960e+01 9.707419999999999050e+01 1.543369999999999891e+03
6.600000000000000311e-02 4.799904999999999866e-01 3.332039999999999935e+01 9.972929999999999495e+01 1.544320000000000164e+03
6.700000000000000400e-02 4.804935000000000178e-01 3.423154999999999859e+01 1.023967000000000098e+02 1.545275000000000091e+03
6.800000000000000488e-02 4.810055000000000303e-01 3.511050000000000182e+01 1.050997999999999877e+02 1.546235000000000127e+03
6.900000000000000577e-02 4.815309999999999868e-01 3.596769999999999357e+01 1.078584999999999923e+02 1.547210000000000036e+03
7.000000000000000666e-02 4.820689999999999698e-01 3.681060000000000088e+01 1.106844999999999999e+02 1.548204999999999927e+03
7.100000000000000755e-02 4.826219999999999954e-01 3.764310000000000400e+01 1.135825000000000102e+02 1.549214999999999918e+03
7.200000000000000844e-02 4.831880000000000064e-01 3.846549999999999869e+01 1.165475000000000136e+02 1.550255000000000109e+03
7.300000000000000933e-02 4.837620000000000253e-01 3.927405000000000257e+01 1.195660000000000025e+02 1.551305000000000064e+03
7.399999999999999634e-02 4.843420000000000503e-01 4.006165000000000020e+01 1.226175000000000068e+02 1.552369999999999891e+03
7.499999999999999722e-02 4.849204999999999766e-01 4.081790000000000163e+01 1.256735000000000042e+02 1.553440000000000055e+03
7.599999999999999811e-02 4.854924999999999935e-01 4.153015000000000612e+01 1.287019999999999982e+02 1.554500000000000000e+03
7.699999999999999900e-02 4.860504999999999964e-01 4.218430000000000035e+01 1.316659999999999968e+02 1.555555000000000064e+03
7.799999999999999989e-02 4.865880000000000205e-01 4.276559999999999917e+01 1.345279999999999916e+02 1.556570000000000164e+03
7.900000000000000078e-02 4.870974999999999611e-01 4.325995000000000346e+01 1.372504999999999882e+02 1.557549999999999955e+03
8.000000000000000167e-02 4.875745000000000218e-01 4.365435000000000088e+01 1.398004999999999995e+02 1.558480000000000018e+03
8.100000000000000255e-02 4.880130000000000301e-01 4.393820000000000192e+01 1.421475000000000080e+02 1.559340000000000146e+03
8.200000000000000344e-02 4.884100000000000108e-01 4.410329999999999728e+01 1.442694999999999936e+02 1.560144999999999982e+03
8.300000000000000433e-02 4.887615000000000154e-01 4.414459999999999695e+01 1.461485000000000127e+02 1.560860000000000127e+03
8.400000000000000522e-02 4.890674999999999883e-01 4.406034999999999968e+01 1.477755000000000223e+02 1.561500000000000000e+03
8.500000000000000611e-02 4.893275000000000263e-01 4.385220000000000340e+01 1.491490000000000009e+02 1.562054999999999836e+03
8.600000000000000699e-02 4.895435000000000203e-01 4.352490000000000236e+01 1.502744999999999891e+02 1.562525000000000091e+03
8.700000000000000788e-02 4.897170000000000134e-01 4.308624999999999972e+01 1.511634999999999991e+02 1.562914999999999964e+03
8.800000000000000877e-02 4.898520000000000096e-01 4.254675000000000296e+01 1.518349999999999795e+02 1.563224999999999909e+03
8.899999999999999578e-02 4.899529999999999719e-01 4.191894999999999527e+01 1.523104999999999905e+02 1.563469999999999800e+03
8.999999999999999667e-02 4.900240000000000151e-01 4.121724999999999994e+01 1.526169999999999902e+02 1.563650000000000091e+03
9.099999999999999756e-02 4.900704999999999645e-01 4.045700000000000074e+01 1.527830000000000155e+02 1.563779999999999973e+03
9.199999999999999845e-02 4.900980000000000336e-01 3.965420000000000300e+01 1.528385000000000105e+02 1.563859999999999900e+03
9.299999999999999933e-02 4.901115000000000332e-01 3.882479999999999620e+01 1.528129999999999882e+02 1.563904999999999973e+03
9.400000000000000022e-02 4.901159999999999961e-01 3.798400000000000176e+01 1.527355000000000018e+02 1.563924999999999955e+03
9.500000000000000111e-02 4.901165000000000105e-01 3.714594999999999914e+01 1.526315000000000168e+02 1.563924999999999955e+03
9.600000000000000200e-02 4.901159999999999961e-01 3.632300000000000040e+01 1.525244999999999891e+02 1.563920000000000073e+03
9.700000000000000289e-02 4.901185000000000125e-01 3.552540000000000475e+01 1.524334999999999809e+02 1.563904999999999973e+03
9.800000000000000377e-02 4.901254999999999917e-01 3.476109999999999900e+01 1.523720000000000141e+02 1.563900000000000091e+03
9.900000000000000466e-02 4.901385000000000325e-01 3.403525000000000489e+01 1.523494999999999777e+02 1.563900000000000091e+03
1.000000000000000056e-01 4.901584999999999415e-01 3.335040000000000049e+01 1.523704999999999927e+02 1.563904999999999973e+03
1.010000000000000064e-01 4.901855000000000517e-01 3.270665000000000333e+01 1.524345000000000141e+02 1.563930000000000064e+03
1.020000000000000073e-01 4.902165000000000550e-01 3.210139999999999816e+01 1.525360000000000014e+02 1.563960000000000036e+03
1.030000000000000082e-01 4.902515000000000067e-01 3.153014999999999901e+01 1.526655000000000086e+02 1.563994999999999891e+03
1.040000000000000091e-01 4.902874999999999872e-01 3.098640000000000327e+01 1.528114999999999952e+02 1.564039999999999964e+03
1.050000000000000100e-01 4.903215000000000212e-01 3.046264999999999645e+01 1.529594999999999914e+02 1.564079999999999927e+03
1.059999999999999970e-01 4.903509999999999813e-01 2.995024999999999693e+01 1.530925000000000011e+02 1.564125000000000000e+03
1.069999999999999979e-01 4.903724999999999890e-01 2.944040000000000035e+01 1.531935000000000002e+02 1.564154999999999973e+03
1.079999999999999988e-01 4.903845000000000010e-01 2.892425000000000068e+01 1.532475000000000023e+02 1.564174999999999955e+03
1.089999999999999997e-01 4.903825000000000545e-01 2.839379999999999882e+01 1.532384999999999877e+02 1.564175000000000182e+03
1.100000000000000006e-01 4.903659999999999686e-01 2.784179999999999922e+01 1.531544999999999845e+02 1.564155000000000200e+03
1.110000000000000014e-01 4.903330000000000188e-01 2.726250000000000284e+01 1.529844999999999970e+02 1.564105000000000018e+03
1.120000000000000023e-01 4.902825000000000100e-01 2.665184999999999960e+01 1.527224999999999966e+02 1.564034999999999854e+03
1.130000000000000032e-01 4.902134999999999687e-01 2.600760000000000005e+01 1.523654999999999973e+02 1.563925000000000182e+03
1.140000000000000041e-01 4.901280000000000081e-01 2.532945000000000135e+01 1.519134999999999991e+02 1.563789999999999964e+03
1.150000000000000050e-01 4.900260000000000171e-01 2.461919999999999931e+01 1.513720000000000141e+02 1.563619999999999891e+03
1.160000000000000059e-01 4.899094999999999978e-01 2.388060000000000116e+01 1.507479999999999905e+02 1.563424999999999955e+03
1.170000000000000068e-01 4.897805000000000075e-01 2.311915000000000120e+01 1.500534999999999854e+02 1.563210000000000036e+03
1.180000000000000077e-01 4.896424999999999805e-01 2.234199999999999875e+01 1.493034999999999854e+02 1.562970000000000027e+03
1.190000000000000085e-01 4.894979999999999887e-01 2.155754999999999910e+01 1.485140000000000100e+02 1.562715000000000146e+03
1.200000000000000094e-01 4.893505000000000216e-01 2.077515000000000001e+01 1.477040000000000077e+02 1.562444999999999936e+03
1.209999999999999964e-01 4.892044999999999866e-01 2.000469999999999970e+01 1.468925000000000125e+02 1.562179999999999836e+03
1.219999999999999973e-01 4.890624999999999556e-01 1.925625000000000142e+01 1.460989999999999895e+02 1.561909999999999854e+03
1.229999999999999982e-01 4.889280000000000292e-01 1.853945000000000221e+01 1.453420000000000130e+02 1.561650000000000091e+03
1.239999999999999991e-01 4.888044999999999751e-01 1.786335000000000051e+01 1.446374999999999886e+02 1.561400000000000091e+03
1.250000000000000000e-01 4.886940000000000173e-01 1.723590000000000089e+01 1.440020000000000095e+02 1.561175000000000182e+03
1.260000000000000009e-01 4.885984999999999912e-01 1.666355000000000075e+01 1.434465000000000146e+02 1.560969999999999800e+03
1.270000000000000018e-01 4.885194999999999954e-01 1.615139999999999887e+01 1.429809999999999945e+02 1.560789999999999964e+03
1.280000000000000027e-01 4.884580000000000033e-01 1.570235000000000092e+01 1.426100000000000136e+02 1.560644999999999982e+03
1.290000000000000036e-01 4.884135000000000004e-01 1.531789999999999985e+01 1.423360000000000127e+02 1.560525000000000091e+03
1.300000000000000044e-01 4.883864999999999457e-01 1.499740000000000073e+01 1.421579999999999870e+02 1.560434999999999945e+03
1.310000000000000053e-01 4.883760000000000323e-01 1.473860000000000170e+01 1.420704999999999814e+02 1.560375000000000000e+03
1.320000000000000062e-01 4.883785000000000487e-01 1.453759999999999941e+01 1.420660000000000025e+02 1.560344999999999800e+03
1.330000000000000071e-01 4.883945000000000092e-01 1.438935000000000031e+01 1.421349999999999909e+02 1.560340000000000146e+03
1.340000000000000080e-01 4.884204999999999797e-01 1.428764999999999930e+01 1.422654999999999745e+02 1.560355000000000018e+03
1.350000000000000089e-01 4.884539999999999993e-01 1.422560000000000002e+01 1.424445000000000050e+02 1.560394999999999982e+03
1.360000000000000098e-01 4.884934999999999694e-01 1.419599999999999973e+01 1.426589999999999918e+02 1.560445000000000164e+03
1.370000000000000107e-01 4.885355000000000114e-01 1.419134999999999991e+01 1.428954999999999984e+02 1.560505000000000109e+03
1.380000000000000115e-01 4.885794999999999444e-01 1.420445000000000135e+01 1.431415000000000077e+02 1.560575000000000045e+03
1.390000000000000124e-01 4.886215000000000419e-01 1.422855000000000025e+01 1.433855000000000075e+02 1.560644999999999982e+03
1.400000000000000133e-01 4.886610000000000120e-01 1.425745000000000040e+01 1.436179999999999950e+02 1.560715000000000146e+03
1.410000000000000142e-01 4.886964999999999781e-01 1.428570000000000029e+01 1.438290000000000077e+02 1.560779999999999973e+03
1.420000000000000151e-01 4.887270000000000225e-01 1.430879999999999974e+01 1.440144999999999982e+02 1.560835000000000036e+03
1.430000000000000160e-01 4.887520000000000198e-01 1.432310000000000016e+01 1.441684999999999945e+02 1.560894999999999982e+03
1.440000000000000169e-01 4.887704999999999966e-01 1.432610000000000028e+01 1.442895000000000039e+02 1.560934999999999945e+03
1.450000000000000178e-01 4.887835000000000374e-01 1.431609999999999872e+01 1.443759999999999764e+02 1.560964999999999918e+03
1.459999999999999909e-01 4.887905000000000166e-01 1.429220000000000113e+01 1.444300000000000068e+02 1.560990000000000009e+03
1.469999999999999918e-01 4.887924999999999631e-01 1.425444999999999851e+01 1.444530000000000030e+02 1.561005000000000109e+03
1.479999999999999927e-01 4.887894999999999879e-01 1.420350000000000001e+01 1.444484999999999957e+02 1.561009999999999991e+03
1.489999999999999936e-01 4.887835000000000374e-01 1.414080000000000048e+01 1.444219999999999970e+02 1.561005000000000109e+03
1.499999999999999944e-01 4.887745000000000006e-01 1.406794999999999973e+01 1.443770000000000095e+02 1.561000000000000000e+03
1.509999999999999953e-01 4.887629999999999475e-01 1.398709999999999987e+01 1.443190000000000168e+02 1.560985000000000127e+03
1.519999999999999962e-01 4.887509999999999910e-01 1.390060000000000073e+01 1.442535000000000025e+02 1.560965000000000146e+03
1.529999999999999971e-01 4.887389999999999790e-01 1.381085000000000029e+01 1.441854999999999905e+02 1.560945000000000164e+03
1.539999999999999980e-01 4.887279999999999958e-01 1.372015000000000029e+01 1.441189999999999998e+02 1.560930000000000064e+03
1.549999999999999989e-01 4.887179999999999858e-01 1.363085000000000058e+01 1.440579999999999927e+02 1.560910000000000082e+03
1.559999999999999998e-01 4.887099999999999778e-01 1.354495000000000005e+01 1.440065000000000168e+02 1.560894999999999982e+03
1.570000000000000007e-01 4.887040000000000273e-01 1.346415000000000006e+01 1.439664999999999964e+02 1.560880000000000109e+03
1.580000000000000016e-01 4.887009999999999965e-01 1.338995000000000068e+01 1.439399999999999977e+02 1.560875000000000000e+03
1.590000000000000024e-01 4.887004999999999821e-01 1.332329999999999970e+01 1.439275000000000091e+02 1.560865000000000009e+03
