# t [s], A [cm^2], U [cm/s], P [cPa], c [cm/s]
1.000000000000000021e-03 2.006614999999999926e-01 1.850370000000000070e-01 9.388874999999998749e+01 2.053695000000000164e+03
2.000000000000000042e-03 2.006229999999999958e-01 1.492589999999999861e+00 9.114064999999999372e+01 2.053385000000000218e+03
3.000000000000000062e-03 2.005000000000000115e-01 3.161225500000000022e+00 8.726285000000000025e+01 2.052454999999999927e+03
4.000000000000000083e-03 2.003225000000000144e-01 5.054648499999999878e+00 8.280134999999999934e+01 2.051130000000000109e+03
5.000000000000000104e-03 2.001229999999999953e-01 7.118414999999999715e+00 7.854455000000000098e+01 2.049659999999999854e+03
6.000000000000000125e-03 1.999259999999999926e-01 9.231809999999999405e+00 7.491275000000000261e+01 2.048215000000000146e+03
7.000000000000000146e-03 1.997395000000000143e-01 1.120575000000000010e+01 7.184189999999999543e+01 2.046875000000000000e+03
8.000000000000000167e-03 1.995655000000000068e-01 1.291077999999999903e+01 6.909510000000000218e+01 2.045644999999999982e+03
9.000000000000001055e-03 1.994080000000000019e-01 1.434344499999999911e+01 6.663230000000000075e+01 2.044545000000000073e+03
1.000000000000000194e-02 1.992720000000000047e-01 1.554090000000000060e+01 6.453914999999999225e+01 2.043610000000000127e+03
1.099999999999999936e-02 1.991574999999999873e-01 1.652434999999999832e+01 6.284580000000000410e+01 2.042835000000000036e+03
1.200000000000000025e-02 1.990649999999999920e-01 1.730764999999999887e+01 6.152165000000000106e+01 2.042210000000000036e+03
1.300000000000000114e-02 1.989909999999999735e-01 1.789789999999999992e+01 6.049885000000000446e+01 2.041720000000000027e+03
1.400000000000000203e-02 1.989319999999999977e-01 1.829380000000000095e+01 5.966760000000000019e+01 2.041340000000000146e+03
1.499999999999999944e-02 1.988825000000000176e-01 1.851420000000000243e+01 5.893704999999999927e+01 2.041025000000000091e+03
1.600000000000000033e-02 1.988435000000000064e-01 1.863264999999999816e+01 5.834960000000000235e+01 2.040779999999999973e+03
1.700000000000000122e-02 1.988194999999999824e-01 1.877210000000000178e+01 5.812225000000000108e+01 2.040634999999999991e+03
1.800000000000000211e-02 1.988194999999999824e-01 1.905440000000000111e+01 5.854610000000000269e+01 2.040650000000000091e+03
1.900000000000000300e-02 1.988504999999999856e-01 1.954059999999999775e+01 5.980979999999999563e+01 2.040865000000000009e+03
2.000000000000000042e-02 1.989130000000000065e-01 2.020085000000000264e+01 6.186545000000000272e+01 2.041295000000000073e+03
2.100000000000000130e-02 1.990000000000000102e-01 2.092685000000000173e+01 6.441294999999999504e+01 2.041890000000000100e+03
2.200000000000000219e-02 1.990974999999999828e-01 2.157585000000000264e+01 6.699734999999999729e+01 2.042565000000000055e+03
2.299999999999999961e-02 1.991904999999999926e-01 2.202165000000000106e+01 6.916169999999999618e+01 2.043224999999999909e+03
2.400000000000000050e-02 1.992649999999999977e-01 2.219340000000000046e+01 7.058790000000000475e+01 2.043760000000000218e+03
2.500000000000000139e-02 1.993139999999999912e-01 2.208970000000000056e+01 7.117435000000000400e+01 2.044130000000000109e+03
2.600000000000000228e-02 1.993375000000000008e-01 2.176770000000000138e+01 7.103294999999999959e+01 2.044315000000000055e+03
2.700000000000000316e-02 1.993395000000000028e-01 2.131449999999999889e+01 7.041785000000000139e+01 2.044345000000000027e+03
2.800000000000000058e-02 1.993274999999999908e-01 2.081394999999999840e+01 6.962045000000000528e+01 2.044275000000000091e+03
2.900000000000000147e-02 1.993099999999999872e-01 2.032054999999999723e+01 6.887010000000000787e+01 2.044159999999999854e+03
3.000000000000000236e-02 1.992919999999999969e-01 1.984774999999999778e+01 6.827375000000000682e+01 2.044039999999999964e+03
3.099999999999999978e-02 1.992760000000000087e-01 1.937255000000000038e+01 6.780670000000000641e+01 2.043924999999999955e+03
3.200000000000000067e-02 1.992585000000000051e-01 1.885159999999999769e+01 6.734854999999998881e+01 2.043799999999999955e+03
3.300000000000000155e-02 1.992364999999999831e-01 1.824289999999999878e+01 6.674755000000000393e+01 2.043654999999999973e+03
3.400000000000000244e-02 1.992059999999999942e-01 1.752605000000000146e+01 6.588909999999999911e+01 2.043449999999999818e+03
3.500000000000000333e-02 1.991660000000000097e-01 1.671460000000000079e+01 6.474925000000000352e+01 2.043184999999999945e+03
3.600000000000000422e-02 1.991175000000000028e-01 1.585820000000000007e+01 6.341624999999999801e+01 2.042849999999999909e+03
3.700000000000000511e-02 1.990649999999999920e-01 1.503275000000000006e+01 6.207609999999999673e+01 2.042494999999999891e+03
3.799999999999999906e-02 1.990164999999999851e-01 1.432305000000000206e+01 6.096665000000000134e+01 2.042154999999999745e+03
3.899999999999999994e-02 1.989795000000000036e-01 1.380184999999999995e+01 6.031450000000000244e+01 2.041894999999999982e+03
4.000000000000000083e-02 1.989624999999999866e-01 1.351269999999999882e+01 6.027635000000000076e+01 2.041760000000000218e+03
4.100000000000000172e-02 1.989680000000000060e-01 1.346065000000000111e+01 6.089865000000000350e+01 2.041779999999999973e+03
4.200000000000000261e-02 1.989964999999999928e-01 1.361185000000000045e+01 6.210670000000000357e+01 2.041964999999999918e+03
4.300000000000000350e-02 1.990439999999999987e-01 1.390174999999999983e+01 6.372164999999999679e+01 2.042279999999999973e+03
4.400000000000000439e-02 1.991045000000000176e-01 1.424824999999999875e+01 6.549815000000000964e+01 2.042679999999999836e+03
4.499999999999999833e-02 1.991680000000000117e-01 1.456605000000000061e+01 6.717160000000001219e+01 2.043119999999999891e+03
4.599999999999999922e-02 1.992265000000000008e-01 1.478000000000000114e+01 6.850254999999999939e+01 2.043525000000000091e+03
4.700000000000000011e-02 1.992710000000000037e-01 1.483360000000000056e+01 6.931075000000001296e+01 2.043840000000000146e+03
4.800000000000000100e-02 1.992960000000000009e-01 1.469355000000000011e+01 6.949314999999999998e+01 2.044019999999999982e+03
4.900000000000000189e-02 1.992984999999999896e-01 1.434929999999999950e+01 6.902524999999999977e+01 2.044050000000000182e+03
5.000000000000000278e-02 1.992770000000000097e-01 1.380869999999999997e+01 6.794939999999999714e+01 2.043914999999999964e+03
5.100000000000000366e-02 1.992329999999999934e-01 1.309275000000000055e+01 6.635429999999999495e+01 2.043619999999999891e+03
5.200000000000000455e-02 1.991700000000000137e-01 1.222943499999999872e+01 6.435214999999999463e+01 2.043190000000000055e+03
5.300000000000000544e-02 1.990899999999999892e-01 1.124876000000000076e+01 6.205865000000000009e+01 2.042644999999999982e+03
5.399999999999999939e-02 1.989989999999999815e-01 1.018000499999999953e+01 5.957930000000000348e+01 2.042019999999999982e+03
5.500000000000000028e-02 1.988984999999999781e-01 9.050480000000000302e+00 5.700310000000000343e+01 2.041325000000000045e+03
5.600000000000000117e-02 1.987929999999999975e-01 7.886064999999999436e+00 5.440285000000000082e+01 2.040599999999999909e+03
5.700000000000000205e-02 1.986855000000000149e-01 6.712595000000000312e+00 5.183995000000000175e+01 2.039850000000000136e+03
5.800000000000000294e-02 1.985780000000000045e-01 5.557240000000000180e+00 4.937125000000000341e+01 2.039109999999999900e+03
5.900000000000000383e-02 1.984739999999999838e-01 4.449740000000000251e+00 4.705514999999999759e+01 2.038384999999999991e+03
6.000000000000000472e-02 1.983759999999999968e-01 3.422470000000000123e+00 4.495570000000000022e+01 2.037704999999999927e+03
6.099999999999999867e-02 1.982869999999999910e-01 2.509777999999999842e+00 4.314294999999999902e+01 2.037079999999999927e+03
6.199999999999999956e-02 1.982105000000000117e-01 1.746389500000000039e+00 4.169075000000000131e+01 2.036539999999999964e+03
6.300000000000000044e-02 1.981485000000000052e-01 1.165192000000000005e+00 4.067175000000000296e+01 2.036099999999999909e+03
6.400000000000000133e-02 1.981050000000000033e-01 7.949045000000000138e-01 4.015090000000000003e+01 2.035785000000000082e+03
6.500000000000000222e-02 1.980819999999999803e-01 6.578234999999998944e-01 4.017914999999999992e+01 2.035605000000000018e+03
6.600000000000000311e-02 1.980819999999999803e-01 7.681299999999999795e-01 4.078799999999999670e+01 2.035590000000000146e+03
6.700000000000000400e-02 1.981054999999999899e-01 1.130822999999999912e+00 4.198619999999999663e+01 2.035735000000000127e+03
6.800000000000000488e-02 1.981539999999999968e-01 1.741457499999999881e+00 4.375835000000000008e+01 2.036045000000000073e+03
6.900000000000000577e-02 1.982249999999999845e-01 2.586586000000000052e+00 4.606629999999999825e+01 2.036519999999999982e+03
7.000000000000000666e-02 1.983185000000000087e-01 3.644804999999999851e+00 4.885179999999999723e+01 2.037150000000000091e+03
7.100000000000000755e-02 1.984319999999999973e-01 4.888300000000000090e+00 5.204104999999999848e+01 2.037920000000000073e+03
7.200000000000000844e-02 1.985625000000000029e-01 6.284614999999999618e+00 5.555010000000000048e+01 2.038809999999999945e+03
7.300000000000000933e-02 1.987065000000000081e-01 7.798659999999999926e+00 5.929049999999999443e+01 2.039800000000000182e+03
7.399999999999999634e-02 1.988610000000000100e-01 9.394660000000000011e+00 6.317470000000000141e+01 2.040865000000000009e+03
7.499999999999999722e-02 1.990224999999999911e-01 1.103813000000000066e+01 6.712144999999999584e+01 2.041980000000000018e+03
7.599999999999999811e-02 1.991874999999999896e-01 1.269734500000000033e+01 7.105995000000000061e+01 2.043130000000000109e+03
7.699999999999999900e-02 1.993535000000000168e-01 1.434495000000000076e+01 7.493295000000000528e+01 2.044285000000000082e+03
7.799999999999999989e-02 1.995180000000000009e-01 1.595865000000000045e+01 7.869925000000000637e+01 2.045434999999999945e+03
7.900000000000000078e-02 1.996799999999999964e-01 1.752175000000000082e+01 8.233365000000000578e+01 2.046570000000000164e+03
8.000000000000000167e-02 1.998375000000000012e-01 1.902320000000000277e+01 8.582665000000000077e+01 2.047679999999999836e+03
8.100000000000000255e-02 1.999905000000000155e-01 2.045714999999999861e+01 8.918190000000001305e+01 2.048760000000000218e+03
8.200000000000000344e-02 2.001390000000000113e-01 2.182204999999999728e+01 9.241370000000000573e+01 2.049804999999999836e+03
8.300000000000000433e-02 2.002835000000000032e-01 2.311959999999999837e+01 9.554274999999999807e+01 2.050829999999999927e+03
8.400000000000000522e-02 2.004235000000000044e-01 2.435385000000000133e+01 9.859360000000000923e+01 2.051829999999999927e+03
8.500000000000000611e-02 2.005615000000000037e-01 2.552980000000000160e+01 1.015895500000000027e+02 2.052804999999999836e+03
8.600000000000000699e-02 2.006975000000000009e-01 2.665265000000000128e+01 1.045513499999999993e+02 2.053769999999999982e+03
8.700000000000000788e-02 2.008314999999999961e-01 2.772690000000000055e+01 1.074929999999999950e+02 2.054725000000000364e+03
8.800000000000000877e-02 2.009650000000000047e-01 2.875574999999999903e+01 1.104235000000000042e+02 2.055670000000000073e+03
8.899999999999999578e-02 2.010974999999999846e-01 2.974099999999999966e+01 1.133444999999999965e+02 2.056614999999999782e+03
8.999999999999999667e-02 2.012295000000000056e-01 3.068274999999999864e+01 1.162504999999999882e+02 2.057555000000000291e+03
9.099999999999999756e-02 2.013604999999999978e-01 3.157945000000000135e+01 1.191304999999999978e+02 2.058489999999999782e+03
9.199999999999999845e-02 2.014905000000000168e-01 3.242790000000000106e+01 1.219689999999999941e+02 2.059414999999999964e+03
9.299999999999999933e-02 2.016180000000000194e-01 3.322390000000000043e+01 1.247460000000000093e+02 2.060324999999999818e+03
9.400000000000000022e-02 2.017424999999999913e-01 3.396189999999999998e+01 1.274404999999999859e+02 2.061215000000000146e+03
9.500000000000000111e-02 2.018635000000000013e-01 3.463585000000000491e+01 1.300280000000000200e+02 2.062079999999999927e+03
9.600000000000000200e-02 2.019794999999999785e-01 3.523884999999999934e+01 1.324865000000000066e+02 2.062914999999999964e+03
9.700000000000000289e-02 2.020905000000000062e-01 3.576409999999999911e+01 1.347909999999999968e+02 2.063710000000000036e+03
9.800000000000000377e-02 2.021950000000000136e-01 3.620459999999999923e+01 1.369205000000000041e+02 2.064460000000000036e+03
9.900000000000000466e-02 2.022915000000000130e-01 3.655405000000000371e+01 1.388545000000000016e+02 2.065149999999999636e+03
1.000000000000000056e-01 2.023794999999999900e-01 3.680660000000000309e+01 1.405749999999999886e+02 2.065789999999999964e+03
1.010000000000000064e-01 2.024584999999999857e-01 3.695780000000000598e+01 1.420679999999999836e+02 2.066359999999999673e+03
1.020000000000000073e-01 2.025279999999999858e-01 3.700450000000000017e+01 1.433230000000000075e+02 2.066864999999999782e+03
1.030000000000000082e-01 2.025870000000000171e-01 3.694530000000000314e+01 1.443349999999999795e+02 2.067300000000000182e+03
1.040000000000000091e-01 2.026354999999999962e-01 3.678099999999999881e+01 1.451034999999999968e+02 2.067654999999999745e+03
1.050000000000000100e-01 2.026740000000000208e-01 3.651444999999999652e+01 1.456340000000000146e+02 2.067944999999999709e+03
1.059999999999999970e-01 2.027025000000000077e-01 3.615054999999999552e+01 1.459365000000000236e+02 2.068154999999999745e+03
1.069999999999999979e-01 2.027209999999999845e-01 3.569665000000000532e+01 1.460280000000000200e+02 2.068295000000000073e+03
1.079999999999999988e-01 2.027309999999999945e-01 3.516154999999999831e+01 1.459290000000000020e+02 2.068375000000000000e+03
1.089999999999999997e-01 2.027325000000000099e-01 3.455594999999999573e+01 1.456639999999999873e+02 2.068394999999999982e+03
1.100000000000000006e-01 2.027260000000000173e-01 3.389139999999999731e+01 1.452584999999999980e+02 2.068355000000000018e+03
1.110000000000000014e-01 2.027140000000000053e-01 3.318025000000000091e+01 1.447409999999999854e+02 2.068275000000000091e+03
1.120000000000000023e-01 2.026969999999999883e-01 3.243495000000000061e+01 1.441399999999999864e+02 2.068159999999999854e+03
1.130000000000000032e-01 2.026749999999999940e-01 3.166770000000000351e+01 1.434809999999999945e+02 2.068010000000000218e+03
1.140000000000000041e-01 2.026509999999999978e-01 3.089010000000000034e+01 1.427895000000000039e+02 2.067845000000000255e+03
1.150000000000000050e-01 2.026249999999999996e-01 3.011249999999999716e+01 1.420865000000000009e+02 2.067659999999999854e+03
1.160000000000000059e-01 2.025980000000000003e-01 2.934400000000000119e+01 1.413899999999999864e+02 2.067465000000000146e+03
1.170000000000000068e-01 2.025700000000000001e-01 2.859194999999999709e+01 1.407135000000000105e+02 2.067269999999999982e+03
1.180000000000000077e-01 2.025430000000000008e-01 2.786199999999999832e+01 1.400665000000000191e+02 2.067079999999999927e+03
1.190000000000000085e-01 2.025164999999999882e-01 2.715800000000000125e+01 1.394529999999999745e+02 2.066885000000000218e+03
1.200000000000000094e-01 2.024910000000000043e-01 2.648165000000000191e+01 1.388745000000000118e+02 2.066699999999999818e+03
1.209999999999999964e-01 2.024660000000000071e-01 2.583299999999999841e+01 1.383265000000000100e+02 2.066525000000000091e+03
1.219999999999999973e-01 2.024425000000000252e-01 2.521034999999999826e+01 1.378025000000000091e+02 2.066355000000000018e+03
1.229999999999999982e-01 2.024195000000000022e-01 2.461039999999999850e+01 1.372914999999999850e+02 2.066184999999999945e+03
1.239999999999999991e-01 2.023964999999999792e-01 2.402870000000000061e+01 1.367810000000000059e+02 2.066019999999999982e+03
1.250000000000000000e-01 2.023729999999999973e-01 2.345969999999999800e+01 1.362560000000000002e+02 2.065849999999999909e+03
1.260000000000000009e-01 2.023490000000000011e-01 2.289740000000000109e+01 1.357009999999999934e+02 2.065680000000000291e+03
1.270000000000000018e-01 2.023240000000000038e-01 2.233534999999999826e+01 1.351014999999999873e+02 2.065494999999999891e+03
1.280000000000000027e-01 2.022964999999999902e-01 2.176729999999999876e+01 1.344420000000000073e+02 2.065300000000000182e+03
1.290000000000000036e-01 2.022665000000000157e-01 2.118750000000000000e+01 1.337100000000000080e+02 2.065085000000000036e+03
1.300000000000000044e-01 2.022335000000000105e-01 2.059094999999999942e+01 1.328955000000000268e+02 2.064850000000000364e+03
1.310000000000000053e-01 2.021970000000000156e-01 1.997384999999999877e+01 1.319904999999999973e+02 2.064590000000000146e+03
1.320000000000000062e-01 2.021570000000000034e-01 1.933370000000000033e+01 1.309919999999999902e+02 2.064305000000000291e+03
1.330000000000000071e-01 2.021125000000000005e-01 1.866955000000000098e+01 1.299010000000000105e+02 2.063994999999999891e+03
1.340000000000000080e-01 2.020655000000000090e-01 1.798225000000000051e+01 1.287214999999999918e+02 2.063654999999999745e+03
1.350000000000000089e-01 2.020139999999999991e-01 1.727420000000000044e+01 1.274620000000000033e+02 2.063289999999999964e+03
1.360000000000000098e-01 2.019589999999999996e-01 1.654949999999999832e+01 1.261364999999999981e+02 2.062899999999999636e+03
1.370000000000000107e-01 2.019015000000000115e-01 1.581370000000000076e+01 1.247605000000000075e+02 2.062494999999999891e+03
1.380000000000000115e-01 2.018420000000000214e-01 1.507375000000000043e+01 1.233530000000000086e+02 2.062074999999999818e+03
1.390000000000000124e-01 2.017815000000000025e-01 1.433740000000000059e+01 1.219354999999999905e+02 2.061644999999999982e+03
1.400000000000000133e-01 2.017200000000000104e-01 1.361315000000000097e+01 1.205289999999999964e+02 2.061210000000000036e+03
1.410000000000000142e-01 2.016594999999999915e-01 1.290950000000000131e+01 1.191564999999999941e+02 2.060779999999999745e+03
1.420000000000000151e-01 2.016000000000000014e-01 1.223519999999999897e+01 1.178395000000000010e+02 2.060359999999999673e+03
1.430000000000000160e-01 2.015429999999999999e-01 1.159811999999999976e+01 1.165970000000000084e+02 2.059949999999999818e+03
1.440000000000000169e-01 2.014885000000000148e-01 1.100537500000000080e+01 1.154455000000000098e+02 2.059559999999999945e+03
1.450000000000000178e-01 2.014380000000000059e-01 1.046309499999999915e+01 1.144000000000000057e+02 2.059199999999999818e+03
1.459999999999999909e-01 2.013920000000000154e-01 9.975909999999998945e+00 1.134689999999999941e+02 2.058864999999999782e+03
1.469999999999999918e-01 2.013495000000000146e-01 9.547039999999999083e+00 1.126599999999999966e+02 2.058565000000000055e+03
1.479999999999999927e-01 2.013129999999999920e-01 9.178209999999999980e+00 1.119749999999999943e+02 2.058300000000000182e+03
1.489999999999999936e-01 2.012815000000000021e-01 8.869600000000000151e+00 1.114124999999999943e+02 2.058069999999999709e+03
1.499999999999999944e-01 2.012550000000000172e-01 8.619965000000000543e+00 1.109689999999999941e+02 2.057875000000000000e+03
1.509999999999999953e-01 2.012329999999999952e-01 8.426829999999998932e+00 1.106359999999999957e+02 2.057720000000000255e+03
1.519999999999999962e-01 2.012160000000000060e-01 8.286574999999999136e+00 1.104050000000000011e+02 2.057585000000000036e+03
1.529999999999999971e-01 2.012035000000000073e-01 8.194684999999999775e+00 1.102650000000000006e+02 2.057494999999999891e+03
1.539999999999999980e-01 2.011944999999999983e-01 8.145929999999999893e+00 1.102019999999999982e+02 2.057425000000000182e+03
1.549999999999999989e-01 2.011890000000000067e-01 8.134634999999999394e+00 1.102044999999999959e+02 2.057380000000000109e+03
1.559999999999999998e-01 2.011864999999999903e-01 8.154814999999999259e+00 1.102590000000000003e+02 2.057355000000000018e+03
1.570000000000000007e-01 2.011859999999999760e-01 8.200435000000000585e+00 1.103530000000000086e+02 2.057350000000000364e+03
1.580000000000000016e-01 2.011880000000000057e-01 8.265570000000000306e+00 1.104735000000000014e+02 2.057359999999999673e+03
1.590000000000000024e-01 2.011904999999999943e-01 8.344559999999999533e+00 1.106099999999999994e+02 2.057380000000000109e+03
