# t [s], A [cm^2], U [cm/s], P [cPa], c [cm/s]
1.000000000000000021e-03 1.641340000000000021e-01 2.382075000000000164e-01 9.398749999999999716e+01 1.976835000000000036e+03
2.000000000000000042e-03 1.640995000000000092e-01 1.642633500000000080e+00 9.112999999999999545e+01 1.976505000000000109e+03
3.000000000000000062e-03 1.639909999999999979e-01 3.399196499999999954e+00 8.717464999999999975e+01 1.975519999999999982e+03
4.000000000000000083e-03 1.638350000000000084e-01 5.372297350000000193e+00 8.271099999999999852e+01 1.974119999999999891e+03
5.000000000000000104e-03 1.636610000000000009e-01 7.505744999999999223e+00 7.853125000000000000e+01 1.972574999999999818e+03
6.000000000000000125e-03 1.634885000000000088e-01 9.671879999999999811e+00 7.502424999999999500e+01 1.971059999999999945e+03
7.000000000000000146e-03 1.633264999999999856e-01 1.167937999999999832e+01 7.209434999999999150e+01 1.969659999999999854e+03
8.000000000000000167e-03 1.631755000000000011e-01 1.340307500000000118e+01 6.949184999999999945e+01 1.968380000000000109e+03
9.000000000000001055e-03 1.630399999999999905e-01 1.484549999999999947e+01 6.717410000000000991e+01 1.967250000000000000e+03
1.000000000000000194e-02 1.629229999999999845e-01 1.604700000000000060e+01 6.522455000000000780e+01 1.966279999999999973e+03
1.099999999999999936e-02 1.628249999999999975e-01 1.702890000000000015e+01 6.366554999999999609e+01 1.965480000000000018e+03
1.200000000000000025e-02 1.627460000000000018e-01 1.780630000000000024e+01 6.246210000000000662e+01 1.964839999999999918e+03
1.300000000000000114e-02 1.626834999999999809e-01 1.839079999999999870e+01 6.155495000000000516e+01 1.964349999999999909e+03
1.400000000000000203e-02 1.626345000000000152e-01 1.878459999999999752e+01 6.084850000000000136e+01 1.963965000000000146e+03
1.499999999999999944e-02 1.625949999999999895e-01 1.900309999999999988e+01 6.025169999999999959e+01 1.963664999999999964e+03
1.600000000000000033e-02 1.625639999999999863e-01 1.911129999999999995e+01 5.978524999999999778e+01 1.963434999999999945e+03
1.700000000000000122e-02 1.625455000000000094e-01 1.922585000000000122e+01 5.963785000000000025e+01 1.963305000000000064e+03
1.800000000000000211e-02 1.625459999999999960e-01 1.947059999999999746e+01 6.008960000000000434e+01 1.963324999999999818e+03
1.900000000000000300e-02 1.625719999999999943e-01 1.991669999999999874e+01 6.134465000000000146e+01 1.963549999999999955e+03
2.000000000000000042e-02 1.626255000000000062e-01 2.054554999999999865e+01 6.338880000000000337e+01 1.963990000000000009e+03
2.100000000000000130e-02 1.627014999999999989e-01 2.125495000000000090e+01 6.595365000000001032e+01 1.964615000000000009e+03
2.200000000000000219e-02 1.627885000000000026e-01 2.189884999999999948e+01 6.859675000000000011e+01 1.965340000000000146e+03
2.299999999999999961e-02 1.628729999999999900e-01 2.233944999999999936e+01 7.084799999999999898e+01 1.966055000000000064e+03
2.400000000000000050e-02 1.629424999999999901e-01 2.249089999999999989e+01 7.235685000000000855e+01 1.966659999999999854e+03
2.500000000000000139e-02 1.629895000000000094e-01 2.233950000000000102e+01 7.298545000000000016e+01 1.967075000000000045e+03
2.600000000000000228e-02 1.630119999999999902e-01 2.193825000000000003e+01 7.282259999999999422e+01 1.967289999999999964e+03
2.700000000000000316e-02 1.630135000000000056e-01 2.137980000000000302e+01 7.212344999999999118e+01 1.967325000000000045e+03
2.800000000000000058e-02 1.630020000000000080e-01 2.076160000000000139e+01 7.120519999999999072e+01 1.967240000000000009e+03
2.900000000000000147e-02 1.629845000000000044e-01 2.015510000000000090e+01 7.033944999999999936e+01 1.967099999999999909e+03
3.000000000000000236e-02 1.629665000000000141e-01 1.958919999999999817e+01 6.967799999999999727e+01 1.966954999999999927e+03
3.099999999999999978e-02 1.629515000000000269e-01 1.905020000000000024e+01 6.922984999999999900e+01 1.966824999999999818e+03
3.200000000000000067e-02 1.629384999999999861e-01 1.849604999999999677e+01 6.888759999999999195e+01 1.966720000000000027e+03
3.300000000000000155e-02 1.629244999999999999e-01 1.787790000000000035e+01 6.848754999999999882e+01 1.966605000000000018e+03
3.400000000000000244e-02 1.629059999999999953e-01 1.716164999999999807e+01 6.788094999999999857e+01 1.966454999999999927e+03
3.500000000000000333e-02 1.628789999999999960e-01 1.634450000000000003e+01 6.699459999999999127e+01 1.966240000000000009e+03
3.600000000000000422e-02 1.628445000000000031e-01 1.546150000000000091e+01 6.586565000000000225e+01 1.965960000000000036e+03
3.700000000000000511e-02 1.628049999999999775e-01 1.457969999999999899e+01 6.464050000000000296e+01 1.965634999999999991e+03
3.799999999999999906e-02 1.627649999999999930e-01 1.378399999999999892e+01 6.354005000000000081e+01 1.965305000000000064e+03
3.899999999999999994e-02 1.627319999999999878e-01 1.315595000000000070e+01 6.280210000000000292e+01 1.965029999999999973e+03
4.000000000000000083e-02 1.627135000000000109e-01 1.275469999999999970e+01 6.261899999999999977e+01 1.964860000000000127e+03
4.100000000000000172e-02 1.627129999999999965e-01 1.260320000000000107e+01 6.308755000000000024e+01 1.964844999999999800e+03
4.200000000000000261e-02 1.627330000000000165e-01 1.268309999999999960e+01 6.418420000000000414e+01 1.964994999999999891e+03
4.300000000000000350e-02 1.627720000000000000e-01 1.293960000000000043e+01 6.576990000000000691e+01 1.965299999999999955e+03
4.400000000000000439e-02 1.628244999999999831e-01 1.329224999999999923e+01 6.761844999999999573e+01 1.965724999999999909e+03
4.499999999999999833e-02 1.628840000000000010e-01 1.364979999999999905e+01 6.946090000000000941e+01 1.966210000000000036e+03
4.599999999999999922e-02 1.629410000000000025e-01 1.392459999999999987e+01 7.103229999999999222e+01 1.966680000000000064e+03
4.700000000000000011e-02 1.629895000000000094e-01 1.404445000000000121e+01 7.211265000000000214e+01 1.967085000000000036e+03
4.800000000000000100e-02 1.630209999999999992e-01 1.395994999999999919e+01 7.255400000000000205e+01 1.967355000000000018e+03
4.900000000000000189e-02 1.630329999999999835e-01 1.364690000000000047e+01 7.229134999999999422e+01 1.967465000000000146e+03
5.000000000000000278e-02 1.630214999999999859e-01 1.310435000000000016e+01 7.133799999999999386e+01 1.967384999999999991e+03
5.100000000000000366e-02 1.629879999999999940e-01 1.235004999999999953e+01 6.976974999999998772e+01 1.967119999999999891e+03
5.200000000000000455e-02 1.629344999999999821e-01 1.141385000000000005e+01 6.770220000000000482e+01 1.966684999999999945e+03
5.300000000000000544e-02 1.628634999999999944e-01 1.033216000000000001e+01 6.526830000000001064e+01 1.966105000000000018e+03
5.399999999999999939e-02 1.627795000000000214e-01 9.143090000000000828e+00 6.259964999999999691e+01 1.965409999999999854e+03
5.500000000000000028e-02 1.626859999999999973e-01 7.883849999999999802e+00 5.981465000000000032e+01 1.964639999999999873e+03
5.600000000000000117e-02 1.625880000000000103e-01 6.589750000000000441e+00 5.701399999999999579e+01 1.963825000000000045e+03
5.700000000000000205e-02 1.624869999999999925e-01 5.294694999999999929e+00 5.428159999999999741e+01 1.962985000000000127e+03
5.800000000000000294e-02 1.623870000000000036e-01 4.032206000000000401e+00 5.168984999999999985e+01 1.962159999999999854e+03
5.900000000000000383e-02 1.622919999999999918e-01 2.836518000000000317e+00 4.930535000000000423e+01 1.961360000000000127e+03
6.000000000000000472e-02 1.622029999999999861e-01 1.743189500000000169e+00 4.719440000000000168e+01 1.960615000000000009e+03
6.099999999999999867e-02 1.621235000000000037e-01 7.888249999999998874e-01 4.542549999999999955e+01 1.959945000000000164e+03
6.199999999999999956e-02 1.620559999999999778e-01 9.994999999999976126e-03 4.406869999999999976e+01 1.959380000000000109e+03
6.300000000000000044e-02 1.620040000000000091e-01 -5.585415000000000241e-01 4.319315000000000282e+01 1.958934999999999945e+03
6.400000000000000133e-02 1.619694999999999885e-01 -8.860580000000000123e-01 4.286140000000000327e+01 1.958630000000000109e+03
6.500000000000000222e-02 1.619545000000000012e-01 -9.480939999999999923e-01 4.312409999999999854e+01 1.958490000000000009e+03
6.600000000000000311e-02 1.619614999999999805e-01 -7.283444999999999503e-01 4.401425000000000409e+01 1.958525000000000091e+03
6.700000000000000400e-02 1.619909999999999961e-01 -2.199880000000000724e-01 4.554319999999999879e+01 1.958744999999999891e+03
6.800000000000000488e-02 1.620440000000000214e-01 5.737200000000001188e-01 4.769859999999999900e+01 1.959164999999999964e+03
6.900000000000000577e-02 1.621194999999999997e-01 1.639657499999999768e+00 5.044469999999999743e+01 1.959769999999999982e+03
7.000000000000000666e-02 1.622164999999999857e-01 2.955700450000000146e+00 5.372444999999999737e+01 1.960555000000000064e+03
7.100000000000000755e-02 1.623330000000000051e-01 4.492102500000000553e+00 5.746325000000000216e+01 1.961509999999999991e+03
7.200000000000000844e-02 1.624670000000000003e-01 6.213264999999999816e+00 6.157415000000000305e+01 1.962610000000000127e+03
7.300000000000000933e-02 1.626154999999999962e-01 8.079594999999999416e+00 6.596299999999999386e+01 1.963835000000000036e+03
7.399999999999999634e-02 1.627744999999999886e-01 1.004976500000000073e+01 7.053399999999999181e+01 1.965154999999999973e+03
7.499999999999999722e-02 1.629415000000000169e-01 1.208225499999999997e+01 7.519464999999999577e+01 1.966539999999999964e+03
7.599999999999999811e-02 1.631130000000000080e-01 1.413766000000000034e+01 7.986054999999998927e+01 1.967970000000000027e+03
7.699999999999999900e-02 1.632859999999999867e-01 1.618005000000000138e+01 8.445905000000000484e+01 1.969420000000000073e+03
7.799999999999999989e-02 1.634579999999999922e-01 1.817834999999999823e+01 8.893240000000000123e+01 1.970869999999999891e+03
7.900000000000000078e-02 1.636270000000000224e-01 2.010754999999999981e+01 9.323900000000000432e+01 1.972295000000000073e+03
8.000000000000000167e-02 1.637914999999999788e-01 2.194899999999999807e+01 9.735545000000000471e+01 1.973684999999999945e+03
8.100000000000000255e-02 1.639500000000000124e-01 2.369079999999999941e+01 1.012737500000000068e+02 1.975029999999999973e+03
8.200000000000000344e-02 1.641024999999999845e-01 2.532719999999999771e+01 1.050016499999999979e+02 1.976335000000000036e+03
8.300000000000000433e-02 1.642490000000000061e-01 2.685810000000000031e+01 1.085589999999999975e+02 1.977585000000000036e+03
8.400000000000000522e-02 1.643904999999999950e-01 2.828764999999999930e+01 1.119735000000000014e+02 1.978789999999999964e+03
8.500000000000000611e-02 1.645264999999999922e-01 2.962324999999999875e+01 1.152779999999999916e+02 1.979964999999999918e+03
8.600000000000000699e-02 1.646595000000000142e-01 3.087395000000000067e+01 1.185054999999999978e+02 1.981099999999999909e+03
8.700000000000000788e-02 1.647895000000000054e-01 3.204949999999999477e+01 1.216864999999999952e+02 1.982220000000000027e+03
8.800000000000000877e-02 1.649185000000000234e-01 3.315879999999999939e+01 1.248449999999999989e+02 1.983319999999999936e+03
8.899999999999999578e-02 1.650455000000000116e-01 3.420945000000000391e+01 1.279985000000000070e+02 1.984420000000000073e+03
8.999999999999999667e-02 1.651724999999999999e-01 3.520660000000000167e+01 1.311550000000000011e+02 1.985509999999999991e+03
9.099999999999999756e-02 1.652990000000000015e-01 3.615305000000000035e+01 1.343125000000000000e+02 1.986595000000000027e+03
9.199999999999999845e-02 1.654249999999999887e-01 3.704874999999999829e+01 1.374604999999999961e+02 1.987684999999999945e+03
9.299999999999999933e-02 1.655504999999999893e-01 3.789130000000000109e+01 1.405824999999999818e+02 1.988764999999999873e+03
9.400000000000000022e-02 1.656745000000000023e-01 3.867574999999999363e+01 1.436544999999999845e+02 1.989835000000000036e+03
9.500000000000000111e-02 1.657965000000000133e-01 3.939544999999999675e+01 1.466479999999999961e+02 1.990884999999999991e+03
9.600000000000000200e-02 1.659149999999999792e-01 4.004245000000000232e+01 1.495319999999999823e+02 1.991914999999999964e+03
9.700000000000000289e-02 1.660294999999999965e-01 4.060760000000000502e+01 1.522760000000000105e+02 1.992900000000000091e+03
9.800000000000000377e-02 1.661385000000000223e-01 4.108180000000000121e+01 1.548480000000000132e+02 1.993849999999999909e+03
9.900000000000000466e-02 1.662414999999999865e-01 4.145595000000000141e+01 1.572194999999999823e+02 1.994740000000000009e+03
1.000000000000000056e-01 1.663364999999999982e-01 4.172175000000000011e+01 1.593634999999999877e+02 1.995570000000000164e+03
1.010000000000000064e-01 1.664229999999999876e-01 4.187199999999999989e+01 1.612595000000000027e+02 1.996324999999999818e+03
1.020000000000000073e-01 1.665010000000000101e-01 4.190130000000000621e+01 1.628909999999999911e+02 1.997005000000000109e+03
1.030000000000000082e-01 1.665685000000000082e-01 4.180604999999999905e+01 1.642450000000000045e+02 1.997599999999999909e+03
1.040000000000000091e-01 1.666259999999999963e-01 4.158504999999999541e+01 1.653185000000000002e+02 1.998110000000000127e+03
1.050000000000000100e-01 1.666735000000000022e-01 4.123955000000000126e+01 1.661114999999999782e+02 1.998525000000000091e+03
1.059999999999999970e-01 1.667095000000000105e-01 4.077349999999999852e+01 1.666324999999999932e+02 1.998860000000000127e+03
1.069999999999999979e-01 1.667359999999999953e-01 4.019335000000000235e+01 1.668944999999999936e+02 1.999095000000000027e+03
1.079999999999999988e-01 1.667524999999999979e-01 3.950800000000000267e+01 1.669170000000000016e+02 1.999250000000000000e+03
1.089999999999999997e-01 1.667600000000000193e-01 3.872874999999999801e+01 1.667249999999999943e+02 1.999325000000000045e+03
1.100000000000000006e-01 1.667595000000000049e-01 3.786865000000000236e+01 1.663464999999999918e+02 1.999329999999999927e+03
1.110000000000000014e-01 1.667514999999999969e-01 3.694194999999999851e+01 1.658129999999999882e+02 1.999269999999999982e+03
1.120000000000000023e-01 1.667369999999999963e-01 3.596389999999999532e+01 1.651560000000000059e+02 1.999155000000000200e+03
1.130000000000000032e-01 1.667179999999999773e-01 3.495005000000000450e+01 1.644089999999999918e+02 1.999000000000000000e+03
1.140000000000000041e-01 1.666950000000000098e-01 3.391559999999999775e+01 1.636030000000000086e+02 1.998804999999999836e+03
1.150000000000000050e-01 1.666690000000000116e-01 3.287505000000000166e+01 1.627669999999999959e+02 1.998585000000000036e+03
1.160000000000000059e-01 1.666409999999999836e-01 3.184159999999999968e+01 1.619270000000000209e+02 1.998344999999999800e+03
1.170000000000000068e-01 1.666130000000000111e-01 3.082685000000000031e+01 1.611045000000000016e+02 1.998110000000000127e+03
1.180000000000000077e-01 1.665844999999999965e-01 2.984050000000000225e+01 1.603154999999999859e+02 1.997860000000000127e+03
1.190000000000000085e-01 1.665564999999999962e-01 2.888994999999999891e+01 1.595734999999999957e+02 1.997619999999999891e+03
1.200000000000000094e-01 1.665300000000000114e-01 2.798029999999999973e+01 1.588834999999999980e+02 1.997384999999999991e+03
1.209999999999999964e-01 1.665044999999999997e-01 2.711445000000000149e+01 1.582475000000000023e+02 1.997164999999999964e+03
1.219999999999999973e-01 1.664805000000000035e-01 2.629294999999999760e+01 1.576630000000000109e+02 1.996954999999999927e+03
1.229999999999999982e-01 1.664585000000000092e-01 2.551415000000000077e+01 1.571204999999999927e+02 1.996759999999999991e+03
1.239999999999999991e-01 1.664370000000000016e-01 2.477449999999999974e+01 1.566109999999999900e+02 1.996574999999999818e+03
1.250000000000000000e-01 1.664170000000000094e-01 2.406875000000000142e+01 1.561179999999999950e+02 1.996394999999999982e+03
1.260000000000000009e-01 1.663970000000000171e-01 2.339039999999999964e+01 1.556260000000000048e+02 1.996220000000000027e+03
1.270000000000000018e-01 1.663769999999999971e-01 2.273215000000000074e+01 1.551165000000000020e+02 1.996039999999999964e+03
1.280000000000000027e-01 1.663560000000000039e-01 2.208589999999999876e+01 1.545720000000000027e+02 1.995855000000000018e+03
1.290000000000000036e-01 1.663339999999999819e-01 2.144389999999999930e+01 1.539744999999999777e+02 1.995664999999999964e+03
1.300000000000000044e-01 1.663094999999999990e-01 2.079834999999999923e+01 1.533075000000000045e+02 1.995454999999999927e+03
1.310000000000000053e-01 1.662830000000000141e-01 2.014235000000000042e+01 1.525585000000000093e+02 1.995220000000000027e+03
1.320000000000000062e-01 1.662534999999999985e-01 1.947030000000000172e+01 1.517160000000000082e+02 1.994965000000000146e+03
1.330000000000000071e-01 1.662210000000000076e-01 1.877774999999999750e+01 1.507740000000000009e+02 1.994680000000000064e+03
1.340000000000000080e-01 1.661839999999999984e-01 1.806200000000000117e+01 1.497299999999999898e+02 1.994365000000000009e+03
1.350000000000000089e-01 1.661440000000000139e-01 1.732215000000000060e+01 1.485854999999999961e+02 1.994019999999999982e+03
1.360000000000000098e-01 1.660999999999999976e-01 1.655924999999999869e+01 1.473464999999999918e+02 1.993650000000000091e+03
1.370000000000000107e-01 1.660524999999999918e-01 1.577605000000000146e+01 1.460235000000000127e+02 1.993244999999999891e+03
1.380000000000000115e-01 1.660030000000000117e-01 1.497719999999999985e+01 1.446315000000000168e+02 1.992809999999999945e+03
1.390000000000000124e-01 1.659499999999999864e-01 1.416895000000000060e+01 1.431879999999999882e+02 1.992360000000000127e+03
1.400000000000000133e-01 1.658950000000000147e-01 1.335875000000000057e+01 1.417119999999999891e+02 1.991889999999999873e+03
1.410000000000000142e-01 1.658395000000000008e-01 1.255504999999999960e+01 1.402275000000000205e+02 1.991414999999999964e+03
1.420000000000000151e-01 1.657830000000000137e-01 1.176698500000000003e+01 1.387565000000000168e+02 1.990934999999999945e+03
1.430000000000000160e-01 1.657270000000000132e-01 1.100374000000000052e+01 1.373215000000000146e+02 1.990450000000000045e+03
1.440000000000000169e-01 1.656725000000000003e-01 1.027434000000000047e+01 1.359435000000000002e+02 1.989980000000000018e+03
1.450000000000000178e-01 1.656199999999999894e-01 9.587270000000000181e+00 1.346435000000000173e+02 1.989525000000000091e+03
1.459999999999999909e-01 1.655689999999999940e-01 8.949874999999998693e+00 1.334370000000000118e+02 1.989090000000000146e+03
1.469999999999999918e-01 1.655225000000000168e-01 8.368399999999999395e+00 1.323375000000000057e+02 1.988684999999999945e+03
1.479999999999999927e-01 1.654789999999999872e-01 7.847574999999999967e+00 1.313534999999999968e+02 1.988309999999999945e+03
1.489999999999999936e-01 1.654400000000000037e-01 7.390484999999999971e+00 1.304925000000000068e+02 1.987970000000000027e+03
1.499999999999999944e-01 1.654050000000000242e-01 6.998549999999999827e+00 1.297545000000000073e+02 1.987664999999999964e+03
1.509999999999999953e-01 1.653749999999999942e-01 6.671554999999999680e+00 1.291380000000000052e+02 1.987404999999999973e+03
1.519999999999999962e-01 1.653489999999999960e-01 6.407719999999999416e+00 1.286370000000000005e+02 1.987170000000000073e+03
1.529999999999999971e-01 1.653270000000000017e-01 6.203854999999999897e+00 1.282429999999999950e+02 1.986980000000000018e+03
1.539999999999999980e-01 1.653089999999999837e-01 6.055584999999999773e+00 1.279445000000000050e+02 1.986820000000000164e+03
1.549999999999999989e-01 1.652949999999999975e-01 5.957570000000000476e+00 1.277299999999999898e+02 1.986690000000000055e+03
1.559999999999999998e-01 1.652839999999999865e-01 5.903755000000000308e+00 1.275844999999999914e+02 1.986590000000000146e+03
1.570000000000000007e-01 1.652750000000000052e-01 5.887620000000000076e+00 1.274950000000000045e+02 1.986514999999999873e+03
1.580000000000000016e-01 1.652689999999999992e-01 5.902435000000000542e+00 1.274470000000000027e+02 1.986454999999999927e+03
1.590000000000000024e-01 1.652649999999999952e-01 5.941485000000000127e+00 1.274279999999999973e+02 1.986410000000000082e+03
