# t [s], A [cm^2], U [cm/s], P [cPa], c [cm/s]
1.000000000000000021e-03 1.961379999999999790e-01 4.040081500000000103e-01 9.501599999999999113e+01 2.309885000000000218e+03
2.000000000000000042e-03 1.960645000000000027e-01 2.036175499999999694e+00 9.091110000000000468e+01 2.309230000000000018e+03
3.000000000000000062e-03 1.959020000000000206e-01 4.046448500000000337e+00 8.524240000000000350e+01 2.307815000000000055e+03
4.000000000000000083e-03 1.957030000000000158e-01 6.337450000000000472e+00 7.958514999999999873e+01 2.306109999999999673e+03
5.000000000000000104e-03 1.955085000000000017e-01 8.749470000000000525e+00 7.502655000000000030e+01 2.304454999999999927e+03
6.000000000000000125e-03 1.953300000000000036e-01 1.092991499999999938e+01 7.138185000000000002e+01 2.302970000000000255e+03
7.000000000000000146e-03 1.951684999999999948e-01 1.267362500000000125e+01 6.809645000000000437e+01 2.301654999999999745e+03
8.000000000000000167e-03 1.950295000000000223e-01 1.405129999999999946e+01 6.526460000000000150e+01 2.300545000000000073e+03
9.000000000000001055e-03 1.949175000000000213e-01 1.512490000000000023e+01 6.305069999999999908e+01 2.299659999999999854e+03
1.000000000000000194e-02 1.948300000000000032e-01 1.592290000000000028e+01 6.140394999999999470e+01 2.298985000000000127e+03
1.099999999999999936e-02 1.947665000000000091e-01 1.647875000000000156e+01 6.024394999999999811e+01 2.298489999999999782e+03
1.200000000000000025e-02 1.947185000000000166e-01 1.678819999999999979e+01 5.936934999999999718e+01 2.298135000000000218e+03
1.300000000000000114e-02 1.946795000000000053e-01 1.688344999999999985e+01 5.858639999999999759e+01 2.297859999999999673e+03
1.400000000000000203e-02 1.946535000000000071e-01 1.695485000000000042e+01 5.815010000000000190e+01 2.297675000000000182e+03
1.499999999999999944e-02 1.946574999999999833e-01 1.729589999999999961e+01 5.880760000000000076e+01 2.297715000000000146e+03
1.600000000000000033e-02 1.947089999999999932e-01 1.808999999999999986e+01 6.120920000000000272e+01 2.298119999999999891e+03
1.700000000000000122e-02 1.948110000000000119e-01 1.925065000000000026e+01 6.525249999999999773e+01 2.298925000000000182e+03
1.800000000000000211e-02 1.949430000000000052e-01 2.044484999999999886e+01 6.994294999999999618e+01 2.299984999999999673e+03
1.900000000000000300e-02 1.950709999999999944e-01 2.126525000000000176e+01 7.383915000000000362e+01 2.301029999999999745e+03
2.000000000000000042e-02 1.951594999999999858e-01 2.142965000000000231e+01 7.574835000000000207e+01 2.301769999999999982e+03
2.100000000000000130e-02 1.951880000000000004e-01 2.090115000000000123e+01 7.526314999999999600e+01 2.302045000000000073e+03
2.200000000000000219e-02 1.951579999999999981e-01 1.987834999999999752e+01 7.287715000000000032e+01 2.301850000000000364e+03
2.299999999999999961e-02 1.950910000000000144e-01 1.867575000000000074e+01 6.966264999999999930e+01 2.301335000000000036e+03
2.400000000000000050e-02 1.950135000000000063e-01 1.757029999999999959e+01 6.672495000000000687e+01 2.300720000000000255e+03
2.500000000000000139e-02 1.949480000000000102e-01 1.669269999999999854e+01 6.473029999999999973e+01 2.300184999999999945e+03
2.600000000000000228e-02 1.949035000000000073e-01 1.600500000000000256e+01 6.371469999999999345e+01 2.299805000000000291e+03
2.700000000000000316e-02 1.948739999999999917e-01 1.535620000000000118e+01 6.320074999999999932e+01 2.299559999999999945e+03
2.800000000000000058e-02 1.948459999999999914e-01 1.457740000000000080e+01 6.251444999999999652e+01 2.299335000000000036e+03
2.900000000000000147e-02 1.948050000000000059e-01 1.357380000000000031e+01 6.114239999999999498e+01 2.299015000000000327e+03
3.000000000000000236e-02 1.947450000000000014e-01 1.238010000000000055e+01 5.898904999999999887e+01 2.298539999999999964e+03
3.099999999999999978e-02 1.946705000000000241e-01 1.115838499999999911e+01 5.644180000000000064e+01 2.297949999999999818e+03
3.200000000000000067e-02 1.945979999999999932e-01 1.014141000000000048e+01 5.422429999999999950e+01 2.297364999999999782e+03
3.300000000000000155e-02 1.945469999999999977e-01 9.545255000000000933e+00 5.310764999999999958e+01 2.296934999999999945e+03
3.400000000000000244e-02 1.945355000000000001e-01 9.489405000000001422e+00 5.360555000000000092e+01 2.296814999999999600e+03
3.500000000000000333e-02 1.945704999999999796e-01 9.954409999999999314e+00 5.577710000000000434e+01 2.297065000000000055e+03
3.600000000000000422e-02 1.946485000000000021e-01 1.078765999999999892e+01 5.919915000000000305e+01 2.297659999999999854e+03
3.700000000000000511e-02 1.947520000000000084e-01 1.174814999999999898e+01 6.309575000000000244e+01 2.298480000000000018e+03
3.799999999999999906e-02 1.948595000000000188e-01 1.256910000000000061e+01 6.655644999999999811e+01 2.299329999999999927e+03
3.899999999999999994e-02 1.949445000000000205e-01 1.301780000000000115e+01 6.876425000000000409e+01 2.300030000000000200e+03
4.000000000000000083e-02 1.949874999999999803e-01 1.293759999999999977e+01 6.916750000000000398e+01 2.300394999999999982e+03
4.100000000000000172e-02 1.949764999999999970e-01 1.226549999999999940e+01 6.755989999999999895e+01 2.300335000000000036e+03
4.200000000000000261e-02 1.949079999999999979e-01 1.102541499999999886e+01 6.406609999999999161e+01 2.299815000000000055e+03
4.300000000000000350e-02 1.947865000000000013e-01 9.306110000000000326e+00 5.905494999999999806e+01 2.298864999999999782e+03
4.400000000000000439e-02 1.946240000000000192e-01 7.231430000000000469e+00 5.301935000000000286e+01 2.297569999999999709e+03
4.499999999999999833e-02 1.944330000000000225e-01 4.934396450000000378e+00 4.646354999999999791e+01 2.296045000000000073e+03
4.599999999999999922e-02 1.942265000000000241e-01 2.539719999999999978e+00 3.982585000000000264e+01 2.294394999999999982e+03
4.700000000000000011e-02 1.940175000000000094e-01 1.572299999999997588e-01 3.344700000000000273e+01 2.292715000000000146e+03
4.800000000000000100e-02 1.938150000000000150e-01 -2.117094999999999949e+00 2.757699999999999818e+01 2.291079999999999927e+03
4.900000000000000189e-02 1.936279999999999946e-01 -4.196155000000000079e+00 2.240425000000000111e+01 2.289570000000000164e+03
5.000000000000000278e-02 1.934629999999999961e-01 -5.997125000000000483e+00 1.808755000000000024e+01 2.288225000000000364e+03
5.100000000000000366e-02 1.933249999999999968e-01 -7.440060000000000784e+00 1.477797999999999945e+01 2.287100000000000364e+03
5.200000000000000455e-02 1.932204999999999895e-01 -8.450670000000000570e+00 1.262328499999999920e+01 2.286234999999999673e+03
5.300000000000000544e-02 1.931545000000000067e-01 -8.966445000000000221e+00 1.175578499999999948e+01 2.285680000000000291e+03
5.399999999999999939e-02 1.931309999999999971e-01 -8.944475000000000620e+00 1.226994999999999969e+01 2.285449999999999818e+03
5.500000000000000028e-02 1.931525000000000047e-01 -8.367999999999998550e+00 1.419914999999999949e+01 2.285585000000000036e+03
5.600000000000000117e-02 1.932184999999999875e-01 -7.250234999999999985e+00 1.749954999999999927e+01 2.286085000000000036e+03
5.700000000000000205e-02 1.933285000000000142e-01 -5.634185000000000443e+00 2.204589999999999961e+01 2.286930000000000291e+03
5.800000000000000294e-02 1.934774999999999967e-01 -3.588642000000000110e+00 2.764150000000000063e+01 2.288090000000000146e+03
5.900000000000000383e-02 1.936594999999999844e-01 -1.201655000000000140e+00 3.403779999999999717e+01 2.289525000000000091e+03
6.000000000000000472e-02 1.938654999999999962e-01 1.427159999999999984e+00 4.095860000000000412e+01 2.291164999999999964e+03
6.099999999999999867e-02 1.940879999999999828e-01 4.193986999999999910e+00 4.812439999999999429e+01 2.292939999999999600e+03
6.199999999999999956e-02 1.943185000000000051e-01 6.997194999999999609e+00 5.527179999999999893e+01 2.294795000000000073e+03
6.300000000000000044e-02 1.945489999999999997e-01 9.742734999999999701e+00 6.216885000000000616e+01 2.296654999999999745e+03
6.400000000000000133e-02 1.947714999999999863e-01 1.234841000000000122e+01 6.862530000000000996e+01 2.298460000000000036e+03
6.500000000000000222e-02 1.949814999999999743e-01 1.474779999999999980e+01 7.450059999999999150e+01 2.300175000000000182e+03
6.600000000000000311e-02 1.951734999999999998e-01 1.689365000000000094e+01 7.970904999999999063e+01 2.301750000000000000e+03
6.700000000000000400e-02 1.953460000000000196e-01 1.875990000000000180e+01 8.422380000000001132e+01 2.303170000000000073e+03
6.800000000000000488e-02 1.954974999999999907e-01 2.034244999999999948e+01 8.807625000000000171e+01 2.304430000000000291e+03
6.900000000000000577e-02 1.956299999999999983e-01 2.165855000000000175e+01 9.135134999999999650e+01 2.305534999999999854e+03
7.000000000000000666e-02 1.957460000000000033e-01 2.274334999999999951e+01 9.417750000000000909e+01 2.306505000000000109e+03
7.100000000000000755e-02 1.958489999999999953e-01 2.364540000000000219e+01 9.671245000000000402e+01 2.307364999999999782e+03
7.200000000000000844e-02 1.959444999999999937e-01 2.442085000000000150e+01 9.912420000000000186e+01 2.308159999999999854e+03
7.300000000000000933e-02 1.960365000000000024e-01 2.512709999999999866e+01 1.015744499999999988e+02 2.308934999999999945e+03
7.399999999999999634e-02 1.961304999999999854e-01 2.581680000000000064e+01 1.042019999999999982e+02 2.309710000000000036e+03
7.499999999999999722e-02 1.962300000000000155e-01 2.653294999999999959e+01 1.071055000000000064e+02 2.310534999999999854e+03
7.599999999999999811e-02 1.963380000000000125e-01 2.730519999999999925e+01 1.103409999999999940e+02 2.311420000000000073e+03
7.699999999999999900e-02 1.964549999999999907e-01 2.814775000000000205e+01 1.139159999999999968e+02 2.312385000000000218e+03
7.799999999999999989e-02 1.965819999999999790e-01 2.905944999999999823e+01 1.177905000000000086e+02 2.313425000000000182e+03
7.900000000000000078e-02 1.967165000000000163e-01 3.002459999999999951e+01 1.218849999999999909e+02 2.314534999999999854e+03
8.000000000000000167e-02 1.968570000000000042e-01 3.101539999999999964e+01 1.260900000000000034e+02 2.315679999999999836e+03
8.100000000000000255e-02 1.969990000000000074e-01 3.199510000000000076e+01 1.302754999999999939e+02 2.316850000000000364e+03
8.200000000000000344e-02 1.971395000000000231e-01 3.292170000000000130e+01 1.343045000000000186e+02 2.318010000000000218e+03
8.300000000000000433e-02 1.972725000000000173e-01 3.375150000000000006e+01 1.380430000000000064e+02 2.319114999999999782e+03
8.400000000000000522e-02 1.973965000000000025e-01 3.444265000000000043e+01 1.413704999999999927e+02 2.320140000000000327e+03
8.500000000000000611e-02 1.975060000000000149e-01 3.495829999999999416e+01 1.441859999999999786e+02 2.321055000000000291e+03
8.600000000000000699e-02 1.975989999999999969e-01 3.526895000000000380e+01 1.464155000000000086e+02 2.321829999999999927e+03
8.700000000000000788e-02 1.976725000000000010e-01 3.535470000000000113e+01 1.480144999999999982e+02 2.322454999999999927e+03
8.800000000000000877e-02 1.977264999999999995e-01 3.520589999999999975e+01 1.489680000000000177e+02 2.322909999999999854e+03
8.899999999999999578e-02 1.977590000000000181e-01 3.482379999999999853e+01 1.492944999999999993e+02 2.323199999999999818e+03
8.999999999999999667e-02 1.977720000000000034e-01 3.422010000000000218e+01 1.490360000000000014e+02 2.323324999999999818e+03
9.099999999999999756e-02 1.977665000000000117e-01 3.341584999999999894e+01 1.482595000000000027e+02 2.323295000000000073e+03
9.199999999999999845e-02 1.977440000000000031e-01 3.243980000000000530e+01 1.470500000000000114e+02 2.323130000000000109e+03
9.299999999999999933e-02 1.977079999999999949e-01 3.132655000000000101e+01 1.455029999999999859e+02 2.322844999999999800e+03
9.400000000000000022e-02 1.976614999999999900e-01 3.011435000000000173e+01 1.437199999999999989e+02 2.322470000000000255e+03
9.500000000000000111e-02 1.976074999999999915e-01 2.884304999999999808e+01 1.418034999999999854e+02 2.322034999999999854e+03
9.600000000000000200e-02 1.975485000000000158e-01 2.755185000000000173e+01 1.398500000000000227e+02 2.321555000000000291e+03
9.700000000000000289e-02 1.974885000000000113e-01 2.627774999999999750e+01 1.379474999999999909e+02 2.321065000000000055e+03
9.800000000000000377e-02 1.974294999999999800e-01 2.505369999999999919e+01 1.361719999999999970e+02 2.320574999999999818e+03
9.900000000000000466e-02 1.973739999999999939e-01 2.390719999999999956e+01 1.345825000000000102e+02 2.320114999999999782e+03
1.000000000000000056e-01 1.973245000000000138e-01 2.285889999999999844e+01 1.332214999999999918e+02 2.319699999999999818e+03
1.010000000000000064e-01 1.972809999999999842e-01 2.192235000000000156e+01 1.321129999999999995e+02 2.319340000000000146e+03
1.020000000000000073e-01 1.972460000000000047e-01 2.110300000000000153e+01 1.312590000000000146e+02 2.319039999999999964e+03
1.030000000000000082e-01 1.972174999999999900e-01 2.039835000000000065e+01 1.306444999999999936e+02 2.318800000000000182e+03
1.040000000000000091e-01 1.971964999999999968e-01 1.979840000000000089e+01 1.302330000000000041e+02 2.318614999999999782e+03
1.050000000000000100e-01 1.971809999999999952e-01 1.928650000000000020e+01 1.299745000000000061e+02 2.318480000000000018e+03
1.059999999999999970e-01 1.971700000000000119e-01 1.884065000000000012e+01 1.298060000000000116e+02 2.318380000000000109e+03
1.069999999999999979e-01 1.971610000000000029e-01 1.843500000000000227e+01 1.296560000000000059e+02 2.318300000000000182e+03
1.079999999999999988e-01 1.971519999999999939e-01 1.804200000000000159e+01 1.294519999999999982e+02 2.318220000000000255e+03
1.089999999999999997e-01 1.971410000000000107e-01 1.763425000000000153e+01 1.291219999999999857e+02 2.318125000000000000e+03
1.100000000000000006e-01 1.971255000000000090e-01 1.718639999999999901e+01 1.286039999999999850e+02 2.318000000000000000e+03
1.110000000000000014e-01 1.971040000000000014e-01 1.667719999999999914e+01 1.278470000000000084e+02 2.317819999999999709e+03
1.120000000000000023e-01 1.970750000000000002e-01 1.609084999999999965e+01 1.268185000000000002e+02 2.317579999999999927e+03
1.130000000000000032e-01 1.970370000000000177e-01 1.541815000000000069e+01 1.255024999999999977e+02 2.317274999999999636e+03
1.140000000000000041e-01 1.969905000000000128e-01 1.465745000000000076e+01 1.239064999999999941e+02 2.316894999999999982e+03
1.150000000000000050e-01 1.969349999999999989e-01 1.381429999999999936e+01 1.220550000000000068e+02 2.316444999999999709e+03
1.160000000000000059e-01 1.968725000000000058e-01 1.290135000000000076e+01 1.199945000000000022e+02 2.315934999999999945e+03
1.170000000000000068e-01 1.968035000000000201e-01 1.193727000000000160e+01 1.177814999999999941e+02 2.315369999999999891e+03
1.180000000000000077e-01 1.967295000000000016e-01 1.094541500000000056e+01 1.154879999999999995e+02 2.314769999999999982e+03
1.190000000000000085e-01 1.966539999999999955e-01 9.952144999999999797e+00 1.131889999999999930e+02 2.314154999999999745e+03
1.200000000000000094e-01 1.965784999999999894e-01 8.984970000000000567e+00 1.109615000000000009e+02 2.313534999999999854e+03
1.209999999999999964e-01 1.965060000000000140e-01 8.070949999999999847e+00 1.088770000000000095e+02 2.312940000000000055e+03
1.219999999999999973e-01 1.964380000000000015e-01 7.234785000000000466e+00 1.070000000000000000e+02 2.312375000000000000e+03
1.229999999999999982e-01 1.963765000000000094e-01 6.497550000000000381e+00 1.053824999999999932e+02 2.311869999999999891e+03
1.239999999999999991e-01 1.963234999999999841e-01 5.875550000000000495e+00 1.040614999999999952e+02 2.311425000000000182e+03
1.250000000000000000e-01 1.962804999999999966e-01 5.379630000000000578e+00 1.030589999999999975e+02 2.311065000000000055e+03
1.260000000000000009e-01 1.962470000000000048e-01 5.014809999999999768e+00 1.023804999999999978e+02 2.310779999999999745e+03
1.270000000000000018e-01 1.962240000000000095e-01 4.780330000000000190e+00 1.020180000000000007e+02 2.310579999999999927e+03
1.280000000000000027e-01 1.962109999999999965e-01 4.670004999999999740e+00 1.019474999999999909e+02 2.310465000000000146e+03
1.290000000000000036e-01 1.962069999999999925e-01 4.672874999999999446e+00 1.021359999999999957e+02 2.310420000000000073e+03
1.300000000000000044e-01 1.962109999999999965e-01 4.773989999999999512e+00 1.025399999999999920e+02 2.310444999999999709e+03
1.310000000000000053e-01 1.962220000000000075e-01 4.955405000000000726e+00 1.031119999999999948e+02 2.310529999999999745e+03
1.320000000000000062e-01 1.962384999999999824e-01 5.197184999999999278e+00 1.037984999999999900e+02 2.310654999999999745e+03
1.330000000000000071e-01 1.962585000000000024e-01 5.478439999999999976e+00 1.045480000000000018e+02 2.310815000000000055e+03
1.340000000000000080e-01 1.962804999999999966e-01 5.778335000000000221e+00 1.053089999999999975e+02 2.310989999999999782e+03
1.350000000000000089e-01 1.963034999999999919e-01 6.077040000000000219e+00 1.060354999999999990e+02 2.311170000000000073e+03
1.360000000000000098e-01 1.963249999999999995e-01 6.356550000000000367e+00 1.066869999999999976e+02 2.311350000000000364e+03
1.370000000000000107e-01 1.963445000000000051e-01 6.601440000000000197e+00 1.072295000000000016e+02 2.311505000000000109e+03
1.380000000000000115e-01 1.963604999999999934e-01 6.799424999999999386e+00 1.076375000000000028e+02 2.311640000000000327e+03
1.390000000000000124e-01 1.963725000000000054e-01 6.941800000000000637e+00 1.078965000000000032e+02 2.311744999999999891e+03
1.400000000000000133e-01 1.963799999999999990e-01 7.023630000000000706e+00 1.080000000000000000e+02 2.311809999999999945e+03
1.410000000000000142e-01 1.963825000000000154e-01 7.043804999999999872e+00 1.079515000000000100e+02 2.311835000000000036e+03
1.420000000000000151e-01 1.963805000000000134e-01 7.004780000000000229e+00 1.077625000000000028e+02 2.311819999999999709e+03
1.430000000000000160e-01 1.963749999999999940e-01 6.912209999999999965e+00 1.074525000000000006e+02 2.311775000000000091e+03
1.440000000000000169e-01 1.963644999999999974e-01 6.774359999999999715e+00 1.070459999999999923e+02 2.311699999999999818e+03
1.450000000000000178e-01 1.963524999999999854e-01 6.601340000000000430e+00 1.065720000000000027e+02 2.311599999999999909e+03
1.459999999999999909e-01 1.963374999999999981e-01 6.404354999999999798e+00 1.060604999999999905e+02 2.311484999999999673e+03
1.469999999999999918e-01 1.963219999999999965e-01 6.194860000000000255e+00 1.055400000000000063e+02 2.311355000000000018e+03
1.479999999999999927e-01 1.963054999999999939e-01 5.983805000000000263e+00 1.050370000000000061e+02 2.311230000000000018e+03
1.489999999999999936e-01 1.962900000000000200e-01 5.780955000000000510e+00 1.045745000000000005e+02 2.311100000000000364e+03
1.499999999999999944e-01 1.962754999999999916e-01 5.594374999999999432e+00 1.041684999999999945e+02 2.310979999999999563e+03
1.509999999999999953e-01 1.962630000000000208e-01 5.430070000000000618e+00 1.038305000000000007e+02 2.310875000000000000e+03
1.519999999999999962e-01 1.962524999999999964e-01 5.291745000000000587e+00 1.035645000000000095e+02 2.310789999999999964e+03
1.529999999999999971e-01 1.962440000000000018e-01 5.180854999999999322e+00 1.033689999999999998e+02 2.310720000000000255e+03
1.539999999999999980e-01 1.962375000000000091e-01 5.096664999999999779e+00 1.032374999999999972e+02 2.310664999999999964e+03
1.549999999999999989e-01 1.962325000000000041e-01 5.036540000000000461e+00 1.031595000000000084e+02 2.310625000000000000e+03
1.559999999999999998e-01 1.962300000000000155e-01 4.996259999999999479e+00 1.031189999999999998e+02 2.310594999999999800e+03
1.570000000000000007e-01 1.962274999999999991e-01 4.970444999999999780e+00 1.031005000000000109e+02 2.310579999999999927e+03
1.580000000000000016e-01 1.962260000000000115e-01 4.952994999999999592e+00 1.030859999999999985e+02 2.310565000000000055e+03
1.590000000000000024e-01 1.962245000000000239e-01 4.937570000000000014e+00 1.030585000000000093e+02 2.310550000000000182e+03
