# t [s], A [cm^2], U [cm/s], P [cPa], c [cm/s]
1.000000000000000021e-03 1.764755000000000074e-01 3.528605000000000214e-01 1.041020000000000039e+02 2.026220000000000027e+03
2.000000000000000042e-03 1.764224999999999821e-01 2.060015000000000374e+00 1.005253500000000031e+02 2.025740000000000009e+03
3.000000000000000062e-03 1.762769999999999893e-01 4.164807500000000218e+00 9.557869999999999777e+01 2.024474999999999909e+03
4.000000000000000083e-03 1.760764999999999969e-01 6.527174000000000476e+00 9.020504999999999995e+01 2.022764999999999873e+03
5.000000000000000104e-03 1.758615000000000039e-01 9.060909999999999798e+00 8.539249999999999829e+01 2.020940000000000055e+03
6.000000000000000125e-03 1.756540000000000046e-01 1.156397499999999923e+01 8.145420000000000016e+01 2.019204999999999927e+03
7.000000000000000146e-03 1.754605000000000192e-01 1.379535500000000070e+01 7.811050000000000182e+01 2.017615000000000009e+03
8.000000000000000167e-03 1.752830000000000221e-01 1.566495000000000104e+01 7.510569999999999879e+01 2.016190000000000055e+03
9.000000000000001055e-03 1.751280000000000059e-01 1.721840000000000259e+01 7.250064999999999316e+01 2.014954999999999927e+03
1.000000000000000194e-02 1.749970000000000137e-01 1.849729999999999919e+01 7.037839999999999918e+01 2.013924999999999955e+03
1.099999999999999936e-02 1.748899999999999899e-01 1.952304999999999779e+01 6.871399999999999864e+01 2.013094999999999800e+03
1.200000000000000025e-02 1.748055000000000025e-01 2.031960000000000122e+01 6.745194999999999652e+01 2.012449999999999818e+03
1.300000000000000114e-02 1.747400000000000064e-01 2.089804999999999779e+01 6.649960000000000093e+01 2.011954999999999927e+03
1.400000000000000203e-02 1.746880000000000099e-01 2.126604999999999990e+01 6.572530000000000427e+01 2.011574999999999818e+03
1.499999999999999944e-02 1.746469999999999967e-01 2.148199999999999932e+01 6.509329999999999927e+01 2.011275000000000091e+03
1.600000000000000033e-02 1.746195000000000108e-01 2.168224999999999980e+01 6.479959999999999809e+01 2.011090000000000146e+03
1.700000000000000122e-02 1.746159999999999934e-01 2.203249999999999886e+01 6.521314999999999884e+01 2.011079999999999927e+03
1.800000000000000211e-02 1.746449999999999947e-01 2.263754999999999740e+01 6.663684999999999548e+01 2.011315000000000055e+03
1.900000000000000300e-02 1.747100000000000042e-01 2.347744999999999749e+01 6.907019999999999982e+01 2.011825000000000045e+03
2.000000000000000042e-02 1.748029999999999862e-01 2.440915000000000035e+01 7.213515000000001010e+01 2.012559999999999945e+03
2.100000000000000130e-02 1.749080000000000079e-01 2.522554999999999836e+01 7.519525000000000148e+01 2.013394999999999982e+03
2.200000000000000219e-02 1.750049999999999939e-01 2.573709999999999809e+01 7.758944999999999936e+01 2.014184999999999945e+03
2.299999999999999961e-02 1.750760000000000094e-01 2.583794999999999931e+01 7.886365000000000691e+01 2.014780000000000200e+03
2.400000000000000050e-02 1.751125000000000043e-01 2.553450000000000131e+01 7.890829999999999700e+01 2.015105000000000018e+03
2.500000000000000139e-02 1.751149999999999929e-01 2.492954999999999899e+01 7.795674999999999955e+01 2.015150000000000091e+03
2.600000000000000228e-02 1.750915000000000110e-01 2.417405000000000115e+01 7.646209999999999241e+01 2.014985000000000127e+03
2.700000000000000316e-02 1.750550000000000161e-01 2.340925000000000011e+01 7.491284999999999172e+01 2.014710000000000036e+03
2.800000000000000058e-02 1.750174999999999925e-01 2.272259999999999991e+01 7.366615000000000180e+01 2.014414999999999964e+03
2.900000000000000147e-02 1.749870000000000037e-01 2.213070000000000093e+01 7.285535000000000139e+01 2.014164999999999964e+03
3.000000000000000236e-02 1.749640000000000084e-01 2.158964999999999890e+01 7.239149999999999352e+01 2.013985000000000127e+03
3.099999999999999978e-02 1.749465000000000048e-01 2.102479999999999905e+01 7.203970000000001050e+01 2.013835000000000036e+03
3.200000000000000067e-02 1.749264999999999848e-01 2.036715000000000231e+01 7.153430000000000177e+01 2.013680000000000064e+03
3.300000000000000155e-02 1.748989999999999989e-01 1.958419999999999916e+01 7.069034999999999513e+01 2.013470000000000027e+03
3.400000000000000244e-02 1.748605000000000020e-01 1.869749999999999801e+01 6.948000000000000398e+01 2.013175000000000182e+03
3.500000000000000333e-02 1.748139999999999972e-01 1.778174999999999883e+01 6.805219999999999914e+01 2.012809999999999945e+03
3.600000000000000422e-02 1.747650000000000037e-01 1.694624999999999915e+01 6.669304999999999950e+01 2.012420000000000073e+03
3.700000000000000511e-02 1.747225000000000028e-01 1.630444999999999922e+01 6.574075000000000557e+01 2.012079999999999927e+03
3.799999999999999906e-02 1.746984999999999788e-01 1.594314999999999927e+01 6.548429999999999040e+01 2.011875000000000000e+03
3.899999999999999994e-02 1.746984999999999788e-01 1.589825000000000088e+01 6.607829999999999870e+01 2.011855000000000018e+03
4.000000000000000083e-02 1.747255000000000058e-01 1.614555000000000007e+01 6.749755000000000393e+01 2.012054999999999836e+03
4.100000000000000172e-02 1.747779999999999889e-01 1.660620000000000118e+01 6.954040000000000532e+01 2.012450000000000045e+03
4.200000000000000261e-02 1.748480000000000034e-01 1.716380000000000194e+01 7.187430000000000518e+01 2.012990000000000009e+03
4.300000000000000350e-02 1.749235000000000095e-01 1.768684999999999974e+01 7.410605000000001041e+01 2.013579999999999927e+03
4.400000000000000439e-02 1.749930000000000097e-01 1.805215000000000103e+01 7.585745000000000005e+01 2.014134999999999991e+03
4.499999999999999833e-02 1.750454999999999928e-01 1.816215000000000046e+01 7.682819999999999538e+01 2.014559999999999945e+03
4.599999999999999922e-02 1.750710000000000044e-01 1.795589999999999975e+01 7.683610000000000184e+01 2.014775000000000091e+03
4.700000000000000011e-02 1.750645000000000118e-01 1.741169999999999973e+01 7.582884999999998854e+01 2.014739999999999782e+03
4.800000000000000100e-02 1.750244999999999995e-01 1.654274999999999807e+01 7.387149999999999750e+01 2.014440000000000055e+03
4.900000000000000189e-02 1.749529999999999974e-01 1.538874999999999993e+01 7.111639999999999873e+01 2.013884999999999991e+03
5.000000000000000278e-02 1.748544999999999960e-01 1.400569999999999915e+01 6.776520000000000721e+01 2.013119999999999891e+03
5.100000000000000366e-02 1.747350000000000014e-01 1.245637999999999934e+01 6.403279999999999461e+01 2.012180000000000064e+03
5.200000000000000455e-02 1.746004999999999918e-01 1.080378499999999953e+01 6.012085000000000434e+01 2.011119999999999891e+03
5.300000000000000544e-02 1.744590000000000030e-01 9.107255000000000322e+00 5.620265000000000555e+01 2.009994999999999891e+03
5.399999999999999939e-02 1.743149999999999977e-01 7.421650000000000524e+00 5.241989999999999839e+01 2.008855000000000018e+03
5.500000000000000028e-02 1.741739999999999955e-01 5.798115000000000130e+00 4.888774999999999693e+01 2.007730000000000018e+03
5.600000000000000117e-02 1.740404999999999869e-01 4.285636499999999849e+00 4.570360000000000156e+01 2.006670000000000073e+03
5.700000000000000205e-02 1.739189999999999903e-01 2.932068000000000119e+00 4.295614999999999384e+01 2.005700000000000045e+03
5.800000000000000294e-02 1.738135000000000097e-01 1.784239999999999826e+00 4.073085000000000377e+01 2.004845000000000027e+03
5.900000000000000383e-02 1.737265000000000059e-01 8.867749999999998689e-01 3.911084999999999923e+01 2.004139999999999873e+03
6.000000000000000472e-02 1.736619999999999830e-01 2.798149999999999249e-01 3.817385000000000161e+01 2.003615000000000009e+03
6.099999999999999867e-02 1.736234999999999862e-01 -3.921999999999981057e-03 3.798489999999999611e+01 2.003284999999999854e+03
6.199999999999999956e-02 1.736129999999999896e-01 5.795310000000000739e-02 3.858865000000000123e+01 2.003180000000000064e+03
6.300000000000000044e-02 1.736320000000000086e-01 4.751345000000000152e-01 4.000175000000000125e+01 2.003299999999999955e+03
6.400000000000000133e-02 1.736805000000000154e-01 1.243337499999999984e+00 4.220855000000000246e+01 2.003664999999999964e+03
6.500000000000000222e-02 1.737595000000000112e-01 2.344289500000000359e+00 4.515944999999999965e+01 2.004259999999999991e+03
6.600000000000000311e-02 1.738655000000000062e-01 3.746935500000000197e+00 4.877374999999999972e+01 2.005085000000000036e+03
6.700000000000000400e-02 1.739974999999999994e-01 5.409609999999999808e+00 5.294559999999999889e+01 2.006105000000000018e+03
6.800000000000000488e-02 1.741499999999999992e-01 7.282840000000000202e+00 5.755114999999999981e+01 2.007299999999999955e+03
6.900000000000000577e-02 1.743195000000000161e-01 9.312319999999999709e+00 6.245780000000000598e+01 2.008634999999999991e+03
7.000000000000000666e-02 1.745019999999999905e-01 1.144193500000000085e+01 6.753199999999999648e+01 2.010075000000000045e+03
7.100000000000000755e-02 1.746909999999999852e-01 1.361641999999999975e+01 7.264664999999999395e+01 2.011579999999999927e+03
7.200000000000000844e-02 1.748834999999999973e-01 1.578395000000000081e+01 7.768725000000000591e+01 2.013115000000000009e+03
7.300000000000000933e-02 1.750754999999999950e-01 1.789795000000000158e+01 8.255664999999999054e+01 2.014650000000000091e+03
7.399999999999999634e-02 1.752620000000000011e-01 1.991935000000000144e+01 8.717859999999998877e+01 2.016150000000000091e+03
7.499999999999999722e-02 1.754410000000000136e-01 2.181754999999999711e+01 9.150034999999999741e+01 2.017595000000000027e+03
7.599999999999999811e-02 1.756105000000000027e-01 2.357179999999999964e+01 9.549360000000000070e+01 2.018969999999999800e+03
7.699999999999999900e-02 1.757694999999999952e-01 2.517119999999999891e+01 9.915534999999999854e+01 2.020259999999999991e+03
7.799999999999999989e-02 1.759169999999999900e-01 2.661465000000000103e+01 1.025046499999999980e+02 2.021464999999999918e+03
7.900000000000000078e-02 1.760545000000000027e-01 2.790990000000000038e+01 1.055807000000000073e+02 2.022590000000000146e+03
8.000000000000000167e-02 1.761824999999999919e-01 2.907229999999999848e+01 1.084375000000000000e+02 2.023635000000000218e+03
8.100000000000000255e-02 1.763029999999999875e-01 3.012214999999999776e+01 1.111384999999999934e+02 2.024625000000000000e+03
8.200000000000000344e-02 1.764180000000000192e-01 3.108330000000000126e+01 1.137510000000000048e+02 2.025570000000000164e+03
8.300000000000000433e-02 1.765289999999999915e-01 3.198000000000000043e+01 1.163385000000000105e+02 2.026485000000000127e+03
8.400000000000000522e-02 1.766399999999999915e-01 3.283549999999999613e+01 1.189569999999999936e+02 2.027400000000000091e+03
8.500000000000000611e-02 1.767509999999999915e-01 3.366939999999999600e+01 1.216495000000000033e+02 2.028309999999999945e+03
8.600000000000000699e-02 1.768644999999999801e-01 3.449670000000000414e+01 1.244420000000000073e+02 2.029240000000000009e+03
8.700000000000000788e-02 1.769809999999999994e-01 3.532675000000000409e+01 1.273449999999999989e+02 2.030184999999999945e+03
8.800000000000000877e-02 1.771004999999999940e-01 3.616259999999999764e+01 1.303505000000000109e+02 2.031164999999999964e+03
8.899999999999999578e-02 1.772229999999999916e-01 3.700140000000000384e+01 1.334354999999999905e+02 2.032170000000000073e+03
8.999999999999999667e-02 1.773480000000000056e-01 3.783464999999999634e+01 1.365614999999999952e+02 2.033190000000000055e+03
9.099999999999999756e-02 1.774740000000000206e-01 3.864934999999999832e+01 1.396820000000000164e+02 2.034220000000000027e+03
9.199999999999999845e-02 1.775984999999999925e-01 3.942900000000000205e+01 1.427420000000000186e+02 2.035244999999999891e+03
9.299999999999999933e-02 1.777205000000000035e-01 4.015465000000000373e+01 1.456839999999999975e+02 2.036240000000000009e+03
9.400000000000000022e-02 1.778385000000000105e-01 4.080664999999999765e+01 1.484499999999999886e+02 2.037210000000000036e+03
9.500000000000000111e-02 1.779485000000000094e-01 4.136540000000000106e+01 1.509875000000000114e+02 2.038119999999999891e+03
9.600000000000000200e-02 1.780505000000000004e-01 4.181289999999999907e+01 1.532489999999999952e+02 2.038960000000000036e+03
9.700000000000000289e-02 1.781424999999999814e-01 4.213360000000000127e+01 1.551949999999999932e+02 2.039724999999999909e+03
9.800000000000000377e-02 1.782219999999999915e-01 4.231515000000000271e+01 1.567980000000000018e+02 2.040384999999999991e+03
9.900000000000000466e-02 1.782894999999999897e-01 4.234929999999999950e+01 1.580395000000000039e+02 2.040945000000000164e+03
1.000000000000000056e-01 1.783424999999999871e-01 4.223189999999999600e+01 1.589134999999999991e+02 2.041394999999999982e+03
1.010000000000000064e-01 1.783824999999999994e-01 4.196370000000000289e+01 1.594250000000000114e+02 2.041735000000000127e+03
1.020000000000000073e-01 1.784084999999999976e-01 4.154975000000000307e+01 1.595905000000000200e+02 2.041960000000000036e+03
1.030000000000000082e-01 1.784209999999999963e-01 4.099944999999999595e+01 1.594345000000000141e+02 2.042079999999999927e+03
1.040000000000000091e-01 1.784215000000000106e-01 4.032609999999999673e+01 1.589929999999999950e+02 2.042095000000000255e+03
1.050000000000000100e-01 1.784109999999999863e-01 3.954599999999999937e+01 1.583054999999999950e+02 2.042019999999999982e+03
1.059999999999999970e-01 1.783910000000000218e-01 3.867820000000000391e+01 1.574174999999999898e+02 2.041865000000000009e+03
1.069999999999999979e-01 1.783629999999999938e-01 3.774304999999999666e+01 1.563770000000000095e+02 2.041644999999999982e+03
1.079999999999999988e-01 1.783285000000000009e-01 3.676160000000000139e+01 1.552319999999999993e+02 2.041375000000000000e+03
1.089999999999999997e-01 1.782894999999999897e-01 3.575475000000000136e+01 1.540285000000000082e+02 2.041054999999999836e+03
1.100000000000000006e-01 1.782475000000000032e-01 3.474249999999999972e+01 1.528089999999999975e+02 2.040720000000000027e+03
1.110000000000000014e-01 1.782044999999999879e-01 3.374285000000000423e+01 1.516115000000000066e+02 2.040365000000000009e+03
1.120000000000000023e-01 1.781610000000000138e-01 3.277149999999999608e+01 1.504669999999999845e+02 2.040009999999999764e+03
1.130000000000000032e-01 1.781194999999999862e-01 3.184140000000000015e+01 1.493994999999999891e+02 2.039670000000000073e+03
1.140000000000000041e-01 1.780795000000000017e-01 3.096205000000000140e+01 1.484265000000000043e+02 2.039340000000000146e+03
1.150000000000000050e-01 1.780424999999999924e-01 3.013954999999999984e+01 1.475550000000000068e+02 2.039034999999999854e+03
1.160000000000000059e-01 1.780090000000000006e-01 2.937655000000000172e+01 1.467864999999999895e+02 2.038755000000000109e+03
1.170000000000000068e-01 1.779785000000000117e-01 2.867220000000000013e+01 1.461134999999999877e+02 2.038500000000000000e+03
1.180000000000000077e-01 1.779509999999999981e-01 2.802239999999999753e+01 1.455219999999999914e+02 2.038269999999999982e+03
1.190000000000000085e-01 1.779260000000000008e-01 2.742014999999999958e+01 1.449919999999999902e+02 2.038059999999999945e+03
1.200000000000000094e-01 1.779034999999999922e-01 2.685620000000000118e+01 1.444995000000000118e+02 2.037869999999999891e+03
1.209999999999999964e-01 1.778819999999999846e-01 2.631920000000000215e+01 1.440165000000000077e+02 2.037690000000000055e+03
1.219999999999999973e-01 1.778605000000000047e-01 2.579695000000000249e+01 1.435124999999999886e+02 2.037509999999999991e+03
1.229999999999999982e-01 1.778379999999999961e-01 2.527655000000000030e+01 1.429590000000000032e+02 2.037320000000000164e+03
1.239999999999999991e-01 1.778139999999999998e-01 2.474544999999999817e+01 1.423265000000000100e+02 2.037119999999999891e+03
1.250000000000000000e-01 1.777870000000000006e-01 2.419200000000000017e+01 1.415905000000000200e+02 2.036900000000000091e+03
1.260000000000000009e-01 1.777560000000000251e-01 2.360600000000000165e+01 1.407300000000000182e+02 2.036644999999999982e+03
1.270000000000000018e-01 1.777205000000000035e-01 2.297959999999999781e+01 1.397299999999999898e+02 2.036355000000000018e+03
1.280000000000000027e-01 1.776805000000000190e-01 2.230750000000000099e+01 1.385824999999999818e+02 2.036025000000000091e+03
1.290000000000000036e-01 1.776344999999999730e-01 2.158715000000000117e+01 1.372855000000000132e+02 2.035654999999999973e+03
1.300000000000000044e-01 1.775829999999999909e-01 2.081944999999999979e+01 1.358464999999999918e+02 2.035240000000000009e+03
1.310000000000000053e-01 1.775265000000000037e-01 2.000805000000000078e+01 1.342785000000000082e+02 2.034779999999999973e+03
1.320000000000000062e-01 1.774654999999999982e-01 1.915970000000000084e+01 1.326025000000000205e+02 2.034284999999999854e+03
1.330000000000000071e-01 1.774005000000000165e-01 1.828385000000000105e+01 1.308449999999999989e+02 2.033759999999999991e+03
1.340000000000000080e-01 1.773325000000000040e-01 1.739215000000000089e+01 1.290369999999999777e+02 2.033204999999999927e+03
1.350000000000000089e-01 1.772624999999999895e-01 1.649770000000000181e+01 1.272120000000000033e+02 2.032634999999999991e+03
1.360000000000000098e-01 1.771915000000000018e-01 1.561479999999999890e+01 1.254060000000000059e+02 2.032065000000000055e+03
1.370000000000000107e-01 1.771214999999999873e-01 1.475799999999999912e+01 1.236545000000000130e+02 2.031490000000000009e+03
1.380000000000000115e-01 1.770535000000000025e-01 1.394129999999999825e+01 1.219909999999999997e+02 2.030934999999999945e+03
1.390000000000000124e-01 1.769884999999999931e-01 1.317790000000000106e+01 1.204464999999999861e+02 2.030400000000000091e+03
1.400000000000000133e-01 1.769274999999999876e-01 1.247940000000000005e+01 1.190455000000000041e+02 2.029900000000000091e+03
1.410000000000000142e-01 1.768719999999999737e-01 1.185514500000000027e+01 1.178094999999999999e+02 2.029444999999999936e+03
1.420000000000000151e-01 1.768219999999999792e-01 1.131234500000000054e+01 1.167519999999999953e+02 2.029035000000000082e+03
1.430000000000000160e-01 1.767785000000000051e-01 1.085546500000000059e+01 1.158804999999999978e+02 2.028675000000000182e+03
1.440000000000000169e-01 1.767424999999999968e-01 1.048634500000000003e+01 1.151965000000000003e+02 2.028369999999999891e+03
1.450000000000000178e-01 1.767130000000000090e-01 1.020410500000000020e+01 1.146954999999999956e+02 2.028125000000000000e+03
1.459999999999999909e-01 1.766900000000000137e-01 1.000558000000000014e+01 1.143669999999999902e+02 2.027930000000000064e+03
1.469999999999999918e-01 1.766734999999999833e-01 9.885269999999998447e+00 1.141965000000000003e+02 2.027789999999999964e+03
1.479999999999999927e-01 1.766635000000000011e-01 9.836020000000001318e+00 1.141649999999999920e+02 2.027700000000000045e+03
1.489999999999999936e-01 1.766584999999999961e-01 9.849114999999999398e+00 1.142520000000000095e+02 2.027654999999999973e+03
1.499999999999999944e-01 1.766579999999999817e-01 9.914860000000000895e+00 1.144350000000000023e+02 2.027644999999999982e+03
1.509999999999999953e-01 1.766619999999999857e-01 1.002294499999999999e+01 1.146905000000000001e+02 2.027670000000000073e+03
1.519999999999999962e-01 1.766685000000000061e-01 1.016288499999999928e+01 1.149950000000000045e+02 2.027715000000000146e+03
1.529999999999999971e-01 1.766770000000000007e-01 1.032445500000000038e+01 1.153284999999999911e+02 2.027779999999999973e+03
1.539999999999999980e-01 1.766874999999999973e-01 1.049779999999999980e+01 1.156705000000000041e+02 2.027865000000000009e+03
1.549999999999999989e-01 1.766979999999999940e-01 1.067404999999999937e+01 1.160035000000000025e+02 2.027944999999999936e+03
1.559999999999999998e-01 1.767095000000000193e-01 1.084525000000000006e+01 1.163125000000000000e+02 2.028034999999999854e+03
1.570000000000000007e-01 1.767194999999999738e-01 1.100479999999999947e+01 1.165865000000000009e+02 2.028119999999999891e+03
1.580000000000000016e-01 1.767289999999999972e-01 1.114730000000000132e+01 1.168169999999999931e+02 2.028195000000000164e+03
1.590000000000000024e-01 1.767370000000000052e-01 1.126895000000000024e+01 1.169979999999999905e+02 2.028259999999999991e+03
