# t [s], A [cm^2], U [cm/s], P [cPa], c [cm/s]
1.000000000000000021e-03 5.694239999999999302e-01 6.054299999999998572e-03 1.065544999999999902e+02 1.613680000000000064e+03
2.000000000000000042e-03 5.694139999999999757e-01 -2.106326500000000115e-03 1.065244999999999891e+02 1.613674999999999955e+03
3.000000000000000062e-03 5.694664999999999866e-01 1.005346000000000017e-01 1.066345000000000027e+02 1.613704999999999927e+03
4.000000000000000083e-03 5.695109999999999895e-01 1.992038366500000213e-01 1.067555000000000121e+02 1.613735000000000127e+03
5.000000000000000104e-03 5.694799999999999862e-01 1.638474000000000041e-01 1.066765000000000043e+02 1.613724999999999909e+03
6.000000000000000125e-03 5.694124999999999881e-01 5.164950000000001484e-02 1.064219999999999970e+02 1.613660000000000082e+03
7.000000000000000146e-03 5.693529999999999980e-01 -5.342400000000002702e-02 1.061055000000000064e+02 1.613579999999999927e+03
8.000000000000000167e-03 5.692574999999999719e-01 -2.437199999999999367e-01 1.056324999999999932e+02 1.613465000000000146e+03
9.000000000000001055e-03 5.691015000000000379e-01 -5.707950000000000523e-01 1.049110000000000014e+02 1.613289999999999964e+03
1.000000000000000194e-02 5.688874999999999904e-01 -1.025255000000000027e+00 1.039085000000000036e+02 1.613045000000000073e+03
1.099999999999999936e-02 5.685945000000000027e-01 -1.629215000000000080e+00 1.025557500000000033e+02 1.612710000000000036e+03
1.200000000000000025e-02 5.682104999999999517e-01 -2.390035000000000132e+00 1.007912500000000051e+02 1.612259999999999991e+03
1.300000000000000114e-02 5.677665000000000628e-01 -3.216739999999999711e+00 9.868240000000000123e+01 1.611710000000000036e+03
1.400000000000000203e-02 5.673334999999999351e-01 -3.932279999999999553e+00 9.644169999999999732e+01 1.611110000000000127e+03
1.499999999999999944e-02 5.669750000000000068e-01 -4.365821999999999647e+00 9.432805000000000462e+01 1.610514999999999873e+03
1.600000000000000033e-02 5.667180000000000550e-01 -4.431941999999999382e+00 9.252134999999999820e+01 1.609969999999999800e+03
1.700000000000000122e-02 5.665424999999999489e-01 -4.150602000000000125e+00 9.106465000000000032e+01 1.609500000000000000e+03
1.800000000000000211e-02 5.664019999999999611e-01 -3.619659500000000030e+00 8.987020000000001119e+01 1.609079999999999927e+03
1.900000000000000300e-02 5.662430000000000518e-01 -2.966765999999999792e+00 8.877365000000000350e+01 1.608694999999999936e+03
2.000000000000000042e-02 5.660254999999999592e-01 -2.300936999999999788e+00 8.760429999999999495e+01 1.608284999999999854e+03
2.100000000000000130e-02 5.657375000000000043e-01 -1.678535000000000110e+00 8.624745000000000061e+01 1.607845000000000027e+03
2.200000000000000219e-02 5.653905000000000181e-01 -1.094460000000000210e+00 8.467875000000000796e+01 1.607345000000000027e+03
2.299999999999999961e-02 5.650159999999999627e-01 -5.004650000000001597e-01 8.295645000000000380e+01 1.606815000000000055e+03
2.400000000000000050e-02 5.646459999999999813e-01 1.604599999999996029e-01 8.118205000000000382e+01 1.606259999999999991e+03
2.500000000000000139e-02 5.643000000000000238e-01 9.207000000000000739e-01 7.944915000000000305e+01 1.605715000000000146e+03
2.600000000000000228e-02 5.639800000000000368e-01 1.768430000000000168e+00 7.780310000000000059e+01 1.605179999999999836e+03
2.700000000000000316e-02 5.636674999999999880e-01 2.645325000000000149e+00 7.622254999999999825e+01 1.604664999999999964e+03
2.800000000000000058e-02 5.633335000000000425e-01 3.458944999999999936e+00 7.462305000000000632e+01 1.604144999999999982e+03
2.900000000000000147e-02 5.629425000000000123e-01 4.104519999999999058e+00 7.288040000000000873e+01 1.603595000000000027e+03
3.000000000000000236e-02 5.624670000000000503e-01 4.490580000000000460e+00 7.086589999999999634e+01 1.602985000000000127e+03
3.099999999999999978e-02 5.618935000000000457e-01 4.562510000000000510e+00 6.848554999999998927e+01 1.602289999999999964e+03
3.200000000000000067e-02 5.612294999999999368e-01 4.317215000000000025e+00 6.571139999999999759e+01 1.601505000000000109e+03
3.300000000000000155e-02 5.604995000000000394e-01 3.804084999999999717e+00 6.259660000000000224e+01 1.600625000000000000e+03
3.400000000000000244e-02 5.597444999999999782e-01 3.112950000000000106e+00 5.926849999999999596e+01 1.599690000000000055e+03
3.500000000000000333e-02 5.590100000000000069e-01 2.353540000000000187e+00 5.590514999999999901e+01 1.598735000000000127e+03
3.600000000000000422e-02 5.583390000000000297e-01 1.634484999999999744e+00 5.270364999999999611e+01 1.597809999999999945e+03
3.700000000000000511e-02 5.577665000000000539e-01 1.047190000000000065e+00 4.985030000000000427e+01 1.596965000000000146e+03
3.799999999999999906e-02 5.573170000000000623e-01 6.571649999999999991e-01 4.749784999999999968e+01 1.596235000000000127e+03
3.899999999999999994e-02 5.570015000000000382e-01 5.022700000000002163e-01 4.575325000000000131e+01 1.595660000000000082e+03
4.000000000000000083e-02 5.568239999999999856e-01 5.965300000000000047e-01 4.467484999999999928e+01 1.595259999999999991e+03
4.100000000000000172e-02 5.567809999999999704e-01 9.372320000000000650e-01 4.427750000000000341e+01 1.595049999999999955e+03
4.200000000000000261e-02 5.568634999999999557e-01 1.512981499999999979e+00 4.454390000000000072e+01 1.595019999999999982e+03
4.300000000000000350e-02 5.570640000000000036e-01 2.310777600000000209e+00 4.543694999999999595e+01 1.595175000000000182e+03
4.400000000000000439e-02 5.573740000000000361e-01 3.320520000000000138e+00 4.691165000000000163e+01 1.595505000000000109e+03
4.499999999999999833e-02 5.577874999999999917e-01 4.536082000000000392e+00 4.892305000000000348e+01 1.595994999999999891e+03
4.599999999999999922e-02 5.582975000000000021e-01 5.953446999999999711e+00 5.142914999999999992e+01 1.596639999999999873e+03
4.700000000000000011e-02 5.588980000000000059e-01 7.566826500000000344e+00 5.438949999999999818e+01 1.597414999999999964e+03
4.800000000000000100e-02 5.595820000000000238e-01 9.364875999999998868e+00 5.776160000000000139e+01 1.598325000000000045e+03
4.900000000000000189e-02 5.603380000000000027e-01 1.132774999999999999e+01 6.149665000000000248e+01 1.599349999999999909e+03
5.000000000000000278e-02 5.611535000000000828e-01 1.342636499999999877e+01 6.553719999999999857e+01 1.600469999999999800e+03
5.100000000000000366e-02 5.620129999999999848e-01 1.562362500000000054e+01 6.981659999999999400e+01 1.601674999999999955e+03
5.200000000000000455e-02 5.629009999999999847e-01 1.787728500000000054e+01 7.426169999999999050e+01 1.602934999999999945e+03
5.300000000000000544e-02 5.637999999999999678e-01 2.014349999999999952e+01 7.879704999999999870e+01 1.604239999999999782e+03
5.399999999999999939e-02 5.646964999999999346e-01 2.238070000000000093e+01 8.334969999999999857e+01 1.605565000000000055e+03
5.500000000000000028e-02 5.655780000000000252e-01 2.455270000000000152e+01 8.785509999999999309e+01 1.606894999999999982e+03
5.600000000000000117e-02 5.664360000000000506e-01 2.663094999999999857e+01 9.226124999999998977e+01 1.608210000000000036e+03
5.700000000000000205e-02 5.672649999999999082e-01 2.859520000000000195e+01 9.652889999999999304e+01 1.609494999999999891e+03
5.800000000000000294e-02 5.680625000000000258e-01 3.043390000000000128e+01 1.006374500000000012e+02 1.610750000000000000e+03
5.900000000000000383e-02 5.688299999999999468e-01 3.214260000000000161e+01 1.045788500000000028e+02 1.611965000000000146e+03
6.000000000000000472e-02 5.695689999999999920e-01 3.372325000000000017e+01 1.083596499999999878e+02 1.613139999999999873e+03
6.099999999999999867e-02 5.702844999999999720e-01 3.518240000000000123e+01 1.119944999999999879e+02 1.614279999999999973e+03
6.199999999999999956e-02 5.709805000000000019e-01 3.652984999999999616e+01 1.155090000000000003e+02 1.615380000000000109e+03
6.300000000000000044e-02 5.716650000000000897e-01 3.777750000000000341e+01 1.189294999999999902e+02 1.616454999999999927e+03
6.400000000000000133e-02 5.723409999999999886e-01 3.893850000000000477e+01 1.222864999999999895e+02 1.617515000000000100e+03
6.500000000000000222e-02 5.730159999999999698e-01 4.002595000000000169e+01 1.256089999999999947e+02 1.618555000000000064e+03
6.600000000000000311e-02 5.736934999999999674e-01 4.105234999999999701e+01 1.289234999999999900e+02 1.619595000000000027e+03
6.700000000000000400e-02 5.743769999999999154e-01 4.202840000000000487e+01 1.322510000000000048e+02 1.620639999999999873e+03
6.800000000000000488e-02 5.750689999999999413e-01 4.296184999999999832e+01 1.356064999999999827e+02 1.621679999999999836e+03
6.900000000000000577e-02 5.757689999999999753e-01 4.385730000000000217e+01 1.389944999999999879e+02 1.622730000000000018e+03
7.000000000000000666e-02 5.764754999999999185e-01 4.471500000000000341e+01 1.424110000000000014e+02 1.623795000000000073e+03
7.100000000000000755e-02 5.771844999999999892e-01 4.553109999999999502e+01 1.458430000000000177e+02 1.624860000000000127e+03
7.200000000000000844e-02 5.778900000000000148e-01 4.629795000000000016e+01 1.492665000000000077e+02 1.625924999999999955e+03
7.300000000000000933e-02 5.785860000000000447e-01 4.700459999999999638e+01 1.526525000000000034e+02 1.626980000000000018e+03
7.399999999999999634e-02 5.792640000000000011e-01 4.763809999999999434e+01 1.559635000000000105e+02 1.628014999999999873e+03
7.499999999999999722e-02 5.799164999999999459e-01 4.818444999999999823e+01 1.591620000000000061e+02 1.629025000000000091e+03
7.599999999999999811e-02 5.805354999999999821e-01 4.862975000000000136e+01 1.622069999999999936e+02 1.629989999999999782e+03
7.699999999999999900e-02 5.811129999999999907e-01 4.896155000000000257e+01 1.650610000000000070e+02 1.630900000000000091e+03
7.799999999999999989e-02 5.816449999999999676e-01 4.916935000000000144e+01 1.676929999999999836e+02 1.631755000000000109e+03
7.900000000000000078e-02 5.821250000000000036e-01 4.924580000000000268e+01 1.700749999999999886e+02 1.632534999999999854e+03
8.000000000000000167e-02 5.825504999999999711e-01 4.918639999999999901e+01 1.721885000000000048e+02 1.633240000000000009e+03
8.100000000000000255e-02 5.829199999999999937e-01 4.899044999999999561e+01 1.740215000000000032e+02 1.633865000000000009e+03
8.200000000000000344e-02 5.832334999999999603e-01 4.866065000000000396e+01 1.755730000000000075e+02 1.634409999999999854e+03
8.300000000000000433e-02 5.834934999999999983e-01 4.820300000000000296e+01 1.768469999999999800e+02 1.634865000000000009e+03
8.400000000000000522e-02 5.837014999999999842e-01 4.762664999999999793e+01 1.778559999999999945e+02 1.635244999999999891e+03
8.500000000000000611e-02 5.838624999999999510e-01 4.694360000000000355e+01 1.786204999999999927e+02 1.635550000000000182e+03
8.600000000000000699e-02 5.839814999999999312e-01 4.616800000000000637e+01 1.791639999999999873e+02 1.635779999999999973e+03
8.700000000000000788e-02 5.840640000000000276e-01 4.531570000000000675e+01 1.795155000000000030e+02 1.635944999999999936e+03
8.800000000000000877e-02 5.841169999999999973e-01 4.440394999999999470e+01 1.797069999999999936e+02 1.636059999999999945e+03
8.899999999999999578e-02 5.841465000000000130e-01 4.345040000000000191e+01 1.797709999999999866e+02 1.636130000000000109e+03
8.999999999999999667e-02 5.841585000000000250e-01 4.247249999999999659e+01 1.797404999999999973e+02 1.636164999999999964e+03
9.099999999999999756e-02 5.841600000000000126e-01 4.148695000000000022e+01 1.796465000000000032e+02 1.636170000000000073e+03
9.199999999999999845e-02 5.841555000000000497e-01 4.050905000000000200e+01 1.795190000000000055e+02 1.636159999999999854e+03
9.299999999999999933e-02 5.841499999999999471e-01 3.955195000000000505e+01 1.793824999999999932e+02 1.636140000000000100e+03
9.400000000000000022e-02 5.841469999999999718e-01 3.862614999999999554e+01 1.792574999999999932e+02 1.636119999999999891e+03
9.500000000000000111e-02 5.841484999999999594e-01 3.773940000000000339e+01 1.791589999999999918e+02 1.636094999999999800e+03
9.600000000000000200e-02 5.841570000000000373e-01 3.689634999999999820e+01 1.790969999999999800e+02 1.636079999999999927e+03
9.700000000000000289e-02 5.841714999999999547e-01 3.609844999999999970e+01 1.790745000000000005e+02 1.636069999999999936e+03
9.800000000000000377e-02 5.841914999999999747e-01 3.534420000000000073e+01 1.790885000000000105e+02 1.636075000000000045e+03
9.900000000000000466e-02 5.842154999999999987e-01 3.462955000000000183e+01 1.791330000000000098e+02 1.636079999999999927e+03
1.000000000000000056e-01 5.842404999999999404e-01 3.394819999999999993e+01 1.791949999999999932e+02 1.636090000000000146e+03
1.010000000000000064e-01 5.842629999999999768e-01 3.329200000000000159e+01 1.792615000000000123e+02 1.636110000000000127e+03
1.020000000000000073e-01 5.842804999999999804e-01 3.265169999999999817e+01 1.793140000000000214e+02 1.636115000000000009e+03
1.030000000000000082e-01 5.842890000000000583e-01 3.201769999999999783e+01 1.793344999999999914e+02 1.636119999999999891e+03
1.040000000000000091e-01 5.842844999999999844e-01 3.138005000000000067e+01 1.793054999999999950e+02 1.636115000000000009e+03
1.050000000000000100e-01 5.842644999999999644e-01 3.072959999999999781e+01 1.792099999999999795e+02 1.636085000000000036e+03
1.059999999999999970e-01 5.842264999999999819e-01 3.005805000000000149e+01 1.790335000000000036e+02 1.636035000000000082e+03
1.069999999999999979e-01 5.841684999999999794e-01 2.935875000000000057e+01 1.787630000000000052e+02 1.635965000000000146e+03
1.079999999999999988e-01 5.840885000000000105e-01 2.862675000000000125e+01 1.783910000000000196e+02 1.635860000000000127e+03
1.089999999999999997e-01 5.839870000000000339e-01 2.785929999999999751e+01 1.779134999999999991e+02 1.635730000000000018e+03
1.100000000000000006e-01 5.838639999999999386e-01 2.705594999999999928e+01 1.773305000000000007e+02 1.635569999999999936e+03
1.110000000000000014e-01 5.837204999999999755e-01 2.621860000000000213e+01 1.766465000000000032e+02 1.635380000000000109e+03
1.120000000000000023e-01 5.835599999999999676e-01 2.535150000000000148e+01 1.758715000000000259e+02 1.635160000000000082e+03
1.130000000000000032e-01 5.833850000000000424e-01 2.446090000000000231e+01 1.750180000000000007e+02 1.634909999999999854e+03
1.140000000000000041e-01 5.831994999999999818e-01 2.355514999999999759e+01 1.741034999999999968e+02 1.634650000000000091e+03
1.150000000000000050e-01 5.830069999999999419e-01 2.264390000000000214e+01 1.731469999999999914e+02 1.634369999999999891e+03
1.160000000000000059e-01 5.828124999999999556e-01 2.173805000000000121e+01 1.721705000000000041e+02 1.634085000000000036e+03
1.170000000000000068e-01 5.826194999999999569e-01 2.084880000000000067e+01 1.711955000000000098e+02 1.633795000000000073e+03
1.180000000000000077e-01 5.824340000000000073e-01 1.998760000000000048e+01 1.702454999999999927e+02 1.633510000000000218e+03
1.190000000000000085e-01 5.822594999999999299e-01 1.916540000000000177e+01 1.693414999999999964e+02 1.633230000000000018e+03
1.200000000000000094e-01 5.820989999999999220e-01 1.839219999999999899e+01 1.685024999999999977e+02 1.632970000000000027e+03
1.209999999999999964e-01 5.819560000000000288e-01 1.767654999999999887e+01 1.677445000000000164e+02 1.632730000000000018e+03
1.219999999999999973e-01 5.818339999999999623e-01 1.702539999999999765e+01 1.670819999999999936e+02 1.632515000000000100e+03
1.229999999999999982e-01 5.817320000000000269e-01 1.644369999999999976e+01 1.665235000000000127e+02 1.632325000000000045e+03
1.239999999999999991e-01 5.816525000000000167e-01 1.593414999999999893e+01 1.660740000000000123e+02 1.632170000000000073e+03
1.250000000000000000e-01 5.815945000000000142e-01 1.549750000000000050e+01 1.657345000000000255e+02 1.632045000000000073e+03
1.260000000000000009e-01 5.815569999999999906e-01 1.513219999999999921e+01 1.655014999999999930e+02 1.631944999999999936e+03
1.270000000000000018e-01 5.815390000000000281e-01 1.483494999999999919e+01 1.653679999999999950e+02 1.631884999999999991e+03
1.280000000000000027e-01 5.815375000000000405e-01 1.460069999999999979e+01 1.653249999999999886e+02 1.631844999999999800e+03
1.290000000000000036e-01 5.815500000000000114e-01 1.442314999999999969e+01 1.653589999999999804e+02 1.631829999999999927e+03
1.300000000000000044e-01 5.815734999999999655e-01 1.429475000000000051e+01 1.654565000000000055e+02 1.631835000000000036e+03
1.310000000000000053e-01 5.816050000000000386e-01 1.420765000000000100e+01 1.656014999999999873e+02 1.631860000000000127e+03
1.320000000000000062e-01 5.816415000000000335e-01 1.415360000000000085e+01 1.657794999999999845e+02 1.631894999999999982e+03
1.330000000000000071e-01 5.816799999999999748e-01 1.412444999999999951e+01 1.659759999999999991e+02 1.631940000000000055e+03
1.340000000000000080e-01 5.817185000000000272e-01 1.411244999999999905e+01 1.661769999999999925e+02 1.631990000000000009e+03
1.350000000000000089e-01 5.817544999999999522e-01 1.411054999999999993e+01 1.663704999999999927e+02 1.632034999999999854e+03
1.360000000000000098e-01 5.817870000000000541e-01 1.411240000000000094e+01 1.665475000000000136e+02 1.632079999999999927e+03
1.370000000000000107e-01 5.818134999999999835e-01 1.411284999999999989e+01 1.666995000000000005e+02 1.632130000000000109e+03
1.380000000000000115e-01 5.818335000000000035e-01 1.410754999999999981e+01 1.668220000000000027e+02 1.632164999999999964e+03
1.390000000000000124e-01 5.818470000000000031e-01 1.409324999999999939e+01 1.669114999999999895e+02 1.632190000000000055e+03
1.400000000000000133e-01 5.818529999999999536e-01 1.406794999999999973e+01 1.669664999999999964e+02 1.632204999999999927e+03
1.410000000000000142e-01 5.818539999999999823e-01 1.403030000000000044e+01 1.669875000000000114e+02 1.632215000000000146e+03
1.420000000000000151e-01 5.818479999999999208e-01 1.398010000000000019e+01 1.669780000000000086e+02 1.632215000000000146e+03
1.430000000000000160e-01 5.818375000000000075e-01 1.391774999999999984e+01 1.669404999999999859e+02 1.632210000000000036e+03
1.440000000000000169e-01 5.818229999999999791e-01 1.384440000000000026e+01 1.668804999999999836e+02 1.632194999999999936e+03
1.450000000000000178e-01 5.818050000000000166e-01 1.376180000000000092e+01 1.668025000000000091e+02 1.632174999999999955e+03
1.459999999999999909e-01 5.817860000000000253e-01 1.367189999999999905e+01 1.667125000000000057e+02 1.632150000000000091e+03
1.469999999999999918e-01 5.817660000000000053e-01 1.357719999999999949e+01 1.666154999999999973e+02 1.632130000000000109e+03
1.479999999999999927e-01 5.817464999999999442e-01 1.348015000000000008e+01 1.665180000000000007e+02 1.632105000000000018e+03
1.489999999999999936e-01 5.817280000000000229e-01 1.338309999999999889e+01 1.664240000000000066e+02 1.632069999999999936e+03
1.499999999999999944e-01 5.817120000000000068e-01 1.328845000000000098e+01 1.663385000000000105e+02 1.632049999999999955e+03
1.509999999999999953e-01 5.816985000000000072e-01 1.319824999999999982e+01 1.662640000000000100e+02 1.632029999999999973e+03
1.519999999999999962e-01 5.816885000000000527e-01 1.311420000000000030e+01 1.662049999999999841e+02 1.632009999999999991e+03
1.529999999999999971e-01 5.816814999999999625e-01 1.303754999999999953e+01 1.661605000000000132e+02 1.631994999999999891e+03
1.539999999999999980e-01 5.816784999999999872e-01 1.296904999999999930e+01 1.661334999999999980e+02 1.631989999999999782e+03
1.549999999999999989e-01 5.816775000000000695e-01 1.290895000000000081e+01 1.661214999999999975e+02 1.631980000000000018e+03
1.559999999999999998e-01 5.816805000000000447e-01 1.285705000000000098e+01 1.661239999999999952e+02 1.631980000000000018e+03
1.570000000000000007e-01 5.816850000000000076e-01 1.281250000000000000e+01 1.661380000000000052e+02 1.631985000000000127e+03
1.580000000000000016e-01 5.816909999999999581e-01 1.277444999999999986e+01 1.661610000000000014e+02 1.631985000000000127e+03
1.590000000000000024e-01 5.816974999999999785e-01 1.274140000000000050e+01 1.661885000000000048e+02 1.631994999999999891e+03
