# t [s], A [cm^2], U [cm/s], P [cPa], c [cm/s]
1.000000000000000021e-03 6.280099999999999572e-01 8.133599999999997776e-03 1.084720000000000084e+02 1.867545000000000073e+03
2.000000000000000042e-03 6.280004999999999615e-01 6.498149999999997678e-04 1.084360000000000070e+02 1.867534999999999854e+03
3.000000000000000062e-03 6.280600000000000627e-01 1.264695000000000125e-01 1.085985000000000014e+02 1.867574999999999818e+03
4.000000000000000083e-03 6.280924999999999425e-01 2.145975999999999995e-01 1.087169999999999987e+02 1.867595000000000027e+03
5.000000000000000104e-03 6.280390000000000139e-01 1.363904999999999701e-01 1.085364999999999895e+02 1.867559999999999945e+03
6.000000000000000125e-03 6.279765000000000486e-01 3.082400000000001805e-02 1.082129999999999939e+02 1.867494999999999891e+03
7.000000000000000146e-03 6.279124999999999845e-01 -8.850800000000003109e-02 1.078054999999999950e+02 1.867420000000000073e+03
8.000000000000000167e-03 6.277924999999999756e-01 -3.467700000000000227e-01 1.071389999999999958e+02 1.867284999999999854e+03
9.000000000000001055e-03 6.276070000000000260e-01 -7.645950000000000246e-01 1.061320000000000050e+02 1.867079999999999927e+03
1.000000000000000194e-02 6.273364999999999636e-01 -1.371699999999999919e+00 1.046870000000000118e+02 1.866795000000000073e+03
1.099999999999999936e-02 6.269649999999999945e-01 -2.186294999999999877e+00 1.027052500000000066e+02 1.866394999999999982e+03
1.200000000000000025e-02 6.265344999999999942e-01 -3.091750000000000220e+00 1.002920499999999890e+02 1.865894999999999982e+03
1.300000000000000114e-02 6.261315000000000630e-01 -3.864318499999999990e+00 9.776294999999998936e+01 1.865349999999999909e+03
1.400000000000000203e-02 6.258205000000000018e-01 -4.316255949999999508e+00 9.545365000000001032e+01 1.864825000000000045e+03
1.499999999999999944e-02 6.256089999999999707e-01 -4.390358499999999609e+00 9.353464999999999918e+01 1.864360000000000127e+03
1.600000000000000033e-02 6.254565000000000818e-01 -4.154630000000000045e+00 9.197020000000000550e+01 1.863949999999999818e+03
1.700000000000000122e-02 6.253029999999999422e-01 -3.739065000000000083e+00 9.058310000000000173e+01 1.863575000000000045e+03
1.800000000000000211e-02 6.251035000000000341e-01 -3.264736000000000082e+00 8.916544999999999277e+01 1.863195000000000164e+03
1.900000000000000300e-02 6.248409999999999798e-01 -2.795249000000000095e+00 8.757604999999999507e+01 1.862780000000000200e+03
2.000000000000000042e-02 6.245300000000000296e-01 -2.324145000000000127e+00 8.578974999999999795e+01 1.862335000000000036e+03
2.100000000000000130e-02 6.242024999999999935e-01 -1.798184999999999922e+00 8.388464999999999350e+01 1.861859999999999900e+03
2.200000000000000219e-02 6.238894999999999857e-01 -1.161039999999999850e+00 8.198179999999999268e+01 1.861384999999999991e+03
2.299999999999999961e-02 6.236055000000000348e-01 -3.940850000000000186e-01 8.017204999999999870e+01 1.860914999999999964e+03
2.400000000000000050e-02 6.233389999999999764e-01 4.632550000000001944e-01 7.846465000000000600e+01 1.860464999999999918e+03
2.500000000000000139e-02 6.230614999999999348e-01 1.317840000000000122e+00 7.677334999999999354e+01 1.860025000000000091e+03
2.600000000000000228e-02 6.227329999999999810e-01 2.046845000000000248e+00 7.493970000000000198e+01 1.859559999999999945e+03
2.700000000000000316e-02 6.223170000000000091e-01 2.532429999999999737e+00 7.278345000000000198e+01 1.859034999999999854e+03
2.800000000000000058e-02 6.217954999999999455e-01 2.696650000000000436e+00 7.016485000000000127e+01 1.858420000000000073e+03
2.900000000000000147e-02 6.211740000000000039e-01 2.524939999999999518e+00 6.703679999999999950e+01 1.857715000000000146e+03
3.000000000000000236e-02 6.204825000000000479e-01 2.068954999999999433e+00 6.346860000000000213e+01 1.856909999999999854e+03
3.099999999999999978e-02 6.197654999999999692e-01 1.428399999999999892e+00 5.963169999999999504e+01 1.856049999999999955e+03
3.200000000000000067e-02 6.190720000000000667e-01 7.211350000000003035e-01 5.575724999999999909e+01 1.855164999999999964e+03
3.300000000000000155e-02 6.184439999999999937e-01 5.486000000000057497e-02 5.208490000000000464e+01 1.854315000000000055e+03
3.400000000000000244e-02 6.179095000000000004e-01 -4.910649999999998627e-01 4.881980000000000075e+01 1.853534999999999854e+03
3.500000000000000333e-02 6.174834999999999630e-01 -8.710900000000001420e-01 4.610849999999999937e+01 1.852865000000000009e+03
3.600000000000000422e-02 6.171695000000000375e-01 -1.068885000000000085e+00 4.403260000000000218e+01 1.852329999999999927e+03
3.700000000000000511e-02 6.169630000000000392e-01 -1.086875000000000036e+00 4.261795000000000044e+01 1.851930000000000064e+03
3.799999999999999906e-02 6.168584999999999763e-01 -9.341804999999999692e-01 4.185245000000000459e+01 1.851684999999999945e+03
3.899999999999999994e-02 6.168485000000000218e-01 -6.167169999999999597e-01 4.170655000000000001e+01 1.851574999999999818e+03
4.000000000000000083e-02 6.169320000000000359e-01 -1.320100000000000717e-01 4.214929999999999666e+01 1.851610000000000127e+03
4.100000000000000172e-02 6.171065000000000023e-01 5.303500000000000991e-01 4.315680000000000405e+01 1.851775000000000091e+03
4.200000000000000261e-02 6.173739999999999783e-01 1.383695000000000119e+00 4.471165000000000589e+01 1.852079999999999927e+03
4.300000000000000350e-02 6.177319999999999478e-01 2.437170000000000059e+00 4.679625000000000057e+01 1.852500000000000000e+03
4.400000000000000439e-02 6.181760000000000588e-01 3.689379999999999882e+00 4.938315000000000055e+01 1.853039999999999964e+03
4.499999999999999833e-02 6.186959999999999127e-01 5.124769999999999825e+00 5.242759999999999820e+01 1.853695000000000164e+03
4.599999999999999922e-02 6.192790000000000239e-01 6.713501499999999567e+00 5.586444999999999794e+01 1.854440000000000055e+03
4.700000000000000011e-02 6.199075000000000557e-01 8.414410999999999419e+00 5.960954999999999870e+01 1.855269999999999982e+03
4.800000000000000100e-02 6.205635000000000456e-01 1.017998500000000028e+01 6.356615000000000748e+01 1.856154999999999973e+03
4.900000000000000189e-02 6.212295000000001011e-01 1.196181500000000142e+01 6.763364999999998872e+01 1.857085000000000036e+03
5.000000000000000278e-02 6.218890000000000251e-01 1.371591999999999878e+01 7.171699999999999875e+01 1.858025000000000091e+03
5.100000000000000366e-02 6.225325000000000442e-01 1.540617999999999910e+01 7.573479999999999279e+01 1.858970000000000027e+03
5.200000000000000455e-02 6.231504999999999406e-01 1.700629999999999953e+01 7.962510000000000332e+01 1.859894999999999982e+03
5.300000000000000544e-02 6.237395000000000023e-01 1.850019999999999953e+01 8.334749999999999659e+01 1.860789999999999964e+03
5.399999999999999939e-02 6.242989999999999373e-01 1.988049999999999784e+01 8.688315000000000055e+01 1.861644999999999982e+03
5.500000000000000028e-02 6.248310000000000253e-01 2.114714999999999989e+01 9.023165000000000191e+01 1.862470000000000027e+03
5.600000000000000117e-02 6.253385000000000193e-01 2.230505000000000138e+01 9.340689999999999316e+01 1.863255000000000109e+03
5.700000000000000205e-02 6.258280000000000509e-01 2.336214999999999975e+01 9.643290000000000362e+01 1.864009999999999991e+03
5.800000000000000294e-02 6.263019999999999143e-01 2.432809999999999917e+01 9.933875000000000455e+01 1.864735000000000127e+03
5.900000000000000383e-02 6.267665000000000042e-01 2.521195000000000164e+01 1.021528999999999883e+02 1.865440000000000055e+03
6.000000000000000472e-02 6.272245000000000736e-01 2.602179999999999893e+01 1.049011500000000012e+02 1.866130000000000109e+03
6.099999999999999867e-02 6.276774999999999993e-01 2.676304999999999978e+01 1.076015000000000015e+02 1.866800000000000182e+03
6.199999999999999956e-02 6.281259999999999621e-01 2.743829999999999814e+01 1.102634999999999934e+02 1.867465000000000146e+03
6.300000000000000044e-02 6.285684999999999745e-01 2.804684999999999917e+01 1.128864999999999981e+02 1.868115000000000009e+03
6.400000000000000133e-02 6.290029999999999788e-01 2.858530000000000015e+01 1.154594999999999914e+02 1.868759999999999991e+03
6.500000000000000222e-02 6.294245000000000534e-01 2.904789999999999850e+01 1.179629999999999939e+02 1.869384999999999991e+03
6.600000000000000311e-02 6.298285000000000133e-01 2.942815000000000225e+01 1.203714999999999975e+02 1.869990000000000009e+03
6.700000000000000400e-02 6.302105000000000068e-01 2.971884999999999977e+01 1.226569999999999965e+02 1.870565000000000055e+03
6.800000000000000488e-02 6.305655000000000010e-01 2.991400000000000148e+01 1.247909999999999968e+02 1.871110000000000127e+03
6.900000000000000577e-02 6.308899999999999508e-01 3.000885000000000247e+01 1.267464999999999975e+02 1.871610000000000127e+03
7.000000000000000666e-02 6.311804999999999222e-01 3.000050000000000239e+01 1.285014999999999930e+02 1.872070000000000164e+03
7.100000000000000755e-02 6.314340000000000508e-01 2.988779999999999859e+01 1.300384999999999991e+02 1.872474999999999909e+03
7.200000000000000844e-02 6.316500000000000448e-01 2.967139999999999844e+01 1.313449999999999989e+02 1.872829999999999927e+03
7.300000000000000933e-02 6.318269999999999165e-01 2.935369999999999990e+01 1.324149999999999920e+02 1.873130000000000109e+03
7.399999999999999634e-02 6.319654999999999578e-01 2.893880000000000052e+01 1.332475000000000023e+02 1.873375000000000000e+03
7.499999999999999722e-02 6.320664999999999756e-01 2.843240000000000123e+01 1.338464999999999918e+02 1.873554999999999836e+03
7.599999999999999811e-02 6.321309999999999985e-01 2.784185000000000088e+01 1.342214999999999918e+02 1.873690000000000055e+03
7.699999999999999900e-02 6.321624999999999606e-01 2.717664999999999864e+01 1.343870000000000005e+02 1.873769999999999982e+03
7.799999999999999989e-02 6.321630000000000305e-01 2.644760000000000133e+01 1.343609999999999900e+02 1.873799999999999955e+03
7.900000000000000078e-02 6.321375000000000188e-01 2.566765000000000185e+01 1.341670000000000016e+02 1.873784999999999854e+03
8.000000000000000167e-02 6.320900000000000407e-01 2.485050000000000026e+01 1.338319999999999936e+02 1.873740000000000009e+03
8.100000000000000255e-02 6.320259999999999767e-01 2.401100000000000279e+01 1.333830000000000098e+02 1.873654999999999973e+03
8.200000000000000344e-02 6.319489999999999830e-01 2.316355000000000075e+01 1.328509999999999991e+02 1.873550000000000182e+03
8.300000000000000433e-02 6.318654999999999688e-01 2.232204999999999728e+01 1.322640000000000100e+02 1.873424999999999955e+03
8.400000000000000522e-02 6.317774999999999919e-01 2.149869999999999948e+01 1.316500000000000057e+02 1.873295000000000073e+03
8.500000000000000611e-02 6.316900000000000848e-01 2.070335000000000036e+01 1.310304999999999893e+02 1.873154999999999973e+03
8.600000000000000699e-02 6.316045000000000131e-01 1.994320000000000093e+01 1.304234999999999900e+02 1.873014999999999873e+03
8.700000000000000788e-02 6.315224999999999866e-01 1.922240000000000038e+01 1.298414999999999964e+02 1.872875000000000000e+03
8.800000000000000877e-02 6.314444999999999641e-01 1.854200000000000159e+01 1.292895000000000039e+02 1.872734999999999900e+03
8.899999999999999578e-02 6.313699999999999868e-01 1.790039999999999765e+01 1.287684999999999889e+02 1.872609999999999900e+03
8.999999999999999667e-02 6.312975000000000669e-01 1.729335000000000022e+01 1.282709999999999866e+02 1.872480000000000018e+03
9.099999999999999756e-02 6.312254999999999949e-01 1.671484999999999843e+01 1.277889999999999873e+02 1.872360000000000127e+03
9.199999999999999845e-02 6.311504999999999477e-01 1.615739999999999910e+01 1.273085000000000093e+02 1.872240000000000009e+03
9.299999999999999933e-02 6.310709999999999376e-01 1.561274999999999835e+01 1.268140000000000072e+02 1.872110000000000127e+03
9.400000000000000022e-02 6.309839999999999893e-01 1.507239999999999824e+01 1.262905000000000086e+02 1.871980000000000018e+03
9.500000000000000111e-02 6.308875000000000455e-01 1.452810000000000024e+01 1.257224999999999966e+02 1.871845000000000027e+03
9.600000000000000200e-02 6.307795000000000485e-01 1.397245000000000026e+01 1.250954999999999870e+02 1.871694999999999936e+03
9.700000000000000289e-02 6.306585000000000107e-01 1.339943500000000043e+01 1.243999999999999915e+02 1.871530000000000200e+03
9.800000000000000377e-02 6.305235000000000145e-01 1.280465000000000053e+01 1.236280000000000001e+02 1.871345000000000027e+03
9.900000000000000466e-02 6.303745000000000598e-01 1.218574999999999875e+01 1.227770000000000010e+02 1.871144999999999982e+03
1.000000000000000056e-01 6.302130000000000232e-01 1.154274000000000022e+01 1.218489999999999895e+02 1.870929999999999836e+03
1.010000000000000064e-01 6.300400000000000444e-01 1.087777999999999956e+01 1.208499999999999943e+02 1.870699999999999818e+03
1.020000000000000073e-01 6.298585000000000989e-01 1.019558499999999945e+01 1.197924999999999898e+02 1.870454999999999927e+03
1.030000000000000082e-01 6.296705000000000219e-01 9.502649999999999153e+00 1.186914999999999907e+02 1.870195000000000164e+03
1.040000000000000091e-01 6.294804999999999984e-01 8.807330000000000325e+00 1.175674999999999955e+02 1.869930000000000064e+03
1.050000000000000100e-01 6.292915000000000036e-01 8.119209999999998928e+00 1.164420000000000073e+02 1.869664999999999964e+03
1.059999999999999970e-01 6.291084999999999594e-01 7.448444999999999538e+00 1.153379999999999939e+02 1.869400000000000091e+03
1.069999999999999979e-01 6.289350000000000218e-01 6.805429999999999424e+00 1.142789999999999964e+02 1.869144999999999982e+03
1.079999999999999988e-01 6.287745000000000140e-01 6.200020000000000309e+00 1.132879999999999967e+02 1.868900000000000091e+03
1.089999999999999997e-01 6.286294999999999522e-01 5.641070000000000029e+00 1.123840000000000003e+02 1.868680000000000064e+03
1.100000000000000006e-01 6.285034999999999927e-01 5.135919999999999597e+00 1.115834999999999866e+02 1.868470000000000027e+03
1.110000000000000014e-01 6.283974999999999422e-01 4.690025000000000333e+00 1.108984999999999985e+02 1.868295000000000073e+03
1.120000000000000023e-01 6.283119999999999816e-01 4.306720000000000326e+00 1.103370000000000033e+02 1.868144999999999982e+03
1.130000000000000032e-01 6.282475000000000698e-01 3.987119999999999997e+00 1.098995000000000033e+02 1.868025000000000091e+03
1.140000000000000041e-01 6.282024999999999970e-01 3.730159999999999698e+00 1.095840000000000032e+02 1.867929999999999836e+03
1.150000000000000050e-01 6.281754999999999978e-01 3.532795000000000130e+00 1.093834999999999980e+02 1.867860000000000127e+03
1.160000000000000059e-01 6.281650000000000844e-01 3.390284999999999549e+00 1.092860000000000014e+02 1.867819999999999936e+03
1.170000000000000068e-01 6.281674999999999898e-01 3.296605000000000008e+00 1.092764999999999986e+02 1.867800000000000182e+03
1.180000000000000077e-01 6.281809999999999894e-01 3.244850000000000012e+00 1.093410000000000082e+02 1.867799999999999955e+03
1.190000000000000085e-01 6.282020000000000381e-01 3.227660000000000196e+00 1.094609999999999985e+02 1.867809999999999945e+03
1.200000000000000094e-01 6.282284999999999675e-01 3.237614999999999910e+00 1.096200000000000045e+02 1.867835000000000036e+03
1.209999999999999964e-01 6.282574999999999132e-01 3.267565000000000275e+00 1.098029999999999973e+02 1.867865000000000009e+03
1.219999999999999973e-01 6.282870000000000399e-01 3.310859999999999914e+00 1.099950000000000045e+02 1.867904999999999973e+03
1.229999999999999982e-01 6.283155000000000268e-01 3.361575000000000202e+00 1.101839999999999975e+02 1.867944999999999936e+03
1.239999999999999991e-01 6.283414999999999973e-01 3.414564999999999628e+00 1.103605000000000018e+02 1.867980000000000018e+03
1.250000000000000000e-01 6.283634999999999637e-01 3.465589999999999726e+00 1.105174999999999983e+02 1.868014999999999873e+03
1.260000000000000009e-01 6.283814999999999262e-01 3.511269999999999669e+00 1.106495000000000033e+02 1.868050000000000182e+03
1.270000000000000018e-01 6.283950000000000369e-01 3.549109999999999765e+00 1.107530000000000001e+02 1.868070000000000164e+03
1.280000000000000027e-01 6.284039999999999626e-01 3.577455000000000052e+00 1.108275000000000006e+02 1.868090000000000146e+03
1.290000000000000036e-01 6.284084999999999255e-01 3.595460000000000100e+00 1.108735000000000070e+02 1.868105000000000018e+03
1.300000000000000044e-01 6.284089999999999954e-01 3.602970000000000006e+00 1.108930000000000007e+02 1.868109999999999900e+03
1.310000000000000053e-01 6.284060000000000201e-01 3.600489999999999746e+00 1.108894999999999982e+02 1.868115000000000009e+03
1.320000000000000062e-01 6.284000000000000696e-01 3.589004999999999779e+00 1.108659999999999997e+02 1.868110000000000127e+03
1.330000000000000071e-01 6.283925000000000205e-01 3.569910000000000139e+00 1.108269999999999982e+02 1.868105000000000018e+03
1.340000000000000080e-01 6.283840000000000536e-01 3.544794999999999696e+00 1.107770000000000010e+02 1.868095000000000027e+03
1.350000000000000089e-01 6.283739999999999881e-01 3.515329999999999622e+00 1.107205000000000013e+02 1.868085000000000036e+03
1.360000000000000098e-01 6.283644999999999925e-01 3.483084999999999987e+00 1.106595000000000084e+02 1.868075000000000045e+03
1.370000000000000107e-01 6.283549999999999969e-01 3.449385000000000367e+00 1.105985000000000014e+02 1.868059999999999945e+03
1.380000000000000115e-01 6.283460000000000711e-01 3.415259999999999962e+00 1.105384999999999991e+02 1.868045000000000073e+03
1.390000000000000124e-01 6.283369999999999234e-01 3.381305000000000227e+00 1.104795000000000016e+02 1.868035000000000082e+03
1.400000000000000133e-01 6.283285000000000675e-01 3.347755000000000258e+00 1.104224999999999994e+02 1.868019999999999982e+03
1.410000000000000142e-01 6.283205000000000595e-01 3.314435000000000020e+00 1.103644999999999925e+02 1.868005000000000109e+03
1.420000000000000151e-01 6.283110000000000639e-01 3.280904999999999738e+00 1.103040000000000020e+02 1.867990000000000009e+03
1.430000000000000160e-01 6.283009999999999984e-01 3.246545000000000236e+00 1.102385000000000019e+02 1.867980000000000018e+03
1.440000000000000169e-01 6.282889999999999864e-01 3.210659999999999847e+00 1.101645000000000039e+02 1.867960000000000036e+03
1.450000000000000178e-01 6.282750000000000279e-01 3.172639999999999905e+00 1.100790000000000077e+02 1.867940000000000055e+03
1.459999999999999909e-01 6.282585000000000530e-01 3.132050000000000001e+00 1.099799999999999898e+02 1.867920000000000073e+03
1.469999999999999918e-01 6.282395000000000618e-01 3.088714999999999655e+00 1.098659999999999997e+02 1.867894999999999982e+03
1.479999999999999927e-01 6.282174999999999843e-01 3.042785000000000295e+00 1.097355000000000018e+02 1.867865000000000009e+03
1.489999999999999936e-01 6.281930000000000014e-01 2.994740000000000180e+00 1.095885000000000105e+02 1.867835000000000036e+03
1.499999999999999944e-01 6.281665000000000720e-01 2.945400000000000240e+00 1.094269999999999925e+02 1.867789999999999964e+03
1.509999999999999953e-01 6.281375000000000153e-01 2.895859999999999879e+00 1.092530000000000001e+02 1.867755000000000109e+03
1.519999999999999962e-01 6.281069999999999709e-01 2.847474999999999756e+00 1.090695000000000050e+02 1.867714999999999918e+03
1.529999999999999971e-01 6.280759999999999676e-01 2.801765000000000061e+00 1.088795000000000073e+02 1.867670000000000073e+03
1.539999999999999980e-01 6.280444999999998945e-01 2.760385000000000311e+00 1.086880000000000024e+02 1.867619999999999891e+03
1.549999999999999989e-01 6.280145000000000310e-01 2.725025000000000031e+00 1.084994999999999976e+02 1.867575000000000045e+03
1.559999999999999998e-01 6.279850000000000154e-01 2.697379999999999889e+00 1.083179999999999978e+02 1.867535000000000082e+03
1.570000000000000007e-01 6.279585000000000861e-01 2.679094999999999782e+00 1.081484999999999985e+02 1.867485000000000127e+03
1.580000000000000016e-01 6.279350000000000209e-01 2.671689999999999898e+00 1.079960000000000093e+02 1.867450000000000045e+03
1.590000000000000024e-01 6.279144999999999310e-01 2.676514999999999755e+00 1.078635000000000019e+02 1.867414999999999964e+03
