# t [s], A [cm^2], U [cm/s], P [cPa], c [cm/s]
1.000000000000000021e-03 7.366880000000000095e-01 7.353550000000000364e-03 1.069994999999999976e+02 1.816450000000000045e+03
2.000000000000000042e-03 7.366774999999999851e-01 1.439959999999999678e-03 1.069654999999999916e+02 1.816445000000000164e+03
3.000000000000000062e-03 7.367500000000000160e-01 1.280564999999999898e-01 1.071244999999999976e+02 1.816480000000000018e+03
4.000000000000000083e-03 7.367889999999999162e-01 2.154137499999999872e-01 1.072379999999999995e+02 1.816505000000000109e+03
5.000000000000000104e-03 7.367259999999999920e-01 1.397569999999999923e-01 1.070670000000000073e+02 1.816474999999999909e+03
6.000000000000000125e-03 7.366494999999999571e-01 3.091250000000000941e-02 1.067475000000000023e+02 1.816404999999999973e+03
7.000000000000000146e-03 7.365710000000000868e-01 -9.328849999999999643e-02 1.063404999999999916e+02 1.816315000000000055e+03
8.000000000000000167e-03 7.364239999999999675e-01 -3.555449999999999999e-01 1.056779999999999973e+02 1.816170000000000073e+03
9.000000000000001055e-03 7.361974999999999492e-01 -7.770799999999998819e-01 1.046820000000000022e+02 1.815954999999999927e+03
1.000000000000000194e-02 7.358729999999999993e-01 -1.381835000000000147e+00 1.032626500000000078e+02 1.815650000000000091e+03
1.099999999999999936e-02 7.354249999999999954e-01 -2.193484999999999907e+00 1.013212500000000063e+02 1.815220000000000027e+03
1.200000000000000025e-02 7.348959999999999937e-01 -3.113145000000000273e+00 9.893099999999999739e+01 1.814684999999999945e+03
1.300000000000000114e-02 7.343844999999999956e-01 -3.924825499999999856e+00 9.638240000000000407e+01 1.814094999999999800e+03
1.400000000000000203e-02 7.339795000000000069e-01 -4.427318600000000437e+00 9.401614999999999611e+01 1.813510000000000218e+03
1.499999999999999944e-02 7.337015000000000065e-01 -4.539187999999999334e+00 9.203794999999999504e+01 1.812994999999999891e+03
1.600000000000000033e-02 7.335110000000000241e-01 -4.309625000000000483e+00 9.045089999999999009e+01 1.812549999999999955e+03
1.700000000000000122e-02 7.333364999999999467e-01 -3.865255000000000329e+00 8.909959999999999525e+01 1.812144999999999982e+03
1.800000000000000211e-02 7.331164999999999488e-01 -3.339942999999999884e+00 8.776999999999999602e+01 1.811755000000000109e+03
1.900000000000000300e-02 7.328185000000000393e-01 -2.819243249999999978e+00 8.629075000000000273e+01 1.811329999999999927e+03
2.000000000000000042e-02 7.324500000000000455e-01 -2.317034999999999734e+00 8.459805000000000064e+01 1.810865000000000009e+03
2.100000000000000130e-02 7.320455000000000156e-01 -1.789389999999999814e+00 8.274070000000000391e+01 1.810360000000000127e+03
2.200000000000000219e-02 7.316465000000000884e-01 -1.174710000000000143e+00 8.083265000000000100e+01 1.809845000000000027e+03
2.299999999999999961e-02 7.312775000000000247e-01 -4.373800000000001020e-01 7.898179999999999268e+01 1.809329999999999927e+03
2.400000000000000050e-02 7.309365000000001000e-01 4.048550000000004090e-01 7.723120000000000118e+01 1.808840000000000146e+03
2.500000000000000139e-02 7.305969999999999409e-01 1.277559999999999807e+00 7.553255000000000052e+01 1.808355000000000018e+03
2.600000000000000228e-02 7.302139999999999187e-01 2.067190000000000083e+00 7.375659999999999172e+01 1.807860000000000127e+03
2.700000000000000316e-02 7.297420000000000018e-01 2.651874999999999982e+00 7.173224999999999341e+01 1.807309999999999945e+03
2.800000000000000058e-02 7.291495000000000060e-01 2.936234999999999928e+00 6.930299999999999727e+01 1.806684999999999945e+03
2.900000000000000147e-02 7.284299999999999109e-01 2.879605000000000192e+00 6.638214999999999577e+01 1.805960000000000036e+03
3.000000000000000236e-02 7.276080000000000325e-01 2.507695000000000451e+00 6.298904999999999177e+01 1.805130000000000109e+03
3.099999999999999978e-02 7.267295000000000282e-01 1.903475000000000250e+00 5.925115000000000265e+01 1.804215000000000146e+03
3.200000000000000067e-02 7.258545000000000691e-01 1.182284999999999364e+00 5.537539999999999907e+01 1.803259999999999991e+03
3.300000000000000155e-02 7.250389999999999890e-01 4.626200000000002532e-01 5.160210000000000008e+01 1.802319999999999936e+03
3.400000000000000244e-02 7.243269999999999431e-01 -1.564899999999997959e-01 4.815874999999999773e+01 1.801440000000000055e+03
3.500000000000000333e-02 7.237474999999999881e-01 -6.075699999999999434e-01 4.522780000000000200e+01 1.800664999999999964e+03
3.600000000000000422e-02 7.233125000000000249e-01 -8.556449999999999889e-01 4.292980000000000018e+01 1.800029999999999973e+03
3.700000000000000511e-02 7.230225000000000124e-01 -8.915349999999999664e-01 4.132370000000000232e+01 1.799555000000000064e+03
3.799999999999999906e-02 7.228725000000000289e-01 -7.211849999999999650e-01 4.041830000000000211e+01 1.799244999999999891e+03
3.899999999999999994e-02 7.228520000000000501e-01 -3.548206500000000152e-01 4.019004999999999939e+01 1.799099999999999909e+03
4.000000000000000083e-02 7.229544999999999444e-01 2.010899999999999910e-01 4.060144999999999982e+01 1.799119999999999891e+03
4.100000000000000172e-02 7.231750000000000123e-01 9.471199999999999619e-01 4.161475000000000080e+01 1.799300000000000182e+03
4.200000000000000261e-02 7.235099999999999865e-01 1.889175000000000049e+00 4.319740000000000180e+01 1.799619999999999891e+03
4.300000000000000350e-02 7.239575000000000315e-01 3.033319999999999794e+00 4.532059999999999889e+01 1.800085000000000036e+03
4.400000000000000439e-02 7.245120000000000449e-01 4.379509999999999792e+00 4.795289999999999964e+01 1.800680000000000064e+03
4.499999999999999833e-02 7.251635000000000719e-01 5.916730000000000267e+00 5.105259999999999820e+01 1.801400000000000091e+03
4.599999999999999922e-02 7.258979999999999322e-01 7.620962699999999757e+00 5.456229999999999336e+01 1.802230000000000018e+03
4.700000000000000011e-02 7.266974999999999962e-01 9.456205000000000638e+00 5.840825000000000244e+01 1.803150000000000091e+03
4.800000000000000100e-02 7.275404999999999234e-01 1.137798500000000068e+01 6.250310000000000343e+01 1.804144999999999982e+03
4.900000000000000189e-02 7.284060000000001089e-01 1.333850499999999961e+01 6.675254999999999939e+01 1.805190000000000055e+03
5.000000000000000278e-02 7.292750000000000066e-01 1.529157000000000011e+01 7.106355000000000643e+01 1.806265000000000100e+03
5.100000000000000366e-02 7.301314999999999333e-01 1.719704000000000121e+01 7.535250000000000625e+01 1.807355000000000018e+03
5.200000000000000455e-02 7.309634999999999883e-01 1.902359999999999829e+01 7.955180000000000007e+01 1.808430000000000064e+03
5.300000000000000544e-02 7.317649999999999988e-01 2.075009999999999977e+01 8.361384999999999934e+01 1.809485000000000127e+03
5.399999999999999939e-02 7.325329999999999897e-01 2.236505000000000010e+01 8.751194999999999879e+01 1.810514999999999873e+03
5.500000000000000028e-02 7.332695000000000185e-01 2.386549999999999727e+01 9.123975000000000080e+01 1.811500000000000000e+03
5.600000000000000117e-02 7.339780000000000193e-01 2.525469999999999970e+01 9.480599999999999739e+01 1.812454999999999927e+03
5.700000000000000205e-02 7.346649999999999014e-01 2.654090000000000060e+01 9.823335000000000150e+01 1.813375000000000000e+03
5.800000000000000294e-02 7.353365000000000595e-01 2.773444999999999894e+01 1.015519500000000050e+02 1.814269999999999982e+03
5.900000000000000383e-02 7.359984999999999999e-01 2.884689999999999799e+01 1.047935499999999962e+02 1.815150000000000091e+03
6.000000000000000472e-02 7.366580000000000350e-01 2.988929999999999865e+01 1.079899999999999949e+02 1.816009999999999991e+03
6.099999999999999867e-02 7.373184999999999878e-01 3.087059999999999960e+01 1.111680000000000064e+02 1.816860000000000127e+03
6.199999999999999956e-02 7.379824999999999857e-01 3.179710000000000036e+01 1.143455000000000013e+02 1.817714999999999918e+03
6.300000000000000044e-02 7.386505000000000987e-01 3.267150000000000176e+01 1.175300000000000011e+02 1.818569999999999936e+03
6.400000000000000133e-02 7.393199999999999772e-01 3.349264999999999759e+01 1.207199999999999989e+02 1.819424999999999955e+03
6.500000000000000222e-02 7.399865000000001025e-01 3.425565000000000282e+01 1.238995000000000033e+02 1.820275000000000091e+03
6.600000000000000311e-02 7.406445000000000389e-01 3.495289999999999964e+01 1.270455000000000041e+02 1.821125000000000000e+03
6.700000000000000400e-02 7.412864999999999593e-01 3.557464999999999833e+01 1.301254999999999882e+02 1.821954999999999927e+03
6.800000000000000488e-02 7.419050000000000367e-01 3.611045000000000016e+01 1.331050000000000182e+02 1.822759999999999991e+03
6.900000000000000577e-02 7.424924999999999997e-01 3.654990000000000094e+01 1.359470000000000027e+02 1.823535000000000082e+03
7.000000000000000666e-02 7.430425000000000502e-01 3.688410000000000366e+01 1.386159999999999854e+02 1.824269999999999982e+03
7.100000000000000755e-02 7.435484999999999456e-01 3.710569999999999879e+01 1.410809999999999889e+02 1.824949999999999818e+03
7.200000000000000844e-02 7.440069999999999739e-01 3.720980000000000132e+01 1.433160000000000025e+02 1.825585000000000036e+03
7.300000000000000933e-02 7.444135000000000613e-01 3.719409999999999883e+01 1.453034999999999854e+02 1.826150000000000091e+03
7.399999999999999634e-02 7.447669999999999568e-01 3.705875000000000341e+01 1.470310000000000059e+02 1.826650000000000091e+03
7.499999999999999722e-02 7.450680000000000636e-01 3.680644999999999811e+01 1.484950000000000045e+02 1.827085000000000036e+03
7.599999999999999811e-02 7.453164999999999374e-01 3.644259999999999877e+01 1.496984999999999957e+02 1.827454999999999927e+03
7.699999999999999900e-02 7.455149999999999277e-01 3.597500000000000142e+01 1.506514999999999986e+02 1.827755000000000109e+03
7.799999999999999989e-02 7.456674999999999276e-01 3.541355000000000075e+01 1.513689999999999998e+02 1.827989999999999782e+03
7.900000000000000078e-02 7.457780000000000520e-01 3.477064999999999628e+01 1.518725000000000023e+02 1.828170000000000073e+03
8.000000000000000167e-02 7.458525000000000293e-01 3.405995000000000061e+01 1.521875000000000000e+02 1.828299999999999955e+03
8.100000000000000255e-02 7.458960000000000035e-01 3.329670000000000130e+01 1.523425000000000011e+02 1.828384999999999991e+03
8.200000000000000344e-02 7.459154999999999536e-01 3.249674999999999869e+01 1.523675000000000068e+02 1.828425000000000182e+03
8.300000000000000433e-02 7.459169999999999412e-01 3.167569999999999908e+01 1.522950000000000159e+02 1.828440000000000055e+03
8.400000000000000522e-02 7.459059999999999580e-01 3.084859999999999758e+01 1.521539999999999964e+02 1.828424999999999955e+03
8.500000000000000611e-02 7.458884999999999543e-01 3.002879999999999683e+01 1.519719999999999800e+02 1.828400000000000091e+03
8.600000000000000699e-02 7.458679999999999755e-01 2.922739999999999583e+01 1.517724999999999795e+02 1.828359999999999900e+03
8.700000000000000788e-02 7.458480000000000665e-01 2.845280000000000342e+01 1.515734999999999957e+02 1.828320000000000164e+03
8.800000000000000877e-02 7.458299999999999930e-01 2.771049999999999969e+01 1.513874999999999886e+02 1.828279999999999973e+03
8.899999999999999578e-02 7.458145000000000469e-01 2.700265000000000271e+01 1.512205000000000155e+02 1.828240000000000009e+03
8.999999999999999667e-02 7.458019999999999650e-01 2.632864999999999966e+01 1.510720000000000027e+02 1.828194999999999936e+03
9.099999999999999756e-02 7.457884999999999653e-01 2.568515000000000015e+01 1.509370000000000118e+02 1.828160000000000082e+03
9.199999999999999845e-02 7.457740000000000480e-01 2.506685000000000230e+01 1.508050000000000068e+02 1.828119999999999891e+03
9.299999999999999933e-02 7.457534999999999581e-01 2.446654999999999802e+01 1.506620000000000061e+02 1.828085000000000036e+03
9.400000000000000022e-02 7.457249999999999712e-01 2.387635000000000218e+01 1.504925000000000068e+02 1.828034999999999854e+03
9.500000000000000111e-02 7.456849999999999312e-01 2.328774999999999906e+01 1.502800000000000011e+02 1.827980000000000018e+03
9.600000000000000200e-02 7.456289999999999862e-01 2.269250000000000256e+01 1.500070000000000050e+02 1.827909999999999854e+03
9.700000000000000289e-02 7.455555000000000376e-01 2.208295000000000030e+01 1.496594999999999800e+02 1.827824999999999818e+03
9.800000000000000377e-02 7.454625000000000279e-01 2.145264999999999844e+01 1.492249999999999943e+02 1.827715000000000146e+03
9.900000000000000466e-02 7.453479999999998995e-01 2.079700000000000060e+01 1.486940000000000168e+02 1.827579999999999927e+03
1.000000000000000056e-01 7.452119999999999855e-01 2.011315000000000097e+01 1.480629999999999882e+02 1.827424999999999955e+03
1.010000000000000064e-01 7.450554999999999817e-01 1.940054999999999907e+01 1.473330000000000268e+02 1.827244999999999891e+03
1.020000000000000073e-01 7.448795000000000277e-01 1.866114999999999924e+01 1.465084999999999980e+02 1.827045000000000073e+03
1.030000000000000082e-01 7.446869999999999878e-01 1.789910000000000068e+01 1.455995000000000061e+02 1.826815000000000055e+03
1.040000000000000091e-01 7.444809999999999484e-01 1.712089999999999890e+01 1.446225000000000023e+02 1.826569999999999936e+03
1.050000000000000100e-01 7.442675000000000818e-01 1.633474999999999966e+01 1.435954999999999870e+02 1.826309999999999945e+03
1.059999999999999970e-01 7.440495000000000303e-01 1.555049999999999955e+01 1.425405000000000086e+02 1.826045000000000073e+03
1.069999999999999979e-01 7.438335000000000363e-01 1.477883500000000083e+01 1.414819999999999993e+02 1.825775000000000091e+03
1.079999999999999988e-01 7.436240000000000627e-01 1.403095500000000051e+01 1.404449999999999932e+02 1.825505000000000109e+03
1.089999999999999997e-01 7.434260000000000312e-01 1.331772000000000133e+01 1.394530000000000030e+02 1.825240000000000009e+03
1.100000000000000006e-01 7.432434999999999459e-01 1.264928500000000078e+01 1.385300000000000011e+02 1.824990000000000009e+03
1.110000000000000014e-01 7.430814999999999504e-01 1.203457500000000024e+01 1.376949999999999932e+02 1.824764999999999873e+03
1.120000000000000023e-01 7.429410000000000736e-01 1.148063499999999948e+01 1.369639999999999986e+02 1.824559999999999945e+03
1.130000000000000032e-01 7.428259999999999863e-01 1.099248500000000028e+01 1.363480000000000132e+02 1.824384999999999991e+03
1.140000000000000041e-01 7.427350000000000341e-01 1.057297499999999957e+01 1.358534999999999968e+02 1.824235000000000127e+03
1.150000000000000050e-01 7.426694999999999824e-01 1.022260499999999972e+01 1.354825000000000159e+02 1.824119999999999891e+03
1.160000000000000059e-01 7.426279999999999548e-01 9.939474999999999838e+00 1.352305000000000064e+02 1.824035000000000082e+03
1.170000000000000068e-01 7.426070000000000171e-01 9.719924999999999926e+00 1.350894999999999868e+02 1.823974999999999909e+03
1.180000000000000077e-01 7.426060000000000993e-01 9.558399999999998897e+00 1.350475000000000136e+02 1.823940000000000055e+03
1.190000000000000085e-01 7.426200000000000578e-01 9.448164999999999480e+00 1.350904999999999916e+02 1.823934999999999945e+03
1.200000000000000094e-01 7.426460000000000283e-01 9.381544999999999135e+00 1.352019999999999982e+02 1.823945000000000164e+03
1.209999999999999964e-01 7.426805000000000767e-01 9.350459999999999994e+00 1.353645000000000209e+02 1.823974999999999909e+03
1.219999999999999973e-01 7.427205000000000057e-01 9.346674999999999400e+00 1.355610000000000070e+02 1.824005000000000109e+03
1.229999999999999982e-01 7.427635000000000209e-01 9.362345000000001249e+00 1.357769999999999868e+02 1.824049999999999955e+03
1.239999999999999991e-01 7.428050000000000486e-01 9.390209999999999724e+00 1.359964999999999975e+02 1.824099999999999909e+03
1.250000000000000000e-01 7.428449999999999775e-01 9.423659999999999926e+00 1.362090000000000032e+02 1.824150000000000091e+03
1.260000000000000009e-01 7.428799999999999848e-01 9.457174999999999443e+00 1.364039999999999964e+02 1.824195000000000164e+03
1.270000000000000018e-01 7.429105000000000292e-01 9.486184999999998979e+00 1.365745000000000005e+02 1.824235000000000127e+03
1.280000000000000027e-01 7.429339999999999833e-01 9.507175000000000153e+00 1.367160000000000082e+02 1.824269999999999982e+03
1.290000000000000036e-01 7.429514999999999869e-01 9.517735000000000056e+00 1.368265000000000100e+02 1.824300000000000182e+03
1.300000000000000044e-01 7.429630000000000400e-01 9.516394999999999271e+00 1.369060000000000059e+02 1.824325000000000045e+03
1.310000000000000053e-01 7.429685000000000317e-01 9.502724999999999866e+00 1.369549999999999841e+02 1.824339999999999918e+03
1.320000000000000062e-01 7.429700000000000193e-01 9.477129999999998944e+00 1.369789999999999850e+02 1.824344999999999800e+03
1.330000000000000071e-01 7.429670000000000440e-01 9.440764999999998963e+00 1.369809999999999945e+02 1.824355000000000018e+03
1.340000000000000080e-01 7.429624999999999702e-01 9.395400000000000418e+00 1.369675000000000011e+02 1.824355000000000018e+03
1.350000000000000089e-01 7.429559999999999498e-01 9.343210000000000903e+00 1.369440000000000168e+02 1.824349999999999909e+03
1.360000000000000098e-01 7.429499999999999993e-01 9.286649999999999849e+00 1.369170000000000016e+02 1.824349999999999909e+03
1.370000000000000107e-01 7.429449999999999665e-01 9.228334999999999511e+00 1.368924999999999841e+02 1.824340000000000146e+03
1.380000000000000115e-01 7.429424999999999502e-01 9.170664999999999623e+00 1.368754999999999882e+02 1.824340000000000146e+03
1.390000000000000124e-01 7.429425000000000612e-01 9.115709999999999980e+00 1.368700000000000045e+02 1.824340000000000146e+03
1.400000000000000133e-01 7.429464999999999542e-01 9.065265000000000128e+00 1.368795000000000073e+02 1.824340000000000146e+03
1.410000000000000142e-01 7.429540000000000033e-01 9.020430000000001058e+00 1.369064999999999941e+02 1.824349999999999909e+03
1.420000000000000151e-01 7.429654999999999454e-01 8.981844999999999857e+00 1.369505000000000052e+02 1.824355000000000018e+03
1.430000000000000160e-01 7.429799999999999738e-01 8.949510000000000076e+00 1.370110000000000241e+02 1.824375000000000000e+03
1.440000000000000169e-01 7.429974999999999774e-01 8.922920000000001295e+00 1.370849999999999795e+02 1.824389999999999873e+03
1.450000000000000178e-01 7.430160000000000098e-01 8.901064999999999117e+00 1.371689999999999827e+02 1.824409999999999854e+03
1.459999999999999909e-01 7.430364999999999887e-01 8.882725000000000648e+00 1.372599999999999909e+02 1.824434999999999945e+03
1.469999999999999918e-01 7.430559999999999388e-01 8.866450000000000387e+00 1.373520000000000039e+02 1.824460000000000036e+03
1.479999999999999927e-01 7.430749999999999300e-01 8.850785000000000124e+00 1.374424999999999955e+02 1.824480000000000018e+03
1.489999999999999936e-01 7.430924999999999336e-01 8.834464999999999790e+00 1.375264999999999986e+02 1.824500000000000000e+03
1.499999999999999944e-01 7.431069999999999620e-01 8.816499999999999559e+00 1.376005000000000109e+02 1.824525000000000091e+03
1.509999999999999953e-01 7.431200000000000028e-01 8.796134999999999593e+00 1.376630000000000109e+02 1.824539999999999964e+03
1.519999999999999962e-01 7.431289999999999285e-01 8.773194999999999411e+00 1.377124999999999773e+02 1.824554999999999836e+03
1.529999999999999971e-01 7.431364999999999776e-01 8.747745000000000104e+00 1.377485000000000070e+02 1.824565000000000055e+03
1.539999999999999980e-01 7.431410000000000515e-01 8.720425000000000537e+00 1.377735000000000127e+02 1.824575000000000045e+03
1.549999999999999989e-01 7.431444999999999856e-01 8.692149999999999821e+00 1.377895000000000039e+02 1.824579999999999927e+03
1.559999999999999998e-01 7.431459999999999733e-01 8.664059999999999206e+00 1.377984999999999900e+02 1.824579999999999927e+03
1.570000000000000007e-01 7.431480000000000308e-01 8.637634999999999508e+00 1.378054999999999950e+02 1.824585000000000036e+03
1.580000000000000016e-01 7.431510000000000060e-01 8.614325000000000898e+00 1.378149999999999977e+02 1.824585000000000036e+03
1.590000000000000024e-01 7.431550000000000100e-01 8.595795000000000741e+00 1.378309999999999889e+02 1.824590000000000146e+03
