# t [s], A [cm^2], U [cm/s], P [cPa], c [cm/s]
1.000000000000000021e-03 1.696684999999999999e-01 3.023595000000000033e-01 9.807625000000000171e+01 2.029019999999999982e+03
2.000000000000000042e-03 1.696285000000000154e-01 1.814431000000000127e+00 9.489039999999999964e+01 2.028680000000000064e+03
3.000000000000000062e-03 1.695099999999999940e-01 3.677527500000000060e+00 9.053175000000000239e+01 2.027714999999999918e+03
4.000000000000000083e-03 1.693439999999999945e-01 5.761586000000000318e+00 8.575059999999999150e+01 2.026380000000000109e+03
5.000000000000000104e-03 1.691615000000000202e-01 7.999399999999999622e+00 8.141065000000000396e+01 2.024929999999999836e+03
6.000000000000000125e-03 1.689835000000000087e-01 1.023291500000000021e+01 7.784420000000000073e+01 2.023534999999999854e+03
7.000000000000000146e-03 1.688164999999999805e-01 1.225553000000000026e+01 7.485595000000000709e+01 2.022240000000000009e+03
8.000000000000000167e-03 1.686624999999999930e-01 1.396687000000000012e+01 7.219425000000001091e+01 2.021065000000000055e+03
9.000000000000001055e-03 1.685249999999999804e-01 1.539230000000000054e+01 6.987010000000000787e+01 2.020045000000000073e+03
1.000000000000000194e-02 1.684090000000000031e-01 1.657065000000000055e+01 6.796635000000000559e+01 2.019184999999999945e+03
1.099999999999999936e-02 1.683129999999999904e-01 1.751905000000000001e+01 6.647554999999999836e+01 2.018480000000000018e+03
1.200000000000000025e-02 1.682365000000000110e-01 1.825075000000000003e+01 6.534005000000000507e+01 2.017925000000000182e+03
1.300000000000000114e-02 1.681759999999999922e-01 1.877315000000000111e+01 6.447334999999999638e+01 2.017500000000000000e+03
1.400000000000000203e-02 1.681279999999999997e-01 1.909284999999999854e+01 6.376494999999999891e+01 2.017170000000000073e+03
1.499999999999999944e-02 1.680889999999999884e-01 1.925205000000000055e+01 6.316844999999999288e+01 2.016904999999999973e+03
1.600000000000000033e-02 1.680615000000000026e-01 1.935334999999999894e+01 6.280995000000000061e+01 2.016724999999999909e+03
1.700000000000000122e-02 1.680504999999999916e-01 1.953394999999999726e+01 6.297350000000000136e+01 2.016664999999999964e+03
1.800000000000000211e-02 1.680649999999999922e-01 1.990095000000000169e+01 6.394265000000000043e+01 2.016784999999999854e+03
1.900000000000000300e-02 1.681084999999999940e-01 2.047594999999999743e+01 6.581000000000000227e+01 2.017105000000000018e+03
2.000000000000000042e-02 1.681789999999999952e-01 2.118195000000000050e+01 6.838150000000000261e+01 2.017630000000000109e+03
2.100000000000000130e-02 1.682659999999999989e-01 2.187559999999999860e+01 7.122284999999999400e+01 2.018280000000000200e+03
2.200000000000000219e-02 1.683560000000000056e-01 2.240230000000000032e+01 7.380879999999999086e+01 2.018964999999999918e+03
2.299999999999999961e-02 1.684355000000000158e-01 2.264979999999999905e+01 7.569845000000000823e+01 2.019569999999999936e+03
2.400000000000000050e-02 1.684930000000000039e-01 2.257925000000000182e+01 7.666485000000000127e+01 2.020025000000000091e+03
2.500000000000000139e-02 1.685254999999999947e-01 2.222680000000000078e+01 7.673740000000000805e+01 2.020289999999999964e+03
2.600000000000000228e-02 1.685349999999999904e-01 2.168005000000000138e+01 7.615254999999999086e+01 2.020380000000000109e+03
2.700000000000000316e-02 1.685274999999999967e-01 2.103999999999999915e+01 7.524254999999999427e+01 2.020339999999999918e+03
2.800000000000000058e-02 1.685109999999999941e-01 2.038615000000000066e+01 7.431130000000000280e+01 2.020230000000000018e+03
2.900000000000000147e-02 1.684924999999999895e-01 1.975529999999999831e+01 7.354245000000000232e+01 2.020099999999999909e+03
3.000000000000000236e-02 1.684760000000000146e-01 1.913989999999999725e+01 7.296555000000000746e+01 2.019965000000000146e+03
3.099999999999999978e-02 1.684594999999999843e-01 1.850180000000000291e+01 7.248189999999999600e+01 2.019844999999999800e+03
3.200000000000000067e-02 1.684420000000000084e-01 1.779545000000000243e+01 7.193075000000000330e+01 2.019720000000000027e+03
3.300000000000000155e-02 1.684184999999999988e-01 1.699190000000000111e+01 7.116904999999999859e+01 2.019550000000000182e+03
3.400000000000000244e-02 1.683880000000000099e-01 1.609550000000000125e+01 7.013845000000000596e+01 2.019324999999999818e+03
3.500000000000000333e-02 1.683499999999999996e-01 1.514935000000000009e+01 6.889985000000000070e+01 2.019050000000000182e+03
3.600000000000000422e-02 1.683080000000000132e-01 1.422840000000000060e+01 6.762749999999999773e+01 2.018744999999999891e+03
3.700000000000000511e-02 1.682684999999999875e-01 1.342145000000000010e+01 6.656435000000000457e+01 2.018445000000000164e+03
3.799999999999999906e-02 1.682379999999999987e-01 1.280904999999999916e+01 6.595504999999999995e+01 2.018210000000000036e+03
3.899999999999999994e-02 1.682239999999999847e-01 1.244299999999999962e+01 6.597804999999999609e+01 2.018095000000000027e+03
4.000000000000000083e-02 1.682295000000000040e-01 1.233389999999999986e+01 6.669534999999999059e+01 2.018125000000000000e+03
4.100000000000000172e-02 1.682565000000000033e-01 1.244875000000000043e+01 6.803489999999999327e+01 2.018309999999999945e+03
4.200000000000000261e-02 1.683009999999999784e-01 1.271845000000000070e+01 6.980514999999999759e+01 2.018630000000000109e+03
4.300000000000000350e-02 1.683569999999999789e-01 1.305199999999999960e+01 7.173560000000000514e+01 2.019039999999999964e+03
4.400000000000000439e-02 1.684164999999999968e-01 1.335280000000000022e+01 7.352955000000000041e+01 2.019474999999999909e+03
4.499999999999999833e-02 1.684704999999999953e-01 1.353399999999999892e+01 7.491599999999999682e+01 2.019880000000000109e+03
4.599999999999999922e-02 1.685109999999999941e-01 1.352940000000000076e+01 7.569010000000000105e+01 2.020184999999999945e+03
4.700000000000000011e-02 1.685325000000000017e-01 1.329905000000000115e+01 7.573529999999999518e+01 2.020349999999999909e+03
4.800000000000000100e-02 1.685320000000000151e-01 1.282959999999999923e+01 7.502635000000000787e+01 2.020355000000000018e+03
4.900000000000000189e-02 1.685069999999999901e-01 1.213049999999999962e+01 7.361664999999999281e+01 2.020184999999999945e+03
5.000000000000000278e-02 1.684594999999999843e-01 1.122768999999999906e+01 7.161560000000000059e+01 2.019840000000000146e+03
5.100000000000000366e-02 1.683930000000000149e-01 1.015708000000000055e+01 6.916235000000000355e+01 2.019349999999999909e+03
5.200000000000000455e-02 1.683109999999999884e-01 8.958919999999999106e+00 6.640335000000000321e+01 2.018740000000000009e+03
5.300000000000000544e-02 1.682170000000000054e-01 7.674355000000000260e+00 6.347619999999999862e+01 2.018050000000000182e+03
5.399999999999999939e-02 1.681159999999999877e-01 6.343609999999999971e+00 6.050204999999999700e+01 2.017299999999999955e+03
5.500000000000000028e-02 1.680125000000000091e-01 5.006145000000000067e+00 5.758500000000000085e+01 2.016525000000000091e+03
5.600000000000000117e-02 1.679090000000000027e-01 3.701472499999999943e+00 5.481690000000000396e+01 2.015750000000000000e+03
5.700000000000000205e-02 1.678095000000000003e-01 2.470175500000000302e+00 5.228294999999999959e+01 2.015005000000000109e+03
5.800000000000000294e-02 1.677175000000000193e-01 1.354404999999999859e+00 5.006739999999999924e+01 2.014320000000000164e+03
5.900000000000000383e-02 1.676365000000000216e-01 3.975050000000001083e-01 4.825639999999999930e+01 2.013699999999999818e+03
6.000000000000000472e-02 1.675689999999999957e-01 -3.572949999999999182e-01 4.693739999999999668e+01 2.013195000000000164e+03
6.099999999999999867e-02 1.675194999999999879e-01 -8.690415000000000223e-01 4.619514999999999816e+01 2.012805000000000064e+03
6.199999999999999956e-02 1.674904999999999866e-01 -1.101574000000000053e+00 4.610604999999999620e+01 2.012574999999999818e+03
6.300000000000000044e-02 1.674840000000000217e-01 -1.026146999999999920e+00 4.673104999999999620e+01 2.012514999999999873e+03
6.400000000000000133e-02 1.675034999999999996e-01 -6.236565000000000580e-01 4.810954999999999870e+01 2.012640000000000100e+03
6.500000000000000222e-02 1.675490000000000035e-01 1.138350000000000195e-01 5.025450000000000017e+01 2.012954999999999927e+03
6.600000000000000311e-02 1.676219999999999932e-01 1.182395000000000085e+00 5.315014999999999645e+01 2.013485000000000127e+03
6.700000000000000400e-02 1.677215000000000233e-01 2.566428000000000154e+00 5.675254999999999939e+01 2.014204999999999927e+03
6.800000000000000488e-02 1.678469999999999962e-01 4.239660999999999902e+00 6.099199999999999733e+01 2.015119999999999891e+03
6.900000000000000577e-02 1.679954999999999921e-01 6.166744999999999699e+00 6.577814999999999657e+01 2.016210000000000036e+03
7.000000000000000666e-02 1.681639999999999802e-01 8.305315000000000225e+00 7.100530000000000541e+01 2.017460000000000036e+03
7.100000000000000755e-02 1.683489999999999986e-01 1.060824999999999996e+01 7.655944999999999823e+01 2.018835000000000036e+03
7.200000000000000844e-02 1.685464999999999880e-01 1.302611000000000097e+01 8.232464999999999122e+01 2.020309999999999945e+03
7.300000000000000933e-02 1.687535000000000007e-01 1.550965000000000060e+01 8.818934999999999036e+01 2.021855000000000018e+03
7.399999999999999634e-02 1.689660000000000051e-01 1.801174999999999926e+01 9.405174999999999841e+01 2.023449999999999818e+03
7.499999999999999722e-02 1.691795000000000104e-01 2.048969999999999914e+01 9.982540000000000191e+01 2.025059999999999945e+03
7.599999999999999811e-02 1.693919999999999870e-01 2.290684999999999860e+01 1.054419999999999931e+02 2.026670000000000073e+03
7.699999999999999900e-02 1.696004999999999874e-01 2.523355000000000103e+01 1.108524999999999920e+02 2.028250000000000000e+03
7.799999999999999989e-02 1.698029999999999817e-01 2.744790000000000063e+01 1.160294999999999987e+02 2.029795000000000073e+03
7.900000000000000078e-02 1.699999999999999845e-01 2.953585000000000349e+01 1.209660000000000082e+02 2.031289999999999964e+03
8.000000000000000167e-02 1.701884999999999926e-01 3.149044999999999916e+01 1.256709999999999923e+02 2.032735000000000127e+03
8.100000000000000255e-02 1.703705000000000080e-01 3.331105000000000160e+01 1.301670000000000016e+02 2.034130000000000109e+03
8.200000000000000344e-02 1.705455000000000165e-01 3.500180000000000291e+01 1.344859999999999900e+02 2.035474999999999909e+03
8.300000000000000433e-02 1.707150000000000056e-01 3.657035000000000480e+01 1.386634999999999991e+02 2.036780000000000200e+03
8.400000000000000522e-02 1.708800000000000041e-01 3.802595000000000169e+01 1.427334999999999923e+02 2.038054999999999836e+03
8.500000000000000611e-02 1.710409999999999986e-01 3.937829999999999586e+01 1.467264999999999873e+02 2.039295000000000073e+03
8.600000000000000699e-02 1.711989999999999901e-01 4.063635000000000019e+01 1.506659999999999968e+02 2.040514999999999873e+03
8.700000000000000788e-02 1.713545000000000207e-01 4.180720000000000169e+01 1.545654999999999859e+02 2.041720000000000027e+03
8.800000000000000877e-02 1.715085000000000082e-01 4.289574999999999960e+01 1.584279999999999973e+02 2.042910000000000082e+03
8.899999999999999578e-02 1.716604999999999936e-01 4.390429999999999922e+01 1.622485000000000070e+02 2.044090000000000146e+03
8.999999999999999667e-02 1.718109999999999915e-01 4.483230000000000359e+01 1.660099999999999909e+02 2.045250000000000000e+03
9.099999999999999756e-02 1.719585000000000141e-01 4.567695000000000505e+01 1.696910000000000025e+02 2.046394999999999982e+03
9.199999999999999845e-02 1.721030000000000060e-01 4.643319999999999936e+01 1.732640000000000100e+02 2.047514999999999873e+03
9.299999999999999933e-02 1.722430000000000072e-01 4.709430000000000405e+01 1.766964999999999861e+02 2.048605000000000018e+03
9.400000000000000022e-02 1.723780000000000034e-01 4.765265000000000128e+01 1.799560000000000173e+02 2.049655000000000200e+03
9.500000000000000111e-02 1.725059999999999927e-01 4.809990000000000521e+01 1.830090000000000146e+02 2.050650000000000091e+03
9.600000000000000200e-02 1.726270000000000027e-01 4.842779999999999774e+01 1.858245000000000005e+02 2.051590000000000146e+03
9.700000000000000289e-02 1.727390000000000037e-01 4.862870000000000203e+01 1.883745000000000118e+02 2.052465000000000146e+03
9.800000000000000377e-02 1.728410000000000224e-01 4.869620000000000459e+01 1.906354999999999791e+02 2.053265000000000327e+03
9.900000000000000466e-02 1.729324999999999890e-01 4.862534999999999741e+01 1.925885000000000105e+02 2.053989999999999782e+03
1.000000000000000056e-01 1.730130000000000001e-01 4.841365000000000407e+01 1.942224999999999966e+02 2.054619999999999891e+03
1.010000000000000064e-01 1.730820000000000136e-01 4.806069999999999709e+01 1.955319999999999823e+02 2.055164999999999964e+03
1.020000000000000073e-01 1.731385000000000007e-01 4.756905000000000427e+01 1.965194999999999936e+02 2.055614999999999782e+03
1.030000000000000082e-01 1.731834999999999902e-01 4.694409999999999883e+01 1.971935000000000002e+02 2.055974999999999909e+03
1.040000000000000091e-01 1.732170000000000099e-01 4.619405000000000427e+01 1.975715000000000146e+02 2.056244999999999891e+03
1.050000000000000100e-01 1.732394999999999907e-01 4.532975000000000421e+01 1.976770000000000209e+02 2.056430000000000291e+03
1.059999999999999970e-01 1.732515000000000027e-01 4.436459999999999582e+01 1.975384999999999991e+02 2.056534999999999854e+03
1.069999999999999979e-01 1.732545000000000057e-01 4.331380000000000052e+01 1.971895000000000095e+02 2.056570000000000164e+03
1.079999999999999988e-01 1.732489999999999863e-01 4.219389999999999930e+01 1.966644999999999754e+02 2.056534999999999854e+03
1.089999999999999997e-01 1.732370000000000021e-01 4.102235000000000298e+01 1.960024999999999977e+02 2.056449999999999818e+03
1.100000000000000006e-01 1.732194999999999985e-01 3.981654999999999944e+01 1.952395000000000209e+02 2.056319999999999709e+03
1.110000000000000014e-01 1.731969999999999898e-01 3.859354999999999336e+01 1.944114999999999895e+02 2.056149999999999636e+03
1.120000000000000023e-01 1.731715000000000060e-01 3.736910000000000309e+01 1.935500000000000114e+02 2.055960000000000036e+03
1.130000000000000032e-01 1.731445000000000067e-01 3.615735000000000099e+01 1.926825000000000045e+02 2.055750000000000000e+03
1.140000000000000041e-01 1.731165000000000065e-01 3.497055000000000291e+01 1.918315000000000055e+02 2.055529999999999745e+03
1.150000000000000050e-01 1.730875000000000052e-01 3.381844999999999857e+01 1.910135000000000218e+02 2.055309999999999945e+03
1.160000000000000059e-01 1.730595000000000050e-01 3.270820000000000505e+01 1.902394999999999925e+02 2.055090000000000146e+03
1.170000000000000068e-01 1.730325000000000057e-01 3.164444999999999908e+01 1.895140000000000100e+02 2.054880000000000109e+03
1.180000000000000077e-01 1.730065000000000075e-01 3.062910000000000110e+01 1.888365000000000009e+02 2.054675000000000182e+03
1.190000000000000085e-01 1.729815000000000103e-01 2.966159999999999997e+01 1.882009999999999934e+02 2.054480000000000018e+03
1.200000000000000094e-01 1.729574999999999863e-01 2.873920000000000030e+01 1.875960000000000036e+02 2.054289999999999964e+03
1.209999999999999964e-01 1.729344999999999910e-01 2.785705000000000098e+01 1.870079999999999814e+02 2.054105000000000018e+03
1.219999999999999973e-01 1.729114999999999958e-01 2.700885000000000247e+01 1.864189999999999827e+02 2.053925000000000182e+03
1.229999999999999982e-01 1.728885000000000005e-01 2.618710000000000093e+01 1.858114999999999952e+02 2.053744999999999891e+03
1.239999999999999991e-01 1.728645000000000043e-01 2.538354999999999961e+01 1.851655000000000086e+02 2.053549999999999727e+03
1.250000000000000000e-01 1.728390000000000204e-01 2.458964999999999890e+01 1.844610000000000127e+02 2.053355000000000018e+03
1.260000000000000009e-01 1.728115000000000068e-01 2.379704999999999870e+01 1.836810000000000116e+02 2.053139999999999873e+03
1.270000000000000018e-01 1.727814999999999768e-01 2.299810000000000088e+01 1.828100000000000023e+02 2.052900000000000091e+03
1.280000000000000027e-01 1.727474999999999983e-01 2.218599999999999994e+01 1.818360000000000127e+02 2.052639999999999873e+03
1.290000000000000036e-01 1.727104999999999890e-01 2.135539999999999949e+01 1.807484999999999786e+02 2.052349999999999909e+03
1.300000000000000044e-01 1.726695000000000035e-01 2.050240000000000151e+01 1.795434999999999945e+02 2.052030000000000200e+03
1.310000000000000053e-01 1.726239999999999997e-01 1.962525000000000119e+01 1.782214999999999918e+02 2.051679999999999836e+03
1.320000000000000062e-01 1.725740000000000052e-01 1.872390000000000043e+01 1.767864999999999895e+02 2.051300000000000182e+03
1.330000000000000071e-01 1.725210000000000077e-01 1.780035000000000167e+01 1.752475000000000023e+02 2.050885000000000218e+03
1.340000000000000080e-01 1.724634999999999918e-01 1.685875000000000057e+01 1.736195000000000164e+02 2.050445000000000164e+03
1.350000000000000089e-01 1.724030000000000007e-01 1.590479999999999983e+01 1.719184999999999945e+02 2.049980000000000018e+03
1.360000000000000098e-01 1.723395000000000066e-01 1.494610000000000127e+01 1.701675000000000182e+02 2.049494999999999891e+03
1.370000000000000107e-01 1.722750000000000115e-01 1.399119999999999919e+01 1.683884999999999934e+02 2.048990000000000236e+03
1.380000000000000115e-01 1.722084999999999866e-01 1.304984999999999928e+01 1.666069999999999993e+02 2.048485000000000127e+03
1.390000000000000124e-01 1.721419999999999895e-01 1.213203000000000031e+01 1.648489999999999895e+02 2.047970000000000255e+03
1.400000000000000133e-01 1.720765000000000211e-01 1.124787500000000051e+01 1.631390000000000100e+02 2.047460000000000036e+03
1.410000000000000142e-01 1.720119999999999982e-01 1.040702500000000086e+01 1.615009999999999764e+02 2.046970000000000027e+03
1.420000000000000151e-01 1.719499999999999917e-01 9.618240000000000123e+00 1.599540000000000077e+02 2.046490000000000009e+03
1.430000000000000160e-01 1.718909999999999882e-01 8.889099999999999113e+00 1.585165000000000077e+02 2.046029999999999745e+03
1.440000000000000169e-01 1.718359999999999888e-01 8.225474999999999426e+00 1.572015000000000100e+02 2.045605000000000018e+03
1.450000000000000178e-01 1.717850000000000210e-01 7.631629999999999470e+00 1.560165000000000077e+02 2.045210000000000036e+03
1.459999999999999909e-01 1.717380000000000018e-01 7.109835000000000349e+00 1.549650000000000034e+02 2.044840000000000146e+03
1.469999999999999918e-01 1.716965000000000019e-01 6.660415000000000418e+00 1.540469999999999970e+02 2.044514999999999873e+03
1.479999999999999927e-01 1.716590000000000060e-01 6.281805000000000305e+00 1.532570000000000050e+02 2.044220000000000027e+03
1.489999999999999936e-01 1.716265000000000152e-01 5.970690000000000275e+00 1.525849999999999795e+02 2.043965000000000146e+03
1.499999999999999944e-01 1.715980000000000005e-01 5.722204999999999764e+00 1.520190000000000055e+02 2.043740000000000009e+03
1.509999999999999953e-01 1.715730000000000033e-01 5.530194999999999972e+00 1.515439999999999827e+02 2.043545000000000073e+03
1.519999999999999962e-01 1.715519999999999823e-01 5.387545000000000250e+00 1.511444999999999936e+02 2.043375000000000000e+03
1.529999999999999971e-01 1.715335000000000054e-01 5.286455000000000126e+00 1.508009999999999877e+02 2.043230000000000018e+03
1.539999999999999980e-01 1.715170000000000028e-01 5.218795000000000073e+00 1.504979999999999905e+02 2.043094999999999800e+03
1.549999999999999989e-01 1.715025000000000022e-01 5.176415000000000433e+00 1.502180000000000177e+02 2.042980000000000018e+03
1.559999999999999998e-01 1.714890000000000025e-01 5.151434999999999320e+00 1.499449999999999932e+02 2.042875000000000000e+03
1.570000000000000007e-01 1.714760000000000173e-01 5.136485000000000412e+00 1.496655000000000086e+02 2.042775000000000091e+03
1.580000000000000016e-01 1.714630000000000043e-01 5.124929999999999986e+00 1.493670000000000186e+02 2.042664999999999964e+03
1.590000000000000024e-01 1.714499999999999913e-01 5.111040000000000028e+00 1.490414999999999850e+02 2.042565000000000055e+03
