# t [s], A [cm^2], U [cm/s], P [cPa], c [cm/s]
1.000000000000000021e-03 1.501520000000000077e-01 3.037495000000000056e-01 9.243680000000000518e+01 2.013159999999999854e+03
2.000000000000000042e-03 1.501184999999999881e-01 1.748712999999999962e+00 8.937279999999999802e+01 2.012799999999999955e+03
3.000000000000000062e-03 1.500184999999999991e-01 3.521387499999999893e+00 8.521510000000000673e+01 2.011795000000000073e+03
4.000000000000000083e-03 1.498784999999999978e-01 5.503557500000000324e+00 8.068379999999999086e+01 2.010404999999999973e+03
5.000000000000000104e-03 1.497244999999999826e-01 7.634649999999999714e+00 7.659104999999999563e+01 2.008894999999999982e+03
6.000000000000000125e-03 1.495739999999999847e-01 9.765270000000001005e+00 7.323744999999999550e+01 2.007434999999999945e+03
7.000000000000000146e-03 1.494324999999999959e-01 1.169895499999999977e+01 7.041989999999999839e+01 2.006075000000000045e+03
8.000000000000000167e-03 1.493005000000000027e-01 1.334217999999999904e+01 6.789050000000000296e+01 2.004845000000000027e+03
9.000000000000001055e-03 1.491834999999999967e-01 1.472149999999999892e+01 6.566169999999999618e+01 2.003755000000000109e+03
1.000000000000000194e-02 1.490825000000000067e-01 1.587410000000000032e+01 6.381560000000000343e+01 2.002829999999999927e+03
1.099999999999999936e-02 1.489985000000000059e-01 1.681449999999999889e+01 6.234459999999999980e+01 2.002070000000000164e+03
1.200000000000000025e-02 1.489300000000000068e-01 1.755365000000000109e+01 6.119395000000000095e+01 2.001460000000000036e+03
1.300000000000000114e-02 1.488754999999999939e-01 1.809704999999999941e+01 6.028329999999999700e+01 2.000974999999999909e+03
1.400000000000000203e-02 1.488305000000000045e-01 1.844870000000000232e+01 5.950815000000000055e+01 2.000590000000000146e+03
1.499999999999999944e-02 1.487930000000000086e-01 1.864674999999999727e+01 5.882359999999999900e+01 2.000275000000000091e+03
1.600000000000000033e-02 1.487640000000000073e-01 1.878920000000000101e+01 5.835259999999999536e+01 2.000034999999999854e+03
1.700000000000000122e-02 1.487499999999999933e-01 1.901030000000000086e+01 5.837709999999999866e+01 1.999920000000000073e+03
1.800000000000000211e-02 1.487570000000000003e-01 1.941720000000000113e+01 5.918500000000000227e+01 2.000000000000000000e+03
1.900000000000000300e-02 1.487894999999999912e-01 2.003390000000000271e+01 6.088015000000000043e+01 2.000299999999999955e+03
2.000000000000000042e-02 1.488460000000000061e-01 2.078594999999999970e+01 6.328270000000000550e+01 2.000809999999999945e+03
2.100000000000000130e-02 1.489175000000000082e-01 2.153119999999999834e+01 6.596920000000000073e+01 2.001480000000000018e+03
2.200000000000000219e-02 1.489929999999999866e-01 2.211379999999999768e+01 6.841835000000000377e+01 2.002179999999999836e+03
2.299999999999999961e-02 1.490595000000000114e-01 2.241835000000000022e+01 7.018555000000000632e+01 2.002804999999999836e+03
2.400000000000000050e-02 1.491075000000000039e-01 2.240169999999999817e+01 7.103494999999999493e+01 2.003269999999999982e+03
2.500000000000000139e-02 1.491325000000000012e-01 2.209704999999999941e+01 7.098584999999999923e+01 2.003529999999999973e+03
2.600000000000000228e-02 1.491370000000000196e-01 2.159069999999999823e+01 7.026839999999999975e+01 2.003595000000000027e+03
2.700000000000000316e-02 1.491259999999999808e-01 2.098559999999999803e+01 6.921585000000000321e+01 2.003509999999999991e+03
2.800000000000000058e-02 1.491075000000000039e-01 2.036585000000000178e+01 6.814109999999999445e+01 2.003349999999999909e+03
2.900000000000000147e-02 1.490859999999999963e-01 1.977394999999999925e+01 6.724190000000000111e+01 2.003159999999999854e+03
3.000000000000000236e-02 1.490675000000000194e-01 1.920749999999999957e+01 6.656309999999999150e+01 2.002985000000000127e+03
3.099999999999999978e-02 1.490500000000000158e-01 1.863130000000000308e+01 6.601664999999999850e+01 2.002825000000000045e+03
3.200000000000000067e-02 1.490314999999999834e-01 1.799954999999999927e+01 6.544400000000000261e+01 2.002654999999999973e+03
3.300000000000000155e-02 1.490104999999999902e-01 1.727890000000000015e+01 6.469344999999999857e+01 2.002465000000000146e+03
3.400000000000000244e-02 1.489825000000000177e-01 1.646685000000000088e+01 6.368845000000000312e+01 2.002219999999999800e+03
3.500000000000000333e-02 1.489485000000000114e-01 1.559825000000000017e+01 6.246644999999999470e+01 2.001910000000000082e+03
3.600000000000000422e-02 1.489105000000000012e-01 1.474070000000000036e+01 6.117844999999999800e+01 2.001565000000000055e+03
3.700000000000000511e-02 1.488734999999999919e-01 1.397899999999999920e+01 6.005169999999999675e+01 2.001219999999999800e+03
3.799999999999999906e-02 1.488435000000000175e-01 1.339355000000000118e+01 5.932730000000000103e+01 2.000940000000000055e+03
3.899999999999999994e-02 1.488254999999999995e-01 1.304054999999999964e+01 5.919310000000000116e+01 2.000769999999999982e+03
4.000000000000000083e-02 1.488254999999999995e-01 1.293765000000000143e+01 5.973225000000000051e+01 2.000750000000000000e+03
4.100000000000000172e-02 1.488435000000000175e-01 1.306044999999999945e+01 6.089900000000000091e+01 2.000904999999999973e+03
4.200000000000000261e-02 1.488780000000000103e-01 1.334724999999999895e+01 6.252785000000000082e+01 2.001199999999999818e+03
4.300000000000000350e-02 1.489234999999999864e-01 1.371209999999999951e+01 6.436764999999999759e+01 2.001615000000000009e+03
4.400000000000000439e-02 1.489739999999999953e-01 1.406010000000000026e+01 6.613134999999999764e+01 2.002065000000000055e+03
4.499999999999999833e-02 1.490215000000000012e-01 1.430304999999999893e+01 6.754664999999999964e+01 2.002500000000000000e+03
4.599999999999999922e-02 1.490589999999999971e-01 1.437065000000000126e+01 6.839795000000000869e+01 2.002849999999999909e+03
4.700000000000000011e-02 1.490810000000000191e-01 1.421774999999999878e+01 6.855169999999999675e+01 2.003054999999999836e+03
4.800000000000000100e-02 1.490829999999999933e-01 1.382554999999999978e+01 6.796375000000000455e+01 2.003090000000000146e+03
4.900000000000000189e-02 1.490650000000000031e-01 1.319880000000000031e+01 6.667054999999999154e+01 2.002934999999999945e+03
5.000000000000000278e-02 1.490265000000000062e-01 1.236054999999999993e+01 6.476885000000000048e+01 2.002589999999999918e+03
5.100000000000000366e-02 1.489699999999999913e-01 1.134525000000000006e+01 6.239140000000000441e+01 2.002079999999999927e+03
5.200000000000000455e-02 1.488990000000000036e-01 1.019352999999999909e+01 5.968384999999999962e+01 2.001434999999999945e+03
5.300000000000000544e-02 1.488170000000000048e-01 8.947680000000000078e+00 5.678709999999999525e+01 2.000690000000000055e+03
5.399999999999999939e-02 1.487284999999999857e-01 7.649424999999999919e+00 5.382795000000000130e+01 1.999875000000000000e+03
5.500000000000000028e-02 1.486355000000000037e-01 6.339620000000000033e+00 5.091629999999999967e+01 1.999025000000000091e+03
5.600000000000000117e-02 1.485434999999999950e-01 5.058464999999999989e+00 4.814815000000000111e+01 1.998174999999999955e+03
5.700000000000000205e-02 1.484544999999999892e-01 3.846522500000000289e+00 4.561074999999999591e+01 1.997349999999999909e+03
5.800000000000000294e-02 1.483714999999999895e-01 2.745187150000000020e+00 4.338790000000000191e+01 1.996585000000000036e+03
5.900000000000000383e-02 1.482974999999999988e-01 1.796515000000000084e+00 4.156319999999999482e+01 1.995900000000000091e+03
6.000000000000000472e-02 1.482364999999999933e-01 1.042213499999999904e+00 4.022019999999999840e+01 1.995329999999999927e+03
6.099999999999999867e-02 1.481899999999999884e-01 5.218269999999999298e-01 3.943975000000000364e+01 1.994889999999999873e+03
6.199999999999999956e-02 1.481615000000000015e-01 2.704219999999999402e-01 3.929500000000000171e+01 1.994610000000000127e+03
6.300000000000000044e-02 1.481530000000000069e-01 3.161975000000000202e-01 3.984494999999999720e+01 1.994514999999999873e+03
6.400000000000000133e-02 1.481664999999999788e-01 6.783143499999999548e-01 4.112869999999999493e+01 1.994619999999999891e+03
6.500000000000000222e-02 1.482034999999999880e-01 1.365346500000000018e+00 4.316070000000000562e+01 1.994934999999999945e+03
6.600000000000000311e-02 1.482645000000000213e-01 2.374531000000000169e+00 4.592804999999999893e+01 1.995474999999999909e+03
6.700000000000000400e-02 1.483484999999999943e-01 3.691840500000000080e+00 4.939069999999999538e+01 1.996230000000000018e+03
6.800000000000000488e-02 1.484560000000000046e-01 5.292864999999999931e+00 5.348359999999999559e+01 1.997195000000000164e+03
6.900000000000000577e-02 1.485830000000000206e-01 7.144315000000000637e+00 5.812099999999999511e+01 1.998355000000000018e+03
7.000000000000000666e-02 1.487290000000000001e-01 9.205949999999999633e+00 6.320204999999999984e+01 1.999679999999999836e+03
7.100000000000000755e-02 1.488895000000000080e-01 1.143288000000000082e+01 6.861684999999999945e+01 2.001150000000000091e+03
7.200000000000000844e-02 1.490624999999999867e-01 1.377767000000000053e+01 7.425315000000000509e+01 2.002740000000000009e+03
7.300000000000000933e-02 1.492439999999999878e-01 1.619294999999999973e+01 8.000200000000000955e+01 2.004414999999999964e+03
7.399999999999999634e-02 1.494300000000000073e-01 1.863335000000000008e+01 8.576335000000000264e+01 2.006139999999999873e+03
7.499999999999999722e-02 1.496184999999999876e-01 2.105720000000000169e+01 9.145089999999999009e+01 2.007889999999999873e+03
7.599999999999999811e-02 1.498065000000000091e-01 2.342875000000000085e+01 9.699445000000000050e+01 2.009644999999999982e+03
7.699999999999999900e-02 1.499914999999999998e-01 2.571860000000000213e+01 1.023438500000000033e+02 2.011375000000000000e+03
7.799999999999999989e-02 1.501719999999999999e-01 2.790494999999999948e+01 1.074688000000000017e+02 2.013069999999999936e+03
7.900000000000000078e-02 1.503464999999999940e-01 2.997339999999999804e+01 1.123564999999999969e+02 2.014719999999999800e+03
8.000000000000000167e-02 1.505150000000000099e-01 3.191649999999999920e+01 1.170130000000000052e+02 2.016309999999999945e+03
8.100000000000000255e-02 1.506770000000000054e-01 3.373310000000000031e+01 1.214569999999999936e+02 2.017845000000000027e+03
8.200000000000000344e-02 1.508329999999999949e-01 3.542709999999999582e+01 1.257160000000000082e+02 2.019324999999999818e+03
8.300000000000000433e-02 1.509834999999999927e-01 3.700575000000000614e+01 1.298255000000000052e+02 2.020755000000000109e+03
8.400000000000000522e-02 1.511294999999999999e-01 3.847849999999999682e+01 1.338185000000000002e+02 2.022150000000000091e+03
8.500000000000000611e-02 1.512720000000000176e-01 3.985545000000000471e+01 1.377259999999999991e+02 2.023505000000000109e+03
8.600000000000000699e-02 1.514110000000000178e-01 4.114605000000000246e+01 1.415729999999999791e+02 2.024840000000000146e+03
8.700000000000000788e-02 1.515485000000000027e-01 4.235819999999999652e+01 1.453764999999999930e+02 2.026150000000000091e+03
8.800000000000000877e-02 1.516834999999999989e-01 4.349769999999999470e+01 1.491430000000000007e+02 2.027444999999999936e+03
8.899999999999999578e-02 1.518174999999999941e-01 4.456749999999999545e+01 1.528704999999999927e+02 2.028724999999999909e+03
8.999999999999999667e-02 1.519495000000000151e-01 4.556799999999999784e+01 1.565469999999999970e+02 2.029990000000000009e+03
9.099999999999999756e-02 1.520794999999999786e-01 4.649689999999999657e+01 1.601539999999999964e+02 2.031235000000000127e+03
9.199999999999999845e-02 1.522065000000000223e-01 4.734960000000000235e+01 1.636659999999999968e+02 2.032460000000000036e+03
9.299999999999999933e-02 1.523309999999999942e-01 4.811970000000000169e+01 1.670540000000000020e+02 2.033650000000000091e+03
9.400000000000000022e-02 1.524504999999999888e-01 4.879935000000000400e+01 1.702855000000000132e+02 2.034800000000000182e+03
9.500000000000000111e-02 1.525650000000000062e-01 4.937995000000000090e+01 1.733279999999999745e+02 2.035900000000000091e+03
9.600000000000000200e-02 1.526724999999999888e-01 4.985264999999999702e+01 1.761510000000000105e+02 2.036940000000000055e+03
9.700000000000000289e-02 1.527735000000000065e-01 5.020889999999999986e+01 1.787245000000000061e+02 2.037920000000000073e+03
9.800000000000000377e-02 1.528665000000000163e-01 5.044105000000000416e+01 1.810240000000000009e+02 2.038815000000000055e+03
9.900000000000000466e-02 1.529500000000000026e-01 5.054279999999999973e+01 1.830289999999999964e+02 2.039625000000000000e+03
1.000000000000000056e-01 1.530235000000000067e-01 5.050974999999999682e+01 1.847235000000000014e+02 2.040350000000000136e+03
1.010000000000000064e-01 1.530874999999999875e-01 5.033960000000000434e+01 1.860999999999999943e+02 2.040974999999999909e+03
1.020000000000000073e-01 1.531405000000000127e-01 5.003269999999999840e+01 1.871555000000000177e+02 2.041494999999999891e+03
1.030000000000000082e-01 1.531835000000000002e-01 4.959185000000000088e+01 1.878950000000000102e+02 2.041920000000000073e+03
1.040000000000000091e-01 1.532160000000000188e-01 4.902295000000000158e+01 1.883310000000000173e+02 2.042240000000000236e+03
1.050000000000000100e-01 1.532384999999999997e-01 4.833455000000000013e+01 1.884825000000000159e+02 2.042464999999999918e+03
1.059999999999999970e-01 1.532510000000000261e-01 4.753770000000000095e+01 1.883729999999999905e+02 2.042605000000000018e+03
1.069999999999999979e-01 1.532550000000000023e-01 4.664570000000000505e+01 1.880335000000000036e+02 2.042650000000000091e+03
1.079999999999999988e-01 1.532505000000000117e-01 4.567360000000000042e+01 1.874975000000000023e+02 2.042619999999999891e+03
1.089999999999999997e-01 1.532399999999999873e-01 4.463779999999999859e+01 1.868004999999999995e+02 2.042525000000000091e+03
1.100000000000000006e-01 1.532225000000000115e-01 4.355504999999999427e+01 1.859809999999999945e+02 2.042369999999999891e+03
1.110000000000000014e-01 1.532014999999999905e-01 4.244239999999999924e+01 1.850760000000000218e+02 2.042174999999999955e+03
1.120000000000000023e-01 1.531764999999999932e-01 4.131610000000000582e+01 1.841184999999999832e+02 2.041940000000000055e+03
1.130000000000000032e-01 1.531494999999999940e-01 4.019129999999999825e+01 1.831415000000000077e+02 2.041680000000000064e+03
1.140000000000000041e-01 1.531204999999999927e-01 3.908135000000000048e+01 1.821709999999999923e+02 2.041409999999999854e+03
1.150000000000000050e-01 1.530909999999999771e-01 3.799759999999999849e+01 1.812289999999999850e+02 2.041125000000000000e+03
1.160000000000000059e-01 1.530624999999999902e-01 3.694894999999999641e+01 1.803315000000000055e+02 2.040849999999999909e+03
1.170000000000000068e-01 1.530340000000000034e-01 3.594174999999999898e+01 1.794884999999999877e+02 2.040574999999999818e+03
1.180000000000000077e-01 1.530064999999999897e-01 3.497955000000000325e+01 1.787029999999999745e+02 2.040309999999999945e+03
1.190000000000000085e-01 1.529809999999999781e-01 3.406329999999999814e+01 1.779730000000000132e+02 2.040059999999999945e+03
1.200000000000000094e-01 1.529559999999999809e-01 3.319145000000000323e+01 1.772905000000000086e+02 2.039820000000000164e+03
1.209999999999999964e-01 1.529329999999999856e-01 3.236005000000000109e+01 1.766430000000000007e+02 2.039585000000000036e+03
1.219999999999999973e-01 1.529099999999999904e-01 3.156330000000000169e+01 1.760144999999999982e+02 2.039369999999999891e+03
1.229999999999999982e-01 1.528879999999999961e-01 3.079380000000000095e+01 1.753860000000000241e+02 2.039150000000000091e+03
1.239999999999999991e-01 1.528654999999999875e-01 3.004315000000000069e+01 1.747355000000000018e+02 2.038929999999999836e+03
1.250000000000000000e-01 1.528420000000000056e-01 2.930215000000000103e+01 1.740425000000000182e+02 2.038704999999999927e+03
1.260000000000000009e-01 1.528174999999999950e-01 2.856174999999999997e+01 1.732860000000000014e+02 2.038465000000000146e+03
1.270000000000000018e-01 1.527910000000000101e-01 2.781309999999999860e+01 1.724470000000000027e+02 2.038204999999999927e+03
1.280000000000000027e-01 1.527614999999999945e-01 2.704840000000000089e+01 1.715090000000000146e+02 2.037925000000000182e+03
1.290000000000000036e-01 1.527290000000000036e-01 2.626095000000000113e+01 1.704600000000000080e+02 2.037615000000000009e+03
1.300000000000000044e-01 1.526929999999999954e-01 2.544590000000000174e+01 1.692920000000000016e+02 2.037269999999999982e+03
1.310000000000000053e-01 1.526534999999999975e-01 2.460025000000000261e+01 1.680014999999999930e+02 2.036889999999999873e+03
1.320000000000000062e-01 1.526099999999999957e-01 2.372309999999999874e+01 1.665904999999999916e+02 2.036480000000000018e+03
1.330000000000000071e-01 1.525630000000000042e-01 2.281569999999999965e+01 1.650665000000000191e+02 2.036025000000000091e+03
1.340000000000000080e-01 1.525119999999999809e-01 2.188159999999999883e+01 1.634420000000000073e+02 2.035545000000000073e+03
1.350000000000000089e-01 1.524579999999999824e-01 2.092609999999999815e+01 1.617344999999999970e+02 2.035029999999999973e+03
1.360000000000000098e-01 1.524010000000000087e-01 1.995655000000000001e+01 1.599629999999999939e+02 2.034490000000000009e+03
1.370000000000000107e-01 1.523424999999999918e-01 1.898160000000000025e+01 1.581525000000000034e+02 2.033929999999999836e+03
1.380000000000000115e-01 1.522820000000000007e-01 1.801099999999999923e+01 1.563279999999999745e+02 2.033355000000000018e+03
1.390000000000000124e-01 1.522209999999999952e-01 1.705505000000000138e+01 1.545159999999999911e+02 2.032775000000000091e+03
1.400000000000000133e-01 1.521605000000000041e-01 1.612409999999999854e+01 1.527415000000000020e+02 2.032194999999999936e+03
1.410000000000000142e-01 1.521004999999999996e-01 1.522835000000000072e+01 1.510294999999999845e+02 2.031619999999999891e+03
1.420000000000000151e-01 1.520424999999999971e-01 1.437715000000000032e+01 1.494019999999999868e+02 2.031070000000000164e+03
1.430000000000000160e-01 1.519874999999999976e-01 1.357854999999999990e+01 1.478760000000000048e+02 2.030539999999999964e+03
1.440000000000000169e-01 1.519345000000000001e-01 1.283924999999999983e+01 1.464669999999999845e+02 2.030029999999999973e+03
1.450000000000000178e-01 1.518855000000000066e-01 1.216408000000000023e+01 1.451839999999999975e+02 2.029559999999999945e+03
1.459999999999999909e-01 1.518404999999999894e-01 1.155627999999999922e+01 1.440324999999999989e+02 2.029125000000000000e+03
1.469999999999999918e-01 1.517990000000000173e-01 1.101697000000000060e+01 1.430129999999999768e+02 2.028730000000000018e+03
1.479999999999999927e-01 1.517625000000000224e-01 1.054554500000000061e+01 1.421214999999999975e+02 2.028375000000000000e+03
1.489999999999999936e-01 1.517295000000000171e-01 1.013987000000000016e+01 1.413520000000000039e+02 2.028050000000000182e+03
1.499999999999999944e-01 1.517000000000000015e-01 9.796089999999999520e+00 1.406935000000000002e+02 2.027769999999999982e+03
1.509999999999999953e-01 1.516744999999999899e-01 9.509335000000000093e+00 1.401335000000000264e+02 2.027519999999999982e+03
1.519999999999999962e-01 1.516524999999999956e-01 9.273765000000000924e+00 1.396585000000000036e+02 2.027300000000000182e+03
1.529999999999999971e-01 1.516329999999999900e-01 9.082840000000000913e+00 1.392520000000000095e+02 2.027115000000000009e+03
1.539999999999999980e-01 1.516160000000000008e-01 8.929629999999999512e+00 1.389005000000000223e+02 2.026950000000000045e+03
1.549999999999999989e-01 1.516015000000000001e-01 8.807230000000000558e+00 1.385885000000000105e+02 2.026805000000000064e+03
1.559999999999999998e-01 1.515880000000000005e-01 8.708755000000000024e+00 1.383029999999999973e+02 2.026670000000000073e+03
1.570000000000000007e-01 1.515759999999999885e-01 8.627704999999998847e+00 1.380299999999999727e+02 2.026549999999999955e+03
1.580000000000000016e-01 1.515640000000000043e-01 8.558040000000000092e+00 1.377605000000000075e+02 2.026440000000000055e+03
1.590000000000000024e-01 1.515529999999999933e-01 8.494350000000000733e+00 1.374839999999999804e+02 2.026329999999999927e+03
