# t [s], A [cm^2], U [cm/s], P [cPa], c [cm/s]
1.000000000000000021e-03 7.554430000000000867e-01 5.886700000000001654e-03 1.018365000000000009e+02 1.728990000000000009e+03
2.000000000000000042e-03 7.554339999999999389e-01 3.276499999999999899e-03 1.018070000000000022e+02 1.728985000000000127e+03
3.000000000000000062e-03 7.555125000000000313e-01 1.323716500000000074e-01 1.019575000000000102e+02 1.729014999999999873e+03
4.000000000000000083e-03 7.555530000000000301e-01 2.171267000000000058e-01 1.020625000000000000e+02 1.729039999999999964e+03
5.000000000000000104e-03 7.554885000000000073e-01 1.430845000000000034e-01 1.019039999999999964e+02 1.729009999999999991e+03
6.000000000000000125e-03 7.554045000000000343e-01 2.774799999999999489e-02 1.015914999999999964e+02 1.728954999999999927e+03
7.000000000000000146e-03 7.553159999999999874e-01 -1.055200000000000582e-01 1.011844999999999999e+02 1.728875000000000000e+03
8.000000000000000167e-03 7.551539999999999919e-01 -3.758399999999999519e-01 1.005289999999999964e+02 1.728755000000000109e+03
9.000000000000001055e-03 7.549045000000000893e-01 -8.064600000000000657e-01 9.954484999999999673e+01 1.728575000000000045e+03
1.000000000000000194e-02 7.545554999999999346e-01 -1.408384999999999998e+00 9.816554999999999609e+01 1.728315000000000055e+03
1.099999999999999936e-02 7.540795000000000137e-01 -2.204760000000000275e+00 9.630180000000000007e+01 1.727965000000000146e+03
1.200000000000000025e-02 7.535030000000000339e-01 -3.125735000000000152e+00 9.398765000000000214e+01 1.727519999999999982e+03
1.300000000000000114e-02 7.529190000000000049e-01 -3.984935000000000116e+00 9.145244999999999891e+01 1.727014999999999873e+03
1.400000000000000203e-02 7.524239999999999817e-01 -4.579118999999999495e+00 8.901494999999999891e+01 1.726509999999999991e+03
1.499999999999999944e-02 7.520634999999999959e-01 -4.794457500000000039e+00 8.691620000000000346e+01 1.726045000000000073e+03
1.600000000000000033e-02 7.518169999999999575e-01 -4.640060000000000073e+00 8.522894999999999754e+01 1.725640000000000100e+03
1.700000000000000122e-02 7.516239999999999588e-01 -4.216800000000000104e+00 8.386249999999999716e+01 1.725289999999999964e+03
1.800000000000000211e-02 7.514134999999999565e-01 -3.658799999999999830e+00 8.263209999999999411e+01 1.724965000000000146e+03
1.900000000000000300e-02 7.511380000000000834e-01 -3.076285500000000006e+00 8.134909999999999286e+01 1.724634999999999991e+03
2.000000000000000042e-02 7.507840000000000069e-01 -2.518876500000000185e+00 7.989690000000000225e+01 1.724279999999999973e+03
2.100000000000000130e-02 7.503739999999999855e-01 -1.971674999999999844e+00 7.826359999999999673e+01 1.723894999999999982e+03
2.200000000000000219e-02 7.499469999999999192e-01 -1.383170000000000233e+00 7.652119999999999322e+01 1.723485000000000127e+03
2.299999999999999961e-02 7.495355000000000212e-01 -7.077050000000000285e-01 7.476855000000000473e+01 1.723070000000000164e+03
2.400000000000000050e-02 7.491514999999999702e-01 5.976000000000025736e-02 7.306970000000001164e+01 1.722664999999999964e+03
2.500000000000000139e-02 7.487755000000000383e-01 8.698799999999997645e-01 7.141440000000000055e+01 1.722259999999999991e+03
2.600000000000000228e-02 7.483690000000000619e-01 1.627040000000000042e+00 6.971179999999999666e+01 1.721849999999999909e+03
2.700000000000000316e-02 7.478825000000000056e-01 2.213484999999999925e+00 6.781395000000000550e+01 1.721404999999999973e+03
2.800000000000000058e-02 7.472739999999999938e-01 2.521024999999999849e+00 6.555995000000000061e+01 1.720900000000000091e+03
2.900000000000000147e-02 7.465224999999999778e-01 2.481434999999999835e+00 6.282789999999999964e+01 1.720309999999999945e+03
3.000000000000000236e-02 7.456344999999999779e-01 2.086184999999999512e+00 5.957854999999999990e+01 1.719625000000000000e+03
3.099999999999999978e-02 7.446464999999999890e-01 1.389170000000000016e+00 5.587565000000000026e+01 1.718844999999999800e+03
3.200000000000000067e-02 7.436145000000000671e-01 4.916000000000000369e-01 5.187785000000000224e+01 1.718005000000000109e+03
3.300000000000000155e-02 7.426040000000000418e-01 -4.832000000000000739e-01 4.780575000000000330e+01 1.717144999999999982e+03
3.400000000000000244e-02 7.416719999999999979e-01 -1.415875000000000661e+00 4.389974999999999739e+01 1.716300000000000182e+03
3.500000000000000333e-02 7.408654999999999546e-01 -2.209669999999999579e+00 4.038020000000000209e+01 1.715519999999999982e+03
3.600000000000000422e-02 7.402144999999999975e-01 -2.799465000000000092e+00 3.741995000000000005e+01 1.714840000000000146e+03
3.700000000000000511e-02 7.397299999999999986e-01 -3.151240000000000041e+00 3.513145000000000095e+01 1.714284999999999854e+03
3.799999999999999906e-02 7.394160000000000732e-01 -3.255622999999999934e+00 3.356794999999999618e+01 1.713875000000000000e+03
3.899999999999999994e-02 7.392630000000000035e-01 -3.117980000000000196e+00 3.273399999999999466e+01 1.713614999999999782e+03
4.000000000000000083e-02 7.392635000000000733e-01 -2.749005000000000365e+00 3.260190000000000055e+01 1.713505000000000109e+03
4.100000000000000172e-02 7.394054999999999378e-01 -2.157865500000000214e+00 3.312765000000000271e+01 1.713535000000000082e+03
4.200000000000000261e-02 7.396819999999999506e-01 -1.349535000000000151e+00 3.426324999999999932e+01 1.713704999999999927e+03
4.300000000000000350e-02 7.400850000000001039e-01 -3.262700000000000600e-01 3.596219999999999573e+01 1.714000000000000000e+03
4.400000000000000439e-02 7.406070000000000153e-01 9.082249999999998380e-01 3.817900000000000205e+01 1.714414999999999964e+03
4.499999999999999833e-02 7.412374999999999936e-01 2.343829999999999636e+00 4.086499999999999488e+01 1.714940000000000055e+03
4.599999999999999922e-02 7.419625000000000803e-01 3.960440000000000182e+00 4.396320000000000050e+01 1.715550000000000182e+03
4.700000000000000011e-02 7.427645000000000497e-01 5.726664999999999672e+00 4.740480000000000160e+01 1.716250000000000000e+03
4.800000000000000100e-02 7.436220000000000052e-01 7.601137500000000102e+00 5.110885000000000389e+01 1.717009999999999991e+03
4.900000000000000189e-02 7.445114999999999927e-01 9.536156500000000591e+00 5.498555000000000348e+01 1.717825000000000045e+03
5.000000000000000278e-02 7.454104999999999759e-01 1.148197000000000045e+01 5.894185000000000230e+01 1.718664999999999964e+03
5.100000000000000366e-02 7.462980000000000169e-01 1.339165500000000009e+01 6.288849999999999341e+01 1.719515000000000100e+03
5.200000000000000455e-02 7.471585000000000587e-01 1.522480999999999973e+01 6.674705000000000155e+01 1.720360000000000127e+03
5.300000000000000544e-02 7.479795000000000194e-01 1.695040000000000191e+01 7.045529999999999404e+01 1.721190000000000055e+03
5.399999999999999939e-02 7.487540000000000306e-01 1.854769999999999897e+01 7.397079999999999700e+01 1.721980000000000018e+03
5.500000000000000028e-02 7.494800000000000351e-01 2.000625000000000142e+01 7.727185000000000059e+01 1.722735000000000127e+03
5.600000000000000117e-02 7.501605000000000079e-01 2.132460000000000022e+01 8.035634999999999195e+01 1.723454999999999927e+03
5.700000000000000205e-02 7.508004999999999818e-01 2.250880000000000081e+01 8.323930000000000007e+01 1.724130000000000109e+03
5.800000000000000294e-02 7.514089999999999936e-01 2.357049999999999912e+01 8.594880000000000564e+01 1.724769999999999982e+03
5.900000000000000383e-02 7.519934999999999814e-01 2.452515000000000001e+01 8.852234999999998877e+01 1.725384999999999991e+03
6.000000000000000472e-02 7.525650000000000395e-01 2.539049999999999940e+01 9.100239999999999441e+01 1.725974999999999909e+03
6.099999999999999867e-02 7.531324999999999825e-01 2.618495000000000061e+01 9.343245000000000289e+01 1.726545000000000073e+03
6.199999999999999956e-02 7.537049999999999583e-01 2.692600000000000193e+01 9.585335000000000605e+01 1.727115000000000009e+03
6.300000000000000044e-02 7.542885000000000284e-01 2.762899999999999778e+01 9.829890000000000327e+01 1.727690000000000055e+03
6.400000000000000133e-02 7.548884999999999623e-01 2.830570000000000164e+01 1.007950999999999908e+02 1.728264999999999873e+03
6.500000000000000222e-02 7.555060000000000109e-01 2.896340000000000003e+01 1.033551499999999947e+02 1.728860000000000127e+03
6.600000000000000311e-02 7.561385000000000467e-01 2.960444999999999993e+01 1.059800000000000040e+02 1.729460000000000036e+03
6.700000000000000400e-02 7.567829999999999835e-01 3.022619999999999862e+01 1.086574999999999989e+02 1.730075000000000045e+03
6.800000000000000488e-02 7.574330000000000229e-01 3.082140000000000057e+01 1.113650000000000091e+02 1.730694999999999936e+03
6.900000000000000577e-02 7.580784999999999885e-01 3.137945000000000206e+01 1.140695000000000050e+02 1.731309999999999945e+03
7.000000000000000666e-02 7.587109999999999133e-01 3.188735000000000142e+01 1.167319999999999993e+02 1.731924999999999955e+03
7.100000000000000755e-02 7.593195000000000361e-01 3.233115000000000094e+01 1.193094999999999999e+02 1.732525000000000091e+03
7.200000000000000844e-02 7.598955000000000570e-01 3.269724999999999682e+01 1.217605000000000075e+02 1.733095000000000027e+03
7.300000000000000933e-02 7.604294999999999805e-01 3.297330000000000183e+01 1.240444999999999993e+02 1.733639999999999873e+03
7.399999999999999634e-02 7.609150000000000080e-01 3.314910000000000423e+01 1.261280000000000001e+02 1.734134999999999991e+03
7.499999999999999722e-02 7.613460000000000782e-01 3.321720000000000539e+01 1.279839999999999947e+02 1.734585000000000036e+03
7.599999999999999811e-02 7.617194999999999938e-01 3.317319999999999425e+01 1.295929999999999893e+02 1.734985000000000127e+03
7.699999999999999900e-02 7.620335000000000303e-01 3.301594999999999658e+01 1.309459999999999980e+02 1.735335000000000036e+03
7.799999999999999989e-02 7.622875000000000068e-01 3.274774999999999636e+01 1.320394999999999754e+02 1.735619999999999891e+03
7.900000000000000078e-02 7.624854999999999272e-01 3.237399999999999523e+01 1.328815000000000168e+02 1.735849999999999909e+03
8.000000000000000167e-02 7.626300000000000301e-01 3.190335000000000321e+01 1.334855000000000018e+02 1.736030000000000200e+03
8.100000000000000255e-02 7.627265000000000850e-01 3.134704999999999586e+01 1.338735000000000070e+02 1.736159999999999854e+03
8.200000000000000344e-02 7.627815000000000012e-01 3.071880000000000166e+01 1.340715000000000146e+02 1.736240000000000009e+03
8.300000000000000433e-02 7.628025000000000500e-01 3.003384999999999749e+01 1.341109999999999900e+02 1.736289999999999964e+03
8.400000000000000522e-02 7.627964999999999884e-01 2.930865000000000009e+01 1.340250000000000057e+02 1.736299999999999955e+03
8.500000000000000611e-02 7.627725000000000755e-01 2.855995000000000061e+01 1.338474999999999966e+02 1.736289999999999964e+03
8.600000000000000699e-02 7.627365000000000395e-01 2.780395000000000039e+01 1.336125000000000114e+02 1.736259999999999991e+03
8.700000000000000788e-02 7.626960000000000406e-01 2.705545000000000044e+01 1.333509999999999991e+02 1.736215000000000146e+03
8.800000000000000877e-02 7.626574999999999882e-01 2.632730000000000103e+01 1.330910000000000082e+02 1.736170000000000073e+03
8.899999999999999578e-02 7.626245000000000385e-01 2.562975000000000136e+01 1.328534999999999968e+02 1.736130000000000109e+03
8.999999999999999667e-02 7.625994999999999857e-01 2.496989999999999910e+01 1.326539999999999964e+02 1.736085000000000036e+03
9.099999999999999756e-02 7.625854999999999162e-01 2.435159999999999769e+01 1.325035000000000025e+02 1.736054999999999836e+03
9.199999999999999845e-02 7.625815000000000232e-01 2.377554999999999907e+01 1.324029999999999916e+02 1.736025000000000091e+03
9.299999999999999933e-02 7.625859999999999861e-01 2.323924999999999841e+01 1.323500000000000227e+02 1.736009999999999991e+03
9.400000000000000022e-02 7.625960000000000516e-01 2.273770000000000024e+01 1.323330000000000268e+02 1.736000000000000000e+03
9.500000000000000111e-02 7.626085000000000225e-01 2.226344999999999885e+01 1.323394999999999868e+02 1.735994999999999891e+03
9.600000000000000200e-02 7.626185000000000880e-01 2.180765000000000242e+01 1.323505000000000109e+02 1.735994999999999891e+03
9.700000000000000289e-02 7.626220000000000221e-01 2.136039999999999850e+01 1.323474999999999966e+02 1.735985000000000127e+03
9.800000000000000377e-02 7.626140000000000141e-01 2.091140000000000043e+01 1.323084999999999809e+02 1.735974999999999909e+03
9.900000000000000466e-02 7.625904999999999490e-01 2.045069999999999766e+01 1.322144999999999868e+02 1.735954999999999927e+03
1.000000000000000056e-01 7.625469999999999748e-01 1.996925000000000239e+01 1.320464999999999804e+02 1.735920000000000073e+03
1.010000000000000064e-01 7.624809999999999643e-01 1.945929999999999893e+01 1.317905000000000086e+02 1.735865000000000009e+03
1.020000000000000073e-01 7.623904999999999710e-01 1.891529999999999845e+01 1.314345000000000141e+02 1.735795000000000073e+03
1.030000000000000082e-01 7.622740000000000071e-01 1.833375000000000199e+01 1.309724999999999966e+02 1.735700000000000045e+03
1.040000000000000091e-01 7.621329999999999494e-01 1.771369999999999933e+01 1.304030000000000200e+02 1.735579999999999927e+03
1.050000000000000100e-01 7.619679999999999787e-01 1.705695000000000050e+01 1.297309999999999945e+02 1.735440000000000055e+03
1.059999999999999970e-01 7.617825000000000291e-01 1.636779999999999902e+01 1.289660000000000082e+02 1.735279999999999973e+03
1.069999999999999979e-01 7.615804999999999936e-01 1.565315000000000012e+01 1.281225000000000023e+02 1.735105000000000018e+03
1.079999999999999988e-01 7.613665000000000571e-01 1.492179999999999929e+01 1.272189999999999941e+02 1.734909999999999854e+03
1.089999999999999997e-01 7.611464999999999481e-01 1.418434500000000043e+01 1.262789999999999964e+02 1.734710000000000036e+03
1.100000000000000006e-01 7.609259999999999913e-01 1.345241499999999846e+01 1.253264999999999958e+02 1.734505000000000109e+03
1.110000000000000014e-01 7.607110000000000261e-01 1.273825000000000074e+01 1.243875000000000028e+02 1.734289999999999964e+03
1.120000000000000023e-01 7.605070000000000441e-01 1.205393500000000095e+01 1.234875000000000114e+02 1.734095000000000027e+03
1.130000000000000032e-01 7.603204999999999547e-01 1.141087499999999899e+01 1.226500000000000057e+02 1.733900000000000091e+03
1.140000000000000041e-01 7.601550000000000251e-01 1.081917499999999954e+01 1.218959999999999866e+02 1.733724999999999909e+03
1.150000000000000050e-01 7.600139999999999674e-01 1.028725999999999985e+01 1.212439999999999998e+02 1.733569999999999936e+03
1.160000000000000059e-01 7.599009999999999376e-01 9.821415000000000006e+00 1.207059999999999889e+02 1.733440000000000055e+03
1.170000000000000068e-01 7.598160000000000469e-01 9.425475000000000492e+00 1.202909999999999968e+02 1.733324999999999818e+03
1.180000000000000077e-01 7.597605000000000608e-01 9.100915000000000532e+00 1.200014999999999930e+02 1.733244999999999891e+03
1.190000000000000085e-01 7.597325000000000328e-01 8.846729999999999094e+00 1.198345000000000056e+02 1.733190000000000055e+03
1.200000000000000094e-01 7.597309999999999341e-01 8.659745000000000914e+00 1.197845000000000084e+02 1.733159999999999854e+03
1.209999999999999964e-01 7.597514999999999130e-01 8.534694999999999254e+00 1.198389999999999986e+02 1.733154999999999973e+03
1.219999999999999973e-01 7.597914999999999530e-01 8.464795000000000513e+00 1.199849999999999994e+02 1.733164999999999964e+03
1.229999999999999982e-01 7.598464999999999803e-01 8.442039999999998656e+00 1.202055000000000007e+02 1.733200000000000045e+03
1.239999999999999991e-01 7.599130000000000607e-01 8.457695000000001073e+00 1.204819999999999993e+02 1.733244999999999891e+03
1.250000000000000000e-01 7.599864999999998982e-01 8.502720000000000056e+00 1.207974999999999994e+02 1.733299999999999955e+03
1.260000000000000009e-01 7.600624999999999742e-01 8.568175000000000097e+00 1.211334999999999980e+02 1.733364999999999782e+03
1.270000000000000018e-01 7.601379999999999804e-01 8.645554999999999879e+00 1.214749999999999943e+02 1.733434999999999945e+03
1.280000000000000027e-01 7.602109999999999701e-01 8.727109999999999701e+00 1.218064999999999998e+02 1.733505000000000109e+03
1.290000000000000036e-01 7.602774999999999395e-01 8.806055000000000632e+00 1.221165000000000020e+02 1.733565000000000055e+03
1.300000000000000044e-01 7.603360000000000118e-01 8.876725000000000421e+00 1.223960000000000008e+02 1.733630000000000109e+03
1.310000000000000053e-01 7.603860000000000063e-01 8.934650000000001313e+00 1.226380000000000052e+02 1.733684999999999945e+03
1.320000000000000062e-01 7.604265000000000052e-01 8.976630000000000109e+00 1.228395000000000010e+02 1.733724999999999909e+03
1.330000000000000071e-01 7.604579999999999673e-01 9.000690000000000524e+00 1.229985000000000070e+02 1.733769999999999982e+03
1.340000000000000080e-01 7.604794999999999749e-01 9.005995000000000417e+00 1.231165000000000020e+02 1.733799999999999955e+03
1.350000000000000089e-01 7.604935000000000445e-01 8.992895000000000749e+00 1.231965000000000003e+02 1.733819999999999936e+03
1.360000000000000098e-01 7.605005000000000237e-01 8.962509999999999977e+00 1.232429999999999950e+02 1.733835000000000036e+03
1.370000000000000107e-01 7.605020000000000113e-01 8.916904999999999859e+00 1.232620000000000005e+02 1.733845000000000027e+03
1.380000000000000115e-01 7.604999999999999538e-01 8.858689999999999287e+00 1.232605000000000075e+02 1.733849999999999909e+03
1.390000000000000124e-01 7.604959999999999498e-01 8.790960000000000107e+00 1.232454999999999927e+02 1.733855000000000018e+03
1.400000000000000133e-01 7.604904999999999582e-01 8.716999999999998749e+00 1.232239999999999895e+02 1.733849999999999909e+03
1.410000000000000142e-01 7.604870000000000241e-01 8.640114999999999768e+00 1.232030000000000030e+02 1.733845000000000027e+03
1.420000000000000151e-01 7.604854999999999254e-01 8.563520000000000465e+00 1.231889999999999930e+02 1.733849999999999909e+03
1.430000000000000160e-01 7.604874999999999829e-01 8.490095000000000169e+00 1.231864999999999952e+02 1.733849999999999909e+03
1.440000000000000169e-01 7.604934999999999334e-01 8.422250000000000014e+00 1.231999999999999886e+02 1.733855000000000018e+03
1.450000000000000178e-01 7.605044999999999167e-01 8.361829999999999430e+00 1.232319999999999993e+02 1.733860000000000127e+03
1.459999999999999909e-01 7.605199999999999738e-01 8.310060000000000002e+00 1.232829999999999870e+02 1.733869999999999891e+03
1.469999999999999918e-01 7.605399999999999938e-01 8.267489999999998673e+00 1.233539999999999992e+02 1.733889999999999873e+03
1.479999999999999927e-01 7.605634999999999479e-01 8.234045000000000059e+00 1.234420000000000073e+02 1.733904999999999973e+03
1.489999999999999936e-01 7.605910000000000171e-01 8.209095000000001363e+00 1.235450000000000017e+02 1.733925000000000182e+03
1.499999999999999944e-01 7.606200000000000738e-01 8.191520000000000579e+00 1.236595000000000084e+02 1.733950000000000045e+03
1.509999999999999953e-01 7.606505000000000072e-01 8.179890000000000327e+00 1.237805000000000035e+02 1.733974999999999909e+03
1.519999999999999962e-01 7.606805000000000927e-01 8.172554999999999126e+00 1.239035000000000082e+02 1.734005000000000109e+03
1.529999999999999971e-01 7.607099999999999973e-01 8.167825000000000557e+00 1.240245000000000033e+02 1.734029999999999973e+03
1.539999999999999980e-01 7.607369999999999965e-01 8.164089999999999847e+00 1.241384999999999934e+02 1.734054999999999836e+03
1.549999999999999989e-01 7.607614999999999794e-01 8.159929999999999239e+00 1.242434999999999974e+02 1.734079999999999927e+03
1.559999999999999998e-01 7.607829999999999870e-01 8.154215000000000657e+00 1.243350000000000080e+02 1.734099999999999909e+03
1.570000000000000007e-01 7.608004999999999907e-01 8.146160000000000068e+00 1.244124999999999943e+02 1.734114999999999782e+03
1.580000000000000016e-01 7.608150000000000190e-01 8.135374999999999801e+00 1.244755000000000109e+02 1.734134999999999991e+03
1.590000000000000024e-01 7.608264999999999612e-01 8.121814999999999785e+00 1.245240000000000009e+02 1.734144999999999982e+03
