# t [s], A [cm^2], U [cm/s], P [cPa], c [cm/s]
1.000000000000000021e-03 2.006574999999999886e-01 3.474977000000000205e-01 9.722790000000000532e+01 2.176619999999999891e+03
2.000000000000000042e-03 2.005979999999999985e-01 1.913526000000000060e+00 9.362864999999999327e+01 2.176204999999999927e+03
3.000000000000000062e-03 2.004469999999999863e-01 3.844905999999999935e+00 8.863970000000000482e+01 2.175189999999999600e+03
4.000000000000000083e-03 2.002464999999999939e-01 6.028324999999999712e+00 8.336169999999999902e+01 2.173859999999999673e+03
5.000000000000000104e-03 2.000379999999999936e-01 8.367960000000000065e+00 7.879614999999999725e+01 2.172489999999999782e+03
6.000000000000000125e-03 1.998415000000000052e-01 1.062678499999999993e+01 7.511145000000000493e+01 2.171210000000000036e+03
7.000000000000000146e-03 1.996585000000000165e-01 1.257149500000000053e+01 7.190579999999999927e+01 2.170045000000000073e+03
8.000000000000000167e-03 1.994925000000000170e-01 1.417077499999999901e+01 6.901874999999999716e+01 2.169015000000000327e+03
9.000000000000001055e-03 1.993510000000000004e-01 1.548570000000000135e+01 6.659040000000000248e+01 2.168140000000000327e+03
1.000000000000000194e-02 1.992345000000000088e-01 1.654444999999999766e+01 6.466495000000000459e+01 2.167430000000000291e+03
1.099999999999999936e-02 1.991414999999999991e-01 1.736380000000000123e+01 6.318140000000000356e+01 2.166869999999999891e+03
1.200000000000000025e-02 1.990689999999999960e-01 1.795489999999999853e+01 6.203929999999999723e+01 2.166439999999999600e+03
1.300000000000000114e-02 1.990100000000000202e-01 1.832029999999999959e+01 6.108610000000000184e+01 2.166099999999999909e+03
1.400000000000000203e-02 1.989620000000000000e-01 1.850869999999999749e+01 6.024739999999999895e+01 2.165824999999999818e+03
1.499999999999999944e-02 1.989270000000000205e-01 1.866179999999999950e+01 5.972475000000000023e+01 2.165630000000000109e+03
1.600000000000000033e-02 1.989174999999999971e-01 1.897019999999999840e+01 5.996730000000000160e+01 2.165585000000000036e+03
1.700000000000000122e-02 1.989440000000000097e-01 1.956309999999999860e+01 6.137470000000000425e+01 2.165750000000000000e+03
1.800000000000000211e-02 1.990115000000000078e-01 2.042454999999999998e+01 6.397294999999999732e+01 2.166164999999999964e+03
1.900000000000000300e-02 1.991109999999999824e-01 2.139274999999999949e+01 6.730795000000000528e+01 2.166779999999999745e+03
2.000000000000000042e-02 1.992225000000000246e-01 2.223400000000000176e+01 7.060665000000000191e+01 2.167475000000000364e+03
2.100000000000000130e-02 1.993234999999999868e-01 2.274239999999999995e+01 7.308940000000001191e+01 2.168109999999999673e+03
2.200000000000000219e-02 1.993929999999999869e-01 2.281615000000000038e+01 7.426390000000000668e+01 2.168569999999999709e+03
2.299999999999999961e-02 1.994235000000000035e-01 2.248250000000000171e+01 7.407495000000000118e+01 2.168784999999999854e+03
2.400000000000000050e-02 1.994170000000000109e-01 2.186704999999999899e+01 7.286350000000000193e+01 2.168764999999999873e+03
2.500000000000000139e-02 1.993854999999999933e-01 2.112984999999999758e+01 7.117549999999999955e+01 2.168590000000000146e+03
2.600000000000000228e-02 1.993429999999999924e-01 2.039869999999999806e+01 6.952244999999999209e+01 2.168329999999999927e+03
2.700000000000000316e-02 1.993010000000000059e-01 1.972885000000000133e+01 6.819915000000000305e+01 2.168069999999999709e+03
2.800000000000000058e-02 1.992645000000000111e-01 1.909980000000000189e+01 6.722129999999999939e+01 2.167845000000000255e+03
2.900000000000000147e-02 1.992309999999999914e-01 1.844294999999999973e+01 6.638564999999999827e+01 2.167630000000000109e+03
3.000000000000000236e-02 1.991950000000000109e-01 1.768560000000000088e+01 6.540670000000000073e+01 2.167409999999999854e+03
3.099999999999999978e-02 1.991499999999999937e-01 1.679214999999999947e+01 6.407025000000000148e+01 2.167135000000000218e+03
3.200000000000000067e-02 1.990930000000000200e-01 1.578955000000000020e+01 6.234680000000000177e+01 2.166789999999999964e+03
3.300000000000000155e-02 1.990274999999999961e-01 1.476820000000000022e+01 6.042844999999999800e+01 2.166385000000000218e+03
3.400000000000000244e-02 1.989615000000000133e-01 1.385869999999999891e+01 5.867855000000000132e+01 2.165980000000000018e+03
3.500000000000000333e-02 1.989084999999999881e-01 1.319294999999999973e+01 5.751529999999999632e+01 2.165644999999999982e+03
3.600000000000000422e-02 1.988794999999999868e-01 1.286410000000000053e+01 5.727410000000000423e+01 2.165445000000000164e+03
3.700000000000000511e-02 1.988820000000000032e-01 1.289849999999999852e+01 5.809685000000000343e+01 2.165444999999999709e+03
3.799999999999999906e-02 1.989175000000000249e-01 1.324830000000000041e+01 5.988394999999999868e+01 2.165650000000000091e+03
3.899999999999999994e-02 1.989815000000000056e-01 1.380339999999999989e+01 6.231664999999999566e+01 2.166029999999999745e+03
4.000000000000000083e-02 1.990615000000000023e-01 1.441755000000000031e+01 6.493545000000000300e+01 2.166514999999999873e+03
4.100000000000000172e-02 1.991430000000000144e-01 1.493864999999999910e+01 6.724410000000000309e+01 2.167010000000000218e+03
4.200000000000000261e-02 1.992109999999999992e-01 1.523625000000000007e+01 6.880895000000001005e+01 2.167434999999999945e+03
4.300000000000000350e-02 1.992519999999999847e-01 1.521954999999999991e+01 6.933154999999999291e+01 2.167704999999999927e+03
4.400000000000000439e-02 1.992595000000000061e-01 1.484479999999999933e+01 6.868025000000000091e+01 2.167760000000000218e+03
4.499999999999999833e-02 1.992280000000000162e-01 1.411265000000000036e+01 6.688415000000000532e+01 2.167585000000000036e+03
4.599999999999999922e-02 1.991590000000000027e-01 1.305780000000000030e+01 6.409675000000000011e+01 2.167170000000000073e+03
4.700000000000000011e-02 1.990580000000000127e-01 1.173665499999999895e+01 6.054550000000000409e+01 2.166555000000000291e+03
4.800000000000000100e-02 1.989315000000000111e-01 1.021508500000000019e+01 5.648175000000000523e+01 2.165775000000000091e+03
4.900000000000000189e-02 1.987859999999999905e-01 8.559625000000000483e+00 5.214289999999999736e+01 2.164885000000000218e+03
5.000000000000000278e-02 1.986300000000000010e-01 6.833319999999999617e+00 4.773229999999999507e+01 2.163914999999999964e+03
5.100000000000000366e-02 1.984699999999999798e-01 5.094671500000000464e+00 4.341519999999999868e+01 2.162925000000000182e+03
5.200000000000000455e-02 1.983115000000000017e-01 3.399485499999999938e+00 3.932689999999999486e+01 2.161940000000000055e+03
5.300000000000000544e-02 1.981600000000000028e-01 1.802710000000000035e+00 3.558565000000000111e+01 2.160994999999999891e+03
5.399999999999999939e-02 1.980204999999999882e-01 3.598850000000000104e-01 3.230410000000000537e+01 2.160119999999999891e+03
5.500000000000000028e-02 1.978975000000000040e-01 -8.731799999999999562e-01 2.959570000000000078e+01 2.159349999999999909e+03
5.600000000000000117e-02 1.977955000000000130e-01 -1.842487500000000056e+00 2.757385000000000019e+01 2.158704999999999927e+03
5.700000000000000205e-02 1.977190000000000059e-01 -2.499299999999999855e+00 2.634499999999999886e+01 2.158215000000000146e+03
5.800000000000000294e-02 1.976725000000000010e-01 -2.804174999999999862e+00 2.599750000000000227e+01 2.157909999999999854e+03
5.900000000000000383e-02 1.976580000000000004e-01 -2.730785000000000018e+00 2.659015000000000128e+01 2.157800000000000182e+03
6.000000000000000472e-02 1.976785000000000070e-01 -2.268664999999999932e+00 2.814254999999999995e+01 2.157900000000000091e+03
6.099999999999999867e-02 1.977340000000000209e-01 -1.424431999999999920e+00 3.063034999999999997e+01 2.158224999999999909e+03
6.199999999999999956e-02 1.978234999999999855e-01 -2.214300000000000157e-01 3.398505000000000109e+01 2.158760000000000218e+03
6.300000000000000044e-02 1.979449999999999821e-01 1.302114999999999911e+00 3.809909999999999997e+01 2.159489999999999782e+03
6.400000000000000133e-02 1.980934999999999779e-01 3.095982999999999929e+00 4.283445000000000391e+01 2.160394999999999982e+03
6.500000000000000222e-02 1.982659999999999978e-01 5.101429999999999687e+00 4.803320000000000078e+01 2.161449999999999818e+03
6.600000000000000311e-02 1.984555000000000069e-01 7.254935000000000578e+00 5.352890000000000015e+01 2.162614999999999782e+03
6.700000000000000400e-02 1.986574999999999869e-01 9.491979999999999862e+00 5.915735000000000099e+01 2.163864999999999782e+03
6.800000000000000488e-02 1.988644999999999996e-01 1.175060500000000019e+01 6.476660000000001105e+01 2.165154999999999745e+03
6.900000000000000577e-02 1.990735000000000143e-01 1.397473000000000098e+01 7.022554999999999836e+01 2.166454999999999927e+03
7.000000000000000666e-02 1.992774999999999963e-01 1.611684999999999945e+01 7.543059999999999832e+01 2.167734999999999673e+03
7.100000000000000755e-02 1.994750000000000134e-01 1.814054999999999751e+01 8.031090000000000373e+01 2.168974999999999909e+03
7.200000000000000844e-02 1.996614999999999918e-01 2.002130000000000010e+01 8.482990000000000919e+01 2.170149999999999636e+03
7.300000000000000933e-02 1.998369999999999869e-01 2.174739999999999895e+01 8.898560000000000514e+01 2.171264999999999873e+03
7.399999999999999634e-02 2.000009999999999843e-01 2.331869999999999976e+01 9.280639999999999645e+01 2.172300000000000182e+03
7.499999999999999722e-02 2.001539999999999986e-01 2.474544999999999817e+01 9.634584999999999866e+01 2.173275000000000091e+03
7.599999999999999811e-02 2.002984999999999904e-01 2.604560000000000031e+01 9.967359999999999332e+01 2.174189999999999600e+03
7.699999999999999900e-02 2.004350000000000021e-01 2.724204999999999899e+01 1.028669999999999902e+02 2.175065000000000055e+03
7.799999999999999989e-02 2.005675000000000097e-01 2.835954999999999870e+01 1.060030000000000001e+02 2.175909999999999854e+03
7.900000000000000078e-02 2.006985000000000019e-01 2.942240000000000322e+01 1.091490000000000009e+02 2.176744999999999891e+03
8.000000000000000167e-02 2.008290000000000075e-01 3.045170000000000243e+01 1.123580000000000041e+02 2.177574999999999818e+03
8.100000000000000255e-02 2.009615000000000151e-01 3.146385000000000076e+01 1.156645000000000039e+02 2.178414999999999964e+03
8.200000000000000344e-02 2.010969999999999980e-01 3.246945000000000192e+01 1.190829999999999984e+02 2.179279999999999745e+03
8.300000000000000433e-02 2.012359999999999982e-01 3.347289999999999566e+01 1.226059999999999945e+02 2.180159999999999854e+03
8.400000000000000522e-02 2.013774999999999871e-01 3.447225000000000250e+01 1.262109999999999843e+02 2.181059999999999945e+03
8.500000000000000611e-02 2.015219999999999789e-01 3.546009999999999707e+01 1.298580000000000041e+02 2.181970000000000255e+03
8.600000000000000699e-02 2.016669999999999852e-01 3.642400000000000659e+01 1.334970000000000141e+02 2.182894999999999982e+03
8.700000000000000788e-02 2.018105000000000038e-01 3.734799999999999898e+01 1.370699999999999932e+02 2.183809999999999945e+03
8.800000000000000877e-02 2.019515000000000060e-01 3.821370000000000289e+01 1.405149999999999864e+02 2.184699999999999818e+03
8.899999999999999578e-02 2.020874999999999755e-01 3.900124999999999886e+01 1.437715000000000032e+02 2.185564999999999600e+03
8.999999999999999667e-02 2.022154999999999925e-01 3.969115000000000038e+01 1.467805000000000177e+02 2.186390000000000327e+03
9.099999999999999756e-02 2.023349999999999871e-01 4.026514999999999844e+01 1.494915000000000020e+02 2.187149999999999636e+03
9.199999999999999845e-02 2.024429999999999841e-01 4.070735000000000525e+01 1.518609999999999900e+02 2.187840000000000146e+03
9.299999999999999933e-02 2.025375000000000092e-01 4.100544999999999618e+01 1.538584999999999923e+02 2.188449999999999818e+03
9.400000000000000022e-02 2.026184999999999792e-01 4.115134999999999366e+01 1.554644999999999868e+02 2.188975000000000364e+03
9.500000000000000111e-02 2.026854999999999907e-01 4.114175000000000182e+01 1.566734999999999900e+02 2.189404999999999745e+03
9.600000000000000200e-02 2.027370000000000005e-01 4.097845000000000226e+01 1.574929999999999950e+02 2.189750000000000000e+03
9.700000000000000289e-02 2.027744999999999964e-01 4.066825000000000045e+01 1.579449999999999932e+02 2.189994999999999891e+03
9.800000000000000377e-02 2.027974999999999917e-01 4.022270000000000323e+01 1.580614999999999952e+02 2.190150000000000091e+03
9.900000000000000466e-02 2.028085000000000027e-01 3.965744999999999720e+01 1.578840000000000146e+02 2.190235000000000127e+03
1.000000000000000056e-01 2.028085000000000027e-01 3.899134999999999707e+01 1.574630000000000223e+02 2.190244999999999891e+03
1.010000000000000064e-01 2.027984999999999927e-01 3.824544999999999817e+01 1.568520000000000039e+02 2.190190000000000055e+03
1.020000000000000073e-01 2.027819999999999900e-01 3.744195000000000562e+01 1.561055000000000064e+02 2.190090000000000146e+03
1.030000000000000082e-01 2.027590000000000225e-01 3.660309999999999775e+01 1.552769999999999868e+02 2.189945000000000164e+03
1.040000000000000091e-01 2.027324999999999822e-01 3.575014999999999787e+01 1.544164999999999850e+02 2.189784999999999854e+03
1.050000000000000100e-01 2.027039999999999953e-01 3.490245000000000175e+01 1.535674999999999955e+02 2.189610000000000127e+03
1.059999999999999970e-01 2.026760000000000228e-01 3.407665000000000077e+01 1.527649999999999864e+02 2.189429999999999836e+03
1.069999999999999979e-01 2.026485000000000092e-01 3.328605000000000302e+01 1.520375000000000227e+02 2.189255000000000109e+03
1.079999999999999988e-01 2.026235000000000119e-01 3.254030000000000200e+01 1.513994999999999891e+02 2.189095000000000255e+03
1.089999999999999997e-01 2.026000000000000023e-01 3.184495000000000076e+01 1.508590000000000089e+02 2.188944999999999709e+03
1.100000000000000006e-01 2.025804999999999967e-01 3.120149999999999935e+01 1.504139999999999873e+02 2.188820000000000164e+03
1.110000000000000014e-01 2.025635000000000074e-01 3.060775000000000290e+01 1.500509999999999877e+02 2.188704999999999927e+03
1.120000000000000023e-01 2.025485000000000202e-01 3.005774999999999864e+01 1.497510000000000048e+02 2.188609999999999673e+03
1.130000000000000032e-01 2.025365000000000082e-01 2.954254999999999853e+01 1.494859999999999900e+02 2.188524999999999636e+03
1.140000000000000041e-01 2.025239999999999818e-01 2.905100000000000193e+01 1.492259999999999991e+02 2.188444999999999709e+03
1.150000000000000050e-01 2.025124999999999842e-01 2.857035000000000124e+01 1.489365000000000236e+02 2.188369999999999891e+03
1.160000000000000059e-01 2.024989999999999846e-01 2.808700000000000330e+01 1.485825000000000102e+02 2.188279999999999745e+03
1.170000000000000068e-01 2.024829999999999963e-01 2.758769999999999811e+01 1.481315000000000168e+02 2.188175000000000182e+03
1.180000000000000077e-01 2.024635000000000185e-01 2.706009999999999849e+01 1.475534999999999854e+02 2.188050000000000182e+03
1.190000000000000085e-01 2.024390000000000078e-01 2.649380000000000024e+01 1.468260000000000218e+02 2.187900000000000091e+03
1.200000000000000094e-01 2.024094999999999922e-01 2.588100000000000023e+01 1.459325000000000045e+02 2.187710000000000036e+03
1.209999999999999964e-01 2.023739999999999983e-01 2.521659999999999968e+01 1.448659999999999854e+02 2.187484999999999673e+03
1.219999999999999973e-01 2.023320000000000118e-01 2.449929999999999808e+01 1.436274999999999977e+02 2.187224999999999909e+03
1.229999999999999982e-01 2.022835000000000050e-01 2.373114999999999952e+01 1.422275000000000205e+02 2.186920000000000073e+03
1.239999999999999991e-01 2.022295000000000065e-01 2.291765000000000185e+01 1.406854999999999905e+02 2.186574999999999818e+03
1.250000000000000000e-01 2.021704999999999752e-01 2.206759999999999877e+01 1.390289999999999964e+02 2.186210000000000036e+03
1.260000000000000009e-01 2.021069999999999811e-01 2.119249999999999901e+01 1.372920000000000016e+02 2.185809999999999945e+03
1.270000000000000018e-01 2.020409999999999984e-01 2.030604999999999905e+01 1.355124999999999886e+02 2.185394999999999982e+03
1.280000000000000027e-01 2.019735000000000003e-01 1.942320000000000135e+01 1.337309999999999945e+02 2.184960000000000036e+03
1.290000000000000036e-01 2.019055000000000155e-01 1.855955000000000155e+01 1.319895000000000209e+02 2.184534999999999854e+03
1.300000000000000044e-01 2.018395000000000050e-01 1.773060000000000258e+01 1.303274999999999864e+02 2.184114999999999782e+03
1.310000000000000053e-01 2.017754999999999965e-01 1.695054999999999978e+01 1.287805000000000177e+02 2.183710000000000036e+03
1.320000000000000062e-01 2.017165000000000208e-01 1.623209999999999908e+01 1.273799999999999955e+02 2.183329999999999927e+03
1.330000000000000071e-01 2.016620000000000079e-01 1.558555000000000135e+01 1.261479999999999961e+02 2.182984999999999673e+03
1.340000000000000080e-01 2.016139999999999877e-01 1.501859999999999928e+01 1.251024999999999920e+02 2.182675000000000182e+03
1.350000000000000089e-01 2.015724999999999878e-01 1.453584999999999994e+01 1.242514999999999930e+02 2.182409999999999854e+03
1.360000000000000098e-01 2.015379999999999949e-01 1.413919999999999888e+01 1.235955000000000013e+02 2.182185000000000400e+03
1.370000000000000107e-01 2.015104999999999813e-01 1.382734999999999914e+01 1.231290000000000049e+02 2.182005000000000109e+03
1.380000000000000115e-01 2.014900000000000024e-01 1.359670000000000023e+01 1.228395000000000010e+02 2.181869999999999891e+03
1.390000000000000124e-01 2.014759999999999884e-01 1.344099999999999895e+01 1.227085000000000008e+02 2.181775000000000091e+03
1.400000000000000133e-01 2.014680000000000082e-01 1.335239999999999938e+01 1.227160000000000082e+02 2.181720000000000255e+03
1.410000000000000142e-01 2.014654999999999918e-01 1.332145000000000046e+01 1.228375000000000057e+02 2.181694999999999709e+03
1.420000000000000151e-01 2.014664999999999928e-01 1.333789999999999942e+01 1.230465000000000089e+02 2.181694999999999709e+03
1.430000000000000160e-01 2.014714999999999978e-01 1.339100000000000001e+01 1.233190000000000026e+02 2.181725000000000364e+03
1.440000000000000169e-01 2.014790000000000192e-01 1.347015000000000029e+01 1.236295000000000073e+02 2.181769999999999982e+03
1.450000000000000178e-01 2.014885000000000148e-01 1.356500000000000128e+01 1.239565000000000055e+02 2.181824999999999818e+03
1.459999999999999909e-01 2.014984999999999971e-01 1.366610000000000014e+01 1.242785000000000082e+02 2.181889999999999873e+03
1.469999999999999918e-01 2.015084999999999793e-01 1.376494999999999891e+01 1.245790000000000077e+02 2.181949999999999818e+03
1.479999999999999927e-01 2.015190000000000037e-01 1.385444999999999993e+01 1.248444999999999965e+02 2.182010000000000218e+03
1.489999999999999936e-01 2.015274999999999983e-01 1.392895000000000039e+01 1.250649999999999977e+02 2.182065000000000055e+03
1.499999999999999944e-01 2.015349999999999919e-01 1.398424999999999940e+01 1.252334999999999923e+02 2.182114999999999782e+03
1.509999999999999953e-01 2.015409999999999979e-01 1.401784999999999926e+01 1.253480000000000132e+02 2.182150000000000091e+03
1.519999999999999962e-01 2.015450000000000019e-01 1.402864999999999895e+01 1.254095000000000084e+02 2.182175000000000182e+03
1.529999999999999971e-01 2.015474999999999905e-01 1.401705000000000112e+01 1.254215000000000089e+02 2.182194999999999709e+03
1.539999999999999980e-01 2.015480000000000049e-01 1.398484999999999978e+01 1.253905000000000030e+02 2.182199999999999818e+03
1.549999999999999989e-01 2.015470000000000039e-01 1.393465000000000131e+01 1.253250000000000028e+02 2.182199999999999818e+03
1.559999999999999998e-01 2.015450000000000019e-01 1.387014999999999887e+01 1.252355000000000018e+02 2.182184999999999945e+03
1.570000000000000007e-01 2.015419999999999989e-01 1.379540000000000077e+01 1.251324999999999932e+02 2.182170000000000073e+03
1.580000000000000016e-01 2.015395000000000103e-01 1.371474999999999866e+01 1.250264999999999986e+02 2.182154999999999745e+03
1.590000000000000024e-01 2.015359999999999929e-01 1.363244999999999862e+01 1.249284999999999997e+02 2.182130000000000109e+03
