# t [s], A [cm^2], U [cm/s], P [cPa], c [cm/s]
1.000000000000000021e-03 2.114274999999999904e-01 3.010566999999999549e-01 9.334199999999999875e+01 2.237545000000000073e+03
2.000000000000000042e-03 2.113575000000000037e-01 1.813282499999999908e+00 8.977745000000000175e+01 2.236980000000000018e+03
3.000000000000000062e-03 2.111910000000000176e-01 3.712345500000000076e+00 8.466655000000000086e+01 2.235695000000000164e+03
4.000000000000000083e-03 2.109774999999999845e-01 5.883733499999999950e+00 7.926165000000000305e+01 2.234074999999999818e+03
5.000000000000000104e-03 2.107634999999999925e-01 8.215614999999999668e+00 7.466419999999999391e+01 2.232460000000000036e+03
6.000000000000000125e-03 2.105664999999999898e-01 1.042305999999999955e+01 7.100419999999999732e+01 2.231000000000000000e+03
7.000000000000000146e-03 2.103864999999999763e-01 1.224398000000000053e+01 6.779304999999999382e+01 2.229699999999999818e+03
8.000000000000000167e-03 2.102284999999999848e-01 1.368088999999999977e+01 6.494225000000000136e+01 2.228579999999999927e+03
9.000000000000001055e-03 2.100985000000000213e-01 1.480924999999999869e+01 6.264065000000000083e+01 2.227675000000000182e+03
1.000000000000000194e-02 2.099960000000000160e-01 1.565995000000000203e+01 6.090055000000000263e+01 2.226965000000000146e+03
1.099999999999999936e-02 2.099205000000000099e-01 1.627200000000000202e+01 5.967190000000000083e+01 2.226454999999999927e+03
1.200000000000000025e-02 2.098665000000000114e-01 1.666385000000000005e+01 5.885164999999999935e+01 2.226095000000000255e+03
1.300000000000000114e-02 2.098264999999999991e-01 1.682805000000000106e+01 5.821869999999999834e+01 2.225840000000000146e+03
1.400000000000000203e-02 2.097950000000000093e-01 1.683670000000000044e+01 5.769585000000000008e+01 2.225649999999999636e+03
1.499999999999999944e-02 2.097819999999999963e-01 1.690169999999999817e+01 5.764799999999999613e+01 2.225569999999999709e+03
1.600000000000000033e-02 2.098045000000000049e-01 1.727110000000000056e+01 5.872865000000000180e+01 2.225735000000000127e+03
1.700000000000000122e-02 2.098774999999999946e-01 1.805205000000000126e+01 6.135139999999999816e+01 2.226244999999999891e+03
1.800000000000000211e-02 2.099975000000000036e-01 1.911700000000000088e+01 6.526255000000000450e+01 2.227085000000000036e+03
1.900000000000000300e-02 2.101419999999999955e-01 2.015605000000000047e+01 6.954325000000000045e+01 2.228109999999999673e+03
2.000000000000000042e-02 2.102755000000000041e-01 2.082620000000000005e+01 7.300589999999999691e+01 2.229074999999999818e+03
2.100000000000000130e-02 2.103654999999999831e-01 2.090630000000000166e+01 7.472409999999999286e+01 2.229755000000000109e+03
2.200000000000000219e-02 2.103959999999999997e-01 2.038250000000000028e+01 7.441445000000000221e+01 2.230014999999999873e+03
2.299999999999999961e-02 2.103700000000000014e-01 1.943244999999999933e+01 7.250104999999999222e+01 2.229869999999999891e+03
2.400000000000000050e-02 2.103079999999999949e-01 1.832760000000000034e+01 6.986334999999999695e+01 2.229449999999999818e+03
2.500000000000000139e-02 2.102355000000000196e-01 1.730949999999999989e+01 6.741960000000000264e+01 2.228940000000000055e+03
2.600000000000000228e-02 2.101744999999999863e-01 1.649934999999999974e+01 6.575714999999999577e+01 2.228500000000000000e+03
2.700000000000000316e-02 2.101345000000000018e-01 1.587415000000000020e+01 6.496075000000000443e+01 2.228195000000000164e+03
2.800000000000000058e-02 2.101115000000000066e-01 1.530445000000000100e+01 6.467275000000000773e+01 2.228019999999999982e+03
2.900000000000000147e-02 2.100910000000000000e-01 1.463005000000000067e+01 6.431870000000000687e+01 2.227875000000000000e+03
3.000000000000000236e-02 2.100589999999999957e-01 1.373904999999999887e+01 6.339095000000000368e+01 2.227654999999999745e+03
3.099999999999999978e-02 2.100049999999999972e-01 1.262490000000000023e+01 6.168390000000000128e+01 2.227284999999999854e+03
3.200000000000000067e-02 2.099309999999999787e-01 1.140058499999999952e+01 5.940010000000000190e+01 2.226769999999999982e+03
3.300000000000000155e-02 2.098504999999999954e-01 1.026469499999999968e+01 5.708990000000000009e+01 2.226194999999999709e+03
3.400000000000000244e-02 2.097824999999999829e-01 9.433650000000000091e+00 5.545190000000000197e+01 2.225704999999999927e+03
3.500000000000000333e-02 2.097479999999999900e-01 9.066995000000000360e+00 5.507744999999999891e+01 2.225435000000000400e+03
3.600000000000000422e-02 2.097604999999999886e-01 9.215294999999999348e+00 5.624094999999999800e+01 2.225489999999999782e+03
3.700000000000000511e-02 2.098214999999999941e-01 9.805374999999999730e+00 5.880719999999999459e+01 2.225889999999999873e+03
3.799999999999999906e-02 2.099214999999999831e-01 1.066305000000000014e+01 6.227315000000000111e+01 2.226574999999999818e+03
3.899999999999999994e-02 2.100394999999999901e-01 1.155965000000000131e+01 6.590989999999999327e+01 2.227404999999999745e+03
4.000000000000000083e-02 2.101525000000000198e-01 1.226520000000000010e+01 6.894835000000000491e+01 2.228210000000000036e+03
4.100000000000000172e-02 2.102370000000000072e-01 1.259404999999999930e+01 7.075004999999998745e+01 2.228824999999999818e+03
4.200000000000000261e-02 2.102749999999999897e-01 1.243260000000000076e+01 7.092330000000001178e+01 2.229125000000000000e+03
4.300000000000000350e-02 2.102569999999999995e-01 1.174794999999999945e+01 6.936529999999999063e+01 2.229025000000000091e+03
4.400000000000000439e-02 2.101830000000000087e-01 1.057714499999999980e+01 6.623380000000000223e+01 2.228519999999999982e+03
4.499999999999999833e-02 2.100585000000000091e-01 9.006069999999999354e+00 6.186764999999999759e+01 2.227654999999999745e+03
4.599999999999999922e-02 2.098949999999999982e-01 7.144010000000000637e+00 5.668800000000000239e+01 2.226510000000000218e+03
4.700000000000000011e-02 2.097054999999999891e-01 5.102594000000000740e+00 5.110960000000000036e+01 2.225170000000000073e+03
4.800000000000000100e-02 2.095029999999999948e-01 2.982864999999999878e+00 4.548219999999999885e+01 2.223735000000000127e+03
4.900000000000000189e-02 2.092990000000000128e-01 8.710149999999998727e-01 4.006905000000000427e+01 2.222279999999999745e+03
5.000000000000000278e-02 2.091014999999999957e-01 -1.159100000000000019e+00 3.505599999999999739e+01 2.220864999999999782e+03
5.100000000000000366e-02 2.089174999999999782e-01 -3.040512499999999729e+00 3.057789999999999964e+01 2.219545000000000073e+03
5.200000000000000455e-02 2.087525000000000075e-01 -4.707995000000000374e+00 2.674830000000000041e+01 2.218359999999999673e+03
5.300000000000000544e-02 2.086119999999999919e-01 -6.095785000000000231e+00 2.368074999999999974e+01 2.217345000000000255e+03
5.399999999999999939e-02 2.085009999999999919e-01 -7.139014999999999667e+00 2.149575000000000102e+01 2.216529999999999745e+03
5.500000000000000028e-02 2.084239999999999982e-01 -7.778480000000000061e+00 2.031390000000000029e+01 2.215954999999999927e+03
5.600000000000000117e-02 2.083855000000000013e-01 -7.967259999999999565e+00 2.023805000000000121e+01 2.215654999999999745e+03
5.700000000000000205e-02 2.083900000000000197e-01 -7.677170000000000272e+00 2.133249999999999957e+01 2.215650000000000091e+03
5.800000000000000294e-02 2.084374999999999978e-01 -6.903360000000000163e+00 2.360600000000000165e+01 2.215960000000000036e+03
5.900000000000000383e-02 2.085285000000000055e-01 -5.665905000000000413e+00 2.700280000000000058e+01 2.216569999999999709e+03
6.000000000000000472e-02 2.086604999999999988e-01 -4.008193000000000339e+00 3.140429999999999922e+01 2.217470000000000255e+03
6.099999999999999867e-02 2.088280000000000136e-01 -1.992809999999999970e+00 3.664045000000000130e+01 2.218639999999999873e+03
6.199999999999999956e-02 2.090255000000000030e-01 3.039749999999998842e-01 4.250600000000000023e+01 2.220019999999999982e+03
6.300000000000000044e-02 2.092444999999999999e-01 2.798030000000000239e+00 4.877904999999999802e+01 2.221569999999999709e+03
6.400000000000000133e-02 2.094785000000000119e-01 5.402719499999999897e+00 5.523785000000000167e+01 2.223225000000000364e+03
6.500000000000000222e-02 2.097189999999999888e-01 8.033384999999999110e+00 6.167419999999999902e+01 2.224944999999999709e+03
6.600000000000000311e-02 2.099584999999999924e-01 1.061153999999999975e+01 6.790399999999999636e+01 2.226659999999999854e+03
6.700000000000000400e-02 2.101910000000000167e-01 1.306834500000000077e+01 7.377539999999999054e+01 2.228335000000000036e+03
6.800000000000000488e-02 2.104105000000000003e-01 1.534800000000000075e+01 7.917534999999999457e+01 2.229925000000000182e+03
6.900000000000000577e-02 2.106135000000000090e-01 1.741045000000000087e+01 8.403520000000000323e+01 2.231399999999999636e+03
7.000000000000000666e-02 2.107984999999999998e-01 1.923349999999999937e+01 8.833384999999999820e+01 2.232755000000000109e+03
7.100000000000000755e-02 2.109639999999999849e-01 2.081340000000000146e+01 9.209775000000000489e+01 2.233970000000000255e+03
7.200000000000000844e-02 2.111115000000000075e-01 2.216384999999999650e+01 9.539674999999999727e+01 2.235055000000000291e+03
7.300000000000000933e-02 2.112439999999999873e-01 2.331350000000000122e+01 9.833559999999999945e+01 2.236034999999999854e+03
7.399999999999999634e-02 2.113649999999999973e-01 2.430154999999999887e+01 1.010420499999999890e+02 2.236930000000000291e+03
7.499999999999999722e-02 2.114785000000000137e-01 2.517334999999999923e+01 1.036504500000000064e+02 2.237775000000000091e+03
7.599999999999999811e-02 2.115905000000000147e-01 2.597530000000000072e+01 1.062905000000000086e+02 2.238595000000000255e+03
7.699999999999999900e-02 2.117034999999999889e-01 2.674949999999999761e+01 1.090705000000000098e+02 2.239425000000000182e+03
7.799999999999999989e-02 2.118220000000000103e-01 2.753065000000000140e+01 1.120699999999999932e+02 2.240295000000000073e+03
7.900000000000000078e-02 2.119484999999999841e-01 2.834264999999999901e+01 1.153315000000000055e+02 2.241215000000000146e+03
8.000000000000000167e-02 2.120829999999999937e-01 2.919740000000000180e+01 1.188599999999999994e+02 2.242199999999999818e+03
8.100000000000000255e-02 2.122264999999999846e-01 3.009479999999999933e+01 1.226244999999999976e+02 2.243244999999999891e+03
8.200000000000000344e-02 2.123769999999999825e-01 3.102324999999999733e+01 1.265625000000000000e+02 2.244340000000000146e+03
8.300000000000000433e-02 2.125325000000000131e-01 3.196170000000000044e+01 1.305885000000000105e+02 2.245474999999999909e+03
8.400000000000000522e-02 2.126899999999999902e-01 3.288195000000000334e+01 1.346009999999999991e+02 2.246625000000000000e+03
8.500000000000000611e-02 2.128450000000000064e-01 3.375124999999999886e+01 1.384925000000000068e+02 2.247760000000000218e+03
8.600000000000000699e-02 2.129944999999999755e-01 3.453509999999999991e+01 1.421569999999999823e+02 2.248859999999999673e+03
8.700000000000000788e-02 2.131345000000000045e-01 3.519989999999999952e+01 1.454964999999999975e+02 2.249885000000000218e+03
8.800000000000000877e-02 2.132614999999999927e-01 3.571524999999999750e+01 1.484265000000000043e+02 2.250824999999999818e+03
8.899999999999999578e-02 2.133729999999999793e-01 3.605594999999999573e+01 1.508840000000000146e+02 2.251654999999999745e+03
8.999999999999999667e-02 2.134665000000000035e-01 3.620359999999999445e+01 1.528245000000000005e+02 2.252355000000000018e+03
9.099999999999999756e-02 2.135405000000000220e-01 3.614759999999999707e+01 1.542284999999999968e+02 2.252909999999999854e+03
9.199999999999999845e-02 2.135949999999999793e-01 3.588589999999999947e+01 1.550985000000000014e+02 2.253324999999999818e+03
9.299999999999999933e-02 2.136294999999999999e-01 3.542470000000000141e+01 1.554604999999999961e+02 2.253595000000000255e+03
9.400000000000000022e-02 2.136454999999999882e-01 3.477805000000000035e+01 1.553580000000000041e+02 2.253725000000000364e+03
9.500000000000000111e-02 2.136444999999999872e-01 3.396694999999999709e+01 1.548500000000000227e+02 2.253735000000000127e+03
9.600000000000000200e-02 2.136284999999999989e-01 3.301760000000000161e+01 1.540090000000000146e+02 2.253635000000000218e+03
9.700000000000000289e-02 2.136009999999999853e-01 3.196030000000000015e+01 1.529130000000000109e+02 2.253444999999999709e+03
9.800000000000000377e-02 2.135635000000000172e-01 3.082734999999999914e+01 1.516409999999999911e+02 2.253180000000000291e+03
9.900000000000000466e-02 2.135199999999999876e-01 2.965174999999999983e+01 1.502740000000000009e+02 2.252869999999999891e+03
1.000000000000000056e-01 2.134725000000000095e-01 2.846545000000000059e+01 1.488860000000000241e+02 2.252530000000000200e+03
1.010000000000000064e-01 2.134240000000000026e-01 2.729809999999999803e+01 1.475414999999999850e+02 2.252175000000000182e+03
1.020000000000000073e-01 2.133769999999999833e-01 2.617605000000000004e+01 1.462980000000000018e+02 2.251829999999999927e+03
1.030000000000000082e-01 2.133335000000000092e-01 2.512079999999999913e+01 1.451995000000000005e+02 2.251510000000000218e+03
1.040000000000000091e-01 2.132950000000000124e-01 2.414880000000000138e+01 1.442755000000000223e+02 2.251220000000000255e+03
1.050000000000000100e-01 2.132620000000000071e-01 2.327045000000000030e+01 1.435425000000000182e+02 2.250975000000000364e+03
1.059999999999999970e-01 2.132360000000000089e-01 2.248999999999999844e+01 1.430020000000000095e+02 2.250775000000000091e+03
1.069999999999999979e-01 2.132165000000000032e-01 2.180519999999999925e+01 1.426399999999999864e+02 2.250625000000000000e+03
1.079999999999999988e-01 2.132025000000000170e-01 2.120799999999999841e+01 1.424279999999999973e+02 2.250515000000000327e+03
1.089999999999999997e-01 2.131930000000000214e-01 2.068489999999999895e+01 1.423265000000000100e+02 2.250439999999999600e+03
1.100000000000000006e-01 2.131874999999999742e-01 2.021804999999999808e+01 1.422864999999999895e+02 2.250389999999999873e+03
1.110000000000000014e-01 2.131834999999999980e-01 1.978650000000000020e+01 1.422520000000000095e+02 2.250355000000000018e+03
1.120000000000000023e-01 2.131790000000000074e-01 1.936775000000000091e+01 1.421639999999999873e+02 2.250315000000000055e+03
1.130000000000000032e-01 2.131715000000000138e-01 1.893905000000000172e+01 1.419664999999999964e+02 2.250260000000000218e+03
1.140000000000000041e-01 2.131605000000000028e-01 1.847935000000000016e+01 1.416084999999999923e+02 2.250175000000000182e+03
1.150000000000000050e-01 2.131419999999999981e-01 1.797054999999999936e+01 1.410484999999999900e+02 2.250045000000000073e+03
1.160000000000000059e-01 2.131170000000000009e-01 1.739870000000000161e+01 1.402570000000000050e+02 2.249860000000000127e+03
1.170000000000000068e-01 2.130834999999999813e-01 1.675529999999999831e+01 1.392210000000000036e+02 2.249619999999999891e+03
1.180000000000000077e-01 2.130405000000000215e-01 1.603744999999999976e+01 1.379410000000000025e+02 2.249309999999999945e+03
1.190000000000000085e-01 2.129889999999999839e-01 1.524854999999999983e+01 1.364345000000000141e+02 2.248940000000000055e+03
1.200000000000000094e-01 2.129300000000000082e-01 1.439759999999999884e+01 1.347350000000000136e+02 2.248514999999999873e+03
1.209999999999999964e-01 2.128645000000000120e-01 1.349899999999999878e+01 1.328865000000000123e+02 2.248034999999999854e+03
1.219999999999999973e-01 2.127935000000000243e-01 1.257114999999999938e+01 1.309445000000000050e+02 2.247519999999999982e+03
1.229999999999999982e-01 2.127195000000000058e-01 1.163574500000000000e+01 1.289695000000000107e+02 2.246984999999999673e+03
1.239999999999999991e-01 2.126445000000000141e-01 1.071579999999999977e+01 1.270259999999999962e+02 2.246440000000000055e+03
1.250000000000000000e-01 2.125719999999999832e-01 9.834690000000000154e+00 1.251739999999999924e+02 2.245909999999999854e+03
1.260000000000000009e-01 2.125024999999999831e-01 9.014414999999999623e+00 1.234699999999999989e+02 2.245399999999999636e+03
1.270000000000000018e-01 2.124389999999999890e-01 8.274535000000000196e+00 1.219619999999999891e+02 2.244934999999999945e+03
1.280000000000000027e-01 2.123835000000000028e-01 7.631000000000000227e+00 1.206885000000000048e+02 2.244524999999999636e+03
1.290000000000000036e-01 2.123355000000000103e-01 7.095639999999999503e+00 1.196724999999999994e+02 2.244164999999999964e+03
1.300000000000000044e-01 2.122975000000000001e-01 6.675499999999999545e+00 1.189279999999999973e+02 2.243880000000000109e+03
1.310000000000000053e-01 2.122694999999999999e-01 6.372799999999999798e+00 1.184544999999999959e+02 2.243670000000000073e+03
1.320000000000000062e-01 2.122509999999999952e-01 6.185095000000000454e+00 1.182399999999999949e+02 2.243525000000000091e+03
1.330000000000000071e-01 2.122419999999999862e-01 6.105620000000000047e+00 1.182620000000000005e+02 2.243449999999999818e+03
1.340000000000000080e-01 2.122419999999999862e-01 6.123899999999999899e+00 1.184920000000000044e+02 2.243434999999999945e+03
1.350000000000000089e-01 2.122489999999999932e-01 6.226459999999999440e+00 1.188915000000000077e+02 2.243484999999999673e+03
1.360000000000000098e-01 2.122624999999999929e-01 6.397615000000000052e+00 1.194219999999999970e+02 2.243564999999999600e+03
1.370000000000000107e-01 2.122804999999999831e-01 6.620280000000000165e+00 1.200414999999999992e+02 2.243694999999999709e+03
1.380000000000000115e-01 2.123015000000000041e-01 6.876799999999999358e+00 1.207069999999999936e+02 2.243840000000000146e+03
1.390000000000000124e-01 2.123244999999999993e-01 7.149715000000000487e+00 1.213789999999999907e+02 2.244005000000000109e+03
1.400000000000000133e-01 2.123475000000000223e-01 7.422439999999999927e+00 1.220209999999999866e+02 2.244175000000000182e+03
1.410000000000000142e-01 2.123694999999999888e-01 7.679890000000000327e+00 1.226004999999999967e+02 2.244329999999999927e+03
1.420000000000000151e-01 2.123899999999999955e-01 7.908994999999999997e+00 1.230914999999999964e+02 2.244480000000000018e+03
1.430000000000000160e-01 2.124064999999999981e-01 8.099135000000000417e+00 1.234735000000000014e+02 2.244605000000000018e+03
1.440000000000000169e-01 2.124194999999999833e-01 8.242399999999999949e+00 1.237330000000000041e+02 2.244699999999999818e+03
1.450000000000000178e-01 2.124280000000000057e-01 8.333795000000000286e+00 1.238635000000000019e+02 2.244765000000000327e+03
1.459999999999999909e-01 2.124320000000000097e-01 8.371280000000000499e+00 1.238654999999999973e+02 2.244795000000000073e+03
1.469999999999999918e-01 2.124314999999999953e-01 8.355655000000000499e+00 1.237444999999999879e+02 2.244800000000000182e+03
1.479999999999999927e-01 2.124265000000000181e-01 8.290324999999999278e+00 1.235144999999999982e+02 2.244769999999999982e+03
1.489999999999999936e-01 2.124179999999999957e-01 8.180954999999999089e+00 1.231914999999999907e+02 2.244704999999999927e+03
1.499999999999999944e-01 2.124059999999999837e-01 8.034950000000000259e+00 1.227959999999999923e+02 2.244625000000000000e+03
1.509999999999999953e-01 2.123919999999999975e-01 7.860885000000000566e+00 1.223509999999999991e+02 2.244525000000000091e+03
1.519999999999999962e-01 2.123760000000000092e-01 7.667925000000000324e+00 1.218780000000000001e+02 2.244409999999999854e+03
1.529999999999999971e-01 2.123585000000000056e-01 7.465174999999999450e+00 1.214000000000000057e+02 2.244289999999999964e+03
1.539999999999999980e-01 2.123410000000000020e-01 7.261115000000000208e+00 1.209350000000000023e+02 2.244159999999999854e+03
1.549999999999999989e-01 2.123244999999999993e-01 7.063150000000000261e+00 1.204994999999999976e+02 2.244039999999999964e+03
1.559999999999999998e-01 2.123089999999999977e-01 6.877200000000000202e+00 1.201034999999999968e+02 2.243925000000000182e+03
1.570000000000000007e-01 2.122939999999999827e-01 6.707535000000000025e+00 1.197545000000000073e+02 2.243820000000000164e+03
1.580000000000000016e-01 2.122815000000000119e-01 6.556680000000000064e+00 1.194534999999999911e+02 2.243730000000000018e+03
1.590000000000000024e-01 2.122700000000000142e-01 6.425485000000000113e+00 1.191984999999999957e+02 2.243640000000000327e+03
