# t [s], A [cm^2], U [cm/s], P [cPa], c [cm/s]
1.000000000000000021e-03 4.982989999999999919e-01 3.275250000000000383e-03 9.705164999999999509e+01 1.428880000000000109e+03
2.000000000000000042e-03 4.982914999999999983e-01 -9.783549999999999799e-04 9.703459999999999752e+01 1.428875000000000000e+03
3.000000000000000062e-03 4.983210000000000139e-01 5.518374999999998975e-02 9.708379999999999654e+01 1.428884999999999991e+03
4.000000000000000083e-03 4.983664999999999901e-01 1.440570499999999921e-01 9.718504999999998972e+01 1.428914999999999964e+03
5.000000000000000104e-03 4.983730000000000104e-01 1.638900000000000079e-01 9.720830000000000837e+01 1.428930000000000064e+03
6.000000000000000125e-03 4.983385000000000176e-01 1.047435000000000033e-01 9.710885000000000389e+01 1.428909999999999854e+03
7.000000000000000146e-03 4.982975000000000043e-01 2.826899999999998858e-02 9.693789999999999907e+01 1.428865000000000009e+03
8.000000000000000167e-03 4.982545000000000446e-01 -5.602150000000000185e-02 9.671535000000000082e+01 1.428809999999999945e+03
9.000000000000001055e-03 4.981845000000000301e-01 -2.019900000000000029e-01 9.638569999999999993e+01 1.428730000000000018e+03
1.000000000000000194e-02 4.980740000000000167e-01 -4.362000000000000322e-01 9.590115000000000123e+01 1.428610000000000127e+03
1.099999999999999936e-02 4.979204999999999881e-01 -7.600899999999999324e-01 9.523454999999999870e+01 1.428440000000000055e+03
1.200000000000000025e-02 4.977139999999999898e-01 -1.183184999999999931e+00 9.435030000000000427e+01 1.428214999999999918e+03
1.300000000000000114e-02 4.974469999999999725e-01 -1.709465000000000012e+00 9.321610000000001151e+01 1.427920000000000073e+03
1.400000000000000203e-02 4.971269999999999856e-01 -2.304949999999999832e+00 9.184234999999999616e+01 1.427555000000000064e+03
1.499999999999999944e-02 4.967849999999999766e-01 -2.891174999999999606e+00 9.030150000000000432e+01 1.427125000000000000e+03
1.600000000000000033e-02 4.964564999999999673e-01 -3.371760000000000090e+00 8.870805000000000007e+01 1.426675000000000182e+03
1.700000000000000122e-02 4.961685000000000123e-01 -3.668239500000000319e+00 8.717740000000000578e+01 1.426220000000000027e+03
1.800000000000000211e-02 4.959324999999999983e-01 -3.742981499999999961e+00 8.578960000000000719e+01 1.425784999999999854e+03
1.900000000000000300e-02 4.957415000000000016e-01 -3.602709649999999986e+00 8.457300000000000750e+01 1.425384999999999991e+03
2.000000000000000042e-02 4.955760000000000165e-01 -3.287949349999999882e+00 8.350639999999999930e+01 1.425009999999999991e+03
2.100000000000000130e-02 4.954135000000000066e-01 -2.855865999999999794e+00 8.253454999999999586e+01 1.424654999999999973e+03
2.200000000000000219e-02 4.952339999999999520e-01 -2.362528000000000183e+00 8.158924999999999272e+01 1.424309999999999945e+03
2.299999999999999961e-02 4.950255000000000072e-01 -1.848844999999999850e+00 8.061105000000000587e+01 1.423954999999999927e+03
2.400000000000000050e-02 4.947850000000000303e-01 -1.333304999999999740e+00 7.956404999999999461e+01 1.423585000000000036e+03
2.500000000000000139e-02 4.945199999999999596e-01 -8.130500000000000504e-01 7.844225000000000136e+01 1.423194999999999936e+03
2.600000000000000228e-02 4.942419999999999591e-01 -2.720750000000000668e-01 7.726460000000000150e+01 1.422800000000000182e+03
2.700000000000000316e-02 4.939630000000000409e-01 3.070550000000000779e-01 7.606255000000000166e+01 1.422385000000000218e+03
2.800000000000000058e-02 4.936899999999999622e-01 9.323400000000001686e-01 7.486590000000001055e+01 1.421974999999999909e+03
2.900000000000000147e-02 4.934239999999999737e-01 1.595610000000000195e+00 7.368999999999999773e+01 1.421565000000000055e+03
3.000000000000000236e-02 4.931584999999999996e-01 2.271079999999999544e+00 7.252930000000000632e+01 1.421160000000000082e+03
3.099999999999999978e-02 4.928819999999999868e-01 2.918714999999999726e+00 7.135715000000000430e+01 1.420755000000000109e+03
3.200000000000000067e-02 4.925815000000000055e-01 3.491165000000000074e+00 7.013070000000000448e+01 1.420329999999999927e+03
3.300000000000000155e-02 4.922429999999999861e-01 3.942394999999999872e+00 6.880065000000000452e+01 1.419884999999999991e+03
3.400000000000000244e-02 4.918574999999999475e-01 4.236320000000000086e+00 6.732269999999999754e+01 1.419404999999999973e+03
3.500000000000000333e-02 4.914209999999999967e-01 4.353915000000000646e+00 6.566885000000000616e+01 1.418884999999999991e+03
3.600000000000000422e-02 4.909405000000000019e-01 4.296939999999999316e+00 6.383584999999999354e+01 1.418320000000000164e+03
3.700000000000000511e-02 4.904264999999999874e-01 4.087765000000000093e+00 6.184900000000000375e+01 1.417715000000000146e+03
3.799999999999999906e-02 4.898965000000000125e-01 3.765570000000000306e+00 5.976059999999999661e+01 1.417074999999999818e+03
3.899999999999999994e-02 4.893724999999999881e-01 3.380090000000000039e+00 5.764390000000000214e+01 1.416434999999999945e+03
4.000000000000000083e-02 4.888765000000000471e-01 2.984204999999999774e+00 5.558409999999999940e+01 1.415795000000000073e+03
4.100000000000000172e-02 4.884269999999999445e-01 2.627909999999999968e+00 5.366890000000000072e+01 1.415195000000000164e+03
4.200000000000000261e-02 4.880415000000000170e-01 2.353449999999999598e+00 5.197964999999999947e+01 1.414650000000000091e+03
4.300000000000000350e-02 4.877325000000000133e-01 2.193080000000000140e+00 5.058509999999999707e+01 1.414174999999999955e+03
4.400000000000000439e-02 4.875074999999999825e-01 2.168660000000000032e+00 4.953754999999999598e+01 1.413799999999999955e+03
4.499999999999999833e-02 4.873705000000000398e-01 2.292816000000000187e+00 4.887210000000000321e+01 1.413530000000000200e+03
4.599999999999999922e-02 4.873224999999999918e-01 2.571138499999999993e+00 4.860750000000000171e+01 1.413375000000000000e+03
4.700000000000000011e-02 4.873644999999999783e-01 3.004589999999999872e+00 4.874864999999999782e+01 1.413340000000000146e+03
4.800000000000000100e-02 4.874920000000000364e-01 3.591730000000000089e+00 4.929044999999999987e+01 1.413420000000000073e+03
4.900000000000000189e-02 4.877040000000000264e-01 4.330245000000000566e+00 5.022039999999999793e+01 1.413625000000000000e+03
5.000000000000000278e-02 4.879959999999999853e-01 5.217620000000000147e+00 5.152199999999999847e+01 1.413945000000000164e+03
5.100000000000000366e-02 4.883650000000000491e-01 6.250935000000000130e+00 5.317564999999999742e+01 1.414380000000000109e+03
5.200000000000000455e-02 4.888069999999999915e-01 7.426004999999999967e+00 5.515975000000000250e+01 1.414914999999999964e+03
5.300000000000000544e-02 4.893174999999999608e-01 8.736425000000000551e+00 5.745004999999999740e+01 1.415549999999999955e+03
5.399999999999999939e-02 4.898895000000000333e-01 1.017228000000000065e+01 6.001924999999999955e+01 1.416279999999999973e+03
5.500000000000000028e-02 4.905165000000000219e-01 1.171980499999999914e+01 6.283624999999999261e+01 1.417095000000000027e+03
5.600000000000000117e-02 4.911895000000000011e-01 1.336097499999999982e+01 6.586579999999999302e+01 1.417985000000000127e+03
5.700000000000000205e-02 4.919000000000000039e-01 1.507424000000000142e+01 6.906870000000000687e+01 1.418929999999999836e+03
5.800000000000000294e-02 4.926369999999999916e-01 1.683526499999999970e+01 7.240270000000001005e+01 1.419930000000000064e+03
5.900000000000000383e-02 4.933904999999999541e-01 1.861821499999999929e+01 7.582399999999999807e+01 1.420969999999999800e+03
6.000000000000000472e-02 4.941510000000000069e-01 2.039724999999999966e+01 7.928855000000000075e+01 1.422034999999999854e+03
6.099999999999999867e-02 4.949089999999999878e-01 2.214774999999999849e+01 8.275450000000000728e+01 1.423110000000000127e+03
6.199999999999999956e-02 4.956564999999999999e-01 2.384755000000000180e+01 8.618325000000000102e+01 1.424184999999999945e+03
6.300000000000000044e-02 4.963870000000000227e-01 2.547769999999999868e+01 8.954230000000001155e+01 1.425255000000000109e+03
6.400000000000000133e-02 4.970955000000000235e-01 2.702304999999999779e+01 9.280404999999998950e+01 1.426304999999999836e+03
6.500000000000000222e-02 4.977779999999999982e-01 2.847259999999999991e+01 9.594865000000000066e+01 1.427325000000000045e+03
6.600000000000000311e-02 4.984339999999999882e-01 2.981920000000000215e+01 9.896385000000000787e+01 1.428320000000000164e+03
6.700000000000000400e-02 4.990615000000000467e-01 3.105920000000000059e+01 1.018426499999999919e+02 1.429269999999999982e+03
6.800000000000000488e-02 4.996620000000000505e-01 3.219230000000000302e+01 1.045859000000000094e+02 1.430194999999999936e+03
6.900000000000000577e-02 5.002370000000000427e-01 3.322070000000000078e+01 1.071976999999999975e+02 1.431074999999999818e+03
7.000000000000000666e-02 5.007890000000000397e-01 3.414874999999999972e+01 1.096880000000000024e+02 1.431929999999999836e+03
7.100000000000000755e-02 5.013205000000000577e-01 3.498234999999999673e+01 1.120685000000000002e+02 1.432740000000000009e+03
7.200000000000000844e-02 5.018340000000000023e-01 3.572820000000000107e+01 1.143539999999999992e+02 1.433529999999999973e+03
7.300000000000000933e-02 5.023334999999999884e-01 3.639355000000000473e+01 1.165570000000000022e+02 1.434284999999999854e+03
7.399999999999999634e-02 5.028205000000000036e-01 3.698570000000000135e+01 1.186924999999999955e+02 1.435029999999999973e+03
7.499999999999999722e-02 5.032984999999999820e-01 3.751125000000000398e+01 1.207729999999999961e+02 1.435744999999999891e+03
7.599999999999999811e-02 5.037679999999999936e-01 3.797619999999999862e+01 1.228079999999999927e+02 1.436445000000000164e+03
7.699999999999999900e-02 5.042309999999999848e-01 3.838524999999999920e+01 1.248040000000000020e+02 1.437130000000000109e+03
7.799999999999999989e-02 5.046869999999999967e-01 3.874174999999999613e+01 1.267650000000000006e+02 1.437804999999999836e+03
7.900000000000000078e-02 5.051360000000000294e-01 3.904779999999999518e+01 1.286920000000000073e+02 1.438470000000000027e+03
8.000000000000000167e-02 5.055764999999999842e-01 3.930369999999999919e+01 1.305799999999999841e+02 1.439125000000000000e+03
8.100000000000000255e-02 5.060065000000000257e-01 3.950874999999999915e+01 1.324230000000000018e+02 1.439755000000000109e+03
8.200000000000000344e-02 5.064235000000000264e-01 3.966094999999999970e+01 1.342115000000000009e+02 1.440375000000000000e+03
8.300000000000000433e-02 5.068255000000000399e-01 3.975754999999999484e+01 1.359334999999999809e+02 1.440970000000000027e+03
8.400000000000000522e-02 5.072084999999999511e-01 3.979520000000000124e+01 1.375755000000000052e+02 1.441539999999999964e+03
8.500000000000000611e-02 5.075690000000000479e-01 3.977065000000000339e+01 1.391239999999999952e+02 1.442085000000000036e+03
8.600000000000000699e-02 5.079049999999999399e-01 3.968050000000000210e+01 1.405649999999999977e+02 1.442595000000000027e+03
8.700000000000000788e-02 5.082130000000000258e-01 3.952205000000000013e+01 1.418874999999999886e+02 1.443070000000000164e+03
8.800000000000000877e-02 5.084914999999999852e-01 3.929314999999999714e+01 1.430780000000000030e+02 1.443500000000000000e+03
8.899999999999999578e-02 5.087384999999999824e-01 3.899275000000000091e+01 1.441290000000000191e+02 1.443894999999999982e+03
8.999999999999999667e-02 5.089515000000000011e-01 3.862049999999999983e+01 1.450335000000000036e+02 1.444235000000000127e+03
9.099999999999999756e-02 5.091320000000000290e-01 3.817745000000000033e+01 1.457874999999999943e+02 1.444530000000000200e+03
9.199999999999999845e-02 5.092780000000000085e-01 3.766559999999999775e+01 1.463899999999999864e+02 1.444779999999999973e+03
9.299999999999999933e-02 5.093910000000000382e-01 3.708805000000000263e+01 1.468424999999999727e+02 1.444980000000000018e+03
9.400000000000000022e-02 5.094714999999999661e-01 3.644924999999999926e+01 1.471490000000000009e+02 1.445130000000000109e+03
9.500000000000000111e-02 5.095220000000000304e-01 3.575430000000000064e+01 1.473170000000000073e+02 1.445235000000000127e+03
9.600000000000000200e-02 5.095435000000000381e-01 3.500945000000000107e+01 1.473550000000000182e+02 1.445299999999999955e+03
9.700000000000000289e-02 5.095389999999999642e-01 3.422149999999999892e+01 1.472735000000000127e+02 1.445320000000000164e+03
9.800000000000000377e-02 5.095110000000000472e-01 3.339809999999999945e+01 1.470865000000000009e+02 1.445299999999999955e+03
9.900000000000000466e-02 5.094629999999999992e-01 3.254724999999999824e+01 1.468064999999999998e+02 1.445250000000000000e+03
1.000000000000000056e-01 5.093974999999999476e-01 3.167699999999999960e+01 1.464495000000000005e+02 1.445170000000000073e+03
1.010000000000000064e-01 5.093180000000000485e-01 3.079574999999999818e+01 1.460289999999999964e+02 1.445069999999999936e+03
1.020000000000000073e-01 5.092285000000000839e-01 2.991145000000000209e+01 1.455610000000000070e+02 1.444945000000000164e+03
1.030000000000000082e-01 5.091320000000000290e-01 2.903179999999999694e+01 1.450600000000000023e+02 1.444804999999999836e+03
1.040000000000000091e-01 5.090304999999999414e-01 2.816355000000000075e+01 1.445395000000000039e+02 1.444654999999999973e+03
1.050000000000000100e-01 5.089264999999999484e-01 2.731285000000000096e+01 1.440120000000000005e+02 1.444494999999999891e+03
1.059999999999999970e-01 5.088234999999999841e-01 2.648470000000000368e+01 1.434879999999999995e+02 1.444329999999999927e+03
1.069999999999999979e-01 5.087224999999999664e-01 2.568280000000000030e+01 1.429764999999999873e+02 1.444175000000000182e+03
1.079999999999999988e-01 5.086245000000000349e-01 2.490959999999999752e+01 1.424839999999999804e+02 1.444015000000000100e+03
1.089999999999999997e-01 5.085304999999999964e-01 2.416610000000000014e+01 1.420149999999999864e+02 1.443859999999999900e+03
1.100000000000000006e-01 5.084410000000000318e-01 2.345199999999999818e+01 1.415715000000000146e+02 1.443710000000000036e+03
1.110000000000000014e-01 5.083554999999999602e-01 2.276575000000000060e+01 1.411529999999999916e+02 1.443569999999999936e+03
1.120000000000000023e-01 5.082735000000000447e-01 2.210450000000000159e+01 1.407570000000000050e+02 1.443430000000000064e+03
1.130000000000000032e-01 5.081934999999999647e-01 2.146460000000000079e+01 1.403795000000000073e+02 1.443300000000000182e+03
1.140000000000000041e-01 5.081145000000000245e-01 2.084149999999999991e+01 1.400144999999999982e+02 1.443170000000000073e+03
1.150000000000000050e-01 5.080350000000000144e-01 2.023015000000000185e+01 1.396544999999999845e+02 1.443045000000000073e+03
1.160000000000000059e-01 5.079534999999999467e-01 1.962519999999999953e+01 1.392930000000000064e+02 1.442920000000000073e+03
1.170000000000000068e-01 5.078675000000000272e-01 1.902130000000000010e+01 1.389214999999999804e+02 1.442789999999999964e+03
1.180000000000000077e-01 5.077774999999999928e-01 1.841329999999999956e+01 1.385319999999999823e+02 1.442659999999999854e+03
1.190000000000000085e-01 5.076795000000000613e-01 1.779639999999999844e+01 1.381169999999999902e+02 1.442519999999999982e+03
1.200000000000000094e-01 5.075735000000000108e-01 1.716644999999999754e+01 1.376709999999999923e+02 1.442375000000000000e+03
1.209999999999999964e-01 5.074589999999999934e-01 1.651999999999999957e+01 1.371885000000000048e+02 1.442220000000000027e+03
1.219999999999999973e-01 5.073345000000000216e-01 1.585454999999999970e+01 1.366655000000000086e+02 1.442054999999999836e+03
1.229999999999999982e-01 5.072005000000000541e-01 1.516860000000000142e+01 1.361000000000000227e+02 1.441880000000000109e+03
1.239999999999999991e-01 5.070569999999999800e-01 1.446144500000000122e+01 1.354915000000000020e+02 1.441684999999999945e+03
1.250000000000000000e-01 5.069040000000000212e-01 1.373365000000000080e+01 1.348404999999999916e+02 1.441485000000000127e+03
1.260000000000000009e-01 5.067430000000000545e-01 1.298662500000000009e+01 1.341504999999999939e+02 1.441264999999999873e+03
1.270000000000000018e-01 5.065745000000000386e-01 1.222277500000000039e+01 1.334250000000000114e+02 1.441039999999999964e+03
1.280000000000000027e-01 5.063999999999999613e-01 1.144542999999999999e+01 1.326705000000000041e+02 1.440805000000000064e+03
1.290000000000000036e-01 5.062219999999999498e-01 1.065851499999999952e+01 1.318940000000000055e+02 1.440559999999999945e+03
1.300000000000000044e-01 5.060415000000000330e-01 9.866749999999999687e+00 1.311014999999999873e+02 1.440315000000000055e+03
1.310000000000000053e-01 5.058599999999999763e-01 9.075175000000001546e+00 1.303029999999999973e+02 1.440054999999999836e+03
1.320000000000000062e-01 5.056804999999999772e-01 8.289265000000000327e+00 1.295065000000000168e+02 1.439804999999999836e+03
1.330000000000000071e-01 5.055049999999999821e-01 7.514535000000000409e+00 1.287210000000000036e+02 1.439549999999999955e+03
1.340000000000000080e-01 5.053340000000000609e-01 6.756560000000000343e+00 1.279555000000000007e+02 1.439304999999999836e+03
1.350000000000000089e-01 5.051704999999999668e-01 6.020805000000000184e+00 1.272175000000000011e+02 1.439065000000000055e+03
1.360000000000000098e-01 5.050160000000000204e-01 5.312274999999999636e+00 1.265160000000000053e+02 1.438835000000000036e+03
1.370000000000000107e-01 5.048719999999999875e-01 4.635584999999999845e+00 1.258565000000000111e+02 1.438610000000000127e+03
1.380000000000000115e-01 5.047390000000000487e-01 3.994749999999999801e+00 1.252454999999999927e+02 1.438404999999999973e+03
1.390000000000000124e-01 5.046180000000000110e-01 3.393066500000000207e+00 1.246864999999999952e+02 1.438210000000000036e+03
1.400000000000000133e-01 5.045100000000000140e-01 2.833083499999999866e+00 1.241829999999999927e+02 1.438034999999999854e+03
1.410000000000000142e-01 5.044150000000000578e-01 2.316486999999999963e+00 1.237369999999999948e+02 1.437875000000000000e+03
1.420000000000000151e-01 5.043324999999999614e-01 1.844119999999999981e+00 1.233474999999999966e+02 1.437735000000000127e+03
1.430000000000000160e-01 5.042630000000000168e-01 1.415957250000000167e+00 1.230144999999999982e+02 1.437610000000000127e+03
1.440000000000000169e-01 5.042039999999999855e-01 1.031158500000000089e+00 1.227344999999999970e+02 1.437505000000000109e+03
1.450000000000000178e-01 5.041569999999999663e-01 6.881114999999999871e-01 1.225035000000000025e+02 1.437409999999999854e+03
1.459999999999999909e-01 5.041185000000000249e-01 3.845150000000000512e-01 1.223180000000000121e+02 1.437329999999999927e+03
1.469999999999999918e-01 5.040879999999999805e-01 1.174949999999999883e-01 1.221709999999999923e+02 1.437264999999999873e+03
1.479999999999999927e-01 5.040649999999999853e-01 -1.162874999999999881e-01 1.220560000000000116e+02 1.437210000000000036e+03
1.489999999999999936e-01 5.040470000000000228e-01 -3.205120000000000191e-01 1.219675000000000011e+02 1.437164999999999964e+03
1.499999999999999944e-01 5.040314999999999657e-01 -4.990649999999999809e-01 1.218975000000000080e+02 1.437130000000000109e+03
1.509999999999999953e-01 5.040189999999999948e-01 -6.559129999999999683e-01 1.218389999999999986e+02 1.437099999999999909e+03
1.519999999999999962e-01 5.040065000000000239e-01 -7.949840000000000240e-01 1.217854999999999990e+02 1.437070000000000164e+03
1.529999999999999971e-01 5.039934999999999832e-01 -9.200574999999999726e-01 1.217309999999999945e+02 1.437045000000000073e+03
1.539999999999999980e-01 5.039784999999999959e-01 -1.034675000000000011e+00 1.216694999999999993e+02 1.437009999999999991e+03
1.549999999999999989e-01 5.039605000000000334e-01 -1.142059999999999853e+00 1.215964999999999918e+02 1.436985000000000127e+03
1.559999999999999998e-01 5.039390000000000258e-01 -1.245064999999999866e+00 1.215074999999999932e+02 1.436950000000000045e+03
1.570000000000000007e-01 5.039130000000000553e-01 -1.346149999999999958e+00 1.214000000000000057e+02 1.436909999999999854e+03
1.580000000000000016e-01 5.038814999999999822e-01 -1.447319999999999940e+00 1.212704999999999984e+02 1.436869999999999891e+03
1.590000000000000024e-01 5.038454999999999462e-01 -1.550200000000000022e+00 1.211179999999999950e+02 1.436820000000000164e+03
