# t [s], A [cm^2], U [cm/s], P [cPa], c [cm/s]
1.000000000000000021e-03 4.534139999999999837e-01 5.333600000000000840e-03 1.033760000000000048e+02 1.615119999999999891e+03
2.000000000000000042e-03 4.534070000000000045e-01 -2.590681000000000060e-03 1.033509999999999991e+02 1.615110000000000127e+03
3.000000000000000062e-03 4.534369999999999790e-01 6.812030000000000862e-02 1.034275000000000091e+02 1.615130000000000109e+03
4.000000000000000083e-03 4.534740000000000437e-01 1.622052499999999953e-01 1.035484999999999900e+02 1.615164999999999964e+03
5.000000000000000104e-03 4.534690000000000110e-01 1.652075000000000071e-01 1.035434999999999945e+02 1.615164999999999964e+03
6.000000000000000125e-03 4.534299999999999997e-01 8.533949999999998481e-02 1.033810000000000002e+02 1.615125000000000000e+03
7.000000000000000146e-03 4.533945000000000336e-01 9.101000000000025736e-03 1.031620000000000061e+02 1.615079999999999927e+03
8.000000000000000167e-03 4.533519999999999772e-01 -9.320149999999993717e-02 1.028685000000000116e+02 1.615009999999999991e+03
9.000000000000001055e-03 4.532774999999999999e-01 -2.865100000000000424e-01 1.024159999999999968e+02 1.614904999999999973e+03
1.000000000000000194e-02 4.531654999999999989e-01 -5.845300000000001051e-01 1.017580000000000098e+02 1.614755000000000109e+03
1.099999999999999936e-02 4.530079999999999663e-01 -1.000970000000000137e+00 1.008447999999999922e+02 1.614534999999999854e+03
1.200000000000000025e-02 4.527930000000000010e-01 -1.552525000000000155e+00 9.961764999999999759e+01 1.614244999999999891e+03
1.300000000000000114e-02 4.525274999999999714e-01 -2.205540000000000056e+00 9.807699999999999818e+01 1.613865000000000009e+03
1.400000000000000203e-02 4.522434999999999650e-01 -2.858449999999999935e+00 9.632495000000000118e+01 1.613429999999999836e+03
1.499999999999999944e-02 4.519784999999999497e-01 -3.384834999999999816e+00 9.452709999999999013e+01 1.612960000000000036e+03
1.600000000000000033e-02 4.517584999999999518e-01 -3.691067000000000320e+00 9.283705000000000496e+01 1.612494999999999891e+03
1.700000000000000122e-02 4.515869999999999607e-01 -3.746340149999999980e+00 9.133930000000000859e+01 1.612059999999999945e+03
1.800000000000000211e-02 4.514489999999999892e-01 -3.578857499999999803e+00 9.003530000000000655e+01 1.611664999999999964e+03
1.900000000000000300e-02 4.513199999999999434e-01 -3.252036499999999997e+00 8.886214999999999975e+01 1.611285000000000082e+03
2.000000000000000042e-02 4.511770000000000502e-01 -2.835962129999999970e+00 8.772769999999999868e+01 1.610914999999999964e+03
2.100000000000000130e-02 4.510060000000000180e-01 -2.383779500000000162e+00 8.654779999999999518e+01 1.610534999999999854e+03
2.200000000000000219e-02 4.508039999999999825e-01 -1.918839999999999879e+00 8.527299999999999613e+01 1.610135000000000218e+03
2.299999999999999961e-02 4.505784999999999929e-01 -1.434704999999999897e+00 8.389975000000001160e+01 1.609710000000000036e+03
2.400000000000000050e-02 4.503429999999999933e-01 -9.068300000000000249e-01 8.246250000000000568e+01 1.609264999999999873e+03
2.500000000000000139e-02 4.501109999999999833e-01 -3.100600000000000023e-01 8.101224999999999454e+01 1.608820000000000164e+03
2.600000000000000228e-02 4.498889999999999834e-01 3.652250000000001329e-01 7.959215000000000373e+01 1.608369999999999891e+03
2.700000000000000316e-02 4.496755000000000058e-01 1.103780000000000205e+00 7.821780000000001110e+01 1.607934999999999945e+03
2.800000000000000058e-02 4.494615000000000138e-01 1.864899999999999780e+00 7.686885000000000900e+01 1.607505000000000109e+03
2.900000000000000147e-02 4.492319999999999647e-01 2.589420000000000055e+00 7.549174999999999613e+01 1.607065000000000055e+03
3.000000000000000236e-02 4.489714999999999678e-01 3.211780000000000079e+00 7.401269999999999527e+01 1.606609999999999900e+03
3.099999999999999978e-02 4.486664999999999681e-01 3.673990000000000311e+00 7.235640000000000782e+01 1.606115000000000009e+03
3.200000000000000067e-02 4.483105000000000562e-01 3.938314999999999344e+00 7.046670000000000300e+01 1.605569999999999936e+03
3.300000000000000155e-02 4.479060000000000263e-01 3.995379999999999932e+00 6.832345000000000823e+01 1.604965000000000146e+03
3.400000000000000244e-02 4.474635000000000140e-01 3.865545000000000453e+00 6.595074999999999932e+01 1.604299999999999955e+03
3.500000000000000333e-02 4.470014999999999405e-01 3.593415000000000248e+00 6.341519999999999868e+01 1.603599999999999909e+03
3.600000000000000422e-02 4.465409999999999657e-01 3.237654999999999728e+00 6.081445000000000789e+01 1.602880000000000109e+03
3.700000000000000511e-02 4.461030000000000273e-01 2.859585000000000488e+00 5.826170000000000471e+01 1.602159999999999854e+03
3.799999999999999906e-02 4.457054999999999767e-01 2.513809999999999878e+00 5.586854999999999905e+01 1.601474999999999909e+03
3.899999999999999994e-02 4.453604999999999370e-01 2.242329999999999934e+00 5.373239999999999839e+01 1.600849999999999909e+03
4.000000000000000083e-02 4.450770000000000004e-01 2.072734999999999772e+00 5.192815000000000225e+01 1.600304999999999836e+03
4.100000000000000172e-02 4.448590000000000044e-01 2.019824999999999982e+00 5.050580000000000069e+01 1.599849999999999909e+03
4.200000000000000261e-02 4.447070000000000189e-01 2.089024999999999910e+00 4.949195000000000277e+01 1.599505000000000109e+03
4.300000000000000350e-02 4.446204999999999741e-01 2.280749500000000207e+00 4.889484999999999815e+01 1.599269999999999982e+03
4.400000000000000439e-02 4.445965000000000611e-01 2.594345000000000123e+00 4.871075000000000443e+01 1.599150000000000091e+03
4.499999999999999833e-02 4.446350000000000025e-01 3.030815000000000037e+00 4.892945000000000277e+01 1.599144999999999982e+03
4.599999999999999922e-02 4.447339999999999627e-01 3.593809999999999949e+00 4.953929999999999723e+01 1.599244999999999891e+03
4.700000000000000011e-02 4.448929999999999829e-01 4.288924999999999876e+00 5.052870000000000061e+01 1.599460000000000036e+03
4.800000000000000100e-02 4.451114999999999933e-01 5.121760000000000090e+00 5.188615000000000066e+01 1.599779999999999973e+03
4.900000000000000189e-02 4.453880000000000061e-01 6.095394999999999897e+00 5.359850000000000136e+01 1.600199999999999818e+03
5.000000000000000278e-02 4.457194999999999907e-01 7.208260000000000112e+00 5.564809999999999945e+01 1.600720000000000027e+03
5.100000000000000366e-02 4.461014999999999842e-01 8.452460000000000306e+00 5.801084999999999781e+01 1.601335000000000036e+03
5.200000000000000455e-02 4.465284999999999949e-01 9.813560000000000727e+00 6.065439999999999543e+01 1.602025000000000091e+03
5.300000000000000544e-02 4.469920000000000004e-01 1.127138999999999847e+01 6.353885000000000360e+01 1.602795000000000073e+03
5.399999999999999939e-02 4.474835000000000340e-01 1.280122499999999874e+01 6.661754999999999427e+01 1.603625000000000000e+03
5.500000000000000028e-02 4.479944999999999622e-01 1.437625000000000064e+01 6.984010000000000673e+01 1.604509999999999991e+03
5.600000000000000117e-02 4.485169999999999990e-01 1.596946000000000154e+01 7.315505000000000280e+01 1.605429999999999836e+03
5.700000000000000205e-02 4.490425000000000111e-01 1.755565500000000156e+01 7.651349999999999341e+01 1.606369999999999891e+03
5.800000000000000294e-02 4.495655000000000068e-01 1.911305000000000121e+01 7.987180000000000746e+01 1.607320000000000164e+03
5.900000000000000383e-02 4.500810000000000088e-01 2.062415000000000020e+01 8.319370000000000687e+01 1.608269999999999982e+03
6.000000000000000472e-02 4.505850000000000133e-01 2.207614999999999839e+01 8.645199999999999818e+01 1.609215000000000146e+03
6.099999999999999867e-02 4.510770000000000057e-01 2.346065000000000111e+01 8.962884999999999991e+01 1.610150000000000091e+03
6.199999999999999956e-02 4.515554999999999986e-01 2.477320000000000277e+01 9.271394999999999698e+01 1.611065000000000055e+03
6.300000000000000044e-02 4.520210000000000061e-01 2.601265000000000072e+01 9.570615000000000805e+01 1.611949999999999818e+03
6.400000000000000133e-02 4.524755000000000305e-01 2.718005000000000138e+01 9.860960000000000036e+01 1.612820000000000164e+03
6.500000000000000222e-02 4.529199999999999893e-01 2.827824999999999989e+01 1.014326499999999953e+02 1.613670000000000073e+03
6.600000000000000311e-02 4.533559999999999812e-01 2.931054999999999922e+01 1.041863000000000028e+02 1.614500000000000000e+03
6.700000000000000400e-02 4.537860000000000227e-01 3.028054999999999808e+01 1.068817999999999984e+02 1.615320000000000164e+03
6.800000000000000488e-02 4.542104999999999615e-01 3.119144999999999968e+01 1.095300000000000011e+02 1.616119999999999891e+03
6.900000000000000577e-02 4.546314999999999662e-01 3.204540000000000077e+01 1.121390000000000100e+02 1.616910000000000082e+03
7.000000000000000666e-02 4.550480000000000080e-01 3.284355000000000047e+01 1.147135000000000105e+02 1.617695000000000164e+03
7.100000000000000755e-02 4.554604999999999904e-01 3.358544999999999447e+01 1.172560000000000002e+02 1.618470000000000027e+03
7.200000000000000844e-02 4.558680000000000510e-01 3.426935000000000286e+01 1.197609999999999957e+02 1.619230000000000018e+03
7.300000000000000933e-02 4.562674999999999925e-01 3.489225000000000421e+01 1.222220000000000084e+02 1.619980000000000018e+03
7.399999999999999634e-02 4.566580000000000084e-01 3.545005000000000450e+01 1.246274999999999977e+02 1.620715000000000146e+03
7.499999999999999722e-02 4.570369999999999711e-01 3.593814999999999316e+01 1.269639999999999986e+02 1.621430000000000064e+03
7.599999999999999811e-02 4.574019999999999753e-01 3.635174999999999557e+01 1.292154999999999916e+02 1.622130000000000109e+03
7.699999999999999900e-02 4.577495000000000314e-01 3.668630000000000280e+01 1.313650000000000091e+02 1.622795000000000073e+03
7.799999999999999989e-02 4.580774999999999708e-01 3.693780000000000285e+01 1.333969999999999914e+02 1.623429999999999836e+03
7.900000000000000078e-02 4.583840000000000137e-01 3.710309999999999775e+01 1.352955000000000041e+02 1.624025000000000091e+03
8.000000000000000167e-02 4.586664999999999770e-01 3.718019999999999925e+01 1.370490000000000066e+02 1.624585000000000036e+03
8.100000000000000255e-02 4.589245000000000130e-01 3.716830000000000211e+01 1.386454999999999984e+02 1.625105000000000018e+03
8.200000000000000344e-02 4.591564999999999674e-01 3.706749999999999545e+01 1.400785000000000196e+02 1.625570000000000164e+03
8.300000000000000433e-02 4.593619999999999925e-01 3.687945000000000562e+01 1.413430000000000177e+02 1.625994999999999891e+03
8.400000000000000522e-02 4.595405000000000184e-01 3.660660000000000025e+01 1.424379999999999882e+02 1.626365000000000009e+03
8.500000000000000611e-02 4.596934999999999771e-01 3.625280000000000058e+01 1.433634999999999877e+02 1.626684999999999945e+03
8.600000000000000699e-02 4.598200000000000065e-01 3.582280000000000086e+01 1.441240000000000236e+02 1.626960000000000036e+03
8.700000000000000788e-02 4.599225000000000119e-01 3.532240000000000180e+01 1.447259999999999991e+02 1.627184999999999945e+03
8.800000000000000877e-02 4.600014999999999521e-01 3.475839999999999463e+01 1.451784999999999854e+02 1.627365000000000009e+03
8.899999999999999578e-02 4.600595000000000101e-01 3.413854999999999507e+01 1.454929999999999950e+02 1.627505000000000109e+03
8.999999999999999667e-02 4.600980000000000070e-01 3.347129999999999939e+01 1.456820000000000164e+02 1.627605000000000018e+03
9.099999999999999756e-02 4.601199999999999735e-01 3.276574999999999704e+01 1.457604999999999791e+02 1.627670000000000073e+03
9.199999999999999845e-02 4.601275000000000226e-01 3.203144999999999953e+01 1.457439999999999998e+02 1.627699999999999818e+03
9.299999999999999933e-02 4.601235000000000186e-01 3.127794999999999703e+01 1.456485000000000127e+02 1.627704999999999927e+03
9.400000000000000022e-02 4.601100000000000190e-01 3.051450000000000173e+01 1.454904999999999973e+02 1.627684999999999945e+03
9.500000000000000111e-02 4.600894999999999846e-01 2.974985000000000213e+01 1.452864999999999895e+02 1.627650000000000091e+03
9.600000000000000200e-02 4.600640000000000285e-01 2.899195000000000277e+01 1.450494999999999948e+02 1.627599999999999909e+03
9.700000000000000289e-02 4.600360000000000005e-01 2.824735000000000085e+01 1.447939999999999827e+02 1.627539999999999964e+03
9.800000000000000377e-02 4.600064999999999849e-01 2.752130000000000365e+01 1.445289999999999964e+02 1.627469999999999800e+03
9.900000000000000466e-02 4.599760000000000515e-01 2.681734999999999758e+01 1.442624999999999886e+02 1.627400000000000091e+03
1.000000000000000056e-01 4.599455000000000071e-01 2.613745000000000118e+01 1.440004999999999882e+02 1.627329999999999927e+03
1.010000000000000064e-01 4.599155000000000326e-01 2.548199999999999932e+01 1.437445000000000164e+02 1.627260000000000218e+03
1.020000000000000073e-01 4.598844999999999739e-01 2.484980000000000189e+01 1.434939999999999998e+02 1.627180000000000064e+03
1.030000000000000082e-01 4.598529999999999562e-01 2.423855000000000004e+01 1.432464999999999975e+02 1.627110000000000127e+03
1.040000000000000091e-01 4.598200000000000065e-01 2.364480000000000004e+01 1.429964999999999975e+02 1.627030000000000200e+03
1.050000000000000100e-01 4.597839999999999705e-01 2.306445000000000078e+01 1.427379999999999995e+02 1.626954999999999927e+03
1.059999999999999970e-01 4.597434999999999716e-01 2.249275000000000091e+01 1.424635000000000105e+02 1.626869999999999891e+03
1.069999999999999979e-01 4.596974999999999811e-01 2.192500000000000071e+01 1.421650000000000205e+02 1.626779999999999973e+03
1.079999999999999988e-01 4.596459999999999990e-01 2.135649999999999693e+01 1.418360000000000127e+02 1.626684999999999945e+03
1.089999999999999997e-01 4.595869999999999678e-01 2.078294999999999959e+01 1.414689999999999941e+02 1.626574999999999818e+03
1.100000000000000006e-01 4.595200000000000395e-01 2.020054999999999978e+01 1.410589999999999975e+02 1.626454999999999927e+03
1.110000000000000014e-01 4.594440000000000190e-01 1.960620000000000118e+01 1.406009999999999991e+02 1.626324999999999818e+03
1.120000000000000023e-01 4.593599999999999905e-01 1.899774999999999991e+01 1.400925000000000011e+02 1.626180000000000064e+03
1.130000000000000032e-01 4.592669999999999808e-01 1.837415000000000020e+01 1.395324999999999989e+02 1.626025000000000091e+03
1.140000000000000041e-01 4.591660000000000186e-01 1.773525000000000063e+01 1.389239999999999782e+02 1.625849999999999909e+03
1.150000000000000050e-01 4.590579999999999661e-01 1.708214999999999861e+01 1.382690000000000055e+02 1.625664999999999964e+03
1.160000000000000059e-01 4.589429999999999898e-01 1.641694999999999993e+01 1.375734999999999957e+02 1.625470000000000027e+03
1.170000000000000068e-01 4.588240000000000096e-01 1.574269999999999925e+01 1.368449999999999989e+02 1.625259999999999991e+03
1.180000000000000077e-01 4.587015000000000398e-01 1.506360000000000099e+01 1.360919999999999845e+02 1.625045000000000073e+03
1.190000000000000085e-01 4.585770000000000124e-01 1.438445000000000107e+01 1.353249999999999886e+02 1.624820000000000164e+03
1.200000000000000094e-01 4.584534999999999583e-01 1.371054999999999957e+01 1.345554999999999950e+02 1.624599999999999909e+03
1.209999999999999964e-01 4.583315000000000028e-01 1.304776500000000006e+01 1.337950000000000159e+02 1.624375000000000000e+03
1.219999999999999973e-01 4.582140000000000102e-01 1.240199499999999944e+01 1.330554999999999950e+02 1.624160000000000082e+03
1.229999999999999982e-01 4.581030000000000380e-01 1.177901999999999916e+01 1.323485000000000014e+02 1.623950000000000045e+03
1.239999999999999991e-01 4.579995000000000038e-01 1.118447499999999906e+01 1.316850000000000023e+02 1.623750000000000000e+03
1.250000000000000000e-01 4.579050000000000065e-01 1.062327499999999958e+01 1.310745000000000005e+02 1.623559999999999945e+03
1.260000000000000009e-01 4.578210000000000335e-01 1.009976999999999947e+01 1.305249999999999773e+02 1.623389999999999873e+03
1.270000000000000018e-01 4.577474999999999739e-01 9.617319999999999425e+00 1.300430000000000064e+02 1.623239999999999782e+03
1.280000000000000027e-01 4.576864999999999961e-01 9.178354999999999819e+00 1.296330000000000098e+02 1.623105000000000018e+03
1.290000000000000036e-01 4.576369999999999605e-01 8.784265000000001322e+00 1.292965000000000089e+02 1.622989999999999782e+03
1.300000000000000044e-01 4.576000000000000068e-01 8.435344999999999871e+00 1.290349999999999966e+02 1.622894999999999982e+03
1.310000000000000053e-01 4.575730000000000075e-01 8.130815000000000126e+00 1.288449999999999989e+02 1.622820000000000164e+03
1.320000000000000062e-01 4.575575000000000059e-01 7.869019999999999015e+00 1.287235000000000014e+02 1.622769999999999982e+03
1.330000000000000071e-01 4.575514999999999999e-01 7.647439999999999571e+00 1.286639999999999873e+02 1.622734999999999900e+03
1.340000000000000080e-01 4.575529999999999875e-01 7.462889999999999802e+00 1.286610000000000014e+02 1.622715000000000146e+03
1.350000000000000089e-01 4.575620000000000243e-01 7.311700000000000088e+00 1.287049999999999841e+02 1.622710000000000036e+03
1.360000000000000098e-01 4.575764999999999971e-01 7.189890000000000114e+00 1.287900000000000205e+02 1.622720000000000027e+03
1.370000000000000107e-01 4.575960000000000027e-01 7.093344999999999345e+00 1.289060000000000059e+02 1.622740000000000009e+03
1.380000000000000115e-01 4.576179999999999692e-01 7.017994999999999983e+00 1.290455000000000041e+02 1.622769999999999982e+03
1.390000000000000124e-01 4.576425000000000076e-01 6.959925000000000139e+00 1.292005000000000052e+02 1.622805000000000064e+03
1.400000000000000133e-01 4.576675000000000049e-01 6.915504999999999569e+00 1.293645000000000209e+02 1.622840000000000146e+03
1.410000000000000142e-01 4.576925000000000021e-01 6.881449999999999179e+00 1.295314999999999941e+02 1.622884999999999991e+03
1.420000000000000151e-01 4.577174999999999994e-01 6.854890000000000150e+00 1.296965000000000146e+02 1.622924999999999955e+03
1.430000000000000160e-01 4.577415000000000234e-01 6.833375000000000199e+00 1.298550000000000182e+02 1.622965000000000146e+03
1.440000000000000169e-01 4.577640000000000597e-01 6.814875000000000682e+00 1.300060000000000002e+02 1.623009999999999991e+03
1.450000000000000178e-01 4.577849999999999975e-01 6.797769999999999868e+00 1.301460000000000150e+02 1.623045000000000073e+03
1.459999999999999909e-01 4.578039999999999887e-01 6.780815000000000481e+00 1.302750000000000057e+02 1.623085000000000036e+03
1.469999999999999918e-01 4.578220000000000067e-01 6.763109999999999289e+00 1.303924999999999841e+02 1.623115000000000009e+03
1.479999999999999927e-01 4.578379999999999672e-01 6.744044999999999845e+00 1.304990000000000236e+02 1.623144999999999982e+03
1.489999999999999936e-01 4.578524999999999956e-01 6.723279999999999923e+00 1.305944999999999823e+02 1.623179999999999836e+03
1.499999999999999944e-01 4.578659999999999952e-01 6.700689999999999813e+00 1.306809999999999832e+02 1.623204999999999927e+03
1.509999999999999953e-01 4.578780000000000072e-01 6.676305000000000156e+00 1.307595000000000027e+02 1.623230000000000018e+03
1.519999999999999962e-01 4.578895000000000048e-01 6.650305000000000355e+00 1.308305000000000007e+02 1.623250000000000000e+03
1.529999999999999971e-01 4.578999999999999737e-01 6.622944999999999638e+00 1.308965000000000032e+02 1.623269999999999982e+03
1.539999999999999980e-01 4.579104999999999981e-01 6.594520000000000159e+00 1.309579999999999984e+02 1.623289999999999964e+03
1.549999999999999989e-01 4.579199999999999937e-01 6.565330000000000332e+00 1.310159999999999911e+02 1.623309999999999945e+03
1.559999999999999998e-01 4.579290000000000305e-01 6.535639999999999894e+00 1.310710000000000264e+02 1.623329999999999927e+03
1.570000000000000007e-01 4.579385000000000261e-01 6.505644999999999456e+00 1.311239999999999952e+02 1.623345000000000027e+03
1.580000000000000016e-01 4.579475000000000073e-01 6.475455000000000183e+00 1.311745000000000232e+02 1.623360000000000127e+03
1.590000000000000024e-01 4.579560000000000297e-01 6.445064999999999600e+00 1.312230000000000132e+02 1.623380000000000109e+03
