# t [s], A [cm^2], U [cm/s], P [cPa], c [cm/s]
1.000000000000000021e-03 1.964609999999999967e-01 2.034180000000000155e-01 9.569839999999999236e+01 2.121590000000000146e+03
2.000000000000000042e-03 1.964155000000000206e-01 1.575486000000000164e+00 9.272724999999999795e+01 2.121239999999999782e+03
3.000000000000000062e-03 1.962845000000000006e-01 3.329163499999999942e+00 8.845914999999999395e+01 2.120284999999999854e+03
4.000000000000000083e-03 1.961009999999999975e-01 5.327846599999999988e+00 8.361289999999999623e+01 2.118969999999999800e+03
5.000000000000000104e-03 1.959015000000000062e-01 7.505969999999999587e+00 7.909180000000000632e+01 2.117554999999999836e+03
6.000000000000000125e-03 1.957079999999999931e-01 9.706879999999999953e+00 7.530559999999999832e+01 2.116199999999999818e+03
7.000000000000000146e-03 1.955264999999999920e-01 1.170537999999999990e+01 7.208899999999999864e+01 2.114949999999999818e+03
8.000000000000000167e-03 1.953600000000000059e-01 1.338529999999999909e+01 6.918715000000000259e+01 2.113824999999999818e+03
9.000000000000001055e-03 1.952115000000000100e-01 1.477270000000000039e+01 6.663124999999999432e+01 2.112845000000000255e+03
1.000000000000000194e-02 1.950874999999999970e-01 1.590895000000000081e+01 6.452285000000000537e+01 2.112029999999999745e+03
1.099999999999999936e-02 1.949859999999999927e-01 1.681510000000000105e+01 6.286610000000000298e+01 2.111369999999999891e+03
1.200000000000000025e-02 1.949065000000000103e-01 1.750985000000000014e+01 6.161339999999999861e+01 2.110859999999999673e+03
1.300000000000000114e-02 1.948445000000000038e-01 1.799879999999999924e+01 6.066830000000000211e+01 2.110475000000000364e+03
1.400000000000000203e-02 1.947955000000000103e-01 1.828359999999999985e+01 5.989000000000000057e+01 2.110170000000000073e+03
1.499999999999999944e-02 1.947554999999999981e-01 1.841219999999999857e+01 5.922299999999999898e+01 2.109934999999999945e+03
1.600000000000000033e-02 1.947280000000000122e-01 1.850835000000000008e+01 5.883429999999999893e+01 2.109774999999999636e+03
1.700000000000000122e-02 1.947230000000000072e-01 1.873055000000000092e+01 5.907359999999999900e+01 2.109750000000000000e+03
1.800000000000000211e-02 1.947495000000000198e-01 1.918915000000000148e+01 6.025655000000000427e+01 2.109930000000000291e+03
1.900000000000000300e-02 1.948110000000000119e-01 1.988349999999999795e+01 6.243410000000000082e+01 2.110329999999999927e+03
2.000000000000000042e-02 1.949015000000000053e-01 2.069825000000000159e+01 6.530535000000000423e+01 2.110929999999999836e+03
2.100000000000000130e-02 1.950054999999999983e-01 2.145354999999999990e+01 6.831069999999999709e+01 2.111625000000000000e+03
2.200000000000000219e-02 1.951039999999999996e-01 2.197755000000000081e+01 7.083929999999999438e+01 2.112289999999999964e+03
2.299999999999999961e-02 1.951815000000000078e-01 2.216694999999999993e+01 7.244300000000001205e+01 2.112829999999999927e+03
2.400000000000000050e-02 1.952274999999999983e-01 2.201420000000000243e+01 7.296885000000000332e+01 2.113170000000000073e+03
2.500000000000000139e-02 1.952429999999999999e-01 2.159590000000000032e+01 7.257034999999999059e+01 2.113289999999999964e+03
2.600000000000000228e-02 1.952340000000000186e-01 2.103239999999999910e+01 7.160745000000000005e+01 2.113250000000000000e+03
2.700000000000000316e-02 1.952115000000000100e-01 2.043829999999999814e+01 7.048874999999999602e+01 2.113114999999999782e+03
2.800000000000000058e-02 1.951855000000000118e-01 1.988349999999999795e+01 6.952244999999999209e+01 2.112940000000000055e+03
2.900000000000000147e-02 1.951630000000000031e-01 1.937750000000000128e+01 6.882835000000000036e+01 2.112784999999999854e+03
3.000000000000000236e-02 1.951435000000000253e-01 1.887785000000000224e+01 6.833240000000000691e+01 2.112659999999999854e+03
3.099999999999999978e-02 1.951239999999999919e-01 1.831694999999999851e+01 6.783125000000001137e+01 2.112530000000000200e+03
3.200000000000000067e-02 1.950985000000000080e-01 1.763540000000000063e+01 6.709624999999999773e+01 2.112360000000000127e+03
3.300000000000000155e-02 1.950614999999999988e-01 1.681085000000000207e+01 6.597854999999999848e+01 2.112119999999999891e+03
3.400000000000000244e-02 1.950125000000000053e-01 1.587440000000000140e+01 6.448250000000000171e+01 2.111805000000000291e+03
3.500000000000000333e-02 1.949535000000000018e-01 1.490789999999999793e+01 6.278325000000000244e+01 2.111420000000000073e+03
3.600000000000000422e-02 1.948940000000000117e-01 1.402424999999999855e+01 6.118489999999999895e+01 2.111019999999999982e+03
3.700000000000000511e-02 1.948440000000000172e-01 1.333699999999999974e+01 6.003369999999999607e+01 2.110679999999999836e+03
3.799999999999999906e-02 1.948139999999999872e-01 1.292960000000000065e+01 5.961679999999999779e+01 2.110470000000000255e+03
3.899999999999999994e-02 1.948104999999999976e-01 1.283384999999999998e+01 6.007999999999999829e+01 2.110430000000000291e+03
4.000000000000000083e-02 1.948365000000000236e-01 1.302329999999999899e+01 6.138804999999999978e+01 2.110579999999999927e+03
4.100000000000000172e-02 1.948884999999999923e-01 1.342040000000000077e+01 6.333389999999999986e+01 2.110909999999999854e+03
4.200000000000000261e-02 1.949579999999999924e-01 1.391539999999999999e+01 6.558894999999999698e+01 2.111355000000000018e+03
4.300000000000000350e-02 1.950330000000000119e-01 1.438870000000000005e+01 6.777504999999999313e+01 2.111850000000000364e+03
4.400000000000000439e-02 1.951025000000000120e-01 1.473179999999999978e+01 6.953835000000000832e+01 2.112314999999999600e+03
4.499999999999999833e-02 1.951549999999999951e-01 1.486325000000000074e+01 7.060790000000000077e+01 2.112675000000000182e+03
4.599999999999999922e-02 1.951835000000000098e-01 1.473580000000000112e+01 7.082904999999999518e+01 2.112875000000000000e+03
4.700000000000000011e-02 1.951829999999999954e-01 1.433704999999999963e+01 7.016915000000000191e+01 2.112885000000000218e+03
4.800000000000000100e-02 1.951525000000000065e-01 1.368290000000000006e+01 6.869960000000000377e+01 2.112699999999999818e+03
4.900000000000000189e-02 1.950954999999999773e-01 1.280835000000000079e+01 6.656219999999999004e+01 2.112329999999999927e+03
5.000000000000000278e-02 1.950149999999999939e-01 1.175778000000000034e+01 6.393159999999999599e+01 2.111805000000000291e+03
5.100000000000000366e-02 1.949174999999999935e-01 1.057667000000000002e+01 6.098219999999999885e+01 2.111164999999999964e+03
5.200000000000000455e-02 1.948084999999999956e-01 9.307190000000000296e+00 5.786605000000000132e+01 2.110439999999999600e+03
5.300000000000000544e-02 1.946920000000000039e-01 7.986855000000000260e+00 5.470454999999999757e+01 2.109670000000000073e+03
5.399999999999999939e-02 1.945720000000000227e-01 6.649474999999999802e+00 5.159035000000000082e+01 2.108869999999999891e+03
5.500000000000000028e-02 1.944535000000000013e-01 5.327934999999999199e+00 4.859765000000000157e+01 2.108074999999999818e+03
5.600000000000000117e-02 1.943384999999999974e-01 4.056687500000000668e+00 4.579380000000000450e+01 2.107305000000000291e+03
5.700000000000000205e-02 1.942304999999999726e-01 2.873432919999999946e+00 4.325000000000000000e+01 2.106579999999999927e+03
5.800000000000000294e-02 1.941319999999999990e-01 1.819328999999999752e+00 4.104670000000000130e+01 2.105914999999999964e+03
5.900000000000000383e-02 1.940474999999999839e-01 9.375450000000000728e-01 3.927349999999999852e+01 2.105340000000000146e+03
6.000000000000000472e-02 1.939799999999999858e-01 2.706049999999999844e-01 3.802414999999999878e+01 2.104880000000000109e+03
6.099999999999999867e-02 1.939330000000000220e-01 -1.430289999999999617e-01 3.738739999999999952e+01 2.104550000000000182e+03
6.199999999999999956e-02 1.939099999999999990e-01 -2.723894000000000037e-01 3.743710000000000093e+01 2.104380000000000109e+03
6.300000000000000044e-02 1.939135000000000164e-01 -9.683850000000002178e-02 3.822299999999999898e+01 2.104385000000000218e+03
6.400000000000000133e-02 1.939454999999999929e-01 3.920669999999999988e-01 3.976399999999999579e+01 2.104574999999999818e+03
6.500000000000000222e-02 1.940054999999999974e-01 1.189915000000000056e+00 4.204579999999999984e+01 2.104954999999999927e+03
6.600000000000000311e-02 1.940935000000000021e-01 2.279925499999999605e+00 4.502114999999999867e+01 2.105524999999999636e+03
6.700000000000000400e-02 1.942085000000000061e-01 3.634351000000000109e+00 4.861419999999999675e+01 2.106265000000000327e+03
6.800000000000000488e-02 1.943460000000000187e-01 5.216544999999999987e+00 5.272659999999999769e+01 2.107170000000000073e+03
6.900000000000000577e-02 1.945029999999999815e-01 6.983435000000000059e+00 5.724490000000000123e+01 2.108204999999999927e+03
7.000000000000000666e-02 1.946764999999999746e-01 8.888284999999999769e+00 6.204865000000000208e+01 2.109345000000000255e+03
7.100000000000000755e-02 1.948604999999999920e-01 1.088320000000000043e+01 6.701845000000000141e+01 2.110569999999999709e+03
7.200000000000000844e-02 1.950520000000000032e-01 1.292203500000000105e+01 7.204255000000000564e+01 2.111849999999999909e+03
7.300000000000000933e-02 1.952460000000000029e-01 1.496255000000000024e+01 7.702385000000001014e+01 2.113154999999999745e+03
7.399999999999999634e-02 1.954400000000000026e-01 1.696855000000000047e+01 8.188450000000000273e+01 2.114454999999999927e+03
7.499999999999999722e-02 1.956299999999999983e-01 1.891144999999999854e+01 8.656954999999999245e+01 2.115739999999999782e+03
7.599999999999999811e-02 1.958155000000000034e-01 2.077074999999999960e+01 9.104785000000001105e+01 2.116989999999999782e+03
7.699999999999999900e-02 1.959934999999999872e-01 2.253464999999999918e+01 9.531180000000000518e+01 2.118204999999999927e+03
7.799999999999999989e-02 1.961654999999999927e-01 2.419885000000000019e+01 9.937354999999999450e+01 2.119375000000000000e+03
7.900000000000000078e-02 1.963309999999999778e-01 2.576539999999999964e+01 1.032614999999999981e+02 2.120505000000000109e+03
8.000000000000000167e-02 1.964905000000000124e-01 2.724139999999999873e+01 1.070134999999999934e+02 2.121595000000000255e+03
8.100000000000000255e-02 1.966465000000000019e-01 2.863660000000000139e+01 1.106715000000000089e+02 2.122659999999999854e+03
8.200000000000000344e-02 1.967984999999999873e-01 2.996189999999999998e+01 1.142754999999999939e+02 2.123699999999999818e+03
8.300000000000000433e-02 1.969490000000000129e-01 3.122764999999999702e+01 1.178590000000000089e+02 2.124730000000000018e+03
8.400000000000000522e-02 1.970989999999999964e-01 3.244249999999999545e+01 1.214449999999999932e+02 2.125755000000000109e+03
8.500000000000000611e-02 1.972484999999999933e-01 3.361249999999999716e+01 1.250469999999999970e+02 2.126775000000000091e+03
8.600000000000000699e-02 1.973984999999999768e-01 3.474065000000000225e+01 1.286655000000000086e+02 2.127804999999999836e+03
8.700000000000000788e-02 1.975480000000000014e-01 3.582704999999999984e+01 1.322884999999999991e+02 2.128835000000000036e+03
8.800000000000000877e-02 1.976974999999999982e-01 3.686870000000000402e+01 1.358985000000000127e+02 2.129859999999999673e+03
8.899999999999999578e-02 1.978464999999999807e-01 3.786025000000000063e+01 1.394669999999999845e+02 2.130880000000000109e+03
8.999999999999999667e-02 1.979930000000000023e-01 3.879420000000000357e+01 1.429625000000000057e+02 2.131885000000000218e+03
9.099999999999999756e-02 1.981360000000000066e-01 3.966140000000000043e+01 1.463505000000000109e+02 2.132864999999999782e+03
9.199999999999999845e-02 1.982745000000000202e-01 4.045159999999999911e+01 1.495935000000000059e+02 2.133819999999999709e+03
9.299999999999999933e-02 1.984070000000000000e-01 4.115415000000000134e+01 1.526564999999999941e+02 2.134735000000000127e+03
9.400000000000000022e-02 1.985325000000000006e-01 4.175839999999999463e+01 1.555049999999999955e+02 2.135600000000000364e+03
9.500000000000000111e-02 1.986495000000000066e-01 4.225404999999999944e+01 1.581069999999999993e+02 2.136409999999999854e+03
9.600000000000000200e-02 1.987565000000000026e-01 4.263215000000000288e+01 1.604364999999999952e+02 2.137149999999999636e+03
9.700000000000000289e-02 1.988524999999999876e-01 4.288535000000000252e+01 1.624720000000000084e+02 2.137819999999999709e+03
9.800000000000000377e-02 1.989374999999999893e-01 4.300860000000000127e+01 1.641970000000000027e+02 2.138409999999999854e+03
9.900000000000000466e-02 1.990100000000000202e-01 4.299949999999999761e+01 1.656045000000000016e+02 2.138920000000000073e+03
1.000000000000000056e-01 1.990699999999999970e-01 4.285875000000000057e+01 1.666945000000000050e+02 2.139340000000000146e+03
1.010000000000000064e-01 1.991175000000000028e-01 4.259019999999999584e+01 1.674755000000000109e+02 2.139685000000000400e+03
1.020000000000000073e-01 1.991534999999999833e-01 4.220100000000000051e+01 1.679649999999999750e+02 2.139934999999999945e+03
1.030000000000000082e-01 1.991779999999999939e-01 4.170125000000000171e+01 1.681870000000000118e+02 2.140114999999999782e+03
1.040000000000000091e-01 1.991914999999999936e-01 4.110360000000000014e+01 1.681715000000000089e+02 2.140224999999999909e+03
1.050000000000000100e-01 1.991964999999999986e-01 4.042279999999999518e+01 1.679550000000000125e+02 2.140260000000000218e+03
1.059999999999999970e-01 1.991930000000000089e-01 3.967484999999999928e+01 1.675734999999999957e+02 2.140244999999999891e+03
1.069999999999999979e-01 1.991829999999999989e-01 3.887655000000000172e+01 1.670679999999999836e+02 2.140184999999999945e+03
1.079999999999999988e-01 1.991680000000000117e-01 3.804439999999999600e+01 1.664755000000000109e+02 2.140090000000000146e+03
1.089999999999999997e-01 1.991485000000000061e-01 3.719450000000000500e+01 1.658324999999999818e+02 2.139960000000000036e+03
1.100000000000000006e-01 1.991275000000000128e-01 3.634130000000000393e+01 1.651689999999999827e+02 2.139820000000000164e+03
1.110000000000000014e-01 1.991050000000000042e-01 3.549765000000000015e+01 1.645130000000000052e+02 2.139670000000000073e+03
1.120000000000000023e-01 1.990819999999999812e-01 3.467405000000000115e+01 1.638840000000000146e+02 2.139505000000000109e+03
1.130000000000000032e-01 1.990595000000000003e-01 3.387865000000000038e+01 1.632975000000000136e+02 2.139355000000000018e+03
1.140000000000000041e-01 1.990379999999999927e-01 3.311684999999999945e+01 1.627604999999999791e+02 2.139204999999999927e+03
1.150000000000000050e-01 1.990180000000000005e-01 3.239140000000000441e+01 1.622750000000000057e+02 2.139065000000000055e+03
1.160000000000000059e-01 1.989994999999999958e-01 3.170210000000000150e+01 1.618360000000000127e+02 2.138939999999999600e+03
1.170000000000000068e-01 1.989825000000000066e-01 3.104664999999999964e+01 1.614334999999999809e+02 2.138815000000000055e+03
1.180000000000000077e-01 1.989660000000000040e-01 3.042014999999999958e+01 1.610514999999999759e+02 2.138699999999999818e+03
1.190000000000000085e-01 1.989505000000000023e-01 2.981599999999999895e+01 1.606725000000000136e+02 2.138590000000000146e+03
1.200000000000000094e-01 1.989339999999999997e-01 2.922625000000000028e+01 1.602744999999999891e+02 2.138474999999999909e+03
1.209999999999999964e-01 1.989170000000000105e-01 2.864200000000000301e+01 1.598344999999999914e+02 2.138349999999999909e+03
1.219999999999999973e-01 1.988975000000000048e-01 2.805409999999999826e+01 1.593294999999999959e+02 2.138220000000000255e+03
1.229999999999999982e-01 1.988754999999999828e-01 2.745354999999999990e+01 1.587395000000000209e+02 2.138069999999999709e+03
1.239999999999999991e-01 1.988510000000000000e-01 2.683245000000000147e+01 1.580455000000000041e+02 2.137900000000000091e+03
1.250000000000000000e-01 1.988210000000000255e-01 2.618390000000000128e+01 1.572334999999999923e+02 2.137694999999999709e+03
1.260000000000000009e-01 1.987875000000000059e-01 2.550309999999999988e+01 1.562930000000000064e+02 2.137470000000000255e+03
1.270000000000000018e-01 1.987484999999999946e-01 2.478715000000000046e+01 1.552224999999999966e+02 2.137204999999999927e+03
1.280000000000000027e-01 1.987054999999999794e-01 2.403555000000000064e+01 1.540229999999999961e+02 2.136904999999999745e+03
1.290000000000000036e-01 1.986570000000000003e-01 2.325029999999999930e+01 1.527034999999999911e+02 2.136579999999999927e+03
1.300000000000000044e-01 1.986040000000000028e-01 2.243585000000000207e+01 1.512800000000000011e+02 2.136220000000000255e+03
1.310000000000000053e-01 1.985474999999999879e-01 2.159875000000000256e+01 1.497704999999999984e+02 2.135829999999999927e+03
1.320000000000000062e-01 1.984874999999999834e-01 2.074770000000000181e+01 1.482015000000000100e+02 2.135425000000000182e+03
1.330000000000000071e-01 1.984255000000000047e-01 1.989280000000000115e+01 1.466005000000000109e+02 2.135000000000000000e+03
1.340000000000000080e-01 1.983624999999999972e-01 1.904540000000000077e+01 1.449970000000000141e+02 2.134565000000000055e+03
1.350000000000000089e-01 1.982990000000000030e-01 1.821710000000000207e+01 1.434234999999999900e+02 2.134140000000000327e+03
1.360000000000000098e-01 1.982369999999999965e-01 1.741969999999999885e+01 1.419085000000000036e+02 2.133710000000000036e+03
1.370000000000000107e-01 1.981769999999999921e-01 1.666414999999999935e+01 1.404800000000000182e+02 2.133300000000000182e+03
1.380000000000000115e-01 1.981204999999999772e-01 1.596039999999999992e+01 1.391620000000000061e+02 2.132909999999999854e+03
1.390000000000000124e-01 1.980679999999999941e-01 1.531675000000000075e+01 1.379739999999999895e+02 2.132550000000000182e+03
1.400000000000000133e-01 1.980204999999999882e-01 1.473959999999999937e+01 1.369304999999999950e+02 2.132215000000000146e+03
1.410000000000000142e-01 1.979779999999999873e-01 1.423329999999999984e+01 1.360395000000000039e+02 2.131930000000000291e+03
1.420000000000000151e-01 1.979420000000000068e-01 1.379984999999999928e+01 1.353045000000000186e+02 2.131675000000000182e+03
1.430000000000000160e-01 1.979115000000000180e-01 1.343939999999999912e+01 1.347230000000000132e+02 2.131460000000000036e+03
1.440000000000000169e-01 1.978864999999999930e-01 1.314974999999999916e+01 1.342880000000000109e+02 2.131279999999999745e+03
1.450000000000000178e-01 1.978675000000000017e-01 1.292719999999999914e+01 1.339884999999999877e+02 2.131145000000000437e+03
1.459999999999999909e-01 1.978535000000000155e-01 1.276634999999999920e+01 1.338100000000000023e+02 2.131039999999999964e+03
1.469999999999999918e-01 1.978440000000000198e-01 1.266065000000000040e+01 1.337365000000000066e+02 2.130974999999999909e+03
1.479999999999999927e-01 1.978385000000000005e-01 1.260285000000000011e+01 1.337495000000000118e+02 2.130930000000000291e+03
1.489999999999999936e-01 1.978364999999999985e-01 1.258494999999999919e+01 1.338310000000000173e+02 2.130914999999999964e+03
1.499999999999999944e-01 1.978374999999999995e-01 1.259895000000000032e+01 1.339635000000000105e+02 2.130914999999999964e+03
1.509999999999999953e-01 1.978405000000000025e-01 1.263684999999999903e+01 1.341285000000000025e+02 2.130929999999999836e+03
1.519999999999999962e-01 1.978444999999999787e-01 1.269100000000000072e+01 1.343114999999999952e+02 2.130954999999999927e+03
1.529999999999999971e-01 1.978499999999999981e-01 1.275435000000000052e+01 1.344979999999999905e+02 2.130989999999999782e+03
1.539999999999999980e-01 1.978560000000000041e-01 1.282055000000000078e+01 1.346750000000000114e+02 2.131029999999999745e+03
1.549999999999999989e-01 1.978610000000000091e-01 1.288414999999999999e+01 1.348340000000000032e+02 2.131065000000000055e+03
1.559999999999999998e-01 1.978665000000000007e-01 1.294069999999999965e+01 1.349675000000000011e+02 2.131099999999999909e+03
1.570000000000000007e-01 1.978710000000000191e-01 1.298679999999999879e+01 1.350699999999999932e+02 2.131130000000000109e+03
1.580000000000000016e-01 1.978735000000000077e-01 1.301999999999999957e+01 1.351394999999999982e+02 2.131144999999999982e+03
1.590000000000000024e-01 1.978759999999999963e-01 1.303904999999999959e+01 1.351754999999999995e+02 2.131164999999999964e+03
