# t [s], A [cm^2], U [cm/s], P [cPa], c [cm/s]
1.000000000000000021e-03 1.456655000000000033e-01 3.402975000000000305e-01 1.035504999999999995e+02 1.941934999999999945e+03
2.000000000000000042e-03 1.456304999999999961e-01 1.983800500000000078e+00 1.002246499999999969e+02 1.941585000000000036e+03
3.000000000000000062e-03 1.455219999999999847e-01 3.995045000000000179e+00 9.575454999999999472e+01 1.940550000000000182e+03
4.000000000000000083e-03 1.453669999999999962e-01 6.231602999999999781e+00 9.084819999999999141e+01 1.939095000000000027e+03
5.000000000000000104e-03 1.451939999999999897e-01 8.625175000000000480e+00 8.635560000000000969e+01 1.937480000000000018e+03
6.000000000000000125e-03 1.450224999999999986e-01 1.102572500000000133e+01 8.262855000000000416e+01 1.935904999999999973e+03
7.000000000000000146e-03 1.448599999999999888e-01 1.323395499999999991e+01 7.951539999999999964e+01 1.934429999999999836e+03
8.000000000000000167e-03 1.447090000000000043e-01 1.513616999999999990e+01 7.675880000000000791e+01 1.933085000000000036e+03
9.000000000000001055e-03 1.445730000000000071e-01 1.674329999999999785e+01 7.432620000000000005e+01 1.931884999999999991e+03
1.000000000000000194e-02 1.444555000000000144e-01 1.809495000000000076e+01 7.229200000000000159e+01 1.930865000000000009e+03
1.099999999999999936e-02 1.443559999999999843e-01 1.921034999999999826e+01 7.066084999999999638e+01 1.930009999999999991e+03
1.200000000000000025e-02 1.442749999999999866e-01 2.010365000000000180e+01 6.938460000000000605e+01 1.929325000000000045e+03
1.300000000000000114e-02 1.442104999999999915e-01 2.078715000000000046e+01 6.839744999999999209e+01 1.928775000000000091e+03
1.400000000000000203e-02 1.441584999999999950e-01 2.126764999999999972e+01 6.760890000000000555e+01 1.928349999999999909e+03
1.499999999999999944e-02 1.441159999999999941e-01 2.156909999999999883e+01 6.694684999999999775e+01 1.928009999999999991e+03
1.600000000000000033e-02 1.440825000000000022e-01 2.176285000000000025e+01 6.645380000000000109e+01 1.927750000000000000e+03
1.700000000000000122e-02 1.440624999999999822e-01 2.196459999999999724e+01 6.632444999999999879e+01 1.927599999999999909e+03
1.800000000000000211e-02 1.440604999999999802e-01 2.228989999999999938e+01 6.682095000000001050e+01 1.927595000000000027e+03
1.900000000000000300e-02 1.440819999999999879e-01 2.279950000000000188e+01 6.811514999999999986e+01 1.927795000000000073e+03
2.000000000000000042e-02 1.441275000000000195e-01 2.346884999999999977e+01 7.016389999999999816e+01 1.928195000000000164e+03
2.100000000000000130e-02 1.441939999999999888e-01 2.419675000000000153e+01 7.268795000000000073e+01 1.928769999999999982e+03
2.200000000000000219e-02 1.442700000000000093e-01 2.484434999999999860e+01 7.525575000000000614e+01 1.929444999999999936e+03
2.299999999999999961e-02 1.443450000000000011e-01 2.528340000000000032e+01 7.742310000000000514e+01 1.930110000000000127e+03
2.400000000000000050e-02 1.444075000000000220e-01 2.543560000000000088e+01 7.886735000000000184e+01 1.930670000000000073e+03
2.500000000000000139e-02 1.444515000000000104e-01 2.529050000000000153e+01 7.946944999999999482e+01 1.931079999999999927e+03
2.600000000000000228e-02 1.444745000000000057e-01 2.489894999999999925e+01 7.932169999999999277e+01 1.931304999999999836e+03
2.700000000000000316e-02 1.444794999999999829e-01 2.434799999999999898e+01 7.866750000000000398e+01 1.931369999999999891e+03
2.800000000000000058e-02 1.444715000000000027e-01 2.372860000000000014e+01 7.780294999999999561e+01 1.931315000000000055e+03
2.900000000000000147e-02 1.444584999999999897e-01 2.310750000000000171e+01 7.697829999999999018e+01 1.931210000000000036e+03
3.000000000000000236e-02 1.444435000000000024e-01 2.251295000000000002e+01 7.633150000000000546e+01 1.931085000000000036e+03
3.099999999999999978e-02 1.444310000000000038e-01 2.193515000000000015e+01 7.587094999999999345e+01 1.930974999999999909e+03
3.200000000000000067e-02 1.444194999999999784e-01 2.133970000000000056e+01 7.550199999999999534e+01 1.930875000000000000e+03
3.300000000000000155e-02 1.444064999999999932e-01 2.068690000000000140e+01 7.508359999999998990e+01 1.930769999999999982e+03
3.400000000000000244e-02 1.443905000000000050e-01 1.995100000000000051e+01 7.449174999999999613e+01 1.930630000000000109e+03
3.500000000000000333e-02 1.443685000000000107e-01 1.913439999999999941e+01 7.367239999999999611e+01 1.930444999999999936e+03
3.600000000000000422e-02 1.443405000000000105e-01 1.827155000000000129e+01 7.266875000000000284e+01 1.930204999999999927e+03
3.700000000000000511e-02 1.443094999999999795e-01 1.742445000000000022e+01 7.161754999999999427e+01 1.929940000000000055e+03
3.799999999999999906e-02 1.442785000000000040e-01 1.666874999999999929e+01 7.071600000000000819e+01 1.929670000000000073e+03
3.899999999999999994e-02 1.442539999999999933e-01 1.607574999999999932e+01 7.017074999999999818e+01 1.929454999999999927e+03
4.000000000000000083e-02 1.442414999999999947e-01 1.569565000000000055e+01 7.014334999999999809e+01 1.929335000000000036e+03
4.100000000000000172e-02 1.442435000000000245e-01 1.554574999999999818e+01 7.070779999999999177e+01 1.929340000000000146e+03
4.200000000000000261e-02 1.442630000000000023e-01 1.560614999999999952e+01 7.183020000000000493e+01 1.929494999999999891e+03
4.300000000000000350e-02 1.442974999999999952e-01 1.582419999999999938e+01 7.337420000000000186e+01 1.929785000000000082e+03
4.400000000000000439e-02 1.443424999999999847e-01 1.612405000000000044e+01 7.512715000000000032e+01 1.930170000000000073e+03
4.499999999999999833e-02 1.443935000000000080e-01 1.642014999999999958e+01 7.684020000000001005e+01 1.930605000000000018e+03
4.599999999999999922e-02 1.444425000000000014e-01 1.663020000000000209e+01 7.826970000000000027e+01 1.931029999999999973e+03
4.700000000000000011e-02 1.444834999999999869e-01 1.668569999999999709e+01 7.921395000000001119e+01 1.931384999999999991e+03
4.800000000000000100e-02 1.445099999999999996e-01 1.653900000000000148e+01 7.953694999999999027e+01 1.931619999999999891e+03
4.900000000000000189e-02 1.445190000000000086e-01 1.616554999999999964e+01 7.917820000000000391e+01 1.931710000000000036e+03
5.000000000000000278e-02 1.445079999999999976e-01 1.556279999999999930e+01 7.814894999999999925e+01 1.931625000000000000e+03
5.100000000000000366e-02 1.444769999999999943e-01 1.474595000000000056e+01 7.651794999999999902e+01 1.931365000000000009e+03
5.200000000000000455e-02 1.444280000000000008e-01 1.374295000000000044e+01 7.439240000000000919e+01 1.930949999999999818e+03
5.300000000000000544e-02 1.443630000000000191e-01 1.258889500000000083e+01 7.189775000000000205e+01 1.930389999999999873e+03
5.399999999999999939e-02 1.442859999999999976e-01 1.132223000000000113e+01 6.916124999999999545e+01 1.929720000000000027e+03
5.500000000000000028e-02 1.441995000000000082e-01 9.981674999999999187e+00 6.630080000000000950e+01 1.928974999999999909e+03
5.600000000000000117e-02 1.441080000000000139e-01 8.605135000000000645e+00 6.342045000000000243e+01 1.928175000000000182e+03
5.700000000000000205e-02 1.440130000000000021e-01 7.229524999999999757e+00 6.060989999999999611e+01 1.927355000000000018e+03
5.800000000000000294e-02 1.439199999999999924e-01 5.891510000000000247e+00 5.794839999999999947e+01 1.926539999999999964e+03
5.900000000000000383e-02 1.438294999999999990e-01 4.627880000000000216e+00 5.550905000000000200e+01 1.925755000000000109e+03
6.000000000000000472e-02 1.437460000000000127e-01 3.475889000000000006e+00 5.336234999999999928e+01 1.925014999999999873e+03
6.099999999999999867e-02 1.436715000000000075e-01 2.472878999999999827e+00 5.157854999999999990e+01 1.924360000000000127e+03
6.199999999999999956e-02 1.436074999999999990e-01 1.655216499999999868e+00 5.022684999999999889e+01 1.923795000000000073e+03
6.300000000000000044e-02 1.435580000000000189e-01 1.056683499999999887e+00 4.937274999999999636e+01 1.923349999999999909e+03
6.400000000000000133e-02 1.435239999999999849e-01 7.065194999999999670e-01 4.907385000000000019e+01 1.923045000000000073e+03
6.500000000000000222e-02 1.435089999999999977e-01 6.275174999999999503e-01 4.937505000000000166e+01 1.922894999999999982e+03
6.600000000000000311e-02 1.435130000000000017e-01 8.343070000000000208e-01 5.030339999999999634e+01 1.922914999999999964e+03
6.700000000000000400e-02 1.435379999999999989e-01 1.332238499999999881e+00 5.186535000000000650e+01 1.923110000000000127e+03
6.800000000000000488e-02 1.435845000000000038e-01 2.116903000000000201e+00 5.404475000000000051e+01 1.923494999999999891e+03
6.900000000000000577e-02 1.436505000000000143e-01 3.174356500000000025e+00 5.680344999999999800e+01 1.924054999999999836e+03
7.000000000000000666e-02 1.437364999999999893e-01 4.481959999999999944e+00 6.008334999999999582e+01 1.924789999999999964e+03
7.100000000000000755e-02 1.438409999999999966e-01 6.009759999999999991e+00 6.381010000000000559e+01 1.925674999999999955e+03
7.200000000000000844e-02 1.439604999999999912e-01 7.722170000000000201e+00 6.789804999999999779e+01 1.926704999999999927e+03
7.300000000000000933e-02 1.440929999999999989e-01 9.579800000000000537e+00 7.225485000000000468e+01 1.927849999999999909e+03
7.399999999999999634e-02 1.442359999999999753e-01 1.154154499999999928e+01 7.678704999999999359e+01 1.929095000000000027e+03
7.499999999999999722e-02 1.443860000000000143e-01 1.356629500000000021e+01 8.140455000000000041e+01 1.930404999999999973e+03
7.599999999999999811e-02 1.445414999999999894e-01 1.561474999999999902e+01 8.602500000000000568e+01 1.931755000000000109e+03
7.699999999999999900e-02 1.446979999999999933e-01 1.765099999999999980e+01 9.057714999999998895e+01 1.933125000000000000e+03
7.799999999999999989e-02 1.448535000000000239e-01 1.964385000000000048e+01 9.500405000000000655e+01 1.934500000000000000e+03
7.900000000000000078e-02 1.450069999999999970e-01 2.156784999999999997e+01 9.926340000000000430e+01 1.935855000000000018e+03
8.000000000000000167e-02 1.451560000000000072e-01 2.340374999999999872e+01 1.033299499999999966e+02 1.937180000000000064e+03
8.100000000000000255e-02 1.453004999999999991e-01 2.513864999999999839e+01 1.071946499999999958e+02 1.938460000000000036e+03
8.200000000000000344e-02 1.454400000000000137e-01 2.676619999999999777e+01 1.108625000000000114e+02 1.939694999999999936e+03
8.300000000000000433e-02 1.455724999999999936e-01 2.828529999999999944e+01 1.143495000000000061e+02 1.940889999999999873e+03
8.400000000000000522e-02 1.457005000000000106e-01 2.969979999999999620e+01 1.176835000000000093e+02 1.942029999999999973e+03
8.500000000000000611e-02 1.458240000000000092e-01 3.101705000000000112e+01 1.208944999999999936e+02 1.943139999999999873e+03
8.600000000000000699e-02 1.459435000000000038e-01 3.224660000000000082e+01 1.240169999999999959e+02 1.944215000000000146e+03
8.700000000000000788e-02 1.460600000000000231e-01 3.339900000000000091e+01 1.270835000000000008e+02 1.945259999999999991e+03
8.800000000000000877e-02 1.461749999999999994e-01 3.448449999999999704e+01 1.301204999999999927e+02 1.946289999999999964e+03
8.899999999999999578e-02 1.462880000000000014e-01 3.551229999999999620e+01 1.331490000000000009e+02 1.947315000000000055e+03
8.999999999999999667e-02 1.464010000000000034e-01 3.648940000000000339e+01 1.361820000000000164e+02 1.948324999999999818e+03
9.099999999999999756e-02 1.465135000000000187e-01 3.742045000000000243e+01 1.392235000000000014e+02 1.949345000000000027e+03
9.199999999999999845e-02 1.466255000000000197e-01 3.830709999999999837e+01 1.422675000000000125e+02 1.950349999999999909e+03
9.299999999999999933e-02 1.467375000000000207e-01 3.914835000000000065e+01 1.453009999999999877e+02 1.951360000000000127e+03
9.400000000000000022e-02 1.468490000000000073e-01 3.994044999999999845e+01 1.483020000000000209e+02 1.952365000000000009e+03
9.500000000000000111e-02 1.469590000000000063e-01 4.067730000000000246e+01 1.512464999999999975e+02 1.953360000000000127e+03
9.600000000000000200e-02 1.470670000000000033e-01 4.135099999999999909e+01 1.541030000000000086e+02 1.954335000000000036e+03
9.700000000000000289e-02 1.471715000000000106e-01 4.195244999999999891e+01 1.568399999999999750e+02 1.955280000000000200e+03
9.800000000000000377e-02 1.472725000000000006e-01 4.247169999999999845e+01 1.594250000000000114e+02 1.956195000000000164e+03
9.900000000000000466e-02 1.473679999999999990e-01 4.289869999999999806e+01 1.618274999999999864e+02 1.957059999999999945e+03
1.000000000000000056e-01 1.474570000000000047e-01 4.322390000000000043e+01 1.640174999999999841e+02 1.957869999999999891e+03
1.010000000000000064e-01 1.475394999999999901e-01 4.343860000000000099e+01 1.659714999999999918e+02 1.958619999999999891e+03
1.020000000000000073e-01 1.476139999999999952e-01 4.353569999999999851e+01 1.676684999999999945e+02 1.959300000000000182e+03
1.030000000000000082e-01 1.476795000000000191e-01 4.350979999999999848e+01 1.690935000000000059e+02 1.959904999999999973e+03
1.040000000000000091e-01 1.477364999999999928e-01 4.335784999999999911e+01 1.702375000000000114e+02 1.960424999999999955e+03
1.050000000000000100e-01 1.477835000000000121e-01 4.307909999999999684e+01 1.710985000000000014e+02 1.960860000000000127e+03
1.059999999999999970e-01 1.478209999999999802e-01 4.267555000000000121e+01 1.716795000000000186e+02 1.961210000000000036e+03
1.069999999999999979e-01 1.478490000000000082e-01 4.215179999999999438e+01 1.719909999999999854e+02 1.961470000000000027e+03
1.079999999999999988e-01 1.478674999999999851e-01 4.151505000000000223e+01 1.720475000000000136e+02 1.961644999999999982e+03
1.089999999999999997e-01 1.478770000000000084e-01 4.077479999999999905e+01 1.718714999999999975e+02 1.961744999999999891e+03
1.100000000000000006e-01 1.478784999999999961e-01 3.994284999999999997e+01 1.714884999999999877e+02 1.961764999999999873e+03
1.110000000000000014e-01 1.478720000000000034e-01 3.903234999999999388e+01 1.709265000000000043e+02 1.961724999999999909e+03
1.120000000000000023e-01 1.478595000000000048e-01 3.805814999999999770e+01 1.702175000000000011e+02 1.961619999999999891e+03
1.130000000000000032e-01 1.478415000000000146e-01 3.703530000000000655e+01 1.693935000000000173e+02 1.961460000000000036e+03
1.140000000000000041e-01 1.478190000000000059e-01 3.597939999999999827e+01 1.684865000000000066e+02 1.961265000000000100e+03
1.150000000000000050e-01 1.477924999999999933e-01 3.490540000000000020e+01 1.675275000000000034e+02 1.961029999999999973e+03
1.160000000000000059e-01 1.477640000000000065e-01 3.382744999999999891e+01 1.665430000000000064e+02 1.960775000000000091e+03
1.170000000000000068e-01 1.477335000000000176e-01 3.275849999999999795e+01 1.655589999999999975e+02 1.960505000000000109e+03
1.180000000000000077e-01 1.477025000000000143e-01 3.170959999999999823e+01 1.645944999999999823e+02 1.960224999999999909e+03
1.190000000000000085e-01 1.476715000000000111e-01 3.068984999999999985e+01 1.636655000000000086e+02 1.959945000000000164e+03
1.200000000000000094e-01 1.476405000000000078e-01 2.970635000000000048e+01 1.627835000000000036e+02 1.959664999999999964e+03
1.209999999999999964e-01 1.476109999999999922e-01 2.876370000000000005e+01 1.619519999999999982e+02 1.959400000000000091e+03
1.219999999999999973e-01 1.475825000000000053e-01 2.786420000000000030e+01 1.611734999999999900e+02 1.959134999999999991e+03
1.229999999999999982e-01 1.475549999999999917e-01 2.700815000000000055e+01 1.604429999999999836e+02 1.958889999999999873e+03
1.239999999999999991e-01 1.475289999999999935e-01 2.619359999999999999e+01 1.597529999999999859e+02 1.958650000000000091e+03
1.250000000000000000e-01 1.475039999999999962e-01 2.541685000000000016e+01 1.590914999999999964e+02 1.958420000000000073e+03
1.260000000000000009e-01 1.474800000000000000e-01 2.467265000000000086e+01 1.584449999999999932e+02 1.958200000000000045e+03
1.270000000000000018e-01 1.474554999999999894e-01 2.395469999999999899e+01 1.577975000000000136e+02 1.957980000000000018e+03
1.280000000000000027e-01 1.474320000000000075e-01 2.325569999999999737e+01 1.571315000000000168e+02 1.957759999999999991e+03
1.290000000000000036e-01 1.474070000000000102e-01 2.256804999999999950e+01 1.564309999999999832e+02 1.957535000000000082e+03
1.300000000000000044e-01 1.473809999999999842e-01 2.188429999999999964e+01 1.556790000000000020e+02 1.957295000000000073e+03
1.310000000000000053e-01 1.473534999999999984e-01 2.119715000000000060e+01 1.548609999999999900e+02 1.957045000000000073e+03
1.320000000000000062e-01 1.473240000000000105e-01 2.050014999999999787e+01 1.539655000000000200e+02 1.956775000000000091e+03
1.330000000000000071e-01 1.472915000000000196e-01 1.978810000000000002e+01 1.529819999999999993e+02 1.956485000000000127e+03
1.340000000000000080e-01 1.472565000000000124e-01 1.905680000000000263e+01 1.519050000000000011e+02 1.956170000000000073e+03
1.350000000000000089e-01 1.472185000000000021e-01 1.830389999999999873e+01 1.507334999999999923e+02 1.955824999999999818e+03
1.360000000000000098e-01 1.471770000000000023e-01 1.752864999999999895e+01 1.494689999999999941e+02 1.955454999999999927e+03
1.370000000000000107e-01 1.471330000000000138e-01 1.673219999999999885e+01 1.481175000000000068e+02 1.955059999999999945e+03
1.380000000000000115e-01 1.470854999999999801e-01 1.591720000000000113e+01 1.466895000000000095e+02 1.954634999999999991e+03
1.390000000000000124e-01 1.470354999999999857e-01 1.508820000000000050e+01 1.451984999999999957e+02 1.954190000000000055e+03
1.400000000000000133e-01 1.469845000000000179e-01 1.425120000000000076e+01 1.436614999999999895e+02 1.953724999999999909e+03
1.410000000000000142e-01 1.469304999999999917e-01 1.341355000000000075e+01 1.420975000000000250e+02 1.953244999999999891e+03
1.420000000000000151e-01 1.468760000000000066e-01 1.258324999999999960e+01 1.405285000000000082e+02 1.952759999999999991e+03
1.430000000000000160e-01 1.468209999999999793e-01 1.176940000000000097e+01 1.389755000000000109e+02 1.952264999999999873e+03
1.440000000000000169e-01 1.467664999999999942e-01 1.098093499999999878e+01 1.374610000000000127e+02 1.951775000000000091e+03
1.450000000000000178e-01 1.467129999999999823e-01 1.022685500000000047e+01 1.360054999999999836e+02 1.951295000000000073e+03
1.459999999999999909e-01 1.466609999999999858e-01 9.515729999999999578e+00 1.346285000000000025e+02 1.950829999999999927e+03
1.469999999999999918e-01 1.466119999999999923e-01 8.855059999999999931e+00 1.333480000000000132e+02 1.950384999999999991e+03
1.479999999999999927e-01 1.465655000000000152e-01 8.251519999999999300e+00 1.321769999999999925e+02 1.949964999999999918e+03
1.489999999999999936e-01 1.465225000000000000e-01 7.710210000000000008e+00 1.311260000000000048e+02 1.949579999999999927e+03
1.499999999999999944e-01 1.464834999999999887e-01 7.234804999999999708e+00 1.302015000000000100e+02 1.949224999999999909e+03
1.509999999999999953e-01 1.464485000000000092e-01 6.827354999999999841e+00 1.294074999999999989e+02 1.948909999999999854e+03
1.519999999999999962e-01 1.464179999999999926e-01 6.488274999999999793e+00 1.287429999999999950e+02 1.948625000000000000e+03
1.529999999999999971e-01 1.463909999999999934e-01 6.216420000000000279e+00 1.282034999999999911e+02 1.948380000000000109e+03
1.539999999999999980e-01 1.463689999999999991e-01 6.009180000000000632e+00 1.277824999999999989e+02 1.948175000000000182e+03
1.549999999999999989e-01 1.463510000000000089e-01 5.862630000000000230e+00 1.274689999999999941e+02 1.948005000000000109e+03
1.559999999999999998e-01 1.463364999999999805e-01 5.771760000000000446e+00 1.272524999999999977e+02 1.947869999999999891e+03
1.570000000000000007e-01 1.463250000000000106e-01 5.730679999999999552e+00 1.271195000000000022e+02 1.947764999999999873e+03
1.580000000000000016e-01 1.463170000000000026e-01 5.732874999999999943e+00 1.270550000000000068e+02 1.947684999999999945e+03
1.590000000000000024e-01 1.463115000000000110e-01 5.771440000000000126e+00 1.270455000000000041e+02 1.947634999999999991e+03
