# t [s], A [cm^2], U [cm/s], P [cPa], c [cm/s]
1.000000000000000021e-03 5.483620000000000161e-01 4.822549999999994896e-03 1.086460000000000008e+02 1.542434999999999945e+03
2.000000000000000042e-03 5.483529999999999793e-01 -8.024536499999999602e-04 1.086225000000000023e+02 1.542434999999999945e+03
3.000000000000000062e-03 5.483970000000000233e-01 8.099945000000000062e-02 1.087069999999999936e+02 1.542454999999999927e+03
4.000000000000000083e-03 5.484430000000000138e-01 1.735793500000000211e-01 1.088215000000000003e+02 1.542485000000000127e+03
5.000000000000000104e-03 5.484310000000000018e-01 1.640804999999999902e-01 1.087984999999999900e+02 1.542485000000000127e+03
6.000000000000000125e-03 5.483789999999999498e-01 7.624799999999998246e-02 1.086209999999999951e+02 1.542445000000000164e+03
7.000000000000000146e-03 5.483304999999999430e-01 -1.147799999999998821e-02 1.083785000000000025e+02 1.542394999999999982e+03
8.000000000000000167e-03 5.482645000000000435e-01 -1.414954999999999963e-01 1.080374999999999943e+02 1.542320000000000164e+03
9.000000000000001055e-03 5.481504999999999850e-01 -3.768249999999999655e-01 1.075109999999999957e+02 1.542204999999999927e+03
1.000000000000000194e-02 5.479834999999999567e-01 -7.246399999999999508e-01 1.067549999999999955e+02 1.542034999999999854e+03
1.099999999999999936e-02 5.477549999999999919e-01 -1.193030000000000035e+00 1.057255000000000109e+02 1.541805000000000064e+03
1.200000000000000025e-02 5.474495000000000333e-01 -1.794379999999999864e+00 1.043676499999999976e+02 1.541490000000000009e+03
1.300000000000000114e-02 5.470749999999999780e-01 -2.492715000000000014e+00 1.026837999999999909e+02 1.541094999999999800e+03
1.400000000000000203e-02 5.466710000000000180e-01 -3.183570000000000011e+00 1.007747500000000116e+02 1.540634999999999991e+03
1.499999999999999944e-02 5.462900000000000533e-01 -3.733435000000000059e+00 9.881069999999999709e+01 1.540144999999999982e+03
1.600000000000000033e-02 5.459680000000000089e-01 -4.038026000000000337e+00 9.695855000000000246e+01 1.539654999999999973e+03
1.700000000000000122e-02 5.457155000000000200e-01 -4.056874850000000698e+00 9.532175000000000864e+01 1.539194999999999936e+03
1.800000000000000211e-02 5.455149999999999721e-01 -3.814355500000000010e+00 9.391724999999999568e+01 1.538784999999999854e+03
1.900000000000000300e-02 5.453365000000000018e-01 -3.378495000000000026e+00 9.268860000000000809e+01 1.538400000000000091e+03
2.000000000000000042e-02 5.451464999999999783e-01 -2.831664999999999655e+00 9.153764999999999930e+01 1.538029999999999973e+03
2.100000000000000130e-02 5.449205000000000298e-01 -2.243310000000000137e+00 9.036365000000000691e+01 1.537655000000000200e+03
2.200000000000000219e-02 5.446504999999999264e-01 -1.651909999999999989e+00 8.909659999999999513e+01 1.537264999999999873e+03
2.299999999999999961e-02 5.443430000000000213e-01 -1.060905000000000209e+00 8.771479999999999677e+01 1.536849999999999909e+03
2.400000000000000050e-02 5.440145000000000675e-01 -4.489200000000002078e-01 8.624190000000000111e+01 1.536409999999999854e+03
2.500000000000000139e-02 5.436830000000000274e-01 2.113450000000001161e-01 8.472714999999999463e+01 1.535965000000000146e+03
2.600000000000000228e-02 5.433599999999999541e-01 9.341450000000000031e-01 8.321864999999999668e+01 1.535514999999999873e+03
2.700000000000000316e-02 5.430470000000000574e-01 1.708494999999999875e+00 8.174035000000000650e+01 1.535070000000000164e+03
2.800000000000000058e-02 5.427340000000000497e-01 2.495555000000000412e+00 8.028014999999999191e+01 1.534619999999999891e+03
2.900000000000000147e-02 5.424025000000000096e-01 3.234689999999999621e+00 7.878980000000001382e+01 1.534170000000000073e+03
3.000000000000000236e-02 5.420304999999999707e-01 3.855589999999999407e+00 7.719565000000000055e+01 1.533700000000000045e+03
3.099999999999999978e-02 5.415995000000000115e-01 4.293015000000000470e+00 7.541759999999999309e+01 1.533190000000000055e+03
3.200000000000000067e-02 5.410970000000000502e-01 4.501149999999999096e+00 7.338984999999999559e+01 1.532630000000000109e+03
3.300000000000000155e-02 5.405229999999999757e-01 4.463589999999999947e+00 7.108050000000000068e+01 1.532005000000000109e+03
3.400000000000000244e-02 5.398899999999999810e-01 4.197029999999999816e+00 6.850325000000000841e+01 1.531315000000000055e+03
3.500000000000000333e-02 5.392204999999999915e-01 3.747539999999999871e+00 6.571925000000000239e+01 1.530585000000000036e+03
3.600000000000000422e-02 5.385439999999999117e-01 3.181214999999999904e+00 6.282854999999999990e+01 1.529820000000000164e+03
3.700000000000000511e-02 5.378910000000000080e-01 2.571949999999999736e+00 5.995544999999999902e+01 1.529049999999999955e+03
3.799999999999999906e-02 5.372905000000000042e-01 1.990259999999999696e+00 5.723029999999999973e+01 1.528309999999999945e+03
3.899999999999999994e-02 5.367644999999999778e-01 1.495254999999999779e+00 5.477420000000000044e+01 1.527625000000000000e+03
4.000000000000000083e-02 5.363305000000000433e-01 1.130189999999999806e+00 5.268675000000000352e+01 1.527025000000000091e+03
4.100000000000000172e-02 5.359975000000000156e-01 9.223149999999997739e-01 5.104035000000000366e+01 1.526525000000000091e+03
4.200000000000000261e-02 5.357705000000000384e-01 8.851250000000001616e-01 4.987859999999999872e+01 1.526144999999999982e+03
4.300000000000000350e-02 5.356480000000000130e-01 1.022380000000000067e+00 4.921954999999999814e+01 1.525889999999999873e+03
4.400000000000000439e-02 5.356274999999999231e-01 1.332410000000000094e+00 4.906119999999999948e+01 1.525764999999999873e+03
4.499999999999999833e-02 5.357049999999999867e-01 1.811784999999999979e+00 4.938809999999999434e+01 1.525775000000000091e+03
4.599999999999999922e-02 5.358760000000000190e-01 2.457550000000000345e+00 5.017719999999999914e+01 1.525905000000000200e+03
4.700000000000000011e-02 5.361360000000000570e-01 3.267745999999999817e+00 5.140245000000000175e+01 1.526159999999999854e+03
4.800000000000000100e-02 5.364815000000000556e-01 4.240504500000000121e+00 5.303624999999999545e+01 1.526525000000000091e+03
4.900000000000000189e-02 5.369059999999999944e-01 5.372136499999999870e+00 5.504964999999999975e+01 1.526994999999999891e+03
5.000000000000000278e-02 5.374039999999999928e-01 6.655060000000000642e+00 5.741094999999999970e+01 1.527570000000000164e+03
5.100000000000000366e-02 5.379680000000000017e-01 8.076354999999999507e+00 6.008379999999999654e+01 1.528230000000000018e+03
5.200000000000000455e-02 5.385879999999999557e-01 9.616940000000001376e+00 6.302620000000000289e+01 1.528974999999999909e+03
5.300000000000000544e-02 5.392529999999999824e-01 1.125214499999999873e+01 6.618999999999999773e+01 1.529779999999999973e+03
5.399999999999999939e-02 5.399500000000000410e-01 1.295280999999999949e+01 6.952219999999999800e+01 1.530650000000000091e+03
5.500000000000000028e-02 5.406670000000000087e-01 1.468760500000000135e+01 7.296659999999999968e+01 1.531554999999999836e+03
5.600000000000000117e-02 5.413915000000000255e-01 1.642493499999999784e+01 7.646715000000000373e+01 1.532485000000000127e+03
5.700000000000000205e-02 5.421134999999999149e-01 1.813509499999999974e+01 7.997044999999999959e+01 1.533430000000000064e+03
5.800000000000000294e-02 5.428224999999999856e-01 1.979225000000000279e+01 8.342929999999999779e+01 1.534380000000000109e+03
5.900000000000000383e-02 5.435124999999999540e-01 2.137529999999999930e+01 8.680429999999999779e+01 1.535315000000000055e+03
6.000000000000000472e-02 5.441774999999999807e-01 2.286890000000000001e+01 9.006659999999999400e+01 1.536230000000000018e+03
6.099999999999999867e-02 5.448165000000000369e-01 2.426295000000000002e+01 9.319610000000000127e+01 1.537119999999999891e+03
6.199999999999999956e-02 5.454269999999999952e-01 2.555279999999999774e+01 9.618500000000000227e+01 1.537980000000000018e+03
6.300000000000000044e-02 5.460114999999999830e-01 2.673789999999999978e+01 9.903319999999999368e+01 1.538800000000000182e+03
6.400000000000000133e-02 5.465724999999999056e-01 2.782160000000000011e+01 1.017481500000000096e+02 1.539595000000000027e+03
6.500000000000000222e-02 5.471129999999999605e-01 2.880979999999999919e+01 1.043440999999999974e+02 1.540360000000000127e+03
6.600000000000000311e-02 5.476360000000000117e-01 2.971020000000000039e+01 1.068385000000000105e+02 1.541094999999999800e+03
6.700000000000000400e-02 5.481469999999999398e-01 3.053159999999999741e+01 1.092514999999999930e+02 1.541809999999999945e+03
6.800000000000000488e-02 5.486489999999999423e-01 3.128304999999999936e+01 1.116024999999999920e+02 1.542505000000000109e+03
6.900000000000000577e-02 5.491460000000000230e-01 3.197325000000000017e+01 1.139115000000000038e+02 1.543190000000000055e+03
7.000000000000000666e-02 5.496400000000000174e-01 3.260979999999999990e+01 1.161939999999999884e+02 1.543865000000000009e+03
7.100000000000000755e-02 5.501335000000000530e-01 3.319875000000000398e+01 1.184609999999999985e+02 1.544534999999999854e+03
7.200000000000000844e-02 5.506265000000000187e-01 3.374415000000000475e+01 1.207189999999999941e+02 1.545195000000000164e+03
7.300000000000000933e-02 5.511194999999999844e-01 3.424779999999999802e+01 1.229699999999999989e+02 1.545855000000000018e+03
7.399999999999999634e-02 5.516090000000000160e-01 3.470915000000000106e+01 1.252085000000000008e+02 1.546509999999999991e+03
7.499999999999999722e-02 5.520939999999999737e-01 3.512550000000000239e+01 1.274230000000000018e+02 1.547164999999999964e+03
7.599999999999999811e-02 5.525694999999999357e-01 3.549219999999999686e+01 1.295999999999999943e+02 1.547800000000000182e+03
7.699999999999999900e-02 5.530315000000000092e-01 3.580330000000000013e+01 1.317195000000000107e+02 1.548425000000000182e+03
7.799999999999999989e-02 5.534755000000000091e-01 3.605190000000000339e+01 1.337595000000000027e+02 1.549030000000000200e+03
7.900000000000000078e-02 5.538965000000000138e-01 3.623084999999999667e+01 1.356984999999999957e+02 1.549610000000000127e+03
8.000000000000000167e-02 5.542894999999999905e-01 3.633335000000000292e+01 1.375129999999999768e+02 1.550154999999999973e+03
8.100000000000000255e-02 5.546515000000000750e-01 3.635349999999999682e+01 1.391829999999999927e+02 1.550664999999999964e+03
8.200000000000000344e-02 5.549770000000000536e-01 3.628640000000000043e+01 1.406899999999999977e+02 1.551130000000000109e+03
8.300000000000000433e-02 5.552650000000000086e-01 3.612895000000000323e+01 1.420185000000000173e+02 1.551550000000000182e+03
8.400000000000000522e-02 5.555124999999999647e-01 3.587955000000000183e+01 1.431594999999999800e+02 1.551920000000000073e+03
8.500000000000000611e-02 5.557195000000000329e-01 3.553870000000000573e+01 1.441055000000000064e+02 1.552240000000000009e+03
8.600000000000000699e-02 5.558849999999999625e-01 3.510864999999999725e+01 1.448559999999999945e+02 1.552500000000000000e+03
8.700000000000000788e-02 5.560104999999999631e-01 3.459365000000000379e+01 1.454130000000000109e+02 1.552704999999999927e+03
8.800000000000000877e-02 5.560985000000000511e-01 3.399954999999999927e+01 1.457845000000000084e+02 1.552865000000000009e+03
8.899999999999999578e-02 5.561490000000000045e-01 3.333395000000000152e+01 1.459805000000000064e+02 1.552969999999999800e+03
8.999999999999999667e-02 5.561679999999999957e-01 3.260575000000000045e+01 1.460180000000000007e+02 1.553025000000000091e+03
9.099999999999999756e-02 5.561574999999999713e-01 3.182495000000000118e+01 1.459119999999999777e+02 1.553045000000000073e+03
9.199999999999999845e-02 5.561225000000000751e-01 3.100269999999999726e+01 1.456829999999999927e+02 1.553019999999999982e+03
9.299999999999999933e-02 5.560660000000000602e-01 3.015014999999999645e+01 1.453520000000000039e+02 1.552960000000000036e+03
9.400000000000000022e-02 5.559939999999999882e-01 2.927909999999999968e+01 1.449399999999999977e+02 1.552880000000000109e+03
9.500000000000000111e-02 5.559104999999999741e-01 2.840075000000000216e+01 1.444685000000000059e+02 1.552775000000000091e+03
9.600000000000000200e-02 5.558190000000000630e-01 2.752585000000000193e+01 1.439590000000000032e+02 1.552660000000000082e+03
9.700000000000000289e-02 5.557235000000000369e-01 2.666414999999999935e+01 1.434300000000000068e+02 1.552525000000000091e+03
9.800000000000000377e-02 5.556274999999999409e-01 2.582399999999999807e+01 1.428990000000000009e+02 1.552389999999999873e+03
9.900000000000000466e-02 5.555339999999999723e-01 2.501219999999999999e+01 1.423790000000000191e+02 1.552250000000000000e+03
1.000000000000000056e-01 5.554440000000000488e-01 2.423360000000000269e+01 1.418824999999999932e+02 1.552115000000000009e+03
1.010000000000000064e-01 5.553599999999999648e-01 2.349125000000000085e+01 1.414159999999999968e+02 1.551980000000000018e+03
1.020000000000000073e-01 5.552819999999999423e-01 2.278620000000000090e+01 1.409839999999999804e+02 1.551855000000000018e+03
1.030000000000000082e-01 5.552090000000000636e-01 2.211744999999999806e+01 1.405860000000000127e+02 1.551735000000000127e+03
1.040000000000000091e-01 5.551414999999999544e-01 2.148255000000000337e+01 1.402210000000000036e+02 1.551625000000000000e+03
1.050000000000000100e-01 5.550775000000000015e-01 2.087734999999999985e+01 1.398824999999999932e+02 1.551519999999999982e+03
1.059999999999999970e-01 5.550150000000000361e-01 2.029654999999999987e+01 1.395625000000000000e+02 1.551420000000000073e+03
1.069999999999999979e-01 5.549524999999999597e-01 1.973414999999999964e+01 1.392520000000000095e+02 1.551324999999999818e+03
1.079999999999999988e-01 5.548880000000000479e-01 1.918339999999999890e+01 1.389399999999999977e+02 1.551230000000000018e+03
1.089999999999999997e-01 5.548184999999999922e-01 1.863755000000000095e+01 1.386159999999999854e+02 1.551134999999999991e+03
1.100000000000000006e-01 5.547425000000000272e-01 1.809015000000000128e+01 1.382680000000000007e+02 1.551029999999999973e+03
1.110000000000000014e-01 5.546575000000000255e-01 1.753505000000000180e+01 1.378880000000000052e+02 1.550920000000000073e+03
1.120000000000000023e-01 5.545630000000000281e-01 1.696689999999999898e+01 1.374664999999999964e+02 1.550799999999999955e+03
1.130000000000000032e-01 5.544575000000000475e-01 1.638159999999999883e+01 1.369970000000000141e+02 1.550670000000000073e+03
1.140000000000000041e-01 5.543394999999999850e-01 1.577599999999999980e+01 1.364749999999999943e+02 1.550525000000000091e+03
1.150000000000000050e-01 5.542104999999999393e-01 1.514850000000000030e+01 1.358985000000000127e+02 1.550369999999999891e+03
1.160000000000000059e-01 5.540694999999999926e-01 1.449884999999999913e+01 1.352685000000000173e+02 1.550194999999999936e+03
1.170000000000000068e-01 5.539184999999999803e-01 1.382821000000000033e+01 1.345880000000000223e+02 1.550009999999999991e+03
1.180000000000000077e-01 5.537585000000000424e-01 1.313929500000000061e+01 1.338629999999999995e+02 1.549819999999999936e+03
1.190000000000000085e-01 5.535915000000000141e-01 1.243596999999999930e+01 1.331015000000000157e+02 1.549605000000000018e+03
1.200000000000000094e-01 5.534200000000000230e-01 1.172348000000000035e+01 1.323129999999999882e+02 1.549389999999999873e+03
1.209999999999999964e-01 5.532470000000000443e-01 1.100788499999999992e+01 1.315099999999999909e+02 1.549170000000000073e+03
1.219999999999999973e-01 5.530745000000000244e-01 1.029609999999999914e+01 1.307049999999999841e+02 1.548949999999999818e+03
1.229999999999999982e-01 5.529060000000000086e-01 9.595459999999999212e+00 1.299124999999999943e+02 1.548730000000000018e+03
1.239999999999999991e-01 5.527440000000000131e-01 8.913455000000000794e+00 1.291450000000000102e+02 1.548515000000000100e+03
1.250000000000000000e-01 5.525915000000000132e-01 8.257629999999998915e+00 1.284165000000000134e+02 1.548305000000000064e+03
1.260000000000000009e-01 5.524520000000000541e-01 7.634915000000000340e+00 1.277404999999999973e+02 1.548110000000000127e+03
1.270000000000000018e-01 5.523259999999999836e-01 7.051784999999999748e+00 1.271280000000000143e+02 1.547929999999999836e+03
1.280000000000000027e-01 5.522169999999999579e-01 6.513714999999999478e+00 1.265879999999999939e+02 1.547769999999999982e+03
1.290000000000000036e-01 5.521249999999999769e-01 6.025049999999999351e+00 1.261280000000000001e+02 1.547625000000000000e+03
1.300000000000000044e-01 5.520515000000000283e-01 5.588940000000000019e+00 1.257535000000000025e+02 1.547500000000000000e+03
1.310000000000000053e-01 5.519969999999999599e-01 5.207169999999999632e+00 1.254660000000000082e+02 1.547404999999999973e+03
1.320000000000000062e-01 5.519605000000000761e-01 4.880144999999999733e+00 1.252665000000000077e+02 1.547329999999999927e+03
1.330000000000000071e-01 5.519414999999999738e-01 4.606944999999999624e+00 1.251514999999999986e+02 1.547275000000000091e+03
1.340000000000000080e-01 5.519389999999999574e-01 4.385359999999999481e+00 1.251154999999999973e+02 1.547244999999999891e+03
1.350000000000000089e-01 5.519509999999999694e-01 4.212105000000000210e+00 1.251534999999999940e+02 1.547240000000000009e+03
1.360000000000000098e-01 5.519760000000000222e-01 4.082919999999999661e+00 1.252545000000000073e+02 1.547250000000000000e+03
1.370000000000000107e-01 5.520114999999999883e-01 3.992835000000000356e+00 1.254099999999999966e+02 1.547269999999999982e+03
1.380000000000000115e-01 5.520545000000000035e-01 3.936360000000000081e+00 1.256084999999999923e+02 1.547309999999999945e+03
1.390000000000000124e-01 5.521040000000000392e-01 3.907719999999999860e+00 1.258394999999999868e+02 1.547360000000000127e+03
1.400000000000000133e-01 5.521564999999999390e-01 3.901065000000000005e+00 1.260919999999999987e+02 1.547414999999999964e+03
1.410000000000000142e-01 5.522110000000000074e-01 3.910675000000000345e+00 1.263545000000000016e+02 1.547480000000000018e+03
1.420000000000000151e-01 5.522650000000000059e-01 3.931124999999999758e+00 1.266185000000000116e+02 1.547539999999999964e+03
1.430000000000000160e-01 5.523169999999999469e-01 3.957444999999999879e+00 1.268744999999999976e+02 1.547605000000000018e+03
1.440000000000000169e-01 5.523649999999999949e-01 3.985190000000000232e+00 1.271149999999999949e+02 1.547670000000000073e+03
1.450000000000000178e-01 5.524084999999999690e-01 4.010584999999999845e+00 1.273350000000000080e+02 1.547730000000000018e+03
1.459999999999999909e-01 5.524465000000000625e-01 4.030495000000000161e+00 1.275295000000000130e+02 1.547785000000000082e+03
1.469999999999999918e-01 5.524784999999999835e-01 4.042485000000000106e+00 1.276954999999999956e+02 1.547829999999999927e+03
1.479999999999999927e-01 5.525044999999999540e-01 4.044840000000000657e+00 1.278315000000000055e+02 1.547875000000000000e+03
1.489999999999999936e-01 5.525244999999999740e-01 4.036464999999999748e+00 1.279364999999999952e+02 1.547905000000000200e+03
1.499999999999999944e-01 5.525379999999999736e-01 4.016899999999999693e+00 1.280120000000000005e+02 1.547930000000000064e+03
1.509999999999999953e-01 5.525465000000000515e-01 3.986225000000000129e+00 1.280585000000000093e+02 1.547944999999999936e+03
1.519999999999999962e-01 5.525495000000000267e-01 3.945009999999999906e+00 1.280799999999999841e+02 1.547960000000000036e+03
1.529999999999999971e-01 5.525484999999999980e-01 3.894214999999999982e+00 1.280780000000000030e+02 1.547964999999999918e+03
1.539999999999999980e-01 5.525435000000000763e-01 3.835099999999999731e+00 1.280564999999999998e+02 1.547960000000000036e+03
1.549999999999999989e-01 5.525360000000000271e-01 3.769165000000000099e+00 1.280185000000000173e+02 1.547954999999999927e+03
1.559999999999999998e-01 5.525264999999999205e-01 3.698010000000000019e+00 1.279675000000000011e+02 1.547950000000000045e+03
1.570000000000000007e-01 5.525149999999999784e-01 3.623285000000000089e+00 1.279074999999999989e+02 1.547934999999999945e+03
1.580000000000000016e-01 5.525025000000000075e-01 3.546599999999999753e+00 1.278409999999999940e+02 1.547920000000000073e+03
1.590000000000000024e-01 5.524894999999999667e-01 3.469414999999999694e+00 1.277700000000000102e+02 1.547905000000000200e+03
