# t [s], A [cm^2], U [cm/s], P [cPa], c [cm/s]
1.000000000000000021e-03 1.478034999999999766e-01 4.470430000000000237e-01 1.039114999999999895e+02 1.996465000000000146e+03
2.000000000000000042e-03 1.477634999999999921e-01 2.194309500000000135e+00 1.001723000000000070e+02 1.996034999999999854e+03
3.000000000000000062e-03 1.476490000000000025e-01 4.287561000000000178e+00 9.526939999999999031e+01 1.994855000000000018e+03
4.000000000000000083e-03 1.474909999999999832e-01 6.603825499999999238e+00 9.014220000000000255e+01 1.993244999999999891e+03
5.000000000000000104e-03 1.473185000000000189e-01 9.057904999999999873e+00 8.567390000000000327e+01 1.991515000000000100e+03
6.000000000000000125e-03 1.471505000000000174e-01 1.146032999999999902e+01 8.206864999999999100e+01 1.989845000000000027e+03
7.000000000000000146e-03 1.469920000000000115e-01 1.360834000000000010e+01 7.902780000000001337e+01 1.988285000000000082e+03
8.000000000000000167e-03 1.468450000000000033e-01 1.543531499999999923e+01 7.631925000000001091e+01 1.986880000000000109e+03
9.000000000000001055e-03 1.467149999999999843e-01 1.697995000000000232e+01 7.398279999999999745e+01 1.985644999999999982e+03
1.000000000000000194e-02 1.466034999999999977e-01 1.827414999999999878e+01 7.207229999999999848e+01 1.984595000000000027e+03
1.099999999999999936e-02 1.465104999999999880e-01 1.932955000000000112e+01 7.054524999999999579e+01 1.983730000000000018e+03
1.200000000000000025e-02 1.464345000000000230e-01 2.015825000000000244e+01 6.932865000000001032e+01 1.983029999999999973e+03
1.300000000000000114e-02 1.463720000000000021e-01 2.076845000000000141e+01 6.833334999999999582e+01 1.982470000000000027e+03
1.400000000000000203e-02 1.463205000000000200e-01 2.117669999999999675e+01 6.746999999999999886e+01 1.982009999999999991e+03
1.499999999999999944e-02 1.462779999999999914e-01 2.144424999999999670e+01 6.674875000000000114e+01 1.981639999999999873e+03
1.600000000000000033e-02 1.462470000000000159e-01 2.168894999999999840e+01 6.636055000000000348e+01 1.981375000000000000e+03
1.700000000000000122e-02 1.462339999999999751e-01 2.204529999999999745e+01 6.661414999999999509e+01 1.981269999999999982e+03
1.800000000000000211e-02 1.462444999999999995e-01 2.259795000000000087e+01 6.775079999999999814e+01 1.981384999999999991e+03
1.900000000000000300e-02 1.462824999999999820e-01 2.333619999999999806e+01 6.977004999999999768e+01 1.981744999999999891e+03
2.000000000000000042e-02 1.463430000000000009e-01 2.415585000000000093e+01 7.237839999999999918e+01 1.982320000000000164e+03
2.100000000000000130e-02 1.464159999999999906e-01 2.490129999999999910e+01 7.507939999999999259e+01 1.983014999999999873e+03
2.200000000000000219e-02 1.464900000000000091e-01 2.542385000000000161e+01 7.734565000000000623e+01 1.983724999999999909e+03
2.299999999999999961e-02 1.465519999999999878e-01 2.562995000000000090e+01 7.879040000000000532e+01 1.984325000000000045e+03
2.400000000000000050e-02 1.465934999999999877e-01 2.550440000000000040e+01 7.927185000000000059e+01 1.984744999999999891e+03
2.500000000000000139e-02 1.466129999999999933e-01 2.510269999999999868e+01 7.890260000000000673e+01 1.984954999999999927e+03
2.600000000000000228e-02 1.466124999999999790e-01 2.452195000000000036e+01 7.797225000000000250e+01 1.984970000000000027e+03
2.700000000000000316e-02 1.465990000000000071e-01 2.386244999999999905e+01 7.682489999999999952e+01 1.984864999999999782e+03
2.800000000000000058e-02 1.465790000000000148e-01 2.319664999999999822e+01 7.574110000000000298e+01 1.984679999999999836e+03
2.900000000000000147e-02 1.465579999999999938e-01 2.255414999999999992e+01 7.486480000000000246e+01 1.984485000000000127e+03
3.000000000000000236e-02 1.465380000000000016e-01 2.192445000000000022e+01 7.419200000000000728e+01 1.984309999999999945e+03
3.099999999999999978e-02 1.465199999999999836e-01 2.127364999999999995e+01 7.361099999999999000e+01 1.984134999999999991e+03
3.200000000000000067e-02 1.465009999999999923e-01 2.056615000000000038e+01 7.297335000000001060e+01 1.983960000000000036e+03
3.300000000000000155e-02 1.464779999999999971e-01 1.978555000000000064e+01 7.216660000000000252e+01 1.983750000000000000e+03
3.400000000000000244e-02 1.464509999999999978e-01 1.894610000000000127e+01 7.116710000000000491e+01 1.983494999999999891e+03
3.500000000000000333e-02 1.464194999999999802e-01 1.809485000000000099e+01 7.005895000000001005e+01 1.983204999999999927e+03
3.600000000000000422e-02 1.463865000000000027e-01 1.730194999999999794e+01 6.901609999999999445e+01 1.982894999999999982e+03
3.700000000000000511e-02 1.463575000000000015e-01 1.664359999999999928e+01 6.825419999999999732e+01 1.982619999999999891e+03
3.799999999999999906e-02 1.463375000000000092e-01 1.618265000000000242e+01 6.796975000000000477e+01 1.982429999999999836e+03
3.899999999999999994e-02 1.463315000000000032e-01 1.595234999999999914e+01 6.828289999999999793e+01 1.982360000000000127e+03
4.000000000000000083e-02 1.463419999999999999e-01 1.594759999999999955e+01 6.920234999999999559e+01 1.982444999999999936e+03
4.100000000000000172e-02 1.463674999999999837e-01 1.612525000000000119e+01 7.061805000000001087e+01 1.982674999999999955e+03
4.200000000000000261e-02 1.464070000000000094e-01 1.641219999999999857e+01 7.232200000000000273e+01 1.983029999999999973e+03
4.300000000000000350e-02 1.464529999999999998e-01 1.671885000000000332e+01 7.404890000000000327e+01 1.983460000000000036e+03
4.400000000000000439e-02 1.464989999999999903e-01 1.695400000000000063e+01 7.552420000000000755e+01 1.983889999999999873e+03
4.499999999999999833e-02 1.465394999999999892e-01 1.703795000000000215e+01 7.650900000000000034e+01 1.984264999999999873e+03
4.599999999999999922e-02 1.465655000000000152e-01 1.691165000000000163e+01 7.683224999999998772e+01 1.984519999999999982e+03
4.700000000000000011e-02 1.465739999999999821e-01 1.654115000000000180e+01 7.640684999999999150e+01 1.984605000000000018e+03
4.800000000000000100e-02 1.465624999999999845e-01 1.591765000000000008e+01 7.522934999999999661e+01 1.984505000000000109e+03
4.900000000000000189e-02 1.465290000000000203e-01 1.505395000000000039e+01 7.336629999999999541e+01 1.984204999999999927e+03
5.000000000000000278e-02 1.464759999999999951e-01 1.397879999999999967e+01 7.093325000000000102e+01 1.983710000000000036e+03
5.100000000000000366e-02 1.464054999999999940e-01 1.273152999999999935e+01 6.807229999999999848e+01 1.983054999999999836e+03
5.200000000000000455e-02 1.463210000000000066e-01 1.135670000000000002e+01 6.493250000000000455e+01 1.982264999999999873e+03
5.300000000000000544e-02 1.462269999999999959e-01 9.900985000000000369e+00 6.165634999999999621e+01 1.981380000000000109e+03
5.399999999999999939e-02 1.461260000000000059e-01 8.411149999999999238e+00 5.837284999999999968e+01 1.980434999999999945e+03
5.500000000000000028e-02 1.460235000000000005e-01 6.933225000000000193e+00 5.519644999999999868e+01 1.979470000000000027e+03
5.600000000000000117e-02 1.459219999999999962e-01 5.512564999999999493e+00 5.222929999999999495e+01 1.978515000000000100e+03
5.700000000000000205e-02 1.458254999999999968e-01 4.194100500000000231e+00 4.956480000000000530e+01 1.977599999999999909e+03
5.800000000000000294e-02 1.457364999999999911e-01 3.021860999999999908e+00 4.729094999999999516e+01 1.976759999999999991e+03
5.900000000000000383e-02 1.456594999999999973e-01 2.038298999999999861e+00 4.549110000000000298e+01 1.976019999999999982e+03
6.000000000000000472e-02 1.455960000000000032e-01 1.282839999999999980e+00 4.424255000000000138e+01 1.975414999999999964e+03
6.099999999999999867e-02 1.455494999999999983e-01 7.899999999999998135e-01 4.361310000000000286e+01 1.974964999999999918e+03
6.199999999999999956e-02 1.455214999999999981e-01 5.872920999999999836e-01 4.365599999999999881e+01 1.974690000000000055e+03
6.300000000000000044e-02 1.455144999999999911e-01 6.933555000000000135e-01 4.440534999999999854e+01 1.974605000000000018e+03
6.400000000000000133e-02 1.455299999999999927e-01 1.116456000000000115e+00 4.587165000000000248e+01 1.974724999999999909e+03
6.500000000000000222e-02 1.455679999999999752e-01 1.853760499999999922e+00 4.803949999999999676e+01 1.975070000000000164e+03
6.600000000000000311e-02 1.456280000000000074e-01 2.891357000000000177e+00 5.086745000000000516e+01 1.975615000000000009e+03
6.700000000000000400e-02 1.457100000000000062e-01 4.205115000000000158e+00 5.429014999999999702e+01 1.976365000000000009e+03
6.800000000000000488e-02 1.458109999999999962e-01 5.762165000000000425e+00 5.822259999999999991e+01 1.977299999999999955e+03
6.900000000000000577e-02 1.459300000000000042e-01 7.522859999999999658e+00 6.256550000000000011e+01 1.978400000000000091e+03
7.000000000000000666e-02 1.460629999999999984e-01 9.443205000000000737e+00 6.721155000000000257e+01 1.979639999999999873e+03
7.100000000000000755e-02 1.462074999999999902e-01 1.147691000000000017e+01 7.205205000000000837e+01 1.980994999999999891e+03
7.200000000000000844e-02 1.463599999999999901e-01 1.357799499999999959e+01 7.698274999999999579e+01 1.982430000000000064e+03
7.300000000000000933e-02 1.465175000000000227e-01 1.570285000000000153e+01 8.190899999999999181e+01 1.983914999999999964e+03
7.399999999999999634e-02 1.466764999999999874e-01 1.781190000000000140e+01 8.675030000000000996e+01 1.985425000000000182e+03
7.499999999999999722e-02 1.468355000000000077e-01 1.987154999999999916e+01 9.144339999999999691e+01 1.986934999999999945e+03
7.599999999999999811e-02 1.469920000000000115e-01 2.185475000000000279e+01 9.594384999999999764e+01 1.988424999999999955e+03
7.699999999999999900e-02 1.471435000000000104e-01 2.374195000000000277e+01 1.002272999999999996e+02 1.989880000000000109e+03
7.799999999999999989e-02 1.472895000000000176e-01 2.552120000000000033e+01 1.042871999999999986e+02 1.991284999999999854e+03
7.900000000000000078e-02 1.474305000000000199e-01 2.718764999999999787e+01 1.081349999999999909e+02 1.992640000000000100e+03
8.000000000000000167e-02 1.475655000000000161e-01 2.874295000000000044e+01 1.117949999999999875e+02 1.993944999999999936e+03
8.100000000000000255e-02 1.476954999999999796e-01 3.019389999999999930e+01 1.153019999999999925e+02 1.995200000000000045e+03
8.200000000000000344e-02 1.478209999999999802e-01 3.155130000000000123e+01 1.186980000000000075e+02 1.996414999999999964e+03
8.300000000000000433e-02 1.479425000000000046e-01 3.282789999999999964e+01 1.220225000000000080e+02 1.997599999999999909e+03
8.400000000000000522e-02 1.480624999999999858e-01 3.403740000000000521e+01 1.253160000000000025e+02 1.998759999999999991e+03
8.500000000000000611e-02 1.481810000000000072e-01 3.519265000000000043e+01 1.286109999999999900e+02 1.999909999999999854e+03
8.600000000000000699e-02 1.482990000000000141e-01 3.630465000000000231e+01 1.319314999999999998e+02 2.001059999999999945e+03
8.700000000000000788e-02 1.484169999999999934e-01 3.738145000000000095e+01 1.352909999999999968e+02 2.002215000000000146e+03
8.800000000000000877e-02 1.485365000000000157e-01 3.842764999999999986e+01 1.386904999999999859e+02 2.003375000000000000e+03
8.899999999999999578e-02 1.486564999999999970e-01 3.944400000000000261e+01 1.421214999999999975e+02 2.004539999999999964e+03
8.999999999999999667e-02 1.487769999999999926e-01 4.042764999999999986e+01 1.455629999999999882e+02 2.005715000000000146e+03
9.099999999999999756e-02 1.488970000000000016e-01 4.137210000000000321e+01 1.489859999999999900e+02 2.006890000000000100e+03
9.199999999999999845e-02 1.490170000000000106e-01 4.226805000000000234e+01 1.523564999999999827e+02 2.008055000000000064e+03
9.299999999999999933e-02 1.491345000000000032e-01 4.310399999999999920e+01 1.556329999999999814e+02 2.009210000000000036e+03
9.400000000000000022e-02 1.492495000000000072e-01 4.386695000000000277e+01 1.587744999999999891e+02 2.010329999999999927e+03
9.500000000000000111e-02 1.493599999999999928e-01 4.454310000000000258e+01 1.617394999999999925e+02 2.011414999999999964e+03
9.600000000000000200e-02 1.494650000000000145e-01 4.511910000000000309e+01 1.644884999999999877e+02 2.012440000000000055e+03
9.700000000000000289e-02 1.495630000000000015e-01 4.558240000000000691e+01 1.669855000000000018e+02 2.013405000000000200e+03
9.800000000000000377e-02 1.496534999999999949e-01 4.592194999999999538e+01 1.692019999999999982e+02 2.014295000000000073e+03
9.900000000000000466e-02 1.497350000000000070e-01 4.612914999999999566e+01 1.711150000000000091e+02 2.015099999999999909e+03
1.000000000000000056e-01 1.498069999999999957e-01 4.619785000000000252e+01 1.727094999999999914e+02 2.015815000000000055e+03
1.010000000000000064e-01 1.498685000000000156e-01 4.612514999999999787e+01 1.739784999999999968e+02 2.016425000000000182e+03
1.020000000000000073e-01 1.499199999999999977e-01 4.591114999999999924e+01 1.749225000000000136e+02 2.016940000000000055e+03
1.030000000000000082e-01 1.499604999999999966e-01 4.555955000000000155e+01 1.755509999999999877e+02 2.017349999999999909e+03
1.040000000000000091e-01 1.499904999999999988e-01 4.507699999999999818e+01 1.758810000000000002e+02 2.017655000000000200e+03
1.050000000000000100e-01 1.500110000000000054e-01 4.447334999999999638e+01 1.759354999999999905e+02 2.017869999999999891e+03
1.059999999999999970e-01 1.500225000000000031e-01 4.376104999999999734e+01 1.757439999999999998e+02 2.017990000000000009e+03
1.069999999999999979e-01 1.500250000000000195e-01 4.295465000000000089e+01 1.753394999999999868e+02 2.018025000000000091e+03
1.079999999999999988e-01 1.500199999999999867e-01 4.207035000000000480e+01 1.747584999999999980e+02 2.017990000000000009e+03
1.089999999999999997e-01 1.500084999999999891e-01 4.112519999999999953e+01 1.740395000000000039e+02 2.017889999999999873e+03
1.100000000000000006e-01 1.499914999999999998e-01 4.013654999999999973e+01 1.732185000000000059e+02 2.017730000000000018e+03
1.110000000000000014e-01 1.499709999999999932e-01 3.912149999999999750e+01 1.723324999999999818e+02 2.017534999999999854e+03
1.120000000000000023e-01 1.499475000000000113e-01 3.809600000000000364e+01 1.714134999999999991e+02 2.017309999999999945e+03
1.130000000000000032e-01 1.499219999999999997e-01 3.707455000000000211e+01 1.704904999999999973e+02 2.017059999999999945e+03
1.140000000000000041e-01 1.498950000000000005e-01 3.606960000000000122e+01 1.695865000000000009e+02 2.016799999999999955e+03
1.150000000000000050e-01 1.498680000000000012e-01 3.509130000000000393e+01 1.687185000000000059e+02 2.016529999999999973e+03
1.160000000000000059e-01 1.498404999999999876e-01 3.414724999999999966e+01 1.678999999999999773e+02 2.016275000000000091e+03
1.170000000000000068e-01 1.498150000000000037e-01 3.324235000000000184e+01 1.671349999999999909e+02 2.016014999999999873e+03
1.180000000000000077e-01 1.497900000000000065e-01 3.237879999999999825e+01 1.664234999999999900e+02 2.015775000000000091e+03
1.190000000000000085e-01 1.497664999999999969e-01 3.155630000000000024e+01 1.657599999999999909e+02 2.015535000000000082e+03
1.200000000000000094e-01 1.497439999999999882e-01 3.077214999999999634e+01 1.651334999999999980e+02 2.015309999999999945e+03
1.209999999999999964e-01 1.497220000000000217e-01 3.002179999999999893e+01 1.645305000000000177e+02 2.015094999999999800e+03
1.219999999999999973e-01 1.497005000000000141e-01 2.929894999999999783e+01 1.639329999999999927e+02 2.014884999999999991e+03
1.229999999999999982e-01 1.496794999999999931e-01 2.859619999999999962e+01 1.633230000000000075e+02 2.014670000000000073e+03
1.239999999999999991e-01 1.496574999999999989e-01 2.790534999999999854e+01 1.626800000000000068e+02 2.014454999999999927e+03
1.250000000000000000e-01 1.496350000000000180e-01 2.721795000000000186e+01 1.619855000000000018e+02 2.014230000000000018e+03
1.260000000000000009e-01 1.496104999999999796e-01 2.652595000000000169e+01 1.612205000000000155e+02 2.013985000000000127e+03
1.270000000000000018e-01 1.495834999999999804e-01 2.582184999999999775e+01 1.603720000000000141e+02 2.013730000000000018e+03
1.280000000000000027e-01 1.495544999999999791e-01 2.509929999999999950e+01 1.594259999999999877e+02 2.013440000000000055e+03
1.290000000000000036e-01 1.495225000000000026e-01 2.435345000000000226e+01 1.583750000000000000e+02 2.013125000000000000e+03
1.300000000000000044e-01 1.494869999999999810e-01 2.358099999999999952e+01 1.572160000000000082e+02 2.012779999999999973e+03
1.310000000000000053e-01 1.494485000000000119e-01 2.278090000000000259e+01 1.559495000000000005e+02 2.012405000000000200e+03
1.320000000000000062e-01 1.494059999999999833e-01 2.195374999999999943e+01 1.545815000000000055e+02 2.011994999999999891e+03
1.330000000000000071e-01 1.493609999999999938e-01 2.110249999999999915e+01 1.531235000000000070e+02 2.011554999999999836e+03
1.340000000000000080e-01 1.493130000000000013e-01 2.023190000000000310e+01 1.515900000000000034e+02 2.011085000000000036e+03
1.350000000000000089e-01 1.492620000000000058e-01 1.934850000000000136e+01 1.499995000000000118e+02 2.010595000000000027e+03
1.360000000000000098e-01 1.492094999999999949e-01 1.846030000000000015e+01 1.483759999999999764e+02 2.010085000000000036e+03
1.370000000000000107e-01 1.491554999999999964e-01 1.757659999999999911e+01 1.467415000000000020e+02 2.009559999999999945e+03
1.380000000000000115e-01 1.491009999999999835e-01 1.670720000000000027e+01 1.451220000000000141e+02 2.009029999999999973e+03
1.390000000000000124e-01 1.490464999999999984e-01 1.586239999999999917e+01 1.435430000000000064e+02 2.008500000000000000e+03
1.400000000000000133e-01 1.489929999999999866e-01 1.505230000000000068e+01 1.420285000000000082e+02 2.007980000000000018e+03
1.410000000000000142e-01 1.489415000000000044e-01 1.428650000000000020e+01 1.406009999999999991e+02 2.007480000000000018e+03
1.420000000000000151e-01 1.488924999999999832e-01 1.357349999999999923e+01 1.392805000000000177e+02 2.007000000000000000e+03
1.430000000000000160e-01 1.488464999999999927e-01 1.292065000000000019e+01 1.380815000000000055e+02 2.006545000000000073e+03
1.440000000000000169e-01 1.488045000000000062e-01 1.233370000000000033e+01 1.370180000000000007e+02 2.006130000000000109e+03
1.450000000000000178e-01 1.487660000000000093e-01 1.181662999999999997e+01 1.360954999999999870e+02 2.005755000000000109e+03
1.459999999999999909e-01 1.487314999999999887e-01 1.137163500000000127e+01 1.353179999999999836e+02 2.005420000000000073e+03
1.469999999999999918e-01 1.487025000000000152e-01 1.099906000000000006e+01 1.346839999999999975e+02 2.005125000000000000e+03
1.479999999999999927e-01 1.486770000000000036e-01 1.069736999999999938e+01 1.341885000000000048e+02 2.004880000000000109e+03
1.489999999999999936e-01 1.486565000000000247e-01 1.046359999999999957e+01 1.338230000000000075e+02 2.004675000000000182e+03
1.499999999999999944e-01 1.486405000000000087e-01 1.029317999999999955e+01 1.335749999999999886e+02 2.004514999999999873e+03
1.509999999999999953e-01 1.486279999999999824e-01 1.018043499999999923e+01 1.334320000000000164e+02 2.004384999999999991e+03
1.519999999999999962e-01 1.486195000000000155e-01 1.011873500000000092e+01 1.333779999999999859e+02 2.004289999999999964e+03
1.529999999999999971e-01 1.486135000000000095e-01 1.010080999999999918e+01 1.333965000000000032e+02 2.004230000000000018e+03
1.539999999999999980e-01 1.486100000000000199e-01 1.011916000000000082e+01 1.334714999999999918e+02 2.004199999999999818e+03
1.549999999999999989e-01 1.486095000000000055e-01 1.016604500000000044e+01 1.335874999999999773e+02 2.004184999999999945e+03
1.559999999999999998e-01 1.486105000000000065e-01 1.023401499999999942e+01 1.337289999999999850e+02 2.004190000000000055e+03
1.570000000000000007e-01 1.486119999999999941e-01 1.031587999999999994e+01 1.338824999999999932e+02 2.004204999999999927e+03
1.580000000000000016e-01 1.486149999999999971e-01 1.040520500000000048e+01 1.340360000000000014e+02 2.004230000000000018e+03
1.590000000000000024e-01 1.486180000000000001e-01 1.049616500000000130e+01 1.341789999999999736e+02 2.004255000000000109e+03
