# t [s], A [cm^2], U [cm/s], P [cPa], c [cm/s]
1.000000000000000021e-03 5.564135000000000053e-01 3.971399999999999930e-03 1.095834999999999866e+02 1.585744999999999891e+03
2.000000000000000042e-03 5.564069999999999849e-01 3.976499999999999133e-03 1.095630000000000024e+02 1.585740000000000009e+03
3.000000000000000062e-03 5.564609999999999834e-01 1.078823500000000157e-01 1.096744999999999948e+02 1.585769999999999982e+03
4.000000000000000083e-03 5.564999999999999947e-01 1.903168000000000082e-01 1.097814999999999941e+02 1.585799999999999955e+03
5.000000000000000104e-03 5.564744999999999830e-01 1.518974499999999894e-01 1.097115000000000009e+02 1.585784999999999854e+03
6.000000000000000125e-03 5.564210000000000544e-01 5.427899999999996616e-02 1.094934999999999974e+02 1.585740000000000009e+03
7.000000000000000146e-03 5.563679999999999737e-01 -5.125099999999999101e-02 1.091935000000000002e+02 1.585674999999999955e+03
8.000000000000000167e-03 5.562785000000000091e-01 -2.378500000000000059e-01 1.087325000000000017e+02 1.585569999999999936e+03
9.000000000000001055e-03 5.561310000000000420e-01 -5.519249999999998879e-01 1.080229999999999961e+02 1.585410000000000082e+03
1.000000000000000194e-02 5.559195000000000109e-01 -9.970599999999999463e-01 1.070174999999999983e+02 1.585174999999999955e+03
1.099999999999999936e-02 5.556294999999999984e-01 -1.588345000000000118e+00 1.056539999999999964e+02 1.584859999999999900e+03
1.200000000000000025e-02 5.552544999999999842e-01 -2.316994999999999916e+00 1.038974499999999921e+02 1.584434999999999945e+03
1.300000000000000114e-02 5.548235000000000250e-01 -3.098530000000000229e+00 1.018132500000000107e+02 1.583920000000000073e+03
1.400000000000000203e-02 5.543925000000000658e-01 -3.787999999999999812e+00 9.957980000000000587e+01 1.583349999999999909e+03
1.499999999999999944e-02 5.540129999999999777e-01 -4.246030499999999819e+00 9.740979999999998995e+01 1.582764999999999873e+03
1.600000000000000033e-02 5.537100000000000355e-01 -4.395576499999999776e+00 9.546774999999999523e+01 1.582215000000000146e+03
1.700000000000000122e-02 5.534765000000000379e-01 -4.238796000000000674e+00 9.381839999999999691e+01 1.581720000000000027e+03
1.800000000000000211e-02 5.532825000000000104e-01 -3.839948999999999835e+00 9.242549999999999955e+01 1.581269999999999982e+03
1.900000000000000300e-02 5.530919999999999170e-01 -3.291955499999999812e+00 9.118465000000000487e+01 1.580849999999999909e+03
2.000000000000000042e-02 5.528745000000000465e-01 -2.681625999999999621e+00 8.997120000000001028e+01 1.580440000000000055e+03
2.100000000000000130e-02 5.526134999999999797e-01 -2.064109999999999889e+00 8.868514999999999304e+01 1.580019999999999982e+03
2.200000000000000219e-02 5.523119999999999141e-01 -1.453919999999999879e+00 8.727979999999999450e+01 1.579575000000000045e+03
2.299999999999999961e-02 5.519840000000000302e-01 -8.339200000000002166e-01 8.576400000000001000e+01 1.579099999999999909e+03
2.400000000000000050e-02 5.516480000000000272e-01 -1.763849999999997920e-01 8.418219999999999459e+01 1.578614999999999782e+03
2.500000000000000139e-02 5.513155000000000694e-01 5.345450000000000479e-01 8.258279999999999177e+01 1.578119999999999891e+03
2.600000000000000228e-02 5.509884999999999922e-01 1.287894999999999790e+00 8.099039999999999395e+01 1.577619999999999891e+03
2.700000000000000316e-02 5.506554999999999644e-01 2.042264999999999997e+00 7.939009999999998968e+01 1.577119999999999891e+03
2.800000000000000058e-02 5.502974999999999950e-01 2.732725000000000293e+00 7.772710000000000719e+01 1.576599999999999909e+03
2.900000000000000147e-02 5.498919999999999364e-01 3.284899999999999931e+00 7.591960000000000264e+01 1.576054999999999836e+03
3.000000000000000236e-02 5.494204999999999783e-01 3.631929999999999659e+00 7.388094999999999857e+01 1.575454999999999927e+03
3.099999999999999978e-02 5.488709999999999978e-01 3.730099999999999749e+00 7.154439999999999600e+01 1.574785000000000082e+03
3.200000000000000067e-02 5.482469999999999288e-01 3.569320000000000270e+00 6.888464999999999350e+01 1.574039999999999964e+03
3.300000000000000155e-02 5.475634999999999808e-01 3.175889999999999436e+00 6.593025000000000091e+01 1.573230000000000018e+03
3.400000000000000244e-02 5.468459999999999432e-01 2.606830000000000425e+00 6.276340000000000430e+01 1.572360000000000127e+03
3.500000000000000333e-02 5.461279999999999468e-01 1.938744999999999941e+00 5.950860000000000127e+01 1.571470000000000027e+03
3.600000000000000422e-02 5.454415000000000235e-01 1.254069999999999574e+00 5.631414999999999793e+01 1.570575000000000045e+03
3.700000000000000511e-02 5.448190000000000532e-01 6.293449999999998212e-01 5.333150000000000546e+01 1.569730000000000018e+03
3.799999999999999906e-02 5.442829999999999613e-01 1.268750000000000711e-01 5.069735000000000014e+01 1.568949999999999818e+03
3.899999999999999994e-02 5.438514999999999322e-01 -2.090250000000000163e-01 4.852120000000000033e+01 1.568289999999999964e+03
4.000000000000000083e-02 5.435335000000000027e-01 -3.516249999999998543e-01 4.687910000000000110e+01 1.567755000000000109e+03
4.100000000000000172e-02 5.433329999999999549e-01 -2.886900000000001132e-01 4.581340000000000146e+01 1.567369999999999891e+03
4.200000000000000261e-02 5.432489999999999819e-01 -1.794999999999991047e-02 4.533724999999999739e+01 1.567134999999999991e+03
4.300000000000000350e-02 5.432779999999999276e-01 4.573834999999999429e-01 4.544154999999999944e+01 1.567059999999999945e+03
4.400000000000000439e-02 5.434149999999999814e-01 1.131975500000000023e+00 4.610210000000000008e+01 1.567144999999999982e+03
4.499999999999999833e-02 5.436539999999999706e-01 2.000000000000000000e+00 4.728610000000000468e+01 1.567375000000000000e+03
4.599999999999999922e-02 5.439884999999999859e-01 3.055039999999999978e+00 4.895600000000000307e+01 1.567744999999999891e+03
4.700000000000000011e-02 5.444109999999999783e-01 4.288770000000000415e+00 5.107094999999999629e+01 1.568240000000000009e+03
4.800000000000000100e-02 5.449144999999999683e-01 5.689040000000000319e+00 5.358660000000000423e+01 1.568860000000000127e+03
4.900000000000000189e-02 5.454885000000000428e-01 7.238355500000000831e+00 5.645414999999999850e+01 1.569589999999999918e+03
5.000000000000000278e-02 5.461209999999999676e-01 8.913235999999999493e+00 5.961910000000000309e+01 1.570409999999999854e+03
5.100000000000000366e-02 5.467999999999999527e-01 1.068457000000000079e+01 6.302170000000000272e+01 1.571309999999999945e+03
5.200000000000000455e-02 5.475109999999999699e-01 1.251910999999999952e+01 6.659775000000000489e+01 1.572264999999999873e+03
5.300000000000000544e-02 5.482409999999999783e-01 1.438150499999999887e+01 7.028135000000000332e+01 1.573264999999999873e+03
5.399999999999999939e-02 5.489760000000000195e-01 1.623686499999999810e+01 7.400784999999999059e+01 1.574300000000000182e+03
5.500000000000000028e-02 5.497045000000000403e-01 1.805294500000000113e+01 7.771770000000000778e+01 1.575335000000000036e+03
5.600000000000000117e-02 5.504175000000000040e-01 1.980235000000000056e+01 8.135944999999999538e+01 1.576369999999999891e+03
5.700000000000000205e-02 5.511079999999999313e-01 2.146340000000000003e+01 8.489240000000000919e+01 1.577389999999999873e+03
5.800000000000000294e-02 5.517710000000000115e-01 2.302120000000000033e+01 8.828800000000001091e+01 1.578380000000000109e+03
5.900000000000000383e-02 5.524054999999999938e-01 2.446719999999999828e+01 9.153050000000000352e+01 1.579339999999999918e+03
6.000000000000000472e-02 5.530114999999999892e-01 2.579899999999999949e+01 9.461645000000000039e+01 1.580269999999999982e+03
6.099999999999999867e-02 5.535915000000000141e-01 2.701895000000000024e+01 9.755330000000000723e+01 1.581160000000000082e+03
6.199999999999999956e-02 5.541495000000000726e-01 2.813369999999999749e+01 1.003562499999999886e+02 1.582009999999999991e+03
6.300000000000000044e-02 5.546900000000000164e-01 2.915249999999999986e+01 1.030472000000000037e+02 1.582840000000000146e+03
6.400000000000000133e-02 5.552190000000000181e-01 3.008650000000000091e+01 1.056527999999999992e+02 1.583639999999999873e+03
6.500000000000000222e-02 5.557400000000000118e-01 3.094744999999999990e+01 1.081989999999999981e+02 1.584420000000000073e+03
6.600000000000000311e-02 5.562589999999999479e-01 3.174690000000000012e+01 1.107125000000000057e+02 1.585190000000000055e+03
6.700000000000000400e-02 5.567794999999999828e-01 3.249519999999999698e+01 1.132144999999999868e+02 1.585960000000000036e+03
6.800000000000000488e-02 5.573035000000000627e-01 3.320094999999999885e+01 1.157235000000000014e+02 1.586724999999999909e+03
6.900000000000000577e-02 5.578330000000000233e-01 3.387019999999999698e+01 1.182505000000000024e+02 1.587494999999999891e+03
7.000000000000000666e-02 5.583690000000000042e-01 3.450624999999999432e+01 1.207990000000000066e+02 1.588264999999999873e+03
7.100000000000000755e-02 5.589079999999999604e-01 3.510930000000000462e+01 1.233654999999999973e+02 1.589039999999999964e+03
7.200000000000000844e-02 5.594479999999999453e-01 3.567650000000000432e+01 1.259380000000000024e+02 1.589819999999999936e+03
7.300000000000000933e-02 5.599855000000000249e-01 3.620234999999999559e+01 1.284994999999999834e+02 1.590595000000000027e+03
7.399999999999999634e-02 5.605139999999999567e-01 3.667934999999999945e+01 1.310250000000000057e+02 1.591355000000000018e+03
7.499999999999999722e-02 5.610279999999999712e-01 3.709829999999999472e+01 1.334879999999999995e+02 1.592110000000000127e+03
7.599999999999999811e-02 5.615219999999999656e-01 3.744939999999999714e+01 1.358590000000000089e+02 1.592835000000000036e+03
7.699999999999999900e-02 5.619894999999999197e-01 3.772279999999999944e+01 1.381069999999999993e+02 1.593530000000000200e+03
7.799999999999999989e-02 5.624240000000000350e-01 3.790930000000000177e+01 1.402035000000000196e+02 1.594184999999999945e+03
7.900000000000000078e-02 5.628225000000000033e-01 3.800114999999999554e+01 1.421225000000000023e+02 1.594799999999999955e+03
8.000000000000000167e-02 5.631800000000000139e-01 3.799219999999999686e+01 1.438435000000000059e+02 1.595349999999999909e+03
8.100000000000000255e-02 5.634939999999999394e-01 3.787874999999999659e+01 1.453489999999999895e+02 1.595849999999999909e+03
8.200000000000000344e-02 5.637619999999999854e-01 3.765944999999999965e+01 1.466299999999999955e+02 1.596279999999999973e+03
8.300000000000000433e-02 5.639840000000000408e-01 3.733530000000000371e+01 1.476814999999999998e+02 1.596654999999999973e+03
8.400000000000000522e-02 5.641610000000000236e-01 3.691004999999999825e+01 1.485049999999999955e+02 1.596954999999999927e+03
8.500000000000000611e-02 5.642945000000000322e-01 3.638969999999999771e+01 1.491090000000000089e+02 1.597194999999999936e+03
8.600000000000000699e-02 5.643869999999999720e-01 3.578244999999999720e+01 1.495054999999999836e+02 1.597375000000000000e+03
8.700000000000000788e-02 5.644424999999999581e-01 3.509839999999999804e+01 1.497125000000000057e+02 1.597500000000000000e+03
8.800000000000000877e-02 5.644649999999999945e-01 3.434915000000000163e+01 1.497514999999999930e+02 1.597565000000000055e+03
8.899999999999999578e-02 5.644590000000000440e-01 3.354749999999999943e+01 1.496449999999999818e+02 1.597590000000000146e+03
8.999999999999999667e-02 5.644299999999999873e-01 3.270680000000000121e+01 1.494200000000000159e+02 1.597574999999999818e+03
9.099999999999999756e-02 5.643835000000000379e-01 3.184069999999999823e+01 1.491025000000000205e+02 1.597525000000000091e+03
9.199999999999999845e-02 5.643234999999999779e-01 3.096239999999999881e+01 1.487180000000000177e+02 1.597449999999999818e+03
9.299999999999999933e-02 5.642559999999999798e-01 3.008449999999999847e+01 1.482914999999999850e+02 1.597349999999999909e+03
9.400000000000000022e-02 5.641844999999999777e-01 2.921815000000000140e+01 1.478449999999999989e+02 1.597244999999999891e+03
9.500000000000000111e-02 5.641119999999999468e-01 2.837290000000000134e+01 1.473990000000000009e+02 1.597130000000000109e+03
9.600000000000000200e-02 5.640425000000000022e-01 2.755649999999999977e+01 1.469680000000000177e+02 1.597014999999999873e+03
9.700000000000000289e-02 5.639775000000000205e-01 2.677420000000000044e+01 1.465639999999999930e+02 1.596904999999999973e+03
9.800000000000000377e-02 5.639184999999999892e-01 2.602915000000000134e+01 1.461945000000000050e+02 1.596795000000000073e+03
9.900000000000000466e-02 5.638649999999999496e-01 2.532215000000000060e+01 1.458620000000000232e+02 1.596694999999999936e+03
1.000000000000000056e-01 5.638164999999999427e-01 2.465174999999999983e+01 1.455649999999999977e+02 1.596605000000000018e+03
1.010000000000000064e-01 5.637725000000000097e-01 2.401460000000000150e+01 1.452984999999999900e+02 1.596519999999999982e+03
1.020000000000000073e-01 5.637305000000000232e-01 2.340570000000000306e+01 1.450540000000000020e+02 1.596434999999999945e+03
1.030000000000000082e-01 5.636889999999999956e-01 2.281879999999999953e+01 1.448209999999999980e+02 1.596359999999999900e+03
1.040000000000000091e-01 5.636449999999999516e-01 2.224685000000000201e+01 1.445860000000000127e+02 1.596284999999999854e+03
1.050000000000000100e-01 5.635955000000000270e-01 2.168220000000000169e+01 1.443365000000000009e+02 1.596204999999999927e+03
1.059999999999999970e-01 5.635384999999999422e-01 2.111755000000000138e+01 1.440584999999999809e+02 1.596119999999999891e+03
1.069999999999999979e-01 5.634719999999999729e-01 2.054565000000000197e+01 1.437400000000000091e+02 1.596025000000000091e+03
1.079999999999999988e-01 5.633934999999999915e-01 1.996034999999999826e+01 1.433700000000000045e+02 1.595914999999999964e+03
1.089999999999999997e-01 5.633015000000000105e-01 1.935650000000000048e+01 1.429389999999999930e+02 1.595795000000000073e+03
1.100000000000000006e-01 5.631954999999999600e-01 1.873029999999999973e+01 1.424420000000000073e+02 1.595654999999999973e+03
1.110000000000000014e-01 5.630745000000000333e-01 1.807954999999999757e+01 1.418754999999999882e+02 1.595494999999999891e+03
1.120000000000000023e-01 5.629399999999999959e-01 1.740370000000000061e+01 1.412390000000000043e+02 1.595320000000000164e+03
1.130000000000000032e-01 5.627919999999999590e-01 1.670394999999999897e+01 1.405380000000000109e+02 1.595125000000000000e+03
1.140000000000000041e-01 5.626330000000000497e-01 1.598320000000000007e+01 1.397769999999999868e+02 1.594910000000000082e+03
1.150000000000000050e-01 5.624639999999999640e-01 1.524584999999999901e+01 1.389664999999999964e+02 1.594684999999999945e+03
1.160000000000000059e-01 5.622890000000000388e-01 1.449779499999999999e+01 1.381189999999999998e+02 1.594444999999999936e+03
1.170000000000000068e-01 5.621099999999999985e-01 1.374600000000000044e+01 1.372479999999999905e+02 1.594199999999999818e+03
1.180000000000000077e-01 5.619309999999999583e-01 1.299841499999999961e+01 1.363704999999999927e+02 1.593949999999999818e+03
1.190000000000000085e-01 5.617550000000000043e-01 1.226347499999999968e+01 1.355024999999999977e+02 1.593699999999999818e+03
1.200000000000000094e-01 5.615854999999999597e-01 1.154982500000000023e+01 1.346605000000000132e+02 1.593449999999999818e+03
1.209999999999999964e-01 5.614259999999999806e-01 1.086589999999999989e+01 1.338615000000000066e+02 1.593210000000000036e+03
1.219999999999999973e-01 5.612789999999999724e-01 1.021980999999999895e+01 1.331204999999999927e+02 1.592994999999999891e+03
1.229999999999999982e-01 5.611475000000000213e-01 9.618655000000000399e+00 1.324515000000000100e+02 1.592785000000000082e+03
1.239999999999999991e-01 5.610330000000000039e-01 9.068439999999998946e+00 1.318654999999999973e+02 1.592599999999999909e+03
1.250000000000000000e-01 5.609379999999999367e-01 8.573949999999999960e+00 1.313704999999999927e+02 1.592440000000000055e+03
1.260000000000000009e-01 5.608630000000000004e-01 8.138275000000000148e+00 1.309724999999999966e+02 1.592304999999999836e+03
1.270000000000000018e-01 5.608075000000000143e-01 7.763085000000000235e+00 1.306744999999999948e+02 1.592194999999999936e+03
1.280000000000000027e-01 5.607720000000000482e-01 7.448299999999999699e+00 1.304750000000000227e+02 1.592115000000000009e+03
1.290000000000000036e-01 5.607554999999999623e-01 7.192344999999999544e+00 1.303700000000000045e+02 1.592054999999999836e+03
1.300000000000000044e-01 5.607554999999999623e-01 6.992220000000000546e+00 1.303539999999999850e+02 1.592030000000000200e+03
1.310000000000000053e-01 5.607709999999999084e-01 6.843690000000000495e+00 1.304174999999999898e+02 1.592025000000000091e+03
1.320000000000000062e-01 5.607995000000000063e-01 6.741509999999999891e+00 1.305504999999999995e+02 1.592039999999999964e+03
1.330000000000000071e-01 5.608385000000000176e-01 6.679700000000000415e+00 1.307409999999999854e+02 1.592069999999999936e+03
1.340000000000000080e-01 5.608865000000000656e-01 6.651785000000000281e+00 1.309759999999999991e+02 1.592119999999999891e+03
1.350000000000000089e-01 5.609394999999999243e-01 6.651099999999999568e+00 1.312429999999999950e+02 1.592179999999999836e+03
1.360000000000000098e-01 5.609954999999999803e-01 6.670999999999999375e+00 1.315300000000000011e+02 1.592250000000000000e+03
1.370000000000000107e-01 5.610525000000000651e-01 6.705119999999999969e+00 1.318249999999999886e+02 1.592319999999999936e+03
1.380000000000000115e-01 5.611090000000000799e-01 6.747524999999999551e+00 1.321175000000000068e+02 1.592394999999999982e+03
1.390000000000000124e-01 5.611620000000000497e-01 6.792904999999999305e+00 1.323985000000000127e+02 1.592470000000000027e+03
1.400000000000000133e-01 5.612120000000000442e-01 6.836655000000000371e+00 1.326614999999999895e+02 1.592545000000000073e+03
1.410000000000000142e-01 5.612565000000000470e-01 6.874954999999999927e+00 1.328994999999999891e+02 1.592610000000000127e+03
1.420000000000000151e-01 5.612954999999999472e-01 6.904819999999999958e+00 1.331100000000000136e+02 1.592670000000000073e+03
1.430000000000000160e-01 5.613285000000000080e-01 6.924080000000000013e+00 1.332899999999999920e+02 1.592724999999999909e+03
1.440000000000000169e-01 5.613559999999999661e-01 6.931379999999999875e+00 1.334389999999999930e+02 1.592775000000000091e+03
1.450000000000000178e-01 5.613774999999999737e-01 6.926114999999999355e+00 1.335584999999999809e+02 1.592809999999999945e+03
1.459999999999999909e-01 5.613940000000000596e-01 6.908350000000000435e+00 1.336494999999999891e+02 1.592840000000000146e+03
1.469999999999999918e-01 5.614059999999999606e-01 6.878759999999999764e+00 1.337150000000000034e+02 1.592869999999999891e+03
1.479999999999999927e-01 5.614135000000000097e-01 6.838499999999999801e+00 1.337590000000000146e+02 1.592884999999999991e+03
1.489999999999999936e-01 5.614190000000000014e-01 6.789134999999999920e+00 1.337855000000000132e+02 1.592900000000000091e+03
1.499999999999999944e-01 5.614215000000000177e-01 6.732459999999999667e+00 1.337980000000000018e+02 1.592904999999999973e+03
1.509999999999999953e-01 5.614230000000000054e-01 6.670469999999999899e+00 1.338020000000000209e+02 1.592914999999999964e+03
1.519999999999999962e-01 5.614239999999999231e-01 6.605190000000000339e+00 1.338000000000000114e+02 1.592920000000000073e+03
1.529999999999999971e-01 5.614250000000000629e-01 6.538574999999999804e+00 1.337964999999999804e+02 1.592920000000000073e+03
1.539999999999999980e-01 5.614265000000000505e-01 6.472430000000000128e+00 1.337950000000000159e+02 1.592924999999999955e+03
1.549999999999999989e-01 5.614295000000000258e-01 6.408330000000000304e+00 1.337965000000000089e+02 1.592929999999999836e+03
1.559999999999999998e-01 5.614335000000000298e-01 6.347535000000000593e+00 1.338040000000000020e+02 1.592934999999999945e+03
1.570000000000000007e-01 5.614384999999999515e-01 6.290979999999999350e+00 1.338174999999999955e+02 1.592934999999999945e+03
1.580000000000000016e-01 5.614455000000000418e-01 6.239225000000000243e+00 1.338374999999999773e+02 1.592945000000000164e+03
1.590000000000000024e-01 5.614529999999999799e-01 6.192474999999999952e+00 1.338629999999999995e+02 1.592954999999999927e+03
