# t [s], A [cm^2], U [cm/s], P [cPa], c [cm/s]
1.000000000000000021e-03 1.587395000000000056e-01 4.313974999999999893e-01 1.003750500000000017e+02 1.906179999999999836e+03
2.000000000000000042e-03 1.587000000000000077e-01 2.141894999999999882e+00 9.686099999999999000e+01 1.905815000000000055e+03
3.000000000000000062e-03 1.585799999999999987e-01 4.188815500000000469e+00 9.228765000000001351e+01 1.904740000000000009e+03
4.000000000000000083e-03 1.584094999999999809e-01 6.448738000000000525e+00 8.745319999999999538e+01 1.903244999999999891e+03
5.000000000000000104e-03 1.582215000000000149e-01 8.849904999999999688e+00 8.317490000000000805e+01 1.901599999999999909e+03
6.000000000000000125e-03 1.580349999999999810e-01 1.122924499999999881e+01 7.969355000000000189e+01 1.899990000000000009e+03
7.000000000000000146e-03 1.578579999999999983e-01 1.339632999999999896e+01 7.677649999999999864e+01 1.898485000000000127e+03
8.000000000000000167e-03 1.576929999999999998e-01 1.526712500000000006e+01 7.417965000000000941e+01 1.897099999999999909e+03
9.000000000000001055e-03 1.575439999999999896e-01 1.686639999999999873e+01 7.189855000000000018e+01 1.895869999999999891e+03
1.000000000000000194e-02 1.574145000000000127e-01 1.822804999999999964e+01 6.999115000000000464e+01 1.894809999999999945e+03
1.099999999999999936e-02 1.573039999999999994e-01 1.936399999999999721e+01 6.843415000000000248e+01 1.893914999999999964e+03
1.200000000000000025e-02 1.572115000000000040e-01 2.028480000000000061e+01 6.716649999999999920e+01 1.893174999999999955e+03
1.300000000000000114e-02 1.571350000000000247e-01 2.100114999999999910e+01 6.612194999999999823e+01 1.892569999999999936e+03
1.400000000000000203e-02 1.570705000000000018e-01 2.152360000000000184e+01 6.522460000000000946e+01 1.892070000000000164e+03
1.499999999999999944e-02 1.570169999999999899e-01 2.188680000000000092e+01 6.443980000000000530e+01 1.891659999999999854e+03
1.600000000000000033e-02 1.569734999999999880e-01 2.217235000000000156e+01 6.385714999999999719e+01 1.891329999999999927e+03
1.700000000000000122e-02 1.569450000000000012e-01 2.249615000000000009e+01 6.369920000000000471e+01 1.891119999999999891e+03
1.800000000000000211e-02 1.569379999999999942e-01 2.296110000000000184e+01 6.421559999999999491e+01 1.891079999999999927e+03
1.900000000000000300e-02 1.569574999999999998e-01 2.360709999999999908e+01 6.552920000000000300e+01 1.891244999999999891e+03
2.000000000000000042e-02 1.570035000000000180e-01 2.438969999999999771e+01 6.753655000000000541e+01 1.891625000000000000e+03
2.100000000000000130e-02 1.570705000000000018e-01 2.519634999999999891e+01 6.991424999999999557e+01 1.892175000000000182e+03
2.200000000000000219e-02 1.571474999999999955e-01 2.588770000000000238e+01 7.222044999999999959e+01 1.892809999999999945e+03
2.299999999999999961e-02 1.572204999999999853e-01 2.634414999999999907e+01 7.403504999999999825e+01 1.893424999999999955e+03
2.400000000000000050e-02 1.572800000000000031e-01 2.650019999999999953e+01 7.508205000000000950e+01 1.893924999999999955e+03
2.500000000000000139e-02 1.573180000000000134e-01 2.635670000000000002e+01 7.529259999999999309e+01 1.894259999999999991e+03
2.600000000000000228e-02 1.573330000000000006e-01 2.597080000000000055e+01 7.479545000000000243e+01 1.894409999999999854e+03
2.700000000000000316e-02 1.573289999999999966e-01 2.542974999999999852e+01 7.384759999999999991e+01 1.894394999999999982e+03
2.800000000000000058e-02 1.573114999999999930e-01 2.482065000000000055e+01 7.273690000000000566e+01 1.894264999999999873e+03
2.900000000000000147e-02 1.572879999999999834e-01 2.420605000000000118e+01 7.169329999999999359e+01 1.894079999999999927e+03
3.000000000000000236e-02 1.572629999999999861e-01 2.361269999999999669e+01 7.083565000000000111e+01 1.893884999999999991e+03
3.099999999999999978e-02 1.572395000000000043e-01 2.303425000000000011e+01 7.016469999999999629e+01 1.893694999999999936e+03
3.200000000000000067e-02 1.572179999999999966e-01 2.244429999999999836e+01 6.959430000000000405e+01 1.893519999999999982e+03
3.300000000000000155e-02 1.571965000000000168e-01 2.181334999999999980e+01 6.900499999999999545e+01 1.893345000000000027e+03
3.400000000000000244e-02 1.571724999999999928e-01 2.112549999999999883e+01 6.829990000000000805e+01 1.893155000000000200e+03
3.500000000000000333e-02 1.571440000000000059e-01 2.038860000000000028e+01 6.744705000000000439e+01 1.892929999999999836e+03
3.600000000000000422e-02 1.571120000000000017e-01 1.963694999999999879e+01 6.649729999999999563e+01 1.892664999999999964e+03
3.700000000000000511e-02 1.570779999999999954e-01 1.892549999999999955e+01 6.557535000000000025e+01 1.892394999999999982e+03
3.799999999999999906e-02 1.570469999999999922e-01 1.831735000000000113e+01 6.484825000000000728e+01 1.892139999999999873e+03
3.899999999999999994e-02 1.570234999999999825e-01 1.786905000000000143e+01 6.448045000000000471e+01 1.891940000000000055e+03
4.000000000000000083e-02 1.570119999999999849e-01 1.761670000000000158e+01 6.458934999999999604e+01 1.891845000000000027e+03
4.100000000000000172e-02 1.570159999999999889e-01 1.756674999999999898e+01 6.521250000000000568e+01 1.891860000000000127e+03
4.200000000000000261e-02 1.570354999999999945e-01 1.769375000000000142e+01 6.629460000000000264e+01 1.892019999999999982e+03
4.300000000000000350e-02 1.570699999999999874e-01 1.794444999999999979e+01 6.769495000000000573e+01 1.892284999999999854e+03
4.400000000000000439e-02 1.571139999999999759e-01 1.824654999999999916e+01 6.921254999999999313e+01 1.892630000000000109e+03
4.499999999999999833e-02 1.571619999999999961e-01 1.852040000000000219e+01 7.062090000000000600e+01 1.893014999999999873e+03
4.599999999999999922e-02 1.572064999999999990e-01 1.869020000000000081e+01 7.170390000000000441e+01 1.893380000000000109e+03
4.700000000000000011e-02 1.572414999999999785e-01 1.869350000000000023e+01 7.228610000000000468e+01 1.893664999999999964e+03
4.800000000000000100e-02 1.572604999999999975e-01 1.848679999999999879e+01 7.225254999999999939e+01 1.893825000000000045e+03
4.900000000000000189e-02 1.572600000000000109e-01 1.804809999999999803e+01 7.155594999999999573e+01 1.893825000000000045e+03
5.000000000000000278e-02 1.572385000000000033e-01 1.737575000000000003e+01 7.021305000000000973e+01 1.893659999999999854e+03
5.100000000000000366e-02 1.571945000000000148e-01 1.648545000000000016e+01 6.829234999999999900e+01 1.893315000000000055e+03
5.200000000000000455e-02 1.571314999999999795e-01 1.540549999999999997e+01 6.589790000000000703e+01 1.892805000000000064e+03
5.300000000000000544e-02 1.570499999999999952e-01 1.417275000000000063e+01 6.315234999999999843e+01 1.892150000000000091e+03
5.399999999999999939e-02 1.569554999999999978e-01 1.282831000000000010e+01 6.018285000000000196e+01 1.891385000000000218e+03
5.500000000000000028e-02 1.568505000000000038e-01 1.141525999999999996e+01 5.711140000000000327e+01 1.890530000000000200e+03
5.600000000000000117e-02 1.567394999999999761e-01 9.976820000000000022e+00 5.404964999999999975e+01 1.889630000000000109e+03
5.700000000000000205e-02 1.566270000000000162e-01 8.555555000000000021e+00 5.109785000000000110e+01 1.888704999999999927e+03
5.800000000000000294e-02 1.565155000000000018e-01 7.193244999999999223e+00 4.834595000000000198e+01 1.887799999999999955e+03
5.900000000000000383e-02 1.564095000000000069e-01 5.930670000000000108e+00 4.587624999999999886e+01 1.886934999999999945e+03
6.000000000000000472e-02 1.563120000000000065e-01 4.807445000000000412e+00 4.376505000000000223e+01 1.886134999999999991e+03
6.099999999999999867e-02 1.562264999999999904e-01 3.861145000000000049e+00 4.208324999999999960e+01 1.885429999999999836e+03
6.199999999999999956e-02 1.561555000000000026e-01 3.126299999999999635e+00 4.089544999999999675e+01 1.884840000000000146e+03
6.300000000000000044e-02 1.561015000000000041e-01 2.632944999999999869e+00 4.025764999999999816e+01 1.884389999999999873e+03
6.400000000000000133e-02 1.560674999999999979e-01 2.405040000000000067e+00 4.021359999999999957e+01 1.884095000000000027e+03
6.500000000000000222e-02 1.560544999999999849e-01 2.458985000000000198e+00 4.079124999999999801e+01 1.883980000000000018e+03
6.600000000000000311e-02 1.560650000000000093e-01 2.802484999999999893e+00 4.199985000000000213e+01 1.884039999999999964e+03
6.700000000000000400e-02 1.560985000000000011e-01 3.433875000000000455e+00 4.382795000000000130e+01 1.884300000000000182e+03
6.800000000000000488e-02 1.561549999999999883e-01 4.342079999999999274e+00 4.624285000000000423e+01 1.884739999999999782e+03
6.900000000000000577e-02 1.562340000000000118e-01 5.507184999999999775e+00 4.919230000000000302e+01 1.885369999999999891e+03
7.000000000000000666e-02 1.563339999999999730e-01 6.901564999999999728e+00 5.260705000000000098e+01 1.886164999999999964e+03
7.100000000000000755e-02 1.564524999999999944e-01 8.491440000000000765e+00 5.640529999999999688e+01 1.887119999999999891e+03
7.200000000000000844e-02 1.565874999999999906e-01 1.023864500000000000e+01 6.049699999999999989e+01 1.888210000000000036e+03
7.300000000000000933e-02 1.567350000000000132e-01 1.210267499999999963e+01 6.478955000000000553e+01 1.889404999999999973e+03
7.399999999999999634e-02 1.568924999999999903e-01 1.404251999999999967e+01 6.919194999999999141e+01 1.890679999999999836e+03
7.499999999999999722e-02 1.570560000000000012e-01 1.601839999999999975e+01 7.361969999999999459e+01 1.892014999999999873e+03
7.599999999999999811e-02 1.572230000000000016e-01 1.799370000000000047e+01 7.799819999999999709e+01 1.893384999999999991e+03
7.699999999999999900e-02 1.573904999999999887e-01 1.993585000000000207e+01 8.226554999999999040e+01 1.894764999999999873e+03
7.799999999999999989e-02 1.575570000000000026e-01 2.181779999999999831e+01 8.637465000000000259e+01 1.896130000000000109e+03
7.900000000000000078e-02 1.577189999999999981e-01 2.361849999999999739e+01 9.029435000000000855e+01 1.897470000000000027e+03
8.000000000000000167e-02 1.578765000000000029e-01 2.532349999999999923e+01 9.400905000000000200e+01 1.898775000000000091e+03
8.100000000000000255e-02 1.580274999999999874e-01 2.692470000000000141e+01 9.751820000000000732e+01 1.900034999999999854e+03
8.200000000000000344e-02 1.581724999999999937e-01 2.842024999999999935e+01 1.008352000000000004e+02 1.901240000000000009e+03
8.300000000000000433e-02 1.583110000000000073e-01 2.981365000000000265e+01 1.039836500000000115e+02 1.902394999999999982e+03
8.400000000000000522e-02 1.584440000000000015e-01 3.111290000000000333e+01 1.069960000000000093e+02 1.903509999999999991e+03
8.500000000000000611e-02 1.585719999999999907e-01 3.232934999999999803e+01 1.099089999999999918e+02 1.904585000000000036e+03
8.600000000000000699e-02 1.586964999999999903e-01 3.347625000000000028e+01 1.127609999999999957e+02 1.905634999999999991e+03
8.700000000000000788e-02 1.588185000000000013e-01 3.456765000000000043e+01 1.155895000000000010e+02 1.906659999999999854e+03
8.800000000000000877e-02 1.589389999999999969e-01 3.561695000000000277e+01 1.184254999999999995e+02 1.907675000000000182e+03
8.899999999999999578e-02 1.590600000000000069e-01 3.663595000000000113e+01 1.212934999999999945e+02 1.908690000000000055e+03
8.999999999999999667e-02 1.591810000000000169e-01 3.763405000000000200e+01 1.242115000000000009e+02 1.909704999999999927e+03
9.099999999999999756e-02 1.593030000000000002e-01 3.861735000000000184e+01 1.271844999999999857e+02 1.910735000000000127e+03
9.199999999999999845e-02 1.594269999999999854e-01 3.958865000000000123e+01 1.302104999999999961e+02 1.911779999999999973e+03
9.299999999999999933e-02 1.595524999999999860e-01 4.054699999999999704e+01 1.332754999999999939e+02 1.912829999999999927e+03
9.400000000000000022e-02 1.596785000000000010e-01 4.148799999999999955e+01 1.363594999999999970e+02 1.913889999999999873e+03
9.500000000000000111e-02 1.598049999999999748e-01 4.240429999999999922e+01 1.394339999999999975e+02 1.914960000000000036e+03
9.600000000000000200e-02 1.599315000000000042e-01 4.328594999999999970e+01 1.424664999999999964e+02 1.916025000000000091e+03
9.700000000000000289e-02 1.600560000000000038e-01 4.412109999999999843e+01 1.454200000000000159e+02 1.917079999999999927e+03
9.800000000000000377e-02 1.601779999999999871e-01 4.489674999999999727e+01 1.482570000000000050e+02 1.918105000000000018e+03
9.900000000000000466e-02 1.602954999999999797e-01 4.559940000000000282e+01 1.509404999999999859e+02 1.919099999999999909e+03
1.000000000000000056e-01 1.604069999999999940e-01 4.621605000000000274e+01 1.534360000000000070e+02 1.920049999999999955e+03
1.010000000000000064e-01 1.605125000000000024e-01 4.673440000000000083e+01 1.557125000000000057e+02 1.920940000000000055e+03
1.020000000000000073e-01 1.606100000000000028e-01 4.714390000000000214e+01 1.577439999999999998e+02 1.921769999999999982e+03
1.030000000000000082e-01 1.606980000000000075e-01 4.743590000000000373e+01 1.595109999999999957e+02 1.922525000000000091e+03
1.040000000000000091e-01 1.607770000000000032e-01 4.760419999999999874e+01 1.609995000000000118e+02 1.923199999999999818e+03
1.050000000000000100e-01 1.608450000000000157e-01 4.764544999999999675e+01 1.622040000000000077e+02 1.923784999999999854e+03
1.059999999999999970e-01 1.609030000000000182e-01 4.755915000000000248e+01 1.631234999999999786e+02 1.924285000000000082e+03
1.069999999999999979e-01 1.609494999999999953e-01 4.734770000000000323e+01 1.637665000000000077e+02 1.924684999999999945e+03
1.079999999999999988e-01 1.609855000000000036e-01 4.701639999999999731e+01 1.641454999999999984e+02 1.925005000000000109e+03
1.089999999999999997e-01 1.610115000000000018e-01 4.657314999999999827e+01 1.642805000000000177e+02 1.925230000000000018e+03
1.100000000000000006e-01 1.610274999999999901e-01 4.602835000000000321e+01 1.641949999999999932e+02 1.925375000000000000e+03
1.110000000000000014e-01 1.610344999999999971e-01 4.539430000000000121e+01 1.639170000000000016e+02 1.925450000000000045e+03
1.120000000000000023e-01 1.610334999999999961e-01 4.468479999999999563e+01 1.634770000000000039e+02 1.925449999999999818e+03
1.130000000000000032e-01 1.610254999999999881e-01 4.391450000000000387e+01 1.629075000000000273e+02 1.925389999999999873e+03
1.140000000000000041e-01 1.610119999999999885e-01 4.309864999999999924e+01 1.622394999999999925e+02 1.925285000000000082e+03
1.150000000000000050e-01 1.609935000000000116e-01 4.225240000000000151e+01 1.615045000000000073e+02 1.925130000000000109e+03
1.160000000000000059e-01 1.609714999999999896e-01 4.138994999999999891e+01 1.607319999999999993e+02 1.924954999999999927e+03
1.170000000000000068e-01 1.609470000000000067e-01 4.052459999999999951e+01 1.599465000000000146e+02 1.924750000000000000e+03
1.180000000000000077e-01 1.609210000000000085e-01 3.966804999999999382e+01 1.591714999999999804e+02 1.924529999999999973e+03
1.190000000000000085e-01 1.608944999999999959e-01 3.883010000000000161e+01 1.584225000000000136e+02 1.924309999999999945e+03
1.200000000000000094e-01 1.608674999999999966e-01 3.801829999999999643e+01 1.577129999999999939e+02 1.924085000000000036e+03
1.209999999999999964e-01 1.608414999999999984e-01 3.723805000000000121e+01 1.570494999999999948e+02 1.923865000000000009e+03
1.219999999999999973e-01 1.608165000000000011e-01 3.649240000000000350e+01 1.564345000000000141e+02 1.923650000000000091e+03
1.229999999999999982e-01 1.607930000000000192e-01 3.578220000000000312e+01 1.558664999999999736e+02 1.923445000000000164e+03
1.239999999999999991e-01 1.607699999999999962e-01 3.510589999999999833e+01 1.553365000000000009e+02 1.923250000000000000e+03
1.250000000000000000e-01 1.607485000000000164e-01 3.446039999999999992e+01 1.548365000000000009e+02 1.923065000000000055e+03
1.260000000000000009e-01 1.607275000000000231e-01 3.384074999999999989e+01 1.543509999999999991e+02 1.922889999999999873e+03
1.270000000000000018e-01 1.607075000000000031e-01 3.324069999999999681e+01 1.538654999999999973e+02 1.922710000000000036e+03
1.280000000000000027e-01 1.606869999999999965e-01 3.265324999999999989e+01 1.533625000000000114e+02 1.922535000000000082e+03
1.290000000000000036e-01 1.606655000000000166e-01 3.207070000000000221e+01 1.528254999999999768e+02 1.922349999999999909e+03
1.300000000000000044e-01 1.606429999999999803e-01 3.148539999999999850e+01 1.522364999999999782e+02 1.922159999999999854e+03
1.310000000000000053e-01 1.606190000000000118e-01 3.088989999999999725e+01 1.515810000000000173e+02 1.921954999999999927e+03
1.320000000000000062e-01 1.605924999999999991e-01 3.027740000000000009e+01 1.508455000000000155e+02 1.921730000000000018e+03
1.330000000000000071e-01 1.605624999999999969e-01 2.964215000000000089e+01 1.500194999999999936e+02 1.921480000000000018e+03
1.340000000000000080e-01 1.605300000000000060e-01 2.897959999999999781e+01 1.490950000000000273e+02 1.921200000000000045e+03
1.350000000000000089e-01 1.604935000000000112e-01 2.828679999999999950e+01 1.480690000000000168e+02 1.920900000000000091e+03
1.360000000000000098e-01 1.604534999999999989e-01 2.756244999999999834e+01 1.469414999999999907e+02 1.920559999999999945e+03
1.370000000000000107e-01 1.604099999999999970e-01 2.680709999999999837e+01 1.457169999999999845e+02 1.920195000000000164e+03
1.380000000000000115e-01 1.603624999999999912e-01 2.602289999999999992e+01 1.444039999999999964e+02 1.919795000000000073e+03
1.390000000000000124e-01 1.603120000000000100e-01 2.521405000000000030e+01 1.430149999999999864e+02 1.919369999999999891e+03
1.400000000000000133e-01 1.602585000000000259e-01 2.438609999999999900e+01 1.415654999999999859e+02 1.918914999999999964e+03
1.410000000000000142e-01 1.602024999999999977e-01 2.354605000000000103e+01 1.400734999999999957e+02 1.918444999999999936e+03
1.420000000000000151e-01 1.601444999999999952e-01 2.270215000000000316e+01 1.385595000000000141e+02 1.917960000000000036e+03
1.430000000000000160e-01 1.600854999999999917e-01 2.186330000000000240e+01 1.370455000000000041e+02 1.917464999999999918e+03
1.440000000000000169e-01 1.600254999999999872e-01 2.103900000000000148e+01 1.355539999999999736e+02 1.916964999999999918e+03
1.450000000000000178e-01 1.599665000000000115e-01 2.023875000000000313e+01 1.341069999999999993e+02 1.916469999999999800e+03
1.459999999999999909e-01 1.599094999999999822e-01 1.947184999999999988e+01 1.327250000000000227e+02 1.915980000000000018e+03
1.469999999999999918e-01 1.598534999999999817e-01 1.874685000000000201e+01 1.314264999999999759e+02 1.915509999999999991e+03
1.479999999999999927e-01 1.597999999999999976e-01 1.807150000000000034e+01 1.302295000000000016e+02 1.915065000000000055e+03
1.489999999999999936e-01 1.597510000000000041e-01 1.745224999999999937e+01 1.291454999999999984e+02 1.914644999999999982e+03
1.499999999999999944e-01 1.597049999999999859e-01 1.689419999999999789e+01 1.281854999999999905e+02 1.914255000000000109e+03
1.509999999999999953e-01 1.596635000000000137e-01 1.640084999999999837e+01 1.273550000000000040e+02 1.913904999999999973e+03
1.519999999999999962e-01 1.596265000000000045e-01 1.597409999999999997e+01 1.266570000000000107e+02 1.913595000000000027e+03
1.529999999999999971e-01 1.595949999999999869e-01 1.561414999999999864e+01 1.260894999999999868e+02 1.913319999999999936e+03
1.539999999999999980e-01 1.595679999999999876e-01 1.531970000000000098e+01 1.256485000000000127e+02 1.913089999999999918e+03
1.549999999999999989e-01 1.595459999999999934e-01 1.508800000000000097e+01 1.253259999999999934e+02 1.912894999999999982e+03
1.559999999999999998e-01 1.595280000000000031e-01 1.491505000000000081e+01 1.251125000000000114e+02 1.912744999999999891e+03
1.570000000000000007e-01 1.595150000000000179e-01 1.479570000000000007e+01 1.249960000000000093e+02 1.912625000000000000e+03
1.580000000000000016e-01 1.595054999999999945e-01 1.472400000000000020e+01 1.249619999999999891e+02 1.912539999999999964e+03
1.590000000000000024e-01 1.594990000000000019e-01 1.469340000000000046e+01 1.249975000000000023e+02 1.912484999999999900e+03
