# t [s], A [cm^2], U [cm/s], P [cPa], c [cm/s]
1.000000000000000021e-03 4.851910000000000389e-01 3.251899999999995072e-03 9.590299999999999159e+01 1.468134999999999991e+03
2.000000000000000042e-03 4.851834999999999898e-01 -8.129949999999999503e-04 9.588370000000000459e+01 1.468130000000000109e+03
3.000000000000000062e-03 4.852190000000000669e-01 7.140905000000000169e-02 9.595005000000000450e+01 1.468144999999999982e+03
4.000000000000000083e-03 4.852619999999999711e-01 1.629674500000000137e-01 9.605680000000000973e+01 1.468180000000000064e+03
5.000000000000000104e-03 4.852585000000000370e-01 1.666715000000000002e-01 9.605660000000000309e+01 1.468179999999999836e+03
6.000000000000000125e-03 4.852179999999999827e-01 9.087799999999998657e-02 9.591960000000000264e+01 1.468150000000000091e+03
7.000000000000000146e-03 4.851759999999999962e-01 5.980999999999958572e-03 9.571274999999999977e+01 1.468105000000000018e+03
8.000000000000000167e-03 4.851244999999999585e-01 -1.041925000000000212e-01 9.543104999999999905e+01 1.468030000000000200e+03
9.000000000000001055e-03 4.850364999999999815e-01 -3.001449999999999951e-01 9.500204999999999700e+01 1.467925000000000182e+03
1.000000000000000194e-02 4.849050000000000304e-01 -5.970250000000000279e-01 9.438139999999999930e+01 1.467764999999999873e+03
1.099999999999999936e-02 4.847245000000000026e-01 -9.968850000000001321e-01 9.353749999999999432e+01 1.467545000000000073e+03
1.200000000000000025e-02 4.844840000000000257e-01 -1.513059999999999850e+00 9.242564999999999031e+01 1.467244999999999891e+03
1.300000000000000114e-02 4.841794999999999849e-01 -2.136324999999999807e+00 9.102350000000001273e+01 1.466869999999999891e+03
1.400000000000000203e-02 4.838324999999999987e-01 -2.802019999999999733e+00 8.937854999999998995e+01 1.466409999999999854e+03
1.499999999999999944e-02 4.834824999999999817e-01 -3.401660000000000128e+00 8.761079999999999757e+01 1.465904999999999973e+03
1.600000000000000033e-02 4.831670000000000131e-01 -3.826725999999999850e+00 8.586955000000000382e+01 1.465389999999999873e+03
1.700000000000000122e-02 4.829084999999999628e-01 -4.008765000000000356e+00 8.427785000000000082e+01 1.464889999999999873e+03
1.800000000000000211e-02 4.827069999999999972e-01 -3.935416500000000095e+00 8.289789999999999281e+01 1.464424999999999955e+03
1.900000000000000300e-02 4.825445000000000428e-01 -3.643576499999999996e+00 8.172310000000000230e+01 1.464009999999999991e+03
2.000000000000000042e-02 4.823945000000000038e-01 -3.199476499999999835e+00 8.069325000000000614e+01 1.463625000000000000e+03
2.100000000000000130e-02 4.822319999999999940e-01 -2.674983500000000181e+00 7.972114999999999441e+01 1.463255000000000109e+03
2.200000000000000219e-02 4.820389999999999953e-01 -2.127021999999999746e+00 7.872259999999999991e+01 1.462880000000000109e+03
2.299999999999999961e-02 4.818095000000000017e-01 -1.585045000000000037e+00 7.764064999999999372e+01 1.462490000000000009e+03
2.400000000000000050e-02 4.815495000000000192e-01 -1.049669999999999881e+00 7.645709999999999695e+01 1.462070000000000164e+03
2.500000000000000139e-02 4.812710000000000043e-01 -5.018250000000001876e-01 7.518925000000000125e+01 1.461630000000000109e+03
2.600000000000000228e-02 4.809879999999999711e-01 8.221999999999995978e-02 7.387489999999999668e+01 1.461175000000000182e+03
2.700000000000000316e-02 4.807095000000000118e-01 7.161050000000002136e-01 7.255230000000000246e+01 1.460719999999999800e+03
2.800000000000000058e-02 4.804380000000000317e-01 1.393745000000000012e+00 7.124305000000001087e+01 1.460259999999999991e+03
2.900000000000000147e-02 4.801659999999999817e-01 2.086835000000000218e+00 6.994245000000000800e+01 1.459795000000000073e+03
3.000000000000000236e-02 4.798814999999999609e-01 2.748780000000000001e+00 6.861795000000000755e+01 1.459335000000000036e+03
3.099999999999999978e-02 4.795670000000000210e-01 3.323444999999999983e+00 6.721610000000001151e+01 1.458845000000000027e+03
3.200000000000000067e-02 4.792084999999999817e-01 3.756179999999999630e+00 6.567494999999999550e+01 1.458325000000000045e+03
3.300000000000000155e-02 4.787945000000000118e-01 4.004925000000000068e+00 6.393919999999999959e+01 1.457759999999999991e+03
3.400000000000000244e-02 4.783230000000000537e-01 4.048779999999999824e+00 6.197499999999999432e+01 1.457135000000000218e+03
3.500000000000000333e-02 4.777989999999999737e-01 3.892700000000000049e+00 5.978059999999999974e+01 1.456444999999999936e+03
3.600000000000000422e-02 4.772374999999999812e-01 3.566505000000000258e+00 5.739069999999999538e+01 1.455710000000000036e+03
3.700000000000000511e-02 4.766584999999999850e-01 3.119524999999999437e+00 5.487340000000000373e+01 1.454929999999999836e+03
3.799999999999999906e-02 4.760860000000000092e-01 2.612265000000000281e+00 5.232155000000000200e+01 1.454139999999999873e+03
3.899999999999999994e-02 4.755445000000000366e-01 2.107229999999999936e+00 4.984064999999999657e+01 1.453355000000000018e+03
4.000000000000000083e-02 4.750550000000000050e-01 1.661535000000000206e+00 4.753605000000000302e+01 1.452615000000000009e+03
4.100000000000000172e-02 4.746340000000000003e-01 1.321520000000000472e+00 4.550275000000000603e+01 1.451940000000000055e+03
4.200000000000000261e-02 4.742939999999999934e-01 1.120624999999999982e+00 4.381749999999999545e+01 1.451360000000000127e+03
4.300000000000000350e-02 4.740424999999999778e-01 1.079540000000000166e+00 4.253534999999999400e+01 1.450889999999999873e+03
4.400000000000000439e-02 4.738815000000000111e-01 1.208265000000000144e+00 4.168914999999999793e+01 1.450539999999999964e+03
4.499999999999999833e-02 4.738114999999999966e-01 1.509072499999999817e+00 4.129175000000000040e+01 1.450329999999999927e+03
4.599999999999999922e-02 4.738305000000000433e-01 1.979729999999999990e+00 4.134045000000000414e+01 1.450255000000000109e+03
4.700000000000000011e-02 4.739345000000000363e-01 2.616114999999999746e+00 4.182144999999999868e+01 1.450304999999999836e+03
4.800000000000000100e-02 4.741195000000000270e-01 3.413843500000000031e+00 4.271450000000000102e+01 1.450494999999999891e+03
4.900000000000000189e-02 4.743825000000000403e-01 4.368739999999999846e+00 4.399555000000000149e+01 1.450809999999999945e+03
5.000000000000000278e-02 4.747175000000000145e-01 5.476282499999999942e+00 4.563880000000000337e+01 1.451235000000000127e+03
5.100000000000000366e-02 4.751215000000000299e-01 6.730393999999999544e+00 4.761690000000000111e+01 1.451775000000000091e+03
5.200000000000000455e-02 4.755880000000000107e-01 8.121999999999999886e+00 4.990030000000000143e+01 1.452425000000000182e+03
5.300000000000000544e-02 4.761100000000000332e-01 9.638239999999999696e+00 5.245645000000000380e+01 1.453159999999999854e+03
5.399999999999999939e-02 4.766799999999999926e-01 1.126157500000000056e+01 5.524899999999999523e+01 1.453980000000000018e+03
5.500000000000000028e-02 4.772889999999999633e-01 1.297044999999999959e+01 5.823754999999999882e+01 1.454869999999999891e+03
5.600000000000000117e-02 4.779275000000000051e-01 1.473998999999999882e+01 6.137845000000000084e+01 1.455820000000000164e+03
5.700000000000000205e-02 4.785854999999999970e-01 1.654343000000000075e+01 6.462630000000000052e+01 1.456815000000000055e+03
5.800000000000000294e-02 4.792530000000000401e-01 1.835382500000000050e+01 6.793545000000000300e+01 1.457840000000000146e+03
5.900000000000000383e-02 4.799220000000000153e-01 2.014549999999999841e+01 7.126264999999999361e+01 1.458885000000000218e+03
6.000000000000000472e-02 4.805845000000000256e-01 2.189560000000000173e+01 7.456874999999999432e+01 1.459940000000000055e+03
6.099999999999999867e-02 4.812345000000000095e-01 2.358500000000000085e+01 7.782079999999999131e+01 1.460980000000000018e+03
6.199999999999999956e-02 4.818679999999999630e-01 2.519890000000000185e+01 8.099309999999999832e+01 1.462019999999999982e+03
6.300000000000000044e-02 4.824820000000000220e-01 2.672720000000000340e+01 8.406784999999999286e+01 1.463030000000000200e+03
6.400000000000000133e-02 4.830760000000000054e-01 2.816409999999999769e+01 8.703555000000000064e+01 1.464019999999999982e+03
6.500000000000000222e-02 4.836504999999999832e-01 2.950764999999999816e+01 8.989400000000000546e+01 1.464980000000000018e+03
6.600000000000000311e-02 4.842060000000000253e-01 3.075929999999999964e+01 9.264699999999999136e+01 1.465914999999999964e+03
6.700000000000000400e-02 4.847460000000000102e-01 3.192310000000000159e+01 9.530504999999999427e+01 1.466820000000000164e+03
6.800000000000000488e-02 4.852729999999999544e-01 3.300504999999999711e+01 9.788110000000000355e+01 1.467704999999999927e+03
6.900000000000000577e-02 4.857899999999999996e-01 3.401224999999999454e+01 1.003910999999999945e+02 1.468569999999999936e+03
7.000000000000000666e-02 4.863009999999999833e-01 3.495255000000000223e+01 1.028517999999999972e+02 1.469409999999999854e+03
7.100000000000000755e-02 4.868084999999999773e-01 3.583374999999999488e+01 1.052800000000000011e+02 1.470250000000000000e+03
7.200000000000000844e-02 4.873149999999999427e-01 3.666310000000000002e+01 1.076905000000000001e+02 1.471079999999999927e+03
7.300000000000000933e-02 4.878230000000000066e-01 3.744684999999999775e+01 1.100949999999999989e+02 1.471904999999999973e+03
7.399999999999999634e-02 4.883330000000000171e-01 3.818984999999999985e+01 1.125030000000000001e+02 1.472724999999999909e+03
7.499999999999999722e-02 4.888464999999999616e-01 3.889504999999999768e+01 1.149180000000000064e+02 1.473555000000000064e+03
7.599999999999999811e-02 4.893615000000000048e-01 3.956350000000000477e+01 1.173395000000000010e+02 1.474384999999999991e+03
7.699999999999999900e-02 4.898770000000000069e-01 4.019415000000000049e+01 1.197620000000000005e+02 1.475210000000000036e+03
7.799999999999999989e-02 4.903895000000000337e-01 4.078400000000000603e+01 1.221754999999999995e+02 1.476035000000000082e+03
7.900000000000000078e-02 4.908979999999999455e-01 4.132835000000000036e+01 1.245669999999999931e+02 1.476849999999999909e+03
8.000000000000000167e-02 4.913965000000000138e-01 4.182094999999999629e+01 1.269180000000000064e+02 1.477654999999999973e+03
8.100000000000000255e-02 4.918815000000000270e-01 4.225475000000000136e+01 1.292085000000000150e+02 1.478445000000000164e+03
8.200000000000000344e-02 4.923485000000000222e-01 4.262229999999999563e+01 1.314175000000000182e+02 1.479214999999999918e+03
8.300000000000000433e-02 4.927924999999999667e-01 4.291615000000000180e+01 1.335244999999999891e+02 1.479949999999999818e+03
8.400000000000000522e-02 4.932110000000000105e-01 4.312935000000000230e+01 1.355084999999999980e+02 1.480650000000000091e+03
8.500000000000000611e-02 4.935990000000000100e-01 4.325600000000000023e+01 1.373499999999999943e+02 1.481304999999999836e+03
8.600000000000000699e-02 4.939540000000000042e-01 4.329135000000000133e+01 1.390344999999999800e+02 1.481914999999999964e+03
8.700000000000000788e-02 4.942735000000000323e-01 4.323234999999999673e+01 1.405484999999999900e+02 1.482470000000000027e+03
8.800000000000000877e-02 4.945570000000000244e-01 4.307755000000000223e+01 1.418834999999999980e+02 1.482974999999999909e+03
8.899999999999999578e-02 4.948024999999999785e-01 4.282744999999999891e+01 1.430349999999999966e+02 1.483414999999999964e+03
8.999999999999999667e-02 4.950100000000000611e-01 4.248430000000000462e+01 1.440020000000000095e+02 1.483800000000000182e+03
9.099999999999999756e-02 4.951820000000000110e-01 4.205219999999999914e+01 1.447875000000000227e+02 1.484125000000000000e+03
9.199999999999999845e-02 4.953179999999999805e-01 4.153690000000000282e+01 1.453990000000000009e+02 1.484389999999999873e+03
9.299999999999999933e-02 4.954220000000000290e-01 4.094565000000000055e+01 1.458469999999999800e+02 1.484605000000000018e+03
9.400000000000000022e-02 4.954954999999999776e-01 4.028714999999999691e+01 1.461444999999999936e+02 1.484759999999999991e+03
9.500000000000000111e-02 4.955430000000000113e-01 3.957085000000000008e+01 1.463070000000000164e+02 1.484875000000000000e+03
9.600000000000000200e-02 4.955669999999999797e-01 3.880720000000000169e+01 1.463520000000000039e+02 1.484940000000000055e+03
9.700000000000000289e-02 4.955709999999999837e-01 3.800719999999999743e+01 1.462984999999999900e+02 1.484974999999999909e+03
9.800000000000000377e-02 4.955595000000000416e-01 3.718164999999999765e+01 1.461645000000000039e+02 1.484974999999999909e+03
9.900000000000000466e-02 4.955364999999999909e-01 3.634154999999999802e+01 1.459694999999999823e+02 1.484950000000000045e+03
1.000000000000000056e-01 4.955045000000000144e-01 3.549699999999999989e+01 1.457309999999999945e+02 1.484905000000000200e+03
1.010000000000000064e-01 4.954674999999999496e-01 3.465744999999999720e+01 1.454660000000000082e+02 1.484839999999999918e+03
1.020000000000000073e-01 4.954279999999999795e-01 3.383115000000000094e+01 1.451885000000000048e+02 1.484769999999999982e+03
1.030000000000000082e-01 4.953879999999999950e-01 3.302490000000000236e+01 1.449120000000000061e+02 1.484694999999999936e+03
1.040000000000000091e-01 4.953490000000000393e-01 3.224405000000000143e+01 1.446444999999999936e+02 1.484619999999999891e+03
1.050000000000000100e-01 4.953134999999999621e-01 3.149214999999999876e+01 1.443944999999999936e+02 1.484545000000000073e+03
1.059999999999999970e-01 4.952805000000000124e-01 3.077109999999999701e+01 1.441639999999999873e+02 1.484469999999999800e+03
1.069999999999999979e-01 4.952504999999999824e-01 3.008095000000000141e+01 1.439549999999999841e+02 1.484400000000000091e+03
1.079999999999999988e-01 4.952229999999999688e-01 2.942040000000000077e+01 1.437655000000000030e+02 1.484335000000000036e+03
1.089999999999999997e-01 4.951969999999999983e-01 2.878665000000000163e+01 1.435894999999999868e+02 1.484269999999999982e+03
1.100000000000000006e-01 4.951710000000000278e-01 2.817575000000000074e+01 1.434220000000000255e+02 1.484210000000000036e+03
1.110000000000000014e-01 4.951434999999999587e-01 2.758274999999999721e+01 1.432539999999999907e+02 1.484154999999999973e+03
1.120000000000000023e-01 4.951115000000000377e-01 2.700225000000000009e+01 1.430769999999999982e+02 1.484090000000000146e+03
1.130000000000000032e-01 4.950740000000000141e-01 2.642849999999999966e+01 1.428795000000000073e+02 1.484019999999999982e+03
1.140000000000000041e-01 4.950289999999999968e-01 2.585559999999999903e+01 1.426535000000000082e+02 1.483945000000000164e+03
1.150000000000000050e-01 4.949750000000000538e-01 2.527815000000000012e+01 1.423890000000000100e+02 1.483855000000000018e+03
1.160000000000000059e-01 4.949099999999999611e-01 2.469109999999999872e+01 1.420780000000000030e+02 1.483755000000000109e+03
1.170000000000000068e-01 4.948325000000000085e-01 2.409009999999999962e+01 1.417135000000000105e+02 1.483635000000000218e+03
1.180000000000000077e-01 4.947424999999999740e-01 2.347189999999999799e+01 1.412899999999999920e+02 1.483505000000000109e+03
1.190000000000000085e-01 4.946395000000000097e-01 2.283409999999999940e+01 1.408044999999999902e+02 1.483349999999999909e+03
1.200000000000000094e-01 4.945230000000000459e-01 2.217549999999999955e+01 1.402554999999999836e+02 1.483179999999999836e+03
1.209999999999999964e-01 4.943934999999999858e-01 2.149624999999999986e+01 1.396444999999999936e+02 1.482990000000000009e+03
1.219999999999999973e-01 4.942524999999999835e-01 2.079755000000000109e+01 1.389750000000000227e+02 1.482779999999999973e+03
1.229999999999999982e-01 4.940999999999999837e-01 2.008184999999999931e+01 1.382515000000000214e+02 1.482555000000000064e+03
1.239999999999999991e-01 4.939390000000000169e-01 1.935275000000000034e+01 1.374819999999999993e+02 1.482309999999999945e+03
1.250000000000000000e-01 4.937705000000000011e-01 1.861459999999999937e+01 1.366740000000000066e+02 1.482054999999999836e+03
1.260000000000000009e-01 4.935975000000000223e-01 1.787290000000000134e+01 1.358394999999999868e+02 1.481789999999999964e+03
1.270000000000000018e-01 4.934220000000000272e-01 1.713354999999999961e+01 1.349889999999999759e+02 1.481514999999999873e+03
1.280000000000000027e-01 4.932464999999999766e-01 1.640285000000000082e+01 1.341334999999999980e+02 1.481240000000000009e+03
1.290000000000000036e-01 4.930735000000000534e-01 1.568755000000000166e+01 1.332864999999999895e+02 1.480960000000000036e+03
1.300000000000000044e-01 4.929050000000000376e-01 1.499418499999999987e+01 1.324590000000000032e+02 1.480684999999999945e+03
1.310000000000000053e-01 4.927440000000000153e-01 1.432903500000000108e+01 1.316625000000000227e+02 1.480420000000000073e+03
1.320000000000000062e-01 4.925924999999999887e-01 1.369796999999999976e+01 1.309085000000000036e+02 1.480164999999999964e+03
1.330000000000000071e-01 4.924509999999999721e-01 1.310627500000000012e+01 1.302044999999999959e+02 1.479920000000000073e+03
1.340000000000000080e-01 4.923230000000000106e-01 1.255825000000000102e+01 1.295594999999999857e+02 1.479695000000000164e+03
1.350000000000000089e-01 4.922075000000000200e-01 1.205731499999999912e+01 1.289789999999999850e+02 1.479494999999999891e+03
1.360000000000000098e-01 4.921069999999999611e-01 1.160585000000000022e+01 1.284669999999999845e+02 1.479304999999999836e+03
1.370000000000000107e-01 4.920205000000000273e-01 1.120506999999999920e+01 1.280250000000000057e+02 1.479139999999999873e+03
1.380000000000000115e-01 4.919479999999999964e-01 1.085499000000000080e+01 1.276535000000000082e+02 1.478994999999999891e+03
1.390000000000000124e-01 4.918894999999999795e-01 1.055470500000000023e+01 1.273505000000000109e+02 1.478875000000000000e+03
1.400000000000000133e-01 4.918434999999999890e-01 1.030224000000000117e+01 1.271124999999999972e+02 1.478769999999999982e+03
1.410000000000000142e-01 4.918089999999999962e-01 1.009457000000000093e+01 1.269339999999999975e+02 1.478690000000000055e+03
1.420000000000000151e-01 4.917850000000000277e-01 9.928119999999999834e+00 1.268085000000000093e+02 1.478625000000000000e+03
1.430000000000000160e-01 4.917690000000000117e-01 9.798590000000000799e+00 1.267280000000000086e+02 1.478579999999999927e+03
1.440000000000000169e-01 4.917599999999999749e-01 9.701380000000000337e+00 1.266860000000000070e+02 1.478545000000000073e+03
1.450000000000000178e-01 4.917564999999999853e-01 9.631510000000000460e+00 1.266730000000000018e+02 1.478515000000000100e+03
1.459999999999999909e-01 4.917565000000000408e-01 9.584044999999999703e+00 1.266804999999999950e+02 1.478500000000000000e+03
1.469999999999999918e-01 4.917584999999999873e-01 9.554100000000000037e+00 1.267014999999999958e+02 1.478494999999999891e+03
1.479999999999999927e-01 4.917614999999999625e-01 9.536995000000000999e+00 1.267284999999999968e+02 1.478490000000000009e+03
1.489999999999999936e-01 4.917630000000000057e-01 9.528484999999999872e+00 1.267539999999999907e+02 1.478490000000000009e+03
1.499999999999999944e-01 4.917635000000000201e-01 9.524689999999999657e+00 1.267740000000000009e+02 1.478485000000000127e+03
1.509999999999999953e-01 4.917610000000000037e-01 9.522339999999999804e+00 1.267830000000000013e+02 1.478485000000000127e+03
1.519999999999999962e-01 4.917559999999999709e-01 9.518689999999999429e+00 1.267780000000000058e+02 1.478480000000000018e+03
1.529999999999999971e-01 4.917479999999999629e-01 9.511599999999999611e+00 1.267574999999999932e+02 1.478465000000000146e+03
1.539999999999999980e-01 4.917365000000000208e-01 9.499424999999998676e+00 1.267195000000000107e+02 1.478454999999999927e+03
1.549999999999999989e-01 4.917215000000000336e-01 9.481199999999999406e+00 1.266645000000000039e+02 1.478434999999999945e+03
1.559999999999999998e-01 4.917034999999999600e-01 9.456419999999999604e+00 1.265935000000000059e+02 1.478410000000000082e+03
1.570000000000000007e-01 4.916825000000000223e-01 9.425015000000000143e+00 1.265080000000000098e+02 1.478380000000000109e+03
1.580000000000000016e-01 4.916599999999999859e-01 9.387354999999999450e+00 1.264095000000000084e+02 1.478355000000000018e+03
1.590000000000000024e-01 4.916349999999999887e-01 9.344200000000000728e+00 1.263010000000000019e+02 1.478320000000000164e+03
