# t [s], A [cm^2], U [cm/s], P [cPa], c [cm/s]
1.000000000000000021e-03 1.288839999999999986e-01 3.170204999999999829e-01 9.120019999999999527e+01 1.848420000000000073e+03
2.000000000000000042e-03 1.288590000000000013e-01 1.790840000000000209e+00 8.828499999999999659e+01 1.848119999999999891e+03
3.000000000000000062e-03 1.287745000000000140e-01 3.584027999999999992e+00 8.444839999999999236e+01 1.847139999999999873e+03
4.000000000000000083e-03 1.286499999999999866e-01 5.572130000000000472e+00 8.023439999999999372e+01 1.845720000000000027e+03
5.000000000000000104e-03 1.285090000000000121e-01 7.704989999999999561e+00 7.634555000000000291e+01 1.844130000000000109e+03
6.000000000000000125e-03 1.283670000000000089e-01 9.868050000000000210e+00 7.309954999999999359e+01 1.842539999999999964e+03
7.000000000000000146e-03 1.282310000000000116e-01 1.189622999999999919e+01 7.039489999999999270e+01 1.841039999999999964e+03
8.000000000000000167e-03 1.281025000000000080e-01 1.367845499999999959e+01 6.799710000000000321e+01 1.839650000000000091e+03
9.000000000000001055e-03 1.279849999999999877e-01 1.521054999999999957e+01 6.583695000000000164e+01 1.838384999999999991e+03
1.000000000000000194e-02 1.278805000000000081e-01 1.652740000000000009e+01 6.397245000000000203e+01 1.837279999999999973e+03
1.099999999999999936e-02 1.277895000000000003e-01 1.764720000000000155e+01 6.242385000000000161e+01 1.836329999999999927e+03
1.200000000000000025e-02 1.277135000000000076e-01 1.857885000000000275e+01 6.115649999999999409e+01 1.835534999999999854e+03
1.300000000000000114e-02 1.276494999999999991e-01 1.933214999999999861e+01 6.012274999999999636e+01 1.834880000000000109e+03
1.400000000000000203e-02 1.275959999999999872e-01 1.991255000000000308e+01 5.926160000000000139e+01 1.834335000000000036e+03
1.499999999999999944e-02 1.275514999999999843e-01 2.032935000000000159e+01 5.850580000000000069e+01 1.833889999999999873e+03
1.600000000000000033e-02 1.275129999999999875e-01 2.062069999999999936e+01 5.784335000000000093e+01 1.833519999999999982e+03
1.700000000000000122e-02 1.274824999999999986e-01 2.086695000000000277e+01 5.737789999999999679e+01 1.833224999999999909e+03
1.800000000000000211e-02 1.274644999999999806e-01 2.117095000000000127e+01 5.731250000000000000e+01 1.833050000000000182e+03
1.900000000000000300e-02 1.274625000000000064e-01 2.161549999999999727e+01 5.785065000000000168e+01 1.833045000000000073e+03
2.000000000000000042e-02 1.274804999999999966e-01 2.222534999999999883e+01 5.907635000000000502e+01 1.833244999999999891e+03
2.100000000000000130e-02 1.275185000000000068e-01 2.295394999999999897e+01 6.088564999999999827e+01 1.833644999999999982e+03
2.200000000000000219e-02 1.275709999999999900e-01 2.369984999999999786e+01 6.300034999999999741e+01 1.834195000000000164e+03
2.299999999999999961e-02 1.276299999999999935e-01 2.434179999999999922e+01 6.505049999999999955e+01 1.834829999999999927e+03
2.400000000000000050e-02 1.276869999999999949e-01 2.477599999999999980e+01 6.668439999999999657e+01 1.835440000000000055e+03
2.500000000000000139e-02 1.277329999999999854e-01 2.494460000000000122e+01 6.766530000000000200e+01 1.835945000000000164e+03
2.600000000000000228e-02 1.277630000000000154e-01 2.484590000000000032e+01 6.792324999999999591e+01 1.836284999999999854e+03
2.700000000000000316e-02 1.277760000000000007e-01 2.452759999999999962e+01 6.755240000000000578e+01 1.836444999999999936e+03
2.800000000000000058e-02 1.277739999999999987e-01 2.406575000000000131e+01 6.676134999999999309e+01 1.836449999999999818e+03
2.900000000000000147e-02 1.277615000000000001e-01 2.353960000000000008e+01 6.579715000000000202e+01 1.836335000000000036e+03
3.000000000000000236e-02 1.277445000000000108e-01 2.300975000000000037e+01 6.487120000000000175e+01 1.836160000000000082e+03
3.099999999999999978e-02 1.277254999999999918e-01 2.250600000000000023e+01 6.410895000000000721e+01 1.835970000000000027e+03
3.200000000000000067e-02 1.277090000000000169e-01 2.202694999999999936e+01 6.353374999999999773e+01 1.835795000000000073e+03
3.300000000000000155e-02 1.276934999999999876e-01 2.154874999999999829e+01 6.308339999999999748e+01 1.835634999999999991e+03
3.400000000000000244e-02 1.276795000000000013e-01 2.103889999999999816e+01 6.264914999999999878e+01 1.835485000000000127e+03
3.500000000000000333e-02 1.276634999999999853e-01 2.047189999999999799e+01 6.212284999999999968e+01 1.835319999999999936e+03
3.600000000000000422e-02 1.276444999999999941e-01 1.984035000000000082e+01 6.143795000000000073e+01 1.835119999999999891e+03
3.700000000000000511e-02 1.276204999999999978e-01 1.916125000000000256e+01 6.059604999999999819e+01 1.834880000000000109e+03
3.799999999999999906e-02 1.275939999999999852e-01 1.847480000000000189e+01 5.967184999999999917e+01 1.834599999999999909e+03
3.899999999999999994e-02 1.275660000000000127e-01 1.783644999999999925e+01 5.879715000000000202e+01 1.834315000000000055e+03
4.000000000000000083e-02 1.275410000000000155e-01 1.730535000000000068e+01 5.812940000000000396e+01 1.834045000000000073e+03
4.100000000000000172e-02 1.275224999999999831e-01 1.693090000000000117e+01 5.781274999999999409e+01 1.833845000000000027e+03
4.200000000000000261e-02 1.275139999999999885e-01 1.674164999999999992e+01 5.794270000000000209e+01 1.833744999999999891e+03
4.300000000000000350e-02 1.275185000000000068e-01 1.673924999999999841e+01 5.854224999999999568e+01 1.833779999999999973e+03
4.400000000000000439e-02 1.275350000000000095e-01 1.689734999999999943e+01 5.955465000000000231e+01 1.833940000000000055e+03
4.499999999999999833e-02 1.275624999999999953e-01 1.716629999999999967e+01 6.085294999999999987e+01 1.834220000000000027e+03
4.599999999999999922e-02 1.275979999999999892e-01 1.748145000000000238e+01 6.226154999999999973e+01 1.834585000000000036e+03
4.700000000000000011e-02 1.276359999999999995e-01 1.777260000000000062e+01 6.358605000000000018e+01 1.834980000000000018e+03
4.800000000000000100e-02 1.276724999999999943e-01 1.797400000000000020e+01 6.464180000000000348e+01 1.835360000000000127e+03
4.900000000000000189e-02 1.277020000000000099e-01 1.803154999999999930e+01 6.527899999999999636e+01 1.835670000000000073e+03
5.000000000000000278e-02 1.277200000000000002e-01 1.790780000000000172e+01 6.539789999999999281e+01 1.835865000000000009e+03
5.100000000000000366e-02 1.277245000000000186e-01 1.758359999999999701e+01 6.495564999999999145e+01 1.835920000000000073e+03
5.200000000000000455e-02 1.277125000000000066e-01 1.705734999999999957e+01 6.396289999999999765e+01 1.835804999999999836e+03
5.300000000000000544e-02 1.276855000000000073e-01 1.634205000000000041e+01 6.247414999999999452e+01 1.835529999999999973e+03
5.399999999999999939e-02 1.276434999999999931e-01 1.546124999999999972e+01 6.057424999999999926e+01 1.835095000000000027e+03
5.500000000000000028e-02 1.275880000000000070e-01 1.444555000000000078e+01 5.836419999999999675e+01 1.834525000000000091e+03
5.600000000000000117e-02 1.275224999999999831e-01 1.332892999999999972e+01 5.594920000000000471e+01 1.833839999999999918e+03
5.700000000000000205e-02 1.274494999999999933e-01 1.214639999999999986e+01 5.342964999999999520e+01 1.833075000000000045e+03
5.800000000000000294e-02 1.273714999999999986e-01 1.093281499999999973e+01 5.089674999999999727e+01 1.832255000000000109e+03
5.900000000000000383e-02 1.272909999999999875e-01 9.722255000000000535e+00 4.843115000000000236e+01 1.831414999999999964e+03
6.000000000000000472e-02 1.272115000000000051e-01 8.548049999999999926e+00 4.610479999999999734e+01 1.830575000000000045e+03
6.099999999999999867e-02 1.271345000000000114e-01 7.443249999999999922e+00 4.398284999999999911e+01 1.829769999999999982e+03
6.199999999999999956e-02 1.270630000000000093e-01 6.440459999999999852e+00 4.212699999999999534e+01 1.829009999999999991e+03
6.300000000000000044e-02 1.269985000000000142e-01 5.571909999999999918e+00 4.059624999999999773e+01 1.828325000000000045e+03
6.400000000000000133e-02 1.269440000000000013e-01 4.868644999999999889e+00 3.944774999999999920e+01 1.827744999999999891e+03
6.500000000000000222e-02 1.269004999999999994e-01 4.359524999999999650e+00 3.873499999999999943e+01 1.827279999999999973e+03
6.600000000000000311e-02 1.268710000000000115e-01 4.069960000000000022e+00 3.850565000000000282e+01 1.826954999999999927e+03
6.700000000000000400e-02 1.268564999999999832e-01 4.020430000000000170e+00 3.879789999999999850e+01 1.826789999999999964e+03
6.800000000000000488e-02 1.268584999999999852e-01 4.225274999999999892e+00 3.963765000000000072e+01 1.826789999999999964e+03
6.900000000000000577e-02 1.268779999999999908e-01 4.691609999999999836e+00 4.103535000000000110e+01 1.826980000000000018e+03
7.000000000000000666e-02 1.269150000000000000e-01 5.418834999999999624e+00 4.298479999999999990e+01 1.827355000000000018e+03
7.100000000000000755e-02 1.269704999999999862e-01 6.398514999999999731e+00 4.546219999999999573e+01 1.827914999999999964e+03
7.200000000000000844e-02 1.270435000000000036e-01 7.614860000000000184e+00 4.842759999999999820e+01 1.828659999999999854e+03
7.300000000000000933e-02 1.271325000000000094e-01 9.045494999999998953e+00 5.182690000000000197e+01 1.829579999999999927e+03
7.399999999999999634e-02 1.272369999999999890e-01 1.066282999999999959e+01 5.559484999999999388e+01 1.830659999999999854e+03
7.499999999999999722e-02 1.273539999999999950e-01 1.243523499999999871e+01 5.965869999999999607e+01 1.831884999999999991e+03
7.599999999999999811e-02 1.274820000000000120e-01 1.432864999999999966e+01 6.394214999999999804e+01 1.833224999999999909e+03
7.699999999999999900e-02 1.276184999999999958e-01 1.630814999999999770e+01 6.836889999999999645e+01 1.834664999999999964e+03
7.799999999999999989e-02 1.277620000000000144e-01 1.833930000000000149e+01 7.286639999999999873e+01 1.836175000000000182e+03
7.900000000000000078e-02 1.279095000000000093e-01 2.038945000000000007e+01 7.736865000000000236e+01 1.837730000000000018e+03
8.000000000000000167e-02 1.280584999999999918e-01 2.242905000000000015e+01 8.181860000000000355e+01 1.839315000000000055e+03
8.100000000000000255e-02 1.282079999999999886e-01 2.443240000000000123e+01 8.617010000000000502e+01 1.840904999999999973e+03
8.200000000000000344e-02 1.283559999999999979e-01 2.637849999999999895e+01 9.038919999999998822e+01 1.842484999999999900e+03
8.300000000000000433e-02 1.285005000000000175e-01 2.825144999999999840e+01 9.445445000000000846e+01 1.844039999999999964e+03
8.400000000000000522e-02 1.286424999999999930e-01 3.004064999999999941e+01 9.835649999999999693e+01 1.845565000000000055e+03
8.500000000000000611e-02 1.287794999999999912e-01 3.174044999999999916e+01 1.020976500000000016e+02 1.847039999999999964e+03
8.600000000000000699e-02 1.289129999999999998e-01 3.335000000000000142e+01 1.056894499999999937e+02 1.848480000000000018e+03
8.700000000000000788e-02 1.290415000000000034e-01 3.487239999999999895e+01 1.091514999999999986e+02 1.849875000000000000e+03
8.800000000000000877e-02 1.291670000000000040e-01 3.631380000000000052e+01 1.125090000000000003e+02 1.851235000000000127e+03
8.899999999999999578e-02 1.292885000000000006e-01 3.768240000000000123e+01 1.157880000000000109e+02 1.852559999999999945e+03
8.999999999999999667e-02 1.294079999999999953e-01 3.898760000000000048e+01 1.190150000000000006e+02 1.853860000000000127e+03
9.099999999999999756e-02 1.295254999999999879e-01 4.023869999999999436e+01 1.222150000000000034e+02 1.855139999999999873e+03
9.199999999999999845e-02 1.296424999999999939e-01 4.144435000000000002e+01 1.254074999999999989e+02 1.856410000000000082e+03
9.299999999999999933e-02 1.297579999999999845e-01 4.261140000000000327e+01 1.286059999999999945e+02 1.857674999999999955e+03
9.400000000000000022e-02 1.298739999999999895e-01 4.374479999999999791e+01 1.318154999999999859e+02 1.858945000000000164e+03
9.500000000000000111e-02 1.299889999999999934e-01 4.484680000000000177e+01 1.350360000000000014e+02 1.860204999999999927e+03
9.600000000000000200e-02 1.301049999999999984e-01 4.591714999999999947e+01 1.382584999999999980e+02 1.861469999999999800e+03
9.700000000000000289e-02 1.302200000000000024e-01 4.695289999999999964e+01 1.414680000000000177e+02 1.862735000000000127e+03
9.800000000000000377e-02 1.303350000000000064e-01 4.794880000000000564e+01 1.446430000000000007e+02 1.863990000000000009e+03
9.900000000000000466e-02 1.304480000000000084e-01 4.889739999999999753e+01 1.477584999999999980e+02 1.865234999999999900e+03
1.000000000000000056e-01 1.305590000000000084e-01 4.978990000000000293e+01 1.507855000000000132e+02 1.866454999999999927e+03
1.010000000000000064e-01 1.306674999999999920e-01 5.061625000000000085e+01 1.536954999999999814e+02 1.867650000000000091e+03
1.020000000000000073e-01 1.307719999999999994e-01 5.136589999999999634e+01 1.564560000000000173e+02 1.868800000000000182e+03
1.030000000000000082e-01 1.308719999999999883e-01 5.202835000000000321e+01 1.590400000000000205e+02 1.869900000000000091e+03
1.040000000000000091e-01 1.309659999999999991e-01 5.259359999999999502e+01 1.614200000000000159e+02 1.870944999999999936e+03
1.050000000000000100e-01 1.310534999999999894e-01 5.305279999999999774e+01 1.635735000000000241e+02 1.871914999999999964e+03
1.059999999999999970e-01 1.311340000000000006e-01 5.339839999999999520e+01 1.654815000000000111e+02 1.872809999999999945e+03
1.069999999999999979e-01 1.312065000000000037e-01 5.362465000000000259e+01 1.671304999999999836e+02 1.873619999999999891e+03
1.079999999999999988e-01 1.312705000000000122e-01 5.372789999999999822e+01 1.685115000000000123e+02 1.874335000000000036e+03
1.089999999999999997e-01 1.313259999999999983e-01 5.370690000000000452e+01 1.696214999999999975e+02 1.874954999999999927e+03
1.100000000000000006e-01 1.313719999999999888e-01 5.356255000000000166e+01 1.704635000000000105e+02 1.875480000000000018e+03
1.110000000000000014e-01 1.314095000000000124e-01 5.329834999999999923e+01 1.710444999999999993e+02 1.875905000000000200e+03
1.120000000000000023e-01 1.314385000000000137e-01 5.292014999999999958e+01 1.713779999999999859e+02 1.876235000000000127e+03
1.130000000000000032e-01 1.314585000000000059e-01 5.243590000000000373e+01 1.714830000000000041e+02 1.876470000000000027e+03
1.140000000000000041e-01 1.314714999999999911e-01 5.185550000000000637e+01 1.713795000000000073e+02 1.876619999999999891e+03
1.150000000000000050e-01 1.314764999999999961e-01 5.119050000000000011e+01 1.710935000000000059e+02 1.876690000000000055e+03
1.160000000000000059e-01 1.314750000000000085e-01 5.045364999999999611e+01 1.706510000000000105e+02 1.876680000000000064e+03
1.170000000000000068e-01 1.314675000000000149e-01 4.965845000000000198e+01 1.700815000000000055e+02 1.876610000000000127e+03
1.180000000000000077e-01 1.314555000000000029e-01 4.881860000000000355e+01 1.694130000000000109e+02 1.876485000000000127e+03
1.190000000000000085e-01 1.314390000000000003e-01 4.794780000000000086e+01 1.686719999999999970e+02 1.876309999999999945e+03
1.200000000000000094e-01 1.314199999999999813e-01 4.705915000000000248e+01 1.678860000000000241e+02 1.876105000000000018e+03
1.209999999999999964e-01 1.313985000000000014e-01 4.616474999999999795e+01 1.670769999999999982e+02 1.875869999999999891e+03
1.219999999999999973e-01 1.313749999999999918e-01 4.527524999999999977e+01 1.662659999999999911e+02 1.875619999999999891e+03
1.229999999999999982e-01 1.313504999999999812e-01 4.439990000000000236e+01 1.654685000000000059e+02 1.875355000000000018e+03
1.239999999999999991e-01 1.313265000000000127e-01 4.354604999999999393e+01 1.646970000000000027e+02 1.875085000000000036e+03
1.250000000000000000e-01 1.313020000000000020e-01 4.271894999999999953e+01 1.639604999999999961e+02 1.874815000000000055e+03
1.260000000000000009e-01 1.312780000000000058e-01 4.192224999999999824e+01 1.632609999999999957e+02 1.874549999999999955e+03
1.270000000000000018e-01 1.312554999999999972e-01 4.115729999999999933e+01 1.626005000000000109e+02 1.874295000000000073e+03
1.280000000000000027e-01 1.312325000000000019e-01 4.042364999999999498e+01 1.619730000000000132e+02 1.874045000000000073e+03
1.290000000000000036e-01 1.312109999999999943e-01 3.971940000000000026e+01 1.613734999999999786e+02 1.873800000000000182e+03
1.300000000000000044e-01 1.311895000000000144e-01 3.904094999999999516e+01 1.607909999999999968e+02 1.873570000000000164e+03
1.310000000000000053e-01 1.311694999999999944e-01 3.838354999999999961e+01 1.602139999999999986e+02 1.873335000000000036e+03
1.320000000000000062e-01 1.311485000000000012e-01 3.774160000000000537e+01 1.596289999999999907e+02 1.873105000000000018e+03
1.330000000000000071e-01 1.311275000000000079e-01 3.710889999999999844e+01 1.590229999999999961e+02 1.872869999999999891e+03
1.340000000000000080e-01 1.311060000000000003e-01 3.647879999999999967e+01 1.583810000000000002e+02 1.872630000000000109e+03
1.350000000000000089e-01 1.310824999999999907e-01 3.584490000000000265e+01 1.576904999999999859e+02 1.872375000000000000e+03
1.360000000000000098e-01 1.310585000000000222e-01 3.520109999999999673e+01 1.569390000000000214e+02 1.872105000000000018e+03
1.370000000000000107e-01 1.310324999999999962e-01 3.454180000000000206e+01 1.561165000000000020e+02 1.871815000000000055e+03
1.380000000000000115e-01 1.310040000000000093e-01 3.386245000000000260e+01 1.552150000000000034e+02 1.871505000000000109e+03
1.390000000000000124e-01 1.309730000000000061e-01 3.315940000000000509e+01 1.542294999999999732e+02 1.871159999999999854e+03
1.400000000000000133e-01 1.309400000000000008e-01 3.243039999999999878e+01 1.531574999999999989e+02 1.870795000000000073e+03
1.410000000000000142e-01 1.309035000000000060e-01 3.167449999999999832e+01 1.519995000000000118e+02 1.870400000000000091e+03
1.420000000000000151e-01 1.308640000000000081e-01 3.089215000000000089e+01 1.507585000000000264e+02 1.869974999999999909e+03
1.430000000000000160e-01 1.308229999999999948e-01 3.008524999999999849e+01 1.494429999999999836e+02 1.869519999999999982e+03
1.440000000000000169e-01 1.307790000000000064e-01 2.925710000000000122e+01 1.480614999999999952e+02 1.869035000000000082e+03
1.450000000000000178e-01 1.307325000000000015e-01 2.841225000000000023e+01 1.466270000000000095e+02 1.868525000000000091e+03
1.459999999999999909e-01 1.306839999999999946e-01 2.755640000000000001e+01 1.451535000000000082e+02 1.868000000000000000e+03
1.469999999999999918e-01 1.306344999999999867e-01 2.669610000000000127e+01 1.436575000000000273e+02 1.867454999999999927e+03
1.479999999999999927e-01 1.305834999999999912e-01 2.583865000000000123e+01 1.421564999999999941e+02 1.866900000000000091e+03
1.489999999999999936e-01 1.305330000000000101e-01 2.499179999999999779e+01 1.406680000000000064e+02 1.866345000000000027e+03
1.499999999999999944e-01 1.304819999999999869e-01 2.416329999999999956e+01 1.392100000000000080e+02 1.865789999999999964e+03
1.509999999999999953e-01 1.304319999999999924e-01 2.336095000000000255e+01 1.377989999999999782e+02 1.865240000000000009e+03
1.519999999999999962e-01 1.303829999999999989e-01 2.259199999999999875e+01 1.364510000000000218e+02 1.864704999999999927e+03
1.529999999999999971e-01 1.303354999999999930e-01 2.186319999999999908e+01 1.351809999999999832e+02 1.864184999999999945e+03
1.539999999999999980e-01 1.302905000000000035e-01 2.118014999999999759e+01 1.339995000000000118e+02 1.863694999999999936e+03
1.549999999999999989e-01 1.302484999999999893e-01 2.054755000000000109e+01 1.329164999999999850e+02 1.863230000000000018e+03
1.559999999999999998e-01 1.302089999999999914e-01 1.996904999999999930e+01 1.319379999999999882e+02 1.862795000000000073e+03
1.570000000000000007e-01 1.301729999999999832e-01 1.944680000000000319e+01 1.310679999999999836e+02 1.862394999999999982e+03
1.580000000000000016e-01 1.301399999999999779e-01 1.898174999999999812e+01 1.303064999999999998e+02 1.862035000000000082e+03
1.590000000000000024e-01 1.301110000000000044e-01 1.857355000000000089e+01 1.296519999999999868e+02 1.861704999999999927e+03
