# t [s], A [cm^2], U [cm/s], P [cPa], c [cm/s]
1.000000000000000021e-03 7.894289999999999363e-01 4.471549999999997749e-03 9.007994999999999663e+01 1.578670000000000073e+03
2.000000000000000042e-03 7.894149999999999778e-01 -3.051525000000000244e-03 9.005154999999999177e+01 1.578664999999999964e+03
3.000000000000000062e-03 7.894839999999999636e-01 9.498685000000001155e-02 9.015000000000000568e+01 1.578690000000000055e+03
4.000000000000000083e-03 7.895469999999999988e-01 1.955958499999999878e-01 9.026749999999999829e+01 1.578714999999999918e+03
5.000000000000000104e-03 7.895119999999999916e-01 1.718361999999999945e-01 9.020914999999999395e+01 1.578704999999999927e+03
6.000000000000000125e-03 7.894209999999999283e-01 6.661800000000001054e-02 8.998224999999999341e+01 1.578654999999999973e+03
7.000000000000000146e-03 7.893409999999999593e-01 -3.242700000000003913e-02 8.969610000000000127e+01 1.578595000000000027e+03
8.000000000000000167e-03 7.892209999999999503e-01 -2.008050000000000113e-01 8.928139999999999077e+01 1.578505000000000109e+03
9.000000000000001055e-03 7.890194999999999848e-01 -5.000350000000000072e-01 8.864279999999999404e+01 1.578365000000000009e+03
1.000000000000000194e-02 7.887375000000000913e-01 -9.258349999999999635e-01 8.774729999999999563e+01 1.578170000000000073e+03
1.099999999999999936e-02 7.883565000000000156e-01 -1.493519999999999959e+00 8.654104999999999848e+01 1.577900000000000091e+03
1.200000000000000025e-02 7.878555000000000419e-01 -2.215844999999999843e+00 8.496675000000000466e+01 1.577550000000000182e+03
1.300000000000000114e-02 7.872649999999999926e-01 -3.028520000000000323e+00 8.306219999999999004e+01 1.577110000000000127e+03
1.400000000000000203e-02 7.866674999999999640e-01 -3.784045000000000325e+00 8.099604999999999677e+01 1.576625000000000000e+03
1.499999999999999944e-02 7.861529999999999907e-01 -4.321997499999999270e+00 7.899754999999998972e+01 1.576130000000000109e+03
1.600000000000000033e-02 7.857684999999999809e-01 -4.543206999999999773e+00 7.725245000000001028e+01 1.575679999999999836e+03
1.700000000000000122e-02 7.855069999999999553e-01 -4.438930000000000042e+00 7.583719999999999573e+01 1.575284999999999854e+03
1.800000000000000211e-02 7.853175000000000017e-01 -4.076480000000000103e+00 7.471195000000000164e+01 1.574944999999999936e+03
1.900000000000000300e-02 7.851364999999999039e-01 -3.562429999999999986e+00 7.375450000000000728e+01 1.574639999999999873e+03
2.000000000000000042e-02 7.849070000000000213e-01 -3.001272499999999788e+00 7.281559999999998922e+01 1.574344999999999800e+03
2.100000000000000130e-02 7.845984999999999765e-01 -2.462047500000000166e+00 7.177334999999999354e+01 1.574025000000000091e+03
2.200000000000000219e-02 7.842139999999999667e-01 -1.962730000000000086e+00 7.057165000000000532e+01 1.573680000000000064e+03
2.299999999999999961e-02 7.837825000000000486e-01 -1.477200000000000069e+00 6.922674999999999557e+01 1.573305000000000064e+03
2.400000000000000050e-02 7.833404999999999951e-01 -9.599499999999998590e-01 6.780464999999999520e+01 1.572914999999999964e+03
2.500000000000000139e-02 7.829180000000000028e-01 -3.756899999999998574e-01 6.638155000000000427e+01 1.572519999999999982e+03
2.600000000000000228e-02 7.825239999999999974e-01 2.788699999999999513e-01 6.500589999999999691e+01 1.572130000000000109e+03
2.700000000000000316e-02 7.821434999999999915e-01 9.670149999999997359e-01 6.367570000000000618e+01 1.571744999999999891e+03
2.800000000000000058e-02 7.817435000000000356e-01 1.617659999999999876e+00 6.233389999999999986e+01 1.571360000000000127e+03
2.900000000000000147e-02 7.812814999999999621e-01 2.140760000000000218e+00 6.088129999999999598e+01 1.570950000000000045e+03
3.000000000000000236e-02 7.807165000000000354e-01 2.448070000000000412e+00 5.920215000000000316e+01 1.570505000000000109e+03
3.099999999999999978e-02 7.800219999999999931e-01 2.474215000000000053e+00 5.719535000000000480e+01 1.569980000000000018e+03
3.200000000000000067e-02 7.791930000000000245e-01 2.193000000000000060e+00 5.480450000000000443e+01 1.569380000000000109e+03
3.300000000000000155e-02 7.782489999999999686e-01 1.624309999999999921e+00 5.203719999999999857e+01 1.568695000000000164e+03
3.400000000000000244e-02 7.772304999999999353e-01 8.296200000000002461e-01 4.896949999999999648e+01 1.567934999999999945e+03
3.500000000000000333e-02 7.761919999999999931e-01 -1.020649999999996282e-01 4.573290000000000077e+01 1.567134999999999991e+03
3.600000000000000422e-02 7.751905000000000046e-01 -1.071550000000000225e+00 4.249224999999999852e+01 1.566320000000000164e+03
3.700000000000000511e-02 7.742765000000000342e-01 -1.986370000000000413e+00 3.941884999999999906e+01 1.565539999999999964e+03
3.799999999999999906e-02 7.734905000000000808e-01 -2.771730000000000249e+00 3.666779999999999973e+01 1.564809999999999945e+03
3.899999999999999994e-02 7.728580000000000449e-01 -3.376170000000000115e+00 3.436169999999999902e+01 1.564184999999999945e+03
4.000000000000000083e-02 7.723915000000000086e-01 -3.771155000000000257e+00 3.258285000000000053e+01 1.563670000000000073e+03
4.100000000000000172e-02 7.720929999999999183e-01 -3.947120500000000032e+00 3.137319999999999709e+01 1.563295000000000073e+03
4.200000000000000261e-02 7.719570000000000043e-01 -3.907280000000000086e+00 3.073969999999999914e+01 1.563055000000000064e+03
4.300000000000000350e-02 7.719734999999999792e-01 -3.661109999999999864e+00 3.066400000000000148e+01 1.562950000000000045e+03
4.400000000000000439e-02 7.721320000000000405e-01 -3.219034999999999869e+00 3.111265000000000214e+01 1.562990000000000009e+03
4.499999999999999833e-02 7.724225000000000119e-01 -2.589459500000000247e+00 3.204590000000000316e+01 1.563150000000000091e+03
4.599999999999999922e-02 7.728360000000000785e-01 -1.778310000000000057e+00 3.342320000000000135e+01 1.563430000000000064e+03
4.700000000000000011e-02 7.733630000000000226e-01 -7.908349999999999547e-01 3.520550000000000068e+01 1.563825000000000045e+03
4.800000000000000100e-02 7.739955000000000584e-01 3.654100000000002346e-01 3.735374999999999801e+01 1.564309999999999945e+03
4.900000000000000189e-02 7.747209999999999930e-01 1.677654999999999674e+00 3.982665000000000077e+01 1.564884999999999991e+03
5.000000000000000278e-02 7.755259999999999376e-01 3.125990000000000268e+00 4.257734999999999559e+01 1.565545000000000073e+03
5.100000000000000366e-02 7.763925000000000409e-01 4.682959999999999567e+00 4.555230000000000246e+01 1.566269999999999982e+03
5.200000000000000455e-02 7.773010000000000197e-01 6.314674999999999372e+00 4.869115000000000038e+01 1.567039999999999964e+03
5.300000000000000544e-02 7.782314999999999650e-01 7.983312499999999368e+00 5.192870000000000630e+01 1.567844999999999800e+03
5.399999999999999939e-02 7.791635000000000089e-01 9.650009999999999977e+00 5.519865000000000066e+01 1.568670000000000073e+03
5.500000000000000028e-02 7.800780000000000491e-01 1.127782999999999980e+01 5.843730000000000047e+01 1.569505000000000109e+03
5.600000000000000117e-02 7.809595000000000287e-01 1.283467999999999876e+01 6.158825000000000216e+01 1.570320000000000164e+03
5.700000000000000205e-02 7.817979999999999929e-01 1.429494000000000042e+01 6.460515000000000896e+01 1.571119999999999891e+03
5.800000000000000294e-02 7.825854999999999340e-01 1.564044499999999971e+01 6.745470000000000255e+01 1.571880000000000109e+03
5.900000000000000383e-02 7.833189999999999875e-01 1.686079999999999757e+01 7.011724999999999852e+01 1.572610000000000127e+03
6.000000000000000472e-02 7.840000000000000302e-01 1.795250000000000057e+01 7.258650000000000091e+01 1.573289999999999964e+03
6.099999999999999867e-02 7.846314999999999262e-01 1.891805000000000092e+01 7.486840000000000828e+01 1.573929999999999836e+03
6.199999999999999956e-02 7.852204999999999879e-01 1.976494999999999891e+01 7.697880000000000678e+01 1.574525000000000091e+03
6.300000000000000044e-02 7.857735000000000136e-01 2.050410000000000110e+01 7.894145000000000323e+01 1.575085000000000036e+03
6.400000000000000133e-02 7.863004999999999578e-01 2.114914999999999878e+01 8.078520000000000323e+01 1.575610000000000127e+03
6.500000000000000222e-02 7.868094999999999395e-01 2.171504999999999797e+01 8.254194999999999993e+01 1.576115000000000009e+03
6.600000000000000311e-02 7.873099999999999543e-01 2.221739999999999782e+01 8.424389999999999645e+01 1.576599999999999909e+03
6.700000000000000400e-02 7.878104999999999691e-01 2.267139999999999844e+01 8.592180000000000462e+01 1.577079999999999927e+03
6.800000000000000488e-02 7.883175000000000043e-01 2.309100000000000108e+01 8.760269999999999868e+01 1.577549999999999955e+03
6.900000000000000577e-02 7.888355000000000228e-01 2.348785000000000167e+01 8.930825000000000102e+01 1.578029999999999973e+03
7.000000000000000666e-02 7.893680000000000696e-01 2.387075000000000102e+01 9.105289999999999395e+01 1.578505000000000109e+03
7.100000000000000755e-02 7.899165000000000214e-01 2.424490000000000123e+01 9.284324999999999761e+01 1.579000000000000000e+03
7.200000000000000844e-02 7.904769999999999852e-01 2.461159999999999926e+01 9.467719999999999914e+01 1.579500000000000000e+03
7.300000000000000933e-02 7.910460000000000269e-01 2.496845000000000070e+01 9.654420000000000357e+01 1.580009999999999991e+03
7.399999999999999634e-02 7.916174999999999740e-01 2.530959999999999965e+01 9.842595000000000027e+01 1.580519999999999982e+03
7.499999999999999722e-02 7.921829999999999705e-01 2.562644999999999840e+01 1.002981499999999926e+02 1.581029999999999973e+03
7.599999999999999811e-02 7.927334999999999798e-01 2.590845000000000198e+01 1.021315000000000026e+02 1.581535000000000082e+03
7.699999999999999900e-02 7.932595000000000063e-01 2.614419999999999789e+01 1.038944999999999936e+02 1.582014999999999873e+03
7.799999999999999989e-02 7.937514999999999432e-01 2.632209999999999894e+01 1.055559999999999974e+02 1.582480000000000018e+03
7.900000000000000078e-02 7.942025000000000334e-01 2.643160000000000309e+01 1.070849999999999937e+02 1.582909999999999854e+03
8.000000000000000167e-02 7.946040000000000880e-01 2.646340000000000003e+01 1.084549999999999983e+02 1.583305000000000064e+03
8.100000000000000255e-02 7.949505000000000043e-01 2.641040000000000276e+01 1.096440000000000055e+02 1.583654999999999973e+03
8.200000000000000344e-02 7.952380000000000004e-01 2.626789999999999736e+01 1.106359999999999957e+02 1.583954999999999927e+03
8.300000000000000433e-02 7.954654999999999365e-01 2.603374999999999773e+01 1.114200000000000017e+02 1.584200000000000045e+03
8.400000000000000522e-02 7.956320000000000059e-01 2.570859999999999701e+01 1.119934999999999974e+02 1.584394999999999982e+03
8.500000000000000611e-02 7.957380000000000564e-01 2.529570000000000007e+01 1.123589999999999947e+02 1.584530000000000200e+03
8.600000000000000699e-02 7.957885000000000097e-01 2.480089999999999861e+01 1.125250000000000057e+02 1.584615000000000009e+03
8.700000000000000788e-02 7.957864999999999522e-01 2.423239999999999839e+01 1.125060000000000002e+02 1.584650000000000091e+03
8.800000000000000877e-02 7.957389999999999741e-01 2.360025000000000261e+01 1.123215000000000003e+02 1.584644999999999982e+03
8.899999999999999578e-02 7.956520000000000259e-01 2.291625000000000156e+01 1.119934999999999974e+02 1.584590000000000146e+03
8.999999999999999667e-02 7.955335000000000045e-01 2.219324999999999903e+01 1.115480000000000018e+02 1.584505000000000109e+03
9.099999999999999756e-02 7.953915000000000290e-01 2.144480000000000075e+01 1.110125000000000028e+02 1.584389999999999873e+03
9.199999999999999845e-02 7.952325000000000088e-01 2.068465000000000131e+01 1.104145000000000039e+02 1.584255000000000109e+03
9.299999999999999933e-02 7.950654999999999806e-01 1.992599999999999838e+01 1.097805000000000035e+02 1.584105000000000018e+03
9.400000000000000022e-02 7.948969999999999647e-01 1.918120000000000047e+01 1.091364999999999981e+02 1.583950000000000045e+03
9.500000000000000111e-02 7.947334999999999816e-01 1.846110000000000184e+01 1.085060000000000002e+02 1.583789999999999964e+03
9.600000000000000200e-02 7.945794999999999941e-01 1.777479999999999905e+01 1.079079999999999870e+02 1.583634999999999991e+03
9.700000000000000289e-02 7.944400000000000350e-01 1.712904999999999944e+01 1.073580000000000041e+02 1.583485000000000127e+03
9.800000000000000377e-02 7.943165000000000919e-01 1.652844999999999942e+01 1.068675000000000068e+02 1.583349999999999909e+03
9.900000000000000466e-02 7.942105000000000414e-01 1.597484999999999999e+01 1.064424999999999955e+02 1.583230000000000018e+03
1.000000000000000056e-01 7.941225000000000644e-01 1.546795000000000186e+01 1.060850000000000080e+02 1.583125000000000000e+03
1.010000000000000064e-01 7.940504999999999924e-01 1.500485000000000113e+01 1.057914999999999992e+02 1.583034999999999854e+03
1.020000000000000073e-01 7.939924999999999899e-01 1.458095000000000141e+01 1.055559999999999974e+02 1.582954999999999927e+03
1.030000000000000082e-01 7.939449999999999008e-01 1.418980000000000175e+01 1.053679999999999950e+02 1.582894999999999982e+03
1.040000000000000091e-01 7.939039999999999431e-01 1.382360000000000078e+01 1.052145000000000010e+02 1.582840000000000146e+03
1.050000000000000100e-01 7.938659999999999606e-01 1.347380000000000067e+01 1.050815000000000055e+02 1.582795000000000073e+03
1.059999999999999970e-01 7.938259999999999206e-01 1.313134999999999941e+01 1.049525000000000006e+02 1.582750000000000000e+03
1.069999999999999979e-01 7.937795000000000822e-01 1.278734999999999999e+01 1.048119999999999976e+02 1.582704999999999927e+03
1.079999999999999988e-01 7.937224999999999975e-01 1.243313999999999986e+01 1.046454999999999984e+02 1.582654999999999973e+03
1.089999999999999997e-01 7.936520000000000241e-01 1.206119500000000144e+01 1.044395000000000095e+02 1.582595000000000027e+03
1.100000000000000006e-01 7.935654999999999237e-01 1.166515000000000057e+01 1.041829999999999927e+02 1.582529999999999973e+03
1.110000000000000014e-01 7.934600000000000541e-01 1.124026500000000084e+01 1.038669999999999902e+02 1.582450000000000045e+03
1.120000000000000023e-01 7.933354999999999713e-01 1.078355999999999959e+01 1.034874999999999972e+02 1.582355000000000018e+03
1.130000000000000032e-01 7.931920000000000082e-01 1.029415499999999994e+01 1.030427999999999997e+02 1.582244999999999891e+03
1.140000000000000041e-01 7.930310000000000414e-01 9.773094999999999644e+00 1.025356999999999914e+02 1.582119999999999891e+03
1.150000000000000050e-01 7.928549999999999764e-01 9.223539999999999850e+00 1.019715999999999951e+02 1.581974999999999909e+03
1.160000000000000059e-01 7.926664999999999406e-01 8.650545000000001039e+00 1.013607000000000085e+02 1.581825000000000045e+03
1.170000000000000068e-01 7.924705000000000776e-01 8.060620000000000118e+00 1.007147999999999968e+02 1.581660000000000082e+03
1.180000000000000077e-01 7.922709999999999475e-01 7.461929999999999730e+00 1.000501000000000005e+02 1.581490000000000009e+03
1.190000000000000085e-01 7.920739999999999448e-01 6.863399999999999501e+00 9.938294999999999391e+01 1.581315000000000055e+03
1.200000000000000094e-01 7.918840000000000323e-01 6.274585000000000079e+00 9.873075000000000045e+01 1.581144999999999982e+03
1.209999999999999964e-01 7.917060000000000208e-01 5.705185000000000173e+00 9.811230000000000473e+01 1.580985000000000127e+03
1.219999999999999973e-01 7.915459999999999718e-01 5.164569999999999439e+00 9.754375000000000284e+01 1.580829999999999927e+03
1.229999999999999982e-01 7.914069999999999716e-01 4.661374999999999602e+00 9.704149999999999920e+01 1.580690000000000055e+03
1.239999999999999991e-01 7.912934999999999830e-01 4.203125000000000000e+00 9.661950000000000216e+01 1.580570000000000164e+03
1.250000000000000000e-01 7.912075000000000635e-01 3.795885000000000176e+00 9.628764999999999930e+01 1.580470000000000027e+03
1.260000000000000009e-01 7.911509999999999376e-01 3.444069999999999965e+00 9.605379999999999541e+01 1.580400000000000091e+03
1.270000000000000018e-01 7.911250000000000782e-01 3.150249999999999773e+00 9.592175000000000296e+01 1.580345000000000027e+03
1.280000000000000027e-01 7.911285000000000123e-01 2.915115000000000123e+00 9.589170000000000016e+01 1.580320000000000164e+03
1.290000000000000036e-01 7.911600000000000854e-01 2.737510000000000332e+00 9.596025000000000205e+01 1.580320000000000164e+03
1.300000000000000044e-01 7.912164999999999893e-01 2.614555000000000184e+00 9.612069999999999936e+01 1.580345000000000027e+03
1.310000000000000053e-01 7.912965000000000693e-01 2.541859999999999786e+00 9.636339999999999861e+01 1.580394999999999982e+03
1.320000000000000062e-01 7.913945000000000007e-01 2.513749999999999929e+00 9.667654999999999177e+01 1.580460000000000036e+03
1.330000000000000071e-01 7.915079999999999893e-01 2.523590000000000000e+00 9.704640000000000555e+01 1.580539999999999964e+03
1.340000000000000080e-01 7.916315000000000435e-01 2.564070000000000071e+00 9.745810000000000173e+01 1.580634999999999991e+03
1.350000000000000089e-01 7.917605000000000892e-01 2.627534999999999954e+00 9.789645000000000152e+01 1.580740000000000009e+03
1.360000000000000098e-01 7.918909999999999005e-01 2.706290000000000084e+00 9.834635000000000105e+01 1.580849999999999909e+03
1.370000000000000107e-01 7.920194999999999874e-01 2.792844999999999800e+00 9.879359999999999786e+01 1.580965000000000146e+03
1.380000000000000115e-01 7.921415000000000539e-01 2.880200000000000315e+00 9.922509999999999764e+01 1.581069999999999936e+03
1.390000000000000124e-01 7.922555000000000014e-01 2.962004999999999999e+00 9.962924999999999898e+01 1.581175000000000182e+03
1.400000000000000133e-01 7.923569999999999780e-01 3.032735000000000181e+00 9.999590000000000600e+01 1.581269999999999982e+03
1.410000000000000142e-01 7.924455000000000249e-01 3.087800000000000100e+00 1.003182999999999936e+02 1.581360000000000127e+03
1.420000000000000151e-01 7.925189999999999735e-01 3.123619999999999841e+00 1.005909000000000049e+02 1.581434999999999945e+03
1.430000000000000160e-01 7.925774999999999348e-01 3.137645000000000017e+00 1.008094999999999999e+02 1.581505000000000109e+03
1.440000000000000169e-01 7.926195000000000324e-01 3.128354999999999997e+00 1.009729999999999990e+02 1.581549999999999955e+03
1.450000000000000178e-01 7.926469999999999905e-01 3.095225000000000115e+00 1.010819999999999936e+02 1.581585000000000036e+03
1.459999999999999909e-01 7.926595000000000724e-01 3.038669999999999760e+00 1.011384999999999934e+02 1.581610000000000127e+03
1.469999999999999918e-01 7.926590000000000025e-01 2.959900000000000198e+00 1.011465000000000032e+02 1.581625000000000000e+03
1.479999999999999927e-01 7.926465000000000316e-01 2.860890000000000377e+00 1.011099999999999994e+02 1.581625000000000000e+03
1.489999999999999936e-01 7.926234999999999253e-01 2.744180000000000064e+00 1.010349999999999966e+02 1.581610000000000127e+03
1.499999999999999944e-01 7.925919999999999632e-01 2.612770000000000259e+00 1.009265499999999918e+02 1.581590000000000146e+03
1.509999999999999953e-01 7.925545000000000506e-01 2.469969999999999999e+00 1.007925000000000040e+02 1.581565000000000055e+03
1.519999999999999962e-01 7.925119999999999942e-01 2.319214999999999804e+00 1.006383999999999901e+02 1.581535000000000082e+03
1.529999999999999971e-01 7.924664999999999626e-01 2.163974999999999760e+00 1.004709499999999878e+02 1.581494999999999891e+03
1.539999999999999980e-01 7.924195000000000544e-01 2.007544999999999913e+00 1.002955500000000058e+02 1.581454999999999927e+03
1.549999999999999989e-01 7.923719999999999652e-01 1.852970000000000006e+00 1.001169500000000028e+02 1.581409999999999854e+03
1.559999999999999998e-01 7.923255000000000159e-01 1.702910999999999841e+00 9.993975000000000364e+01 1.581369999999999891e+03
1.570000000000000007e-01 7.922804999999999431e-01 1.559561500000000045e+00 9.976659999999999684e+01 1.581320000000000164e+03
1.580000000000000016e-01 7.922375000000000389e-01 1.424593000000000220e+00 9.959929999999999950e+01 1.581280000000000200e+03
1.590000000000000024e-01 7.921970000000000400e-01 1.299134500000000081e+00 9.943949999999999534e+01 1.581235000000000127e+03
