# t [s], A [cm^2], U [cm/s], P [cPa], c [cm/s]
1.000000000000000021e-03 2.096864999999999979e-01 2.614219999999999877e-01 8.616604999999999848e+01 1.987424999999999955e+03
2.000000000000000042e-03 2.096365000000000034e-01 1.630516499999999924e+00 8.333679999999999666e+01 1.987089999999999918e+03
3.000000000000000062e-03 2.094934999999999992e-01 3.325832499999999747e+00 7.939430000000000121e+01 1.986180000000000064e+03
4.000000000000000083e-03 2.092950000000000088e-01 5.231526999999999816e+00 7.504855000000000587e+01 1.984940000000000055e+03
5.000000000000000104e-03 2.090805000000000025e-01 7.291195000000000093e+00 7.112040000000000362e+01 1.983610000000000127e+03
6.000000000000000125e-03 2.088740000000000041e-01 9.351984999999999104e+00 6.792605000000000359e+01 1.982340000000000146e+03
7.000000000000000146e-03 2.086819999999999786e-01 1.120428500000000049e+01 6.525969999999999516e+01 1.981180000000000064e+03
8.000000000000000167e-03 2.085049999999999959e-01 1.274823500000000109e+01 6.286629999999999541e+01 1.980134999999999991e+03
9.000000000000001055e-03 2.083494999999999930e-01 1.401694499999999977e+01 6.077070000000000505e+01 1.979224999999999909e+03
1.000000000000000194e-02 2.082185000000000008e-01 1.505229999999999890e+01 5.906445000000000078e+01 1.978474999999999909e+03
1.099999999999999936e-02 2.081120000000000192e-01 1.587140000000000128e+01 5.774000000000000199e+01 1.977865000000000009e+03
1.200000000000000025e-02 2.080279999999999907e-01 1.649179999999999779e+01 5.674915000000000020e+01 1.977394999999999982e+03
1.300000000000000114e-02 2.079634999999999956e-01 1.692445000000000022e+01 5.602145000000000152e+01 1.977045000000000073e+03
1.400000000000000203e-02 2.079135000000000011e-01 1.717239999999999966e+01 5.544790000000000418e+01 1.976769999999999982e+03
1.499999999999999944e-02 2.078740000000000032e-01 1.726984999999999815e+01 5.496455000000000268e+01 1.976565000000000055e+03
1.600000000000000033e-02 2.078460000000000030e-01 1.731814999999999927e+01 5.468330000000000268e+01 1.976424999999999955e+03
1.700000000000000122e-02 2.078389999999999960e-01 1.746399999999999864e+01 5.489929999999999666e+01 1.976400000000000091e+03
1.800000000000000211e-02 2.078635000000000066e-01 1.782775000000000176e+01 5.592804999999999893e+01 1.976549999999999955e+03
1.900000000000000300e-02 2.079274999999999873e-01 1.843599999999999994e+01 5.788889999999999958e+01 1.976920000000000073e+03
2.000000000000000042e-02 2.080259999999999887e-01 1.920100000000000051e+01 6.058379999999999654e+01 1.977490000000000009e+03
2.100000000000000130e-02 2.081454999999999833e-01 1.995420000000000016e+01 6.353624999999999545e+01 1.978190000000000055e+03
2.200000000000000219e-02 2.082660000000000067e-01 2.051079999999999970e+01 6.615510000000000446e+01 1.978900000000000091e+03
2.299999999999999961e-02 2.083669999999999967e-01 2.073474999999999824e+01 6.793805000000000405e+01 1.979505000000000109e+03
2.400000000000000050e-02 2.084320000000000062e-01 2.057909999999999684e+01 6.862930000000000064e+01 1.979909999999999854e+03
2.500000000000000139e-02 2.084575000000000178e-01 2.009130000000000038e+01 6.827745000000000175e+01 1.980085000000000036e+03
2.600000000000000228e-02 2.084475000000000078e-01 1.938449999999999918e+01 6.718264999999999532e+01 1.980054999999999836e+03
2.700000000000000316e-02 2.084139999999999882e-01 1.859124999999999872e+01 6.576484999999999559e+01 1.979875000000000000e+03
2.800000000000000058e-02 2.083714999999999873e-01 1.781770000000000209e+01 6.441094999999999970e+01 1.979625000000000000e+03
2.900000000000000147e-02 2.083295000000000008e-01 1.711554999999999893e+01 6.335880000000000223e+01 1.979384999999999991e+03
3.000000000000000236e-02 2.082954999999999945e-01 1.647755000000000081e+01 6.265160000000000196e+01 1.979179999999999836e+03
3.099999999999999978e-02 2.082680000000000087e-01 1.585374999999999979e+01 6.216479999999999961e+01 1.979015000000000100e+03
3.200000000000000067e-02 2.082424999999999971e-01 1.517995000000000161e+01 6.168489999999999895e+01 1.978869999999999891e+03
3.300000000000000155e-02 2.082120000000000082e-01 1.440770000000000017e+01 6.100665000000000049e+01 1.978690000000000055e+03
3.400000000000000244e-02 2.081719999999999959e-01 1.352725000000000044e+01 6.001859999999999928e+01 1.978465000000000146e+03
3.500000000000000333e-02 2.081204999999999861e-01 1.257695000000000007e+01 5.875200000000000244e+01 1.978174999999999955e+03
3.600000000000000422e-02 2.080624999999999836e-01 1.163754000000000133e+01 5.738165000000000049e+01 1.977839999999999918e+03
3.700000000000000511e-02 2.080059999999999965e-01 1.081192499999999868e+01 5.617945000000000277e+01 1.977509999999999991e+03
3.799999999999999906e-02 2.079614999999999936e-01 1.019839999999999947e+01 5.543684999999999974e+01 1.977244999999999891e+03
3.899999999999999994e-02 2.079400000000000137e-01 9.864795000000000869e+00 5.538125000000000142e+01 1.977099999999999909e+03
4.000000000000000083e-02 2.079469999999999930e-01 9.830709999999999837e+00 5.611084999999999923e+01 1.977125000000000000e+03
4.100000000000000172e-02 2.079854999999999898e-01 1.006250500000000159e+01 5.756600000000000250e+01 1.977335000000000036e+03
4.200000000000000261e-02 2.080500000000000127e-01 1.048071500000000000e+01 5.953990000000000293e+01 1.977694999999999936e+03
4.300000000000000350e-02 2.081330000000000124e-01 1.097594499999999940e+01 6.172265000000000157e+01 1.978164999999999964e+03
4.400000000000000439e-02 2.082200000000000162e-01 1.142910000000000004e+01 6.376265000000000072e+01 1.978670000000000073e+03
4.499999999999999833e-02 2.082990000000000119e-01 1.173055000000000092e+01 6.532955000000001178e+01 1.979130000000000109e+03
4.599999999999999922e-02 2.083565000000000000e-01 1.179475000000000051e+01 6.616595000000000937e+01 1.979470000000000027e+03
4.700000000000000011e-02 2.083834999999999993e-01 1.156844999999999857e+01 6.611830000000000496e+01 1.979639999999999873e+03
4.800000000000000100e-02 2.083740000000000037e-01 1.103295499999999940e+01 6.514535000000000764e+01 1.979595000000000027e+03
4.900000000000000189e-02 2.083264999999999978e-01 1.019948499999999925e+01 6.330615000000000236e+01 1.979329999999999927e+03
5.000000000000000278e-02 2.082424999999999971e-01 9.102154999999999774e+00 6.073414999999999964e+01 1.978860000000000127e+03
5.100000000000000366e-02 2.081284999999999941e-01 7.789450000000000429e+00 5.760515000000000185e+01 1.978204999999999927e+03
5.200000000000000455e-02 2.079900000000000082e-01 6.315979999999999706e+00 5.410720000000000596e+01 1.977405000000000200e+03
5.300000000000000544e-02 2.078344999999999776e-01 4.737160000000000259e+00 5.041799999999999926e+01 1.976500000000000000e+03
5.399999999999999939e-02 2.076685000000000059e-01 3.105752499999999916e+00 4.669174999999999898e+01 1.975534999999999854e+03
5.500000000000000028e-02 2.074995000000000034e-01 1.471104999999999885e+00 4.305584999999999951e+01 1.974550000000000182e+03
5.600000000000000117e-02 2.073320000000000163e-01 -1.202149999999999608e-01 3.961440000000000339e+01 1.973569999999999936e+03
5.700000000000000205e-02 2.071719999999999950e-01 -1.623289999999999900e+00 3.645579999999999643e+01 1.972630000000000109e+03
5.800000000000000294e-02 2.070239999999999858e-01 -2.993861249999999696e+00 3.365975000000000250e+01 1.971759999999999991e+03
5.900000000000000383e-02 2.068909999999999916e-01 -4.188220000000000276e+00 3.130264999999999986e+01 1.970980000000000018e+03
6.000000000000000472e-02 2.067780000000000173e-01 -5.164149999999999352e+00 2.945949999999999847e+01 1.970309999999999945e+03
6.099999999999999867e-02 2.066890000000000116e-01 -5.882760000000000211e+00 2.820105000000000217e+01 1.969775000000000091e+03
6.199999999999999956e-02 2.066270000000000051e-01 -6.310945000000000249e+00 2.758934999999999960e+01 1.969394999999999982e+03
6.300000000000000044e-02 2.065945000000000142e-01 -6.424005000000000187e+00 2.767089999999999961e+01 1.969184999999999945e+03
6.400000000000000133e-02 2.065945000000000142e-01 -6.207815000000000083e+00 2.847039999999999793e+01 1.969164999999999964e+03
6.500000000000000222e-02 2.066274999999999917e-01 -5.660305000000000142e+00 2.998590000000000089e+01 1.969335000000000036e+03
6.600000000000000311e-02 2.066930000000000156e-01 -4.791890000000000427e+00 3.218715000000000259e+01 1.969690000000000055e+03
6.700000000000000400e-02 2.067895000000000150e-01 -3.624875499999999917e+00 3.501595000000000368e+01 1.970235000000000127e+03
6.800000000000000488e-02 2.069159999999999888e-01 -2.192060000000000120e+00 3.839034999999999798e+01 1.970950000000000045e+03
6.900000000000000577e-02 2.070670000000000011e-01 -5.346049999999999969e-01 4.220969999999999800e+01 1.971815000000000055e+03
7.000000000000000666e-02 2.072399999999999798e-01 1.300349999999999895e+00 4.636164999999999736e+01 1.972805000000000064e+03
7.100000000000000755e-02 2.074280000000000013e-01 3.262182000000000137e+00 5.072899999999999920e+01 1.973900000000000091e+03
7.200000000000000844e-02 2.076279999999999792e-01 5.299277000000000015e+00 5.519594999999999629e+01 1.975059999999999945e+03
7.300000000000000933e-02 2.078335000000000043e-01 7.361304999999999765e+00 5.965390000000000015e+01 1.976259999999999991e+03
7.399999999999999634e-02 2.080405000000000171e-01 9.401270000000000238e+00 6.400655000000000427e+01 1.977470000000000027e+03
7.499999999999999722e-02 2.082444999999999991e-01 1.137756000000000078e+01 6.817350000000000421e+01 1.978670000000000073e+03
7.599999999999999811e-02 2.084409999999999874e-01 1.325533499999999876e+01 7.209360000000000923e+01 1.979829999999999927e+03
7.699999999999999900e-02 2.086284999999999945e-01 1.500779999999999959e+01 7.572665000000000646e+01 1.980940000000000055e+03
7.799999999999999989e-02 2.088039999999999896e-01 1.661710000000000065e+01 7.905464999999999520e+01 1.981985000000000127e+03
7.900000000000000078e-02 2.089675000000000005e-01 1.807455000000000211e+01 8.208084999999999809e+01 1.982960000000000036e+03
8.000000000000000167e-02 2.091175000000000117e-01 1.937984999999999758e+01 8.482805000000000462e+01 1.983860000000000127e+03
8.100000000000000255e-02 2.092569999999999986e-01 2.054070000000000107e+01 8.733549999999999613e+01 1.984700000000000045e+03
8.200000000000000344e-02 2.093860000000000166e-01 2.157114999999999938e+01 8.965425000000000466e+01 1.985474999999999909e+03
8.300000000000000433e-02 2.095064999999999844e-01 2.248964999999999748e+01 9.184234999999999616e+01 1.986200000000000045e+03
8.400000000000000522e-02 2.096220000000000028e-01 2.331734999999999758e+01 9.395920000000000982e+01 1.986894999999999982e+03
8.500000000000000611e-02 2.097340000000000038e-01 2.407600000000000051e+01 9.606084999999998786e+01 1.987569999999999936e+03
8.600000000000000699e-02 2.098450000000000037e-01 2.478620000000000090e+01 9.819534999999999059e+01 1.988240000000000009e+03
8.700000000000000788e-02 2.099570000000000047e-01 2.546565000000000012e+01 1.003998500000000007e+02 1.988920000000000073e+03
8.800000000000000877e-02 2.100719999999999810e-01 2.612839999999999918e+01 1.026976499999999959e+02 1.989605000000000018e+03
8.899999999999999578e-02 2.101910000000000167e-01 2.678375000000000128e+01 1.050980000000000132e+02 1.990320000000000164e+03
8.999999999999999667e-02 2.103129999999999999e-01 2.743589999999999662e+01 1.075949999999999989e+02 1.991045000000000073e+03
9.099999999999999756e-02 2.104389999999999872e-01 2.808419999999999916e+01 1.101705000000000041e+02 1.991799999999999955e+03
9.199999999999999845e-02 2.105679999999999774e-01 2.872330000000000183e+01 1.127960000000000065e+02 1.992574999999999818e+03
9.299999999999999933e-02 2.106985000000000108e-01 2.934394999999999953e+01 1.154325000000000045e+02 1.993355000000000018e+03
9.400000000000000022e-02 2.108289999999999886e-01 2.993370000000000175e+01 1.180360000000000014e+02 1.994134999999999991e+03
9.500000000000000111e-02 2.109575000000000200e-01 3.047789999999999822e+01 1.205589999999999975e+02 1.994904999999999973e+03
9.600000000000000200e-02 2.110819999999999919e-01 3.096065000000000111e+01 1.229544999999999959e+02 1.995654999999999973e+03
9.700000000000000289e-02 2.112005000000000132e-01 3.136589999999999989e+01 1.251765000000000043e+02 1.996365000000000009e+03
9.800000000000000377e-02 2.113109999999999988e-01 3.167830000000000013e+01 1.271839999999999975e+02 1.997029999999999973e+03
9.900000000000000466e-02 2.114110000000000156e-01 3.188405000000000200e+01 1.289414999999999907e+02 1.997634999999999991e+03
1.000000000000000056e-01 2.114995000000000069e-01 3.197169999999999845e+01 1.304219999999999970e+02 1.998170000000000073e+03
1.010000000000000064e-01 2.115750000000000131e-01 3.193285000000000196e+01 1.316064999999999827e+02 1.998634999999999991e+03
1.020000000000000073e-01 2.116369999999999918e-01 3.176250000000000284e+01 1.324834999999999923e+02 1.999014999999999873e+03
1.030000000000000082e-01 2.116850000000000120e-01 3.145935000000000059e+01 1.330540000000000020e+02 1.999309999999999945e+03
1.040000000000000091e-01 2.117184999999999762e-01 3.102595000000000169e+01 1.333255000000000052e+02 1.999525000000000091e+03
1.050000000000000100e-01 2.117380000000000095e-01 3.046865000000000023e+01 1.333149999999999977e+02 1.999650000000000091e+03
1.059999999999999970e-01 2.117439999999999878e-01 2.979735000000000156e+01 1.330484999999999900e+02 1.999700000000000045e+03
1.069999999999999979e-01 2.117384999999999962e-01 2.902495000000000047e+01 1.325570000000000164e+02 1.999674999999999955e+03
1.079999999999999988e-01 2.117219999999999935e-01 2.816685000000000016e+01 1.318750000000000000e+02 1.999579999999999927e+03
1.089999999999999997e-01 2.116959999999999953e-01 2.724040000000000106e+01 1.310434999999999945e+02 1.999434999999999945e+03
1.100000000000000006e-01 2.116625000000000034e-01 2.626405000000000101e+01 1.301014999999999873e+02 1.999244999999999891e+03
1.110000000000000014e-01 2.116235000000000199e-01 2.525674999999999670e+01 1.290894999999999868e+02 1.999014999999999873e+03
1.120000000000000023e-01 2.115805000000000047e-01 2.423700000000000188e+01 1.280469999999999970e+02 1.998764999999999873e+03
1.130000000000000032e-01 2.115360000000000018e-01 2.322250000000000014e+01 1.270080000000000098e+02 1.998494999999999891e+03
1.140000000000000041e-01 2.114900000000000113e-01 2.222914999999999708e+01 1.260045000000000073e+02 1.998224999999999909e+03
1.150000000000000050e-01 2.114455000000000084e-01 2.127094999999999914e+01 1.250614999999999952e+02 1.997960000000000036e+03
1.160000000000000059e-01 2.114030000000000076e-01 2.035934999999999917e+01 1.241984999999999957e+02 1.997699999999999818e+03
1.170000000000000068e-01 2.113629999999999953e-01 1.950270000000000081e+01 1.234284999999999997e+02 1.997460000000000036e+03
1.180000000000000077e-01 2.113275000000000015e-01 1.870660000000000167e+01 1.227574999999999932e+02 1.997244999999999891e+03
1.190000000000000085e-01 2.112950000000000106e-01 1.797339999999999804e+01 1.221850000000000023e+02 1.997049999999999955e+03
1.200000000000000094e-01 2.112669999999999826e-01 1.730235000000000056e+01 1.217034999999999911e+02 1.996875000000000000e+03
1.209999999999999964e-01 2.112424999999999997e-01 1.668979999999999819e+01 1.213009999999999877e+02 1.996724999999999909e+03
1.219999999999999973e-01 2.112219999999999931e-01 1.612964999999999804e+01 1.209590000000000032e+02 1.996590000000000146e+03
1.229999999999999982e-01 2.112029999999999741e-01 1.561350000000000016e+01 1.206554999999999893e+02 1.996474999999999909e+03
1.239999999999999991e-01 2.111859999999999848e-01 1.513129999999999953e+01 1.203665000000000020e+02 1.996375000000000000e+03
1.250000000000000000e-01 2.111695000000000100e-01 1.467200000000000060e+01 1.200644999999999953e+02 1.996269999999999982e+03
1.260000000000000009e-01 2.111520000000000064e-01 1.422395000000000032e+01 1.197255000000000109e+02 1.996164999999999964e+03
1.270000000000000018e-01 2.111330000000000151e-01 1.377580000000000027e+01 1.193224999999999909e+02 1.996045000000000073e+03
1.280000000000000027e-01 2.111109999999999931e-01 1.331680000000000064e+01 1.188350000000000080e+02 1.995910000000000082e+03
1.290000000000000036e-01 2.110850000000000226e-01 1.283765000000000001e+01 1.182439999999999998e+02 1.995755000000000109e+03
1.300000000000000044e-01 2.110549999999999926e-01 1.233079999999999998e+01 1.175365000000000038e+02 1.995574999999999818e+03
1.310000000000000053e-01 2.110194999999999987e-01 1.179110000000000014e+01 1.167055000000000007e+02 1.995359999999999900e+03
1.320000000000000062e-01 2.109779999999999989e-01 1.121573499999999868e+01 1.157489999999999952e+02 1.995115000000000009e+03
1.330000000000000071e-01 2.109310000000000074e-01 1.060468499999999992e+01 1.146724999999999994e+02 1.994840000000000146e+03
1.340000000000000080e-01 2.108789999999999831e-01 9.960615000000000663e+00 1.134879999999999995e+02 1.994529999999999973e+03
1.350000000000000089e-01 2.108224999999999960e-01 9.288834999999998843e+00 1.122119999999999891e+02 1.994190000000000055e+03
1.360000000000000098e-01 2.107610000000000039e-01 8.596804999999999808e+00 1.108669999999999902e+02 1.993829999999999927e+03
1.370000000000000107e-01 2.106969999999999954e-01 7.894099999999999895e+00 1.094780000000000086e+02 1.993449999999999818e+03
1.380000000000000115e-01 2.106304999999999983e-01 7.191575000000000273e+00 1.080739999999999981e+02 1.993055000000000064e+03
1.390000000000000124e-01 2.105640000000000012e-01 6.501104999999999912e+00 1.066854999999999905e+02 1.992659999999999854e+03
1.400000000000000133e-01 2.104975000000000041e-01 5.834844999999999615e+00 1.053404999999999916e+02 1.992259999999999991e+03
1.410000000000000142e-01 2.104330000000000089e-01 5.204705000000000581e+00 1.040674999999999955e+02 1.991875000000000000e+03
1.420000000000000151e-01 2.103720000000000034e-01 4.621794999999999654e+00 1.028919999999999959e+02 1.991505000000000109e+03
1.430000000000000160e-01 2.103150000000000019e-01 4.095925000000000260e+00 1.018354499999999945e+02 1.991164999999999964e+03
1.440000000000000169e-01 2.102630000000000055e-01 3.635200000000000209e+00 1.009140500000000031e+02 1.990855000000000018e+03
1.450000000000000178e-01 2.102180000000000160e-01 3.245730000000000004e+00 1.001399499999999989e+02 1.990579999999999927e+03
1.459999999999999909e-01 2.101790000000000047e-01 2.931395000000000195e+00 9.951900000000000546e+01 1.990345000000000027e+03
1.469999999999999918e-01 2.101465000000000138e-01 2.693795000000000162e+00 9.905240000000000578e+01 1.990144999999999982e+03
1.479999999999999927e-01 2.101214999999999888e-01 2.532235000000000014e+00 9.873564999999999259e+01 1.989990000000000009e+03
1.489999999999999936e-01 2.101034999999999986e-01 2.443890000000000118e+00 9.855984999999999729e+01 1.989875000000000000e+03
1.499999999999999944e-01 2.100914999999999866e-01 2.423955000000000304e+00 9.851220000000000709e+01 1.989800000000000182e+03
1.509999999999999953e-01 2.100854999999999806e-01 2.465964999999999741e+00 9.857650000000001000e+01 1.989759999999999991e+03
1.519999999999999962e-01 2.100854999999999806e-01 2.562070000000000292e+00 9.873435000000000628e+01 1.989750000000000000e+03
1.529999999999999971e-01 2.100894999999999846e-01 2.703425000000000189e+00 9.896574999999999989e+01 1.989769999999999982e+03
1.539999999999999980e-01 2.100970000000000060e-01 2.880510000000000126e+00 9.925005000000000166e+01 1.989809999999999945e+03
1.549999999999999989e-01 2.101075000000000026e-01 3.083524999999999849e+00 9.956659999999999400e+01 1.989869999999999891e+03
1.559999999999999998e-01 2.101195000000000146e-01 3.302710000000000257e+00 9.989610000000000412e+01 1.989934999999999945e+03
1.570000000000000007e-01 2.101324999999999998e-01 3.528654999999999653e+00 1.002196999999999889e+02 1.990009999999999991e+03
1.580000000000000016e-01 2.101454999999999851e-01 3.752590000000000092e+00 1.005217000000000098e+02 1.990090000000000146e+03
1.590000000000000024e-01 2.101580000000000115e-01 3.966599999999999682e+00 1.007873500000000035e+02 1.990159999999999854e+03
