# t [s], A [cm^2], U [cm/s], P [cPa], c [cm/s]
1.000000000000000021e-03 5.125844999999999985e-01 3.986500000000003929e-03 1.003520000000000039e+02 1.543500000000000000e+03
2.000000000000000042e-03 5.125775000000000192e-01 -1.086969500000000083e-03 1.003315000000000055e+02 1.543500000000000000e+03
3.000000000000000062e-03 5.126114999999999977e-01 6.734585000000001265e-02 1.003997499999999974e+02 1.543519999999999982e+03
4.000000000000000083e-03 5.126545000000000130e-01 1.573431000000000135e-01 1.005120000000000005e+02 1.543549999999999955e+03
5.000000000000000104e-03 5.126515000000000377e-01 1.630115000000000036e-01 1.005153499999999980e+02 1.543554999999999836e+03
6.000000000000000125e-03 5.126124999999999154e-01 9.177600000000002423e-02 1.003795000000000073e+02 1.543525000000000091e+03
7.000000000000000146e-03 5.125729999999999453e-01 1.552449999999999664e-02 1.001794999999999902e+02 1.543474999999999909e+03
8.000000000000000167e-03 5.125260000000000371e-01 -8.319050000000000056e-02 9.990905000000000769e+01 1.543400000000000091e+03
9.000000000000001055e-03 5.124440000000000106e-01 -2.636700000000000710e-01 9.949439999999999884e+01 1.543295000000000073e+03
1.000000000000000194e-02 5.123195000000000388e-01 -5.434999999999999831e-01 9.888790000000000191e+01 1.543134999999999991e+03
1.099999999999999936e-02 5.121445000000000025e-01 -9.320399999999999796e-01 9.804890000000000327e+01 1.542909999999999854e+03
1.200000000000000025e-02 5.119065000000000420e-01 -1.444595000000000073e+00 9.692640000000000100e+01 1.542609999999999900e+03
1.300000000000000114e-02 5.116074999999999928e-01 -2.062725000000000364e+00 9.550544999999999618e+01 1.542215000000000146e+03
1.400000000000000203e-02 5.112734999999999363e-01 -2.709069999999999645e+00 9.385310000000001196e+01 1.541744999999999891e+03
1.499999999999999944e-02 5.109455000000000524e-01 -3.271399999999999864e+00 9.210399999999999920e+01 1.541230000000000018e+03
1.600000000000000033e-02 5.106585000000000152e-01 -3.650570000000000093e+00 9.040514999999999191e+01 1.540710000000000036e+03
1.700000000000000122e-02 5.104254999999999765e-01 -3.795122500000000176e+00 8.886230000000000473e+01 1.540210000000000036e+03
1.800000000000000211e-02 5.102404999999999857e-01 -3.708637999999999657e+00 8.751335000000000264e+01 1.539750000000000000e+03
1.900000000000000300e-02 5.100810000000000066e-01 -3.436260500000000384e+00 8.633164999999999623e+01 1.539319999999999936e+03
2.000000000000000042e-02 5.099224999999999453e-01 -3.042021300000000039e+00 8.524805000000000632e+01 1.538920000000000073e+03
2.100000000000000130e-02 5.097430000000000572e-01 -2.586289000000000282e+00 8.418090000000000828e+01 1.538514999999999873e+03
2.200000000000000219e-02 5.095325000000000548e-01 -2.109329999999999927e+00 8.306334999999999980e+01 1.538099999999999909e+03
2.299999999999999961e-02 5.092910000000000492e-01 -1.624575000000000102e+00 8.186169999999999902e+01 1.537664999999999964e+03
2.400000000000000050e-02 5.090270000000000072e-01 -1.122505000000000086e+00 8.057880000000000109e+01 1.537204999999999927e+03
2.500000000000000139e-02 5.087550000000000683e-01 -5.824200000000001598e-01 7.924434999999999718e+01 1.536735000000000127e+03
2.600000000000000228e-02 5.084849999999999648e-01 1.303000000000009706e-02 7.789719999999999800e+01 1.536255000000000109e+03
2.700000000000000316e-02 5.082225000000000215e-01 6.661999999999999034e-01 7.656659999999999400e+01 1.535775000000000091e+03
2.800000000000000058e-02 5.079644999999999300e-01 1.358780000000000099e+00 7.525900000000000034e+01 1.535305000000000064e+03
2.900000000000000147e-02 5.077009999999999579e-01 2.052864999999999718e+00 7.395349999999999113e+01 1.534829999999999927e+03
3.000000000000000236e-02 5.074184999999999945e-01 2.697475000000000289e+00 7.260495000000000232e+01 1.534340000000000146e+03
3.099999999999999978e-02 5.070999999999999952e-01 3.238459999999999894e+00 7.115479999999999450e+01 1.533835000000000036e+03
3.200000000000000067e-02 5.067349999999999355e-01 3.629404999999999326e+00 6.954534999999999911e+01 1.533279999999999973e+03
3.300000000000000155e-02 5.063165000000000582e-01 3.841149999999999842e+00 6.773480000000000700e+01 1.532680000000000064e+03
3.400000000000000244e-02 5.058489999999999931e-01 3.867635000000000378e+00 6.570980000000000132e+01 1.532019999999999982e+03
3.500000000000000333e-02 5.053425000000000278e-01 3.726775000000000393e+00 6.349164999999999992e+01 1.531309999999999945e+03
3.600000000000000422e-02 5.048144999999999438e-01 3.456599999999999895e+00 6.113509999999999422e+01 1.530559999999999945e+03
3.700000000000000511e-02 5.042870000000000408e-01 3.107769999999999477e+00 5.872109999999999985e+01 1.529789999999999964e+03
3.799999999999999906e-02 5.037810000000000343e-01 2.734910000000000618e+00 5.634534999999999627e+01 1.529025000000000091e+03
3.899999999999999994e-02 5.033170000000000144e-01 2.388989999999999725e+00 5.410580000000000211e+01 1.528289999999999964e+03
4.000000000000000083e-02 5.029105000000000381e-01 2.112080000000000179e+00 5.209210000000000207e+01 1.527619999999999891e+03
4.100000000000000172e-02 5.025724999999999776e-01 1.934989999999999988e+00 5.037810000000000343e+01 1.527025000000000091e+03
4.200000000000000261e-02 5.023100000000000342e-01 1.877319999999999878e+00 4.901780000000000115e+01 1.526525000000000091e+03
4.300000000000000350e-02 5.021269999999999900e-01 1.949424999999999741e+00 4.804545000000000243e+01 1.526144999999999982e+03
4.400000000000000439e-02 5.020229999999999970e-01 2.155263999999999847e+00 4.747729999999999961e+01 1.525884999999999991e+03
4.499999999999999833e-02 5.019974999999999854e-01 2.495460000000000012e+00 4.731615000000000038e+01 1.525750000000000000e+03
4.599999999999999922e-02 5.020474999999999799e-01 2.969660000000000188e+00 4.755509999999999593e+01 1.525740000000000009e+03
4.700000000000000011e-02 5.021725000000000216e-01 3.577944999999999709e+00 4.818195000000000050e+01 1.525865000000000009e+03
4.800000000000000100e-02 5.023695000000000244e-01 4.320994999999999919e+00 4.918155000000000143e+01 1.526105000000000018e+03
4.900000000000000189e-02 5.026355000000000128e-01 5.199304999999999843e+00 5.053695000000000448e+01 1.526460000000000036e+03
5.000000000000000278e-02 5.029689999999999994e-01 6.211739999999999817e+00 5.222915000000000418e+01 1.526930000000000064e+03
5.100000000000000366e-02 5.033644999999999925e-01 7.354005000000000791e+00 5.423614999999999498e+01 1.527505000000000109e+03
5.200000000000000455e-02 5.038175000000000292e-01 8.617594999999999672e+00 5.653164999999999907e+01 1.528180000000000064e+03
5.300000000000000544e-02 5.043204999999999494e-01 9.989020000000000010e+00 5.908429999999999893e+01 1.528944999999999936e+03
5.399999999999999939e-02 5.048654999999999671e-01 1.145028500000000093e+01 6.185714999999999719e+01 1.529785000000000082e+03
5.500000000000000028e-02 5.054445000000000743e-01 1.297969999999999935e+01 6.480875000000000341e+01 1.530694999999999936e+03
5.600000000000000117e-02 5.060459999999999958e-01 1.455317499999999953e+01 6.789454999999999529e+01 1.531660000000000082e+03
5.700000000000000205e-02 5.066629999999999745e-01 1.614582000000000050e+01 7.106874999999999432e+01 1.532659999999999854e+03
5.800000000000000294e-02 5.072849999999999859e-01 1.773360999999999876e+01 7.428690000000000282e+01 1.533684999999999945e+03
5.900000000000000383e-02 5.079050000000000509e-01 1.929480000000000217e+01 7.750790000000000646e+01 1.534730000000000018e+03
6.000000000000000472e-02 5.085169999999999968e-01 2.081085000000000207e+01 8.069625000000000625e+01 1.535775000000000091e+03
6.099999999999999867e-02 5.091154999999999431e-01 2.226705000000000112e+01 8.382329999999998904e+01 1.536805000000000064e+03
6.199999999999999956e-02 5.096985000000000543e-01 2.365275000000000105e+01 8.686790000000000589e+01 1.537829999999999927e+03
6.300000000000000044e-02 5.102634999999999810e-01 2.496110000000000184e+01 8.981645000000000323e+01 1.538825000000000045e+03
6.400000000000000133e-02 5.108105000000000562e-01 2.618870000000000076e+01 9.266339999999999577e+01 1.539799999999999955e+03
6.500000000000000222e-02 5.113404999999999756e-01 2.733514999999999873e+01 9.540780000000000882e+01 1.540744999999999891e+03
6.600000000000000311e-02 5.118540000000000312e-01 2.840189999999999770e+01 9.805575000000000330e+01 1.541659999999999854e+03
6.700000000000000400e-02 5.123535000000000172e-01 2.939215000000000089e+01 1.006150499999999965e+02 1.542555000000000064e+03
6.800000000000000488e-02 5.128414999999999502e-01 3.030989999999999895e+01 1.030965999999999951e+02 1.543420000000000073e+03
6.900000000000000577e-02 5.133195000000000396e-01 3.115934999999999988e+01 1.055114999999999981e+02 1.544269999999999982e+03
7.000000000000000666e-02 5.137890000000000512e-01 3.194454999999999956e+01 1.078710000000000093e+02 1.545099999999999909e+03
7.100000000000000755e-02 5.142514999999999725e-01 3.266880000000000450e+01 1.101835000000000093e+02 1.545920000000000073e+03
7.200000000000000844e-02 5.147080000000000544e-01 3.333465000000000344e+01 1.124555000000000007e+02 1.546714999999999918e+03
7.300000000000000933e-02 5.151585000000000747e-01 3.394334999999999525e+01 1.146899999999999977e+02 1.547505000000000109e+03
7.399999999999999634e-02 5.156024999999999636e-01 3.449500000000000455e+01 1.168859999999999957e+02 1.548279999999999973e+03
7.499999999999999722e-02 5.160379999999999967e-01 3.498839999999999861e+01 1.190389999999999873e+02 1.549039999999999964e+03
7.599999999999999811e-02 5.164630000000000054e-01 3.542139999999999844e+01 1.211415000000000077e+02 1.549784999999999854e+03
7.699999999999999900e-02 5.168760000000000021e-01 3.579115000000000180e+01 1.231829999999999927e+02 1.550509999999999991e+03
7.799999999999999989e-02 5.172740000000000116e-01 3.609404999999999575e+01 1.251504999999999939e+02 1.551214999999999918e+03
7.900000000000000078e-02 5.176534999999999886e-01 3.632654999999999745e+01 1.270300000000000011e+02 1.551889999999999873e+03
8.000000000000000167e-02 5.180124999999999869e-01 3.648520000000000607e+01 1.288085000000000093e+02 1.552534999999999854e+03
8.100000000000000255e-02 5.183480000000000310e-01 3.656695000000000562e+01 1.304705000000000155e+02 1.553139999999999873e+03
8.200000000000000344e-02 5.186574999999999935e-01 3.656940000000000168e+01 1.320035000000000025e+02 1.553710000000000036e+03
8.300000000000000433e-02 5.189390000000000391e-01 3.649110000000000298e+01 1.333965000000000032e+02 1.554224999999999909e+03
8.400000000000000522e-02 5.191919999999999868e-01 3.633155000000000001e+01 1.346410000000000196e+02 1.554704999999999927e+03
8.500000000000000611e-02 5.194140000000000423e-01 3.609125000000000227e+01 1.357305000000000064e+02 1.555125000000000000e+03
8.600000000000000699e-02 5.196054999999999424e-01 3.577199999999999847e+01 1.366620000000000061e+02 1.555494999999999891e+03
8.700000000000000788e-02 5.197654999999999914e-01 3.537655000000000172e+01 1.374350000000000023e+02 1.555815000000000055e+03
8.800000000000000877e-02 5.198954999999999549e-01 3.490874999999999773e+01 1.380504999999999995e+02 1.556085000000000036e+03
8.899999999999999578e-02 5.199964999999999726e-01 3.437349999999999994e+01 1.385140000000000100e+02 1.556295000000000073e+03
8.999999999999999667e-02 5.200690000000000035e-01 3.377674999999999983e+01 1.388319999999999936e+02 1.556460000000000036e+03
9.099999999999999756e-02 5.201160000000000228e-01 3.312525000000000119e+01 1.390144999999999982e+02 1.556570000000000164e+03
9.199999999999999845e-02 5.201390000000000180e-01 3.242640000000000100e+01 1.390729999999999791e+02 1.556640000000000100e+03
9.299999999999999933e-02 5.201409999999999645e-01 3.168834999999999980e+01 1.390194999999999936e+02 1.556674999999999955e+03
9.400000000000000022e-02 5.201240000000000308e-01 3.091965000000000074e+01 1.388684999999999832e+02 1.556664999999999964e+03
9.500000000000000111e-02 5.200915000000000399e-01 3.012904999999999944e+01 1.386345000000000027e+02 1.556625000000000000e+03
9.600000000000000200e-02 5.200464999999999671e-01 2.932525000000000404e+01 1.383335000000000150e+02 1.556559999999999945e+03
9.700000000000000289e-02 5.199905000000000221e-01 2.851670000000000016e+01 1.379795000000000016e+02 1.556469999999999800e+03
9.800000000000000377e-02 5.199285000000000156e-01 2.771124999999999972e+01 1.375885000000000105e+02 1.556365000000000009e+03
9.900000000000000466e-02 5.198610000000000175e-01 2.691610000000000014e+01 1.371725000000000136e+02 1.556244999999999891e+03
1.000000000000000056e-01 5.197910000000000030e-01 2.613729999999999976e+01 1.367435000000000116e+02 1.556115000000000009e+03
1.010000000000000064e-01 5.197199999999999598e-01 2.537965000000000160e+01 1.363125000000000000e+02 1.555980000000000018e+03
1.020000000000000073e-01 5.196494999999999864e-01 2.464679999999999893e+01 1.358865000000000123e+02 1.555840000000000146e+03
1.030000000000000082e-01 5.195805000000000007e-01 2.394069999999999965e+01 1.354710000000000036e+02 1.555704999999999927e+03
1.040000000000000091e-01 5.195130000000000026e-01 2.326210000000000022e+01 1.350690000000000168e+02 1.555570000000000164e+03
1.050000000000000100e-01 5.194465000000000332e-01 2.261015000000000086e+01 1.346814999999999998e+02 1.555434999999999945e+03
1.059999999999999970e-01 5.193814999999999404e-01 2.198299999999999699e+01 1.343059999999999832e+02 1.555309999999999945e+03
1.069999999999999979e-01 5.193164999999999587e-01 2.137764999999999915e+01 1.339390000000000214e+02 1.555179999999999836e+03
1.079999999999999988e-01 5.192499999999999893e-01 2.079005000000000081e+01 1.335759999999999934e+02 1.555049999999999955e+03
1.089999999999999997e-01 5.191814999999999625e-01 2.021600000000000108e+01 1.332094999999999914e+02 1.554920000000000073e+03
1.100000000000000006e-01 5.191095000000000015e-01 1.965044999999999931e+01 1.328319999999999936e+02 1.554785000000000082e+03
1.110000000000000014e-01 5.190319999999999379e-01 1.908859999999999957e+01 1.324370000000000118e+02 1.554644999999999982e+03
1.120000000000000023e-01 5.189479999999999649e-01 1.852564999999999884e+01 1.320169999999999959e+02 1.554505000000000109e+03
1.130000000000000032e-01 5.188565000000000538e-01 1.795710000000000051e+01 1.315639999999999930e+02 1.554349999999999909e+03
1.140000000000000041e-01 5.187564999999999538e-01 1.737924999999999898e+01 1.310734999999999957e+02 1.554179999999999836e+03
1.150000000000000050e-01 5.186474999999999280e-01 1.678885000000000005e+01 1.305409999999999968e+02 1.554005000000000109e+03
1.160000000000000059e-01 5.185290000000000177e-01 1.618370000000000175e+01 1.299629999999999939e+02 1.553815000000000055e+03
1.170000000000000068e-01 5.184005000000000418e-01 1.556244999999999834e+01 1.293385000000000105e+02 1.553610000000000127e+03
1.180000000000000077e-01 5.182630000000000292e-01 1.492494999999999905e+01 1.286684999999999945e+02 1.553389999999999873e+03
1.190000000000000085e-01 5.181169999999999387e-01 1.427192499999999953e+01 1.279555000000000007e+02 1.553154999999999973e+03
1.200000000000000094e-01 5.179640000000000910e-01 1.360524999999999984e+01 1.272030000000000030e+02 1.552909999999999854e+03
1.209999999999999964e-01 5.178045000000000009e-01 1.292790000000000106e+01 1.264184999999999945e+02 1.552654999999999973e+03
1.219999999999999973e-01 5.176414999999999766e-01 1.224347000000000030e+01 1.256090000000000089e+02 1.552384999999999991e+03
1.229999999999999982e-01 5.174754999999999772e-01 1.155663499999999999e+01 1.247835000000000036e+02 1.552114999999999782e+03
1.239999999999999991e-01 5.173094999999999777e-01 1.087248500000000107e+01 1.239519999999999982e+02 1.551839999999999918e+03
1.250000000000000000e-01 5.171449999999999658e-01 1.019657999999999909e+01 1.231250000000000000e+02 1.551565000000000055e+03
1.260000000000000009e-01 5.169850000000000279e-01 9.534769999999999968e+00 1.223139999999999930e+02 1.551289999999999964e+03
1.270000000000000018e-01 5.168304999999999705e-01 8.892825000000000202e+00 1.215289999999999964e+02 1.551019999999999982e+03
1.280000000000000027e-01 5.166844999999999910e-01 8.276415000000000077e+00 1.207804999999999893e+02 1.550769999999999982e+03
1.290000000000000036e-01 5.165484999999999660e-01 7.690680000000000405e+00 1.200780000000000030e+02 1.550519999999999982e+03
1.300000000000000044e-01 5.164239999999999942e-01 7.140305000000000568e+00 1.194300000000000068e+02 1.550295000000000073e+03
1.310000000000000053e-01 5.163115000000000343e-01 6.629110000000000724e+00 1.188435000000000059e+02 1.550085000000000036e+03
1.320000000000000062e-01 5.162130000000000329e-01 6.160040000000000404e+00 1.183229999999999933e+02 1.549894999999999982e+03
1.330000000000000071e-01 5.161274999999999613e-01 5.735070000000000334e+00 1.178709999999999951e+02 1.549724999999999909e+03
1.340000000000000080e-01 5.160565000000000291e-01 5.355159999999999698e+00 1.174899999999999949e+02 1.549575000000000045e+03
1.350000000000000089e-01 5.159989999999999855e-01 5.020245000000000068e+00 1.171779999999999973e+02 1.549450000000000045e+03
1.360000000000000098e-01 5.159544999999999826e-01 4.729280000000000150e+00 1.169334999999999951e+02 1.549345000000000027e+03
1.370000000000000107e-01 5.159215000000000328e-01 4.480344999999999800e+00 1.167520000000000095e+02 1.549264999999999873e+03
1.380000000000000115e-01 5.158994999999999553e-01 4.270749999999999602e+00 1.166274999999999977e+02 1.549204999999999927e+03
1.390000000000000124e-01 5.158865000000000256e-01 4.097184999999999633e+00 1.165540000000000020e+02 1.549160000000000082e+03
1.400000000000000133e-01 5.158810000000000340e-01 3.955890000000000128e+00 1.165225000000000080e+02 1.549130000000000109e+03
1.410000000000000142e-01 5.158825000000000216e-01 3.842805000000000248e+00 1.165259999999999962e+02 1.549105000000000018e+03
1.420000000000000151e-01 5.158880000000000132e-01 3.753744999999999887e+00 1.165564999999999998e+02 1.549099999999999909e+03
1.430000000000000160e-01 5.158964999999999801e-01 3.684535000000000338e+00 1.166064999999999969e+02 1.549105000000000018e+03
1.440000000000000169e-01 5.159070000000000045e-01 3.631149999999999878e+00 1.166675000000000040e+02 1.549110000000000127e+03
1.450000000000000178e-01 5.159179999999999877e-01 3.589809999999999945e+00 1.167334999999999923e+02 1.549119999999999891e+03
1.459999999999999909e-01 5.159285000000000121e-01 3.557084999999999830e+00 1.167985000000000042e+02 1.549134999999999991e+03
1.469999999999999918e-01 5.159375000000000488e-01 3.529929999999999790e+00 1.168575000000000017e+02 1.549144999999999982e+03
1.479999999999999927e-01 5.159445000000000281e-01 3.505735000000000046e+00 1.169070000000000107e+02 1.549160000000000082e+03
1.489999999999999936e-01 5.159495000000000609e-01 3.482330000000000148e+00 1.169439999999999884e+02 1.549164999999999964e+03
1.499999999999999944e-01 5.159509999999999375e-01 3.457984999999999864e+00 1.169660000000000082e+02 1.549170000000000073e+03
1.509999999999999953e-01 5.159494999999999498e-01 3.431400000000000006e+00 1.169724999999999966e+02 1.549175000000000182e+03
1.519999999999999962e-01 5.159454999999999458e-01 3.401660000000000128e+00 1.169625000000000057e+02 1.549164999999999964e+03
1.529999999999999971e-01 5.159389999999999254e-01 3.368219999999999992e+00 1.169380000000000024e+02 1.549159999999999854e+03
1.539999999999999980e-01 5.159295000000000408e-01 3.330829999999999735e+00 1.168984999999999985e+02 1.549150000000000091e+03
1.549999999999999989e-01 5.159179999999999877e-01 3.289544999999999941e+00 1.168465000000000060e+02 1.549130000000000109e+03
1.559999999999999998e-01 5.159039999999999182e-01 3.244629999999999903e+00 1.167824999999999989e+02 1.549110000000000127e+03
1.570000000000000007e-01 5.158884999999999721e-01 3.196514999999999773e+00 1.167085000000000008e+02 1.549095000000000027e+03
1.580000000000000016e-01 5.158719999999999972e-01 3.145795000000000119e+00 1.166270000000000095e+02 1.549065000000000055e+03
1.590000000000000024e-01 5.158544999999999936e-01 3.093115000000000059e+00 1.165395000000000039e+02 1.549039999999999964e+03
