# t [s], A [cm^2], U [cm/s], P [cPa], c [cm/s]
1.000000000000000021e-03 1.528134999999999910e-01 4.660649999999999515e-01 9.164979999999999905e+01 1.809929999999999836e+03
2.000000000000000042e-03 1.527775000000000105e-01 2.123326000000000047e+00 8.832665000000000077e+01 1.809570000000000164e+03
3.000000000000000062e-03 1.526659999999999962e-01 4.068959999999999688e+00 8.413039999999999452e+01 1.808509999999999991e+03
4.000000000000000083e-03 1.525064999999999893e-01 6.195501499999999773e+00 7.980695000000000050e+01 1.807019999999999982e+03
5.000000000000000104e-03 1.523304999999999798e-01 8.439059999999999562e+00 7.607634999999999081e+01 1.805380000000000109e+03
6.000000000000000125e-03 1.521565000000000001e-01 1.064897999999999989e+01 7.311475000000000080e+01 1.803769999999999982e+03
7.000000000000000146e-03 1.519909999999999872e-01 1.265386499999999970e+01 7.068170000000000641e+01 1.802269999999999982e+03
8.000000000000000167e-03 1.518369999999999997e-01 1.438027500000000103e+01 6.854149999999999920e+01 1.800889999999999873e+03
9.000000000000001055e-03 1.516974999999999851e-01 1.585279999999999845e+01 6.667830000000000723e+01 1.799654999999999973e+03
1.000000000000000194e-02 1.515755000000000019e-01 1.710350000000000037e+01 6.513760000000000616e+01 1.798590000000000146e+03
1.099999999999999936e-02 1.514714999999999812e-01 1.814195000000000135e+01 6.389045000000000130e+01 1.797684999999999945e+03
1.200000000000000025e-02 1.513840000000000185e-01 1.897695000000000221e+01 6.287635000000000218e+01 1.796940000000000055e+03
1.300000000000000114e-02 1.513114999999999877e-01 1.962160000000000082e+01 6.204370000000000118e+01 1.796324999999999818e+03
1.400000000000000203e-02 1.512505000000000099e-01 2.008804999999999907e+01 6.133895000000000408e+01 1.795815000000000055e+03
1.499999999999999944e-02 1.512000000000000011e-01 2.040259999999999962e+01 6.072925000000000750e+01 1.795400000000000091e+03
1.600000000000000033e-02 1.511580000000000146e-01 2.062850000000000250e+01 6.026984999999999815e+01 1.795070000000000164e+03
1.700000000000000122e-02 1.511294999999999999e-01 2.086480000000000246e+01 6.013309999999999889e+01 1.794845000000000027e+03
1.800000000000000211e-02 1.511184999999999889e-01 2.121160000000000068e+01 6.054309999999999548e+01 1.794769999999999982e+03
1.900000000000000300e-02 1.511310000000000153e-01 2.172435000000000116e+01 6.164900000000000091e+01 1.794889999999999873e+03
2.000000000000000042e-02 1.511699999999999988e-01 2.238524999999999920e+01 6.342005000000000337e+01 1.795235000000000127e+03
2.100000000000000130e-02 1.512304999999999899e-01 2.310685000000000144e+01 6.562205000000000155e+01 1.795764999999999873e+03
2.200000000000000219e-02 1.513050000000000228e-01 2.376270000000000238e+01 6.788105000000000189e+01 1.796420000000000073e+03
2.299999999999999961e-02 1.513815000000000022e-01 2.422834999999999894e+01 6.979850000000000421e+01 1.797099999999999909e+03
2.400000000000000050e-02 1.514484999999999859e-01 2.441795000000000115e+01 7.106690000000000396e+01 1.797699999999999818e+03
2.500000000000000139e-02 1.514979999999999938e-01 2.430389999999999873e+01 7.154720000000000368e+01 1.798154999999999973e+03
2.600000000000000228e-02 1.515245000000000064e-01 2.391689999999999827e+01 7.128610000000000468e+01 1.798404999999999973e+03
2.700000000000000316e-02 1.515294999999999837e-01 2.332860000000000156e+01 7.047704999999999131e+01 1.798470000000000027e+03
2.800000000000000058e-02 1.515174999999999994e-01 2.262630000000000052e+01 6.938470000000000937e+01 1.798384999999999991e+03
2.900000000000000147e-02 1.514944999999999764e-01 2.188734999999999786e+01 6.826194999999999879e+01 1.798204999999999927e+03
3.000000000000000236e-02 1.514685000000000059e-01 2.116259999999999764e+01 6.728655000000000541e+01 1.797985000000000127e+03
3.099999999999999978e-02 1.514429999999999943e-01 2.047080000000000055e+01 6.653225000000000477e+01 1.797764999999999873e+03
3.200000000000000067e-02 1.514199999999999990e-01 1.980389999999999873e+01 6.597594999999999743e+01 1.797569999999999936e+03
3.300000000000000155e-02 1.514004999999999934e-01 1.913915000000000077e+01 6.553130000000000166e+01 1.797400000000000091e+03
3.400000000000000244e-02 1.513815000000000022e-01 1.845345000000000013e+01 6.509444999999999482e+01 1.797240000000000009e+03
3.500000000000000333e-02 1.513619999999999965e-01 1.773545000000000016e+01 6.458665000000000589e+01 1.797075000000000045e+03
3.600000000000000422e-02 1.513400000000000023e-01 1.699314999999999998e+01 6.398375000000000057e+01 1.796889999999999873e+03
3.700000000000000511e-02 1.513165000000000204e-01 1.625469999999999970e+01 6.332634999999999792e+01 1.796684999999999945e+03
3.799999999999999906e-02 1.512914999999999954e-01 1.556370000000000076e+01 6.271010000000000417e+01 1.796470000000000027e+03
3.899999999999999994e-02 1.512695000000000012e-01 1.496930000000000049e+01 6.226069999999999993e+01 1.796279999999999973e+03
4.000000000000000083e-02 1.512534999999999852e-01 1.451515000000000022e+01 6.209985000000000355e+01 1.796134999999999991e+03
4.100000000000000172e-02 1.512479999999999936e-01 1.422850000000000037e+01 6.231289999999999907e+01 1.796079999999999927e+03
4.200000000000000261e-02 1.512545000000000139e-01 1.411350000000000016e+01 6.292435000000000400e+01 1.796130000000000109e+03
4.300000000000000350e-02 1.512739999999999918e-01 1.414864999999999995e+01 6.388779999999999859e+01 1.796289999999999964e+03
4.400000000000000439e-02 1.513054999999999817e-01 1.428924999999999912e+01 6.509055000000000746e+01 1.796559999999999945e+03
4.499999999999999833e-02 1.513454999999999939e-01 1.447429999999999950e+01 6.637120000000000175e+01 1.796894999999999982e+03
4.599999999999999922e-02 1.513884999999999814e-01 1.463455000000000084e+01 6.754495000000000005e+01 1.797259999999999991e+03
4.700000000000000011e-02 1.514289999999999803e-01 1.470234999999999914e+01 6.843094999999999573e+01 1.797605000000000018e+03
4.800000000000000100e-02 1.514600000000000113e-01 1.461915000000000120e+01 6.887645000000000550e+01 1.797880000000000109e+03
4.900000000000000189e-02 1.514774999999999872e-01 1.434120000000000061e+01 6.877449999999998909e+01 1.798035000000000082e+03
5.000000000000000278e-02 1.514770000000000005e-01 1.384290000000000020e+01 6.807195000000000107e+01 1.798034999999999854e+03
5.100000000000000366e-02 1.514560000000000073e-01 1.311700000000000088e+01 6.676965000000001282e+01 1.797855000000000018e+03
5.200000000000000455e-02 1.514139999999999930e-01 1.217267499999999991e+01 6.491544999999999277e+01 1.797494999999999891e+03
5.300000000000000544e-02 1.513510000000000133e-01 1.103298500000000004e+01 6.259269999999999357e+01 1.796960000000000036e+03
5.399999999999999939e-02 1.512700000000000156e-01 9.730964999999999421e+00 5.990755000000000052e+01 1.796259999999999991e+03
5.500000000000000028e-02 1.511735000000000162e-01 8.306369999999999365e+00 5.697679999999999723e+01 1.795430000000000064e+03
5.600000000000000117e-02 1.510659999999999781e-01 6.802579999999999849e+00 5.391809999999999548e+01 1.794500000000000000e+03
5.700000000000000205e-02 1.509504999999999875e-01 5.264604999999999535e+00 5.084364999999999668e+01 1.793500000000000000e+03
5.800000000000000294e-02 1.508315000000000072e-01 3.737501550000000172e+00 4.785675000000000523e+01 1.792464999999999918e+03
5.900000000000000383e-02 1.507124999999999992e-01 2.265449999999999964e+00 4.505079999999999529e+01 1.791430000000000064e+03
6.000000000000000472e-02 1.505974999999999953e-01 8.910899999999999377e-01 4.250959999999999894e+01 1.790434999999999945e+03
6.099999999999999867e-02 1.504904999999999993e-01 -3.450400000000000134e-01 4.030814999999999770e+01 1.789505000000000109e+03
6.199999999999999956e-02 1.503944999999999865e-01 -1.405219999999999914e+00 3.851319999999999766e+01 1.788664999999999964e+03
6.300000000000000044e-02 1.503125000000000155e-01 -2.255386999999999809e+00 3.718290000000000362e+01 1.787945000000000164e+03
6.400000000000000133e-02 1.502470000000000194e-01 -2.866225000000000023e+00 3.636580000000000013e+01 1.787365000000000009e+03
6.500000000000000222e-02 1.502000000000000002e-01 -3.214310000000000223e+00 3.609884999999999877e+01 1.786945000000000164e+03
6.600000000000000311e-02 1.501740000000000019e-01 -3.283290000000000042e+00 3.640510000000000446e+01 1.786704999999999927e+03
6.700000000000000400e-02 1.501699999999999979e-01 -3.064834999999999976e+00 3.729175000000000040e+01 1.786654999999999973e+03
6.800000000000000488e-02 1.501890000000000169e-01 -2.559260000000000090e+00 3.874854999999999450e+01 1.786799999999999955e+03
6.900000000000000577e-02 1.502300000000000024e-01 -1.775726500000000208e+00 4.074719999999999942e+01 1.787134999999999991e+03
7.000000000000000666e-02 1.502934999999999965e-01 -7.318800000000000860e-01 4.324230000000000018e+01 1.787670000000000073e+03
7.100000000000000755e-02 1.503774999999999973e-01 5.469650000000001455e-01 4.617310000000000514e+01 1.788375000000000000e+03
7.200000000000000844e-02 1.504805000000000170e-01 2.029115000000000002e+00 4.946670000000000300e+01 1.789250000000000000e+03
7.300000000000000933e-02 1.505994999999999973e-01 3.678067249999999788e+00 5.304209999999999781e+01 1.790264999999999873e+03
7.399999999999999634e-02 1.507324999999999915e-01 5.454280000000000683e+00 5.681425000000000125e+01 1.791404999999999973e+03
7.499999999999999722e-02 1.508754999999999957e-01 7.316955000000000098e+00 6.069849999999999568e+01 1.792639999999999873e+03
7.599999999999999811e-02 1.510255000000000070e-01 9.225880000000000081e+00 6.461459999999999582e+01 1.793940000000000055e+03
7.699999999999999900e-02 1.511804999999999954e-01 1.114264000000000010e+01 6.848995000000000744e+01 1.795284999999999854e+03
7.799999999999999989e-02 1.513360000000000261e-01 1.303247999999999962e+01 7.226220000000000709e+01 1.796639999999999873e+03
7.900000000000000078e-02 1.514905000000000002e-01 1.486480000000000068e+01 7.588124999999999432e+01 1.797994999999999891e+03
8.000000000000000167e-02 1.516414999999999846e-01 1.661439999999999984e+01 7.931014999999999304e+01 1.799320000000000164e+03
8.100000000000000255e-02 1.517880000000000063e-01 1.826180000000000092e+01 8.252570000000000050e+01 1.800605000000000018e+03
8.200000000000000344e-02 1.519269999999999787e-01 1.979359999999999786e+01 8.551794999999999902e+01 1.801840000000000146e+03
8.300000000000000433e-02 1.520589999999999997e-01 2.120240000000000080e+01 8.828970000000001050e+01 1.803005000000000109e+03
8.400000000000000522e-02 1.521834999999999993e-01 2.248675000000000068e+01 9.085500000000000398e+01 1.804115000000000009e+03
8.500000000000000611e-02 1.523010000000000197e-01 2.365030000000000143e+01 9.323740000000000805e+01 1.805159999999999854e+03
8.600000000000000699e-02 1.524115000000000053e-01 2.470150000000000290e+01 9.546805000000000518e+01 1.806150000000000091e+03
8.700000000000000788e-02 1.525164999999999993e-01 2.565220000000000056e+01 9.758259999999999934e+01 1.807085000000000036e+03
8.800000000000000877e-02 1.526155000000000150e-01 2.651705000000000112e+01 9.962049999999999272e+01 1.807980000000000018e+03
8.899999999999999578e-02 1.527120000000000144e-01 2.731200000000000117e+01 1.016198499999999996e+02 1.808845000000000027e+03
8.999999999999999667e-02 1.528059999999999974e-01 2.805339999999999989e+01 1.036165000000000020e+02 1.809695000000000164e+03
9.099999999999999756e-02 1.528990000000000071e-01 2.875679999999999836e+01 1.056415000000000077e+02 1.810529999999999973e+03
9.199999999999999845e-02 1.529925000000000035e-01 2.943580000000000041e+01 1.077205000000000013e+02 1.811369999999999891e+03
9.299999999999999933e-02 1.530870000000000009e-01 3.010160000000000124e+01 1.098695000000000022e+02 1.812219999999999800e+03
9.400000000000000022e-02 1.531835000000000002e-01 3.076204999999999856e+01 1.120949999999999989e+02 1.813085000000000036e+03
9.500000000000000111e-02 1.532824999999999882e-01 3.142125000000000057e+01 1.143975000000000080e+02 1.813974999999999909e+03
9.600000000000000200e-02 1.533835000000000059e-01 3.207979999999999876e+01 1.167650000000000006e+02 1.814884999999999991e+03
9.700000000000000289e-02 1.534869999999999846e-01 3.273445000000000249e+01 1.191795000000000044e+02 1.815809999999999945e+03
9.800000000000000377e-02 1.535920000000000063e-01 3.337870000000000203e+01 1.216154999999999973e+02 1.816755000000000109e+03
9.900000000000000466e-02 1.536974999999999869e-01 3.400320000000000675e+01 1.240414999999999992e+02 1.817704999999999927e+03
1.000000000000000056e-01 1.538034999999999819e-01 3.459629999999999939e+01 1.264225000000000136e+02 1.818650000000000091e+03
1.010000000000000064e-01 1.539075000000000026e-01 3.514509999999999934e+01 1.287235000000000014e+02 1.819590000000000146e+03
1.020000000000000073e-01 1.540090000000000070e-01 3.563569999999999993e+01 1.309074999999999989e+02 1.820500000000000000e+03
1.030000000000000082e-01 1.541065000000000074e-01 3.605429999999999779e+01 1.329399999999999977e+02 1.821380000000000109e+03
1.040000000000000091e-01 1.541980000000000017e-01 3.638770000000000238e+01 1.347899999999999920e+02 1.822210000000000036e+03
1.050000000000000100e-01 1.542830000000000035e-01 3.662425000000000352e+01 1.364304999999999950e+02 1.822980000000000018e+03
1.059999999999999970e-01 1.543599999999999972e-01 3.675390000000000157e+01 1.378400000000000034e+02 1.823679999999999836e+03
1.069999999999999979e-01 1.544285000000000241e-01 3.676900000000000546e+01 1.390029999999999859e+02 1.824304999999999836e+03
1.079999999999999988e-01 1.544874999999999998e-01 3.666454999999999842e+01 1.399099999999999966e+02 1.824845000000000027e+03
1.089999999999999997e-01 1.545364999999999933e-01 3.643809999999999860e+01 1.405595000000000141e+02 1.825295000000000073e+03
1.100000000000000006e-01 1.545749999999999902e-01 3.609035000000000082e+01 1.409530000000000030e+02 1.825654999999999973e+03
1.110000000000000014e-01 1.546035000000000048e-01 3.562480000000000047e+01 1.411020000000000039e+02 1.825920000000000073e+03
1.120000000000000023e-01 1.546220000000000094e-01 3.504749999999999943e+01 1.410210000000000150e+02 1.826090000000000146e+03
1.130000000000000032e-01 1.546310000000000184e-01 3.436719999999999686e+01 1.407289999999999850e+02 1.826180000000000064e+03
1.140000000000000041e-01 1.546305000000000041e-01 3.359470000000000312e+01 1.402504999999999882e+02 1.826190000000000055e+03
1.150000000000000050e-01 1.546214999999999951e-01 3.274280000000000257e+01 1.396119999999999948e+02 1.826125000000000000e+03
1.160000000000000059e-01 1.546059999999999934e-01 3.182540000000000191e+01 1.388419999999999845e+02 1.825990000000000009e+03
1.170000000000000068e-01 1.545834999999999848e-01 3.085750000000000171e+01 1.379710000000000036e+02 1.825799999999999955e+03
1.180000000000000077e-01 1.545564999999999856e-01 2.985444999999999993e+01 1.370285000000000082e+02 1.825559999999999945e+03
1.190000000000000085e-01 1.545249999999999957e-01 2.883144999999999669e+01 1.360434999999999945e+02 1.825285000000000082e+03
1.200000000000000094e-01 1.544905000000000028e-01 2.780314999999999870e+01 1.350424999999999898e+02 1.824974999999999909e+03
1.209999999999999964e-01 1.544544999999999946e-01 2.678314999999999912e+01 1.340504999999999995e+02 1.824654999999999973e+03
1.219999999999999973e-01 1.544174999999999853e-01 2.578369999999999962e+01 1.330875000000000057e+02 1.824319999999999936e+03
1.229999999999999982e-01 1.543805000000000038e-01 2.481514999999999915e+01 1.321720000000000255e+02 1.823990000000000009e+03
1.239999999999999991e-01 1.543444999999999956e-01 2.388589999999999947e+01 1.313139999999999930e+02 1.823664999999999964e+03
1.250000000000000000e-01 1.543094999999999883e-01 2.300225000000000009e+01 1.305240000000000009e+02 1.823349999999999909e+03
1.260000000000000009e-01 1.542764999999999831e-01 2.216815000000000069e+01 1.298035000000000139e+02 1.823049999999999955e+03
1.270000000000000018e-01 1.542454999999999798e-01 2.138530000000000086e+01 1.291519999999999868e+02 1.822769999999999982e+03
1.280000000000000027e-01 1.542169999999999930e-01 2.065324999999999989e+01 1.285645000000000095e+02 1.822510000000000218e+03
1.290000000000000036e-01 1.541899999999999937e-01 1.996950000000000003e+01 1.280330000000000155e+02 1.822264999999999873e+03
1.300000000000000044e-01 1.541655000000000109e-01 1.932974999999999710e+01 1.275435000000000088e+02 1.822034999999999854e+03
1.310000000000000053e-01 1.541425000000000156e-01 1.872840000000000060e+01 1.270835000000000150e+02 1.821825000000000045e+03
1.320000000000000062e-01 1.541204999999999936e-01 1.815854999999999819e+01 1.266364999999999981e+02 1.821619999999999891e+03
1.330000000000000071e-01 1.540995000000000004e-01 1.761254999999999882e+01 1.261864999999999952e+02 1.821429999999999836e+03
1.340000000000000080e-01 1.540779999999999927e-01 1.708220000000000027e+01 1.257150000000000034e+02 1.821235000000000127e+03
1.350000000000000089e-01 1.540559999999999985e-01 1.655944999999999823e+01 1.252074999999999960e+02 1.821029999999999973e+03
1.360000000000000098e-01 1.540330000000000032e-01 1.603650000000000020e+01 1.246490000000000009e+02 1.820820000000000164e+03
1.370000000000000107e-01 1.540080000000000060e-01 1.550619999999999976e+01 1.240260000000000105e+02 1.820595000000000027e+03
1.380000000000000115e-01 1.539809999999999790e-01 1.496240000000000059e+01 1.233290000000000077e+02 1.820349999999999909e+03
1.390000000000000124e-01 1.539520000000000055e-01 1.440010000000000190e+01 1.225510000000000019e+02 1.820079999999999927e+03
1.400000000000000133e-01 1.539190000000000003e-01 1.381595000000000084e+01 1.216880000000000024e+02 1.819795000000000073e+03
1.410000000000000142e-01 1.538835000000000064e-01 1.320805000000000007e+01 1.207400000000000091e+02 1.819470000000000027e+03
1.420000000000000151e-01 1.538450000000000095e-01 1.257620000000000005e+01 1.197109999999999985e+02 1.819115000000000009e+03
1.430000000000000160e-01 1.538025000000000087e-01 1.192199000000000098e+01 1.186075000000000017e+02 1.818740000000000009e+03
1.440000000000000169e-01 1.537570000000000048e-01 1.124868999999999986e+01 1.174405000000000001e+02 1.818335000000000036e+03
1.450000000000000178e-01 1.537094999999999989e-01 1.056103500000000039e+01 1.162235000000000014e+02 1.817909999999999854e+03
1.459999999999999909e-01 1.536595000000000044e-01 9.865175000000000693e+00 1.149719999999999942e+02 1.817465000000000146e+03
1.469999999999999918e-01 1.536079999999999945e-01 9.168305000000000149e+00 1.137044999999999959e+02 1.817005000000000109e+03
1.479999999999999927e-01 1.535555000000000114e-01 8.478400000000000603e+00 1.124394999999999953e+02 1.816534999999999854e+03
1.489999999999999936e-01 1.535024999999999862e-01 7.804084999999999717e+00 1.111959999999999980e+02 1.816055000000000064e+03
1.499999999999999944e-01 1.534500000000000031e-01 7.153990000000000293e+00 1.099939999999999998e+02 1.815590000000000146e+03
1.509999999999999953e-01 1.533984999999999932e-01 6.536640000000000228e+00 1.088515000000000015e+02 1.815130000000000109e+03
1.519999999999999962e-01 1.533490000000000131e-01 5.960039999999999338e+00 1.077845000000000084e+02 1.814684999999999945e+03
1.529999999999999971e-01 1.533019999999999938e-01 5.431415000000000326e+00 1.068079999999999927e+02 1.814259999999999991e+03
1.539999999999999980e-01 1.532584999999999920e-01 4.956925000000000026e+00 1.059339999999999975e+02 1.813869999999999891e+03
1.549999999999999989e-01 1.532179999999999931e-01 4.541470000000000340e+00 1.051714999999999947e+02 1.813509999999999991e+03
1.559999999999999998e-01 1.531814999999999982e-01 4.188544999999999519e+00 1.045250000000000057e+02 1.813184999999999945e+03
1.570000000000000007e-01 1.531505000000000227e-01 3.900110000000000188e+00 1.039979999999999905e+02 1.812894999999999982e+03
1.580000000000000016e-01 1.531230000000000091e-01 3.676610000000000156e+00 1.035889999999999986e+02 1.812650000000000091e+03
1.590000000000000024e-01 1.531005000000000005e-01 3.516955000000000275e+00 1.032940000000000111e+02 1.812440000000000055e+03
