# t [s], A [cm^2], U [cm/s], P [cPa], c [cm/s]
1.000000000000000021e-03 5.216954999999999787e-01 3.863550000000000317e-03 1.051135000000000019e+02 1.430224999999999909e+03
2.000000000000000042e-03 5.216880000000000406e-01 5.254250000000000457e-04 1.050999999999999943e+02 1.430220000000000027e+03
3.000000000000000062e-03 5.217079999999999496e-01 3.344735000000000069e-02 1.051290000000000049e+02 1.430224999999999909e+03
4.000000000000000083e-03 5.217530000000000223e-01 1.121879999999999961e-01 1.052224999999999966e+02 1.430255000000000109e+03
5.000000000000000104e-03 5.217720000000000136e-01 1.497443850000000076e-01 1.052715000000000032e+02 1.430275000000000091e+03
6.000000000000000125e-03 5.217499999999999361e-01 1.161016896500000062e-01 1.052189999999999941e+02 1.430264999999999873e+03
7.000000000000000146e-03 5.217125000000000234e-01 5.305150000000000143e-02 1.050910000000000082e+02 1.430235000000000127e+03
8.000000000000000167e-03 5.216794999999999627e-01 -4.415999999999975500e-03 1.049300000000000068e+02 1.430195000000000164e+03
9.000000000000001055e-03 5.216345000000000010e-01 -8.953699999999997772e-02 1.047099999999999937e+02 1.430134999999999991e+03
1.000000000000000194e-02 5.215585000000000360e-01 -2.393574999999999453e-01 1.043824999999999932e+02 1.430055000000000064e+03
1.099999999999999936e-02 5.214474999999999527e-01 -4.633000000000000451e-01 1.039194999999999993e+02 1.429940000000000055e+03
1.200000000000000025e-02 5.212940000000000351e-01 -7.686399999999999899e-01 1.032905000000000086e+02 1.429775000000000091e+03
1.300000000000000114e-02 5.210874999999999257e-01 -1.165599999999999969e+00 1.024614499999999992e+02 1.429555000000000064e+03
1.400000000000000203e-02 5.208285000000000275e-01 -1.643795000000000117e+00 1.014159500000000094e+02 1.429269999999999982e+03
1.499999999999999944e-02 5.205330000000000235e-01 -2.156020000000000270e+00 1.001848999999999990e+02 1.428934999999999945e+03
1.600000000000000033e-02 5.202290000000000525e-01 -2.628435000000000077e+00 9.884055000000000746e+01 1.428550000000000182e+03
1.700000000000000122e-02 5.199439999999999618e-01 -2.987225000000000019e+00 9.747225000000000250e+01 1.428144999999999982e+03
1.800000000000000211e-02 5.196950000000000180e-01 -3.182116999999999862e+00 9.615560000000000684e+01 1.427740000000000009e+03
1.900000000000000300e-02 5.194834999999999869e-01 -3.196280500000000302e+00 9.493465000000000487e+01 1.427349999999999909e+03
2.000000000000000042e-02 5.192974999999999675e-01 -3.043362499999999748e+00 9.381380000000000052e+01 1.426970000000000027e+03
2.100000000000000130e-02 5.191209999999999436e-01 -2.756905499999999787e+00 9.276820000000000732e+01 1.426605000000000018e+03
2.200000000000000219e-02 5.189365000000000228e-01 -2.377523500000000123e+00 9.175530000000000541e+01 1.426240000000000009e+03
2.299999999999999961e-02 5.187310000000000532e-01 -1.941400000000000237e+00 9.073015000000000896e+01 1.425869999999999891e+03
2.400000000000000050e-02 5.184965000000000268e-01 -1.472394999999999898e+00 8.965835000000001287e+01 1.425490000000000009e+03
2.500000000000000139e-02 5.182360000000000300e-01 -9.790099999999999358e-01 8.852365000000000350e+01 1.425085000000000036e+03
2.600000000000000228e-02 5.179544999999999844e-01 -4.565449999999997566e-01 8.732994999999999663e+01 1.424664999999999964e+03
2.700000000000000316e-02 5.176635000000000542e-01 1.067700000000000315e-01 8.609635000000000105e+01 1.424235000000000127e+03
2.800000000000000058e-02 5.173710000000000253e-01 7.219600000000001572e-01 8.484839999999999804e+01 1.423800000000000182e+03
2.900000000000000147e-02 5.170829999999999593e-01 1.392304999999999904e+00 8.360859999999999559e+01 1.423355000000000018e+03
3.000000000000000236e-02 5.168000000000000371e-01 2.109169999999999767e+00 8.238849999999999341e+01 1.422920000000000073e+03
3.099999999999999978e-02 5.165174999999999628e-01 2.851269999999999971e+00 8.118459999999998900e+01 1.422485000000000127e+03
3.200000000000000067e-02 5.162260000000000737e-01 3.587050000000000516e+00 7.997854999999999848e+01 1.422049999999999955e+03
3.300000000000000155e-02 5.159154999999999713e-01 4.279465000000000074e+00 7.874049999999999727e+01 1.421609999999999900e+03
3.400000000000000244e-02 5.155764999999999931e-01 4.892025000000000290e+00 7.743595000000000539e+01 1.421154999999999973e+03
3.500000000000000333e-02 5.152004999999999502e-01 5.394779999999999909e+00 7.603319999999999368e+01 1.420675000000000182e+03
3.600000000000000422e-02 5.147859999999999658e-01 5.769260000000000055e+00 7.451109999999999900e+01 1.420164999999999964e+03
3.700000000000000511e-02 5.143360000000000154e-01 6.011625000000000441e+00 7.286519999999998731e+01 1.419625000000000000e+03
3.799999999999999906e-02 5.138584999999999958e-01 6.132670000000000066e+00 7.111010000000000275e+01 1.419059999999999945e+03
3.899999999999999994e-02 5.133674999999999766e-01 6.155775000000000219e+00 6.927949999999999875e+01 1.418470000000000027e+03
4.000000000000000083e-02 5.128790000000000848e-01 6.112650000000000361e+00 6.742179999999999040e+01 1.417875000000000000e+03
4.100000000000000172e-02 5.124075000000000157e-01 6.038499999999999979e+00 6.559485000000000809e+01 1.417285000000000082e+03
4.200000000000000261e-02 5.119704999999999950e-01 5.967465000000000686e+00 6.385925000000000296e+01 1.416715000000000146e+03
4.300000000000000350e-02 5.115784999999999361e-01 5.929319999999999702e+00 6.227249999999999375e+01 1.416184999999999945e+03
4.400000000000000439e-02 5.112430000000000030e-01 5.947689999999999699e+00 6.088479999999999848e+01 1.415715000000000146e+03
4.499999999999999833e-02 5.109699999999999243e-01 6.039350449999999704e+00 5.973610000000000042e+01 1.415305000000000064e+03
4.599999999999999922e-02 5.107635000000000369e-01 6.215139999999999887e+00 5.885549999999999926e+01 1.414980000000000018e+03
4.700000000000000011e-02 5.106264999999999832e-01 6.481429999999999580e+00 5.826174999999999926e+01 1.414730000000000018e+03
4.800000000000000100e-02 5.105574999999999974e-01 6.841800000000000104e+00 5.796500000000000341e+01 1.414579999999999927e+03
4.900000000000000189e-02 5.105585000000000262e-01 7.298734999999999751e+00 5.796875000000000000e+01 1.414514999999999873e+03
5.000000000000000278e-02 5.106279999999999708e-01 7.854760000000000630e+00 5.827259999999999707e+01 1.414549999999999955e+03
5.100000000000000366e-02 5.107665000000000122e-01 8.513085000000000235e+00 5.887340000000000373e+01 1.414679999999999836e+03
5.200000000000000455e-02 5.109734999999999694e-01 9.277509999999999479e+00 5.976679999999999637e+01 1.414900000000000091e+03
5.300000000000000544e-02 5.112470000000000070e-01 1.015179000000000009e+01 6.094740000000000180e+01 1.415210000000000036e+03
5.399999999999999939e-02 5.115880000000000427e-01 1.113877500000000076e+01 6.240855000000000530e+01 1.415625000000000000e+03
5.500000000000000028e-02 5.119934999999999903e-01 1.223910499999999857e+01 6.414144999999999186e+01 1.416115000000000009e+03
5.600000000000000117e-02 5.124604999999999855e-01 1.345059499999999986e+01 6.613425000000000864e+01 1.416695000000000164e+03
5.700000000000000205e-02 5.129859999999999420e-01 1.476748500000000064e+01 6.837130000000000507e+01 1.417355000000000018e+03
5.800000000000000294e-02 5.135635000000000616e-01 1.618046999999999969e+01 7.083275000000000432e+01 1.418095000000000027e+03
5.900000000000000383e-02 5.141864999999999908e-01 1.767667000000000144e+01 7.349469999999999459e+01 1.418904999999999973e+03
6.000000000000000472e-02 5.148485000000000422e-01 1.924080000000000013e+01 7.632954999999999757e+01 1.419775000000000091e+03
6.099999999999999867e-02 5.155414999999999859e-01 2.085545000000000115e+01 7.930705000000000382e+01 1.420700000000000045e+03
6.199999999999999956e-02 5.162575000000000358e-01 2.250250000000000128e+01 8.239560000000000173e+01 1.421664999999999964e+03
6.300000000000000044e-02 5.169890000000000319e-01 2.416400000000000148e+01 8.556344999999998890e+01 1.422664999999999964e+03
6.400000000000000133e-02 5.177294999999999536e-01 2.582294999999999874e+01 8.878050000000000352e+01 1.423690000000000055e+03
6.500000000000000222e-02 5.184729999999999617e-01 2.746410000000000196e+01 9.201859999999999218e+01 1.424735000000000127e+03
6.600000000000000311e-02 5.192134999999999945e-01 2.907424999999999926e+01 9.525350000000000250e+01 1.425784999999999854e+03
6.700000000000000400e-02 5.199489999999999945e-01 3.064269999999999783e+01 9.846540000000000248e+01 1.426835000000000036e+03
6.800000000000000488e-02 5.206749999999999989e-01 3.216104999999999592e+01 1.016377499999999969e+02 1.427884999999999991e+03
6.900000000000000577e-02 5.213905000000000900e-01 3.362299999999999756e+01 1.047597499999999968e+02 1.428925000000000182e+03
7.000000000000000666e-02 5.220939999999999470e-01 3.502450000000000330e+01 1.078236500000000007e+02 1.429950000000000045e+03
7.100000000000000755e-02 5.227850000000000552e-01 3.636285000000000167e+01 1.108256000000000085e+02 1.430965000000000146e+03
7.200000000000000844e-02 5.234644999999999992e-01 3.763670000000000471e+01 1.137639999999999958e+02 1.431965000000000146e+03
7.300000000000000933e-02 5.241320000000000423e-01 3.884565000000000623e+01 1.166405000000000030e+02 1.432945000000000164e+03
7.399999999999999634e-02 5.247880000000000322e-01 3.998964999999999748e+01 1.194575000000000102e+02 1.433909999999999854e+03
7.499999999999999722e-02 5.254330000000000389e-01 4.106915000000000049e+01 1.222175000000000011e+02 1.434855000000000018e+03
7.599999999999999811e-02 5.260690000000000088e-01 4.208445000000000391e+01 1.249234999999999900e+02 1.435789999999999964e+03
7.699999999999999900e-02 5.266939999999999955e-01 4.303555000000000064e+01 1.275784999999999911e+02 1.436710000000000036e+03
7.799999999999999989e-02 5.273090000000000277e-01 4.392224999999999824e+01 1.301825000000000045e+02 1.437609999999999900e+03
7.900000000000000078e-02 5.279139999999999944e-01 4.474375000000000568e+01 1.327355000000000018e+02 1.438500000000000000e+03
8.000000000000000167e-02 5.285069999999999490e-01 4.549869999999999948e+01 1.352355000000000018e+02 1.439369999999999891e+03
8.100000000000000255e-02 5.290874999999999329e-01 4.618534999999999968e+01 1.376779999999999973e+02 1.440224999999999909e+03
8.200000000000000344e-02 5.296534999999999993e-01 4.680140000000000100e+01 1.400579999999999927e+02 1.441055000000000064e+03
8.300000000000000433e-02 5.302029999999999799e-01 4.734435000000000571e+01 1.423679999999999950e+02 1.441869999999999891e+03
8.400000000000000522e-02 5.307340000000000391e-01 4.781154999999999688e+01 1.445999999999999943e+02 1.442664999999999964e+03
8.500000000000000611e-02 5.312449999999999672e-01 4.820040000000000191e+01 1.467454999999999927e+02 1.443425000000000182e+03
8.600000000000000699e-02 5.317324999999999413e-01 4.850860000000000127e+01 1.487950000000000159e+02 1.444155000000000200e+03
8.700000000000000788e-02 5.321955000000000435e-01 4.873420000000000130e+01 1.507395000000000209e+02 1.444855000000000018e+03
8.800000000000000877e-02 5.326319999999999943e-01 4.887595000000000312e+01 1.525715000000000146e+02 1.445519999999999982e+03
8.899999999999999578e-02 5.330399999999999583e-01 4.893325000000000102e+01 1.542819999999999823e+02 1.446144999999999982e+03
8.999999999999999667e-02 5.334189999999999765e-01 4.890605000000000047e+01 1.558670000000000186e+02 1.446730000000000018e+03
9.099999999999999756e-02 5.337674999999999503e-01 4.879540000000000077e+01 1.573210000000000264e+02 1.447275000000000091e+03
9.199999999999999845e-02 5.340854999999999908e-01 4.860285000000000366e+01 1.586415000000000077e+02 1.447775000000000091e+03
9.299999999999999933e-02 5.343719999999999581e-01 4.833095000000000141e+01 1.598265000000000100e+02 1.448235000000000127e+03
9.400000000000000022e-02 5.346279999999999921e-01 4.798284999999999911e+01 1.608764999999999930e+02 1.448644999999999982e+03
9.500000000000000111e-02 5.348534999999999817e-01 4.756244999999999834e+01 1.617939999999999827e+02 1.449009999999999991e+03
9.600000000000000200e-02 5.350494999999999557e-01 4.707415000000000305e+01 1.625824999999999818e+02 1.449324999999999818e+03
9.700000000000000289e-02 5.352175000000000127e-01 4.652320000000000277e+01 1.632460000000000093e+02 1.449605000000000018e+03
9.800000000000000377e-02 5.353585000000000704e-01 4.591510000000000247e+01 1.637914999999999850e+02 1.449845000000000027e+03
9.900000000000000466e-02 5.354740000000000055e-01 4.525594999999999857e+01 1.642259999999999991e+02 1.450045000000000073e+03
1.000000000000000056e-01 5.355665000000000564e-01 4.455219999999999914e+01 1.645579999999999927e+02 1.450200000000000045e+03
1.010000000000000064e-01 5.356369999999999187e-01 4.381060000000000088e+01 1.647949999999999875e+02 1.450329999999999927e+03
1.020000000000000073e-01 5.356889999999999707e-01 4.303799999999999670e+01 1.649479999999999791e+02 1.450425000000000182e+03
1.030000000000000082e-01 5.357239999999999780e-01 4.224139999999999873e+01 1.650269999999999868e+02 1.450490000000000009e+03
1.040000000000000091e-01 5.357445000000000679e-01 4.142764999999999986e+01 1.650400000000000205e+02 1.450530000000000200e+03
1.050000000000000100e-01 5.357520000000000060e-01 4.060344999999999516e+01 1.649995000000000118e+02 1.450550000000000182e+03
1.059999999999999970e-01 5.357494999999999896e-01 3.977505000000000024e+01 1.649134999999999991e+02 1.450549999999999955e+03
1.069999999999999979e-01 5.357389999999999652e-01 3.894814999999999827e+01 1.647909999999999968e+02 1.450534999999999854e+03
1.079999999999999988e-01 5.357214999999999616e-01 3.812790000000000390e+01 1.646409999999999911e+02 1.450500000000000000e+03
1.089999999999999997e-01 5.356984999999999664e-01 3.731835000000000235e+01 1.644699999999999989e+02 1.450460000000000036e+03
1.100000000000000006e-01 5.356719999999999260e-01 3.652309999999999945e+01 1.642839999999999918e+02 1.450414999999999964e+03
1.110000000000000014e-01 5.356425000000000214e-01 3.574439999999999884e+01 1.640879999999999939e+02 1.450359999999999900e+03
1.120000000000000023e-01 5.356100000000000305e-01 3.498375000000000057e+01 1.638834999999999980e+02 1.450300000000000182e+03
1.130000000000000032e-01 5.355754999999999821e-01 3.424164999999999992e+01 1.636739999999999782e+02 1.450235000000000127e+03
1.140000000000000041e-01 5.355374999999999996e-01 3.351760000000000161e+01 1.634594999999999914e+02 1.450164999999999964e+03
1.150000000000000050e-01 5.354974999999999596e-01 3.281044999999999590e+01 1.632379999999999995e+02 1.450095000000000027e+03
1.160000000000000059e-01 5.354539999999999855e-01 3.211820000000000164e+01 1.630080000000000098e+02 1.450015000000000100e+03
1.170000000000000068e-01 5.354060000000000485e-01 3.143849999999999767e+01 1.627669999999999959e+02 1.449940000000000055e+03
1.180000000000000077e-01 5.353525000000000089e-01 3.076845000000000141e+01 1.625099999999999909e+02 1.449849999999999909e+03
1.190000000000000085e-01 5.352939999999999365e-01 3.010484999999999900e+01 1.622340000000000089e+02 1.449759999999999991e+03
1.200000000000000094e-01 5.352274999999999672e-01 2.944469999999999743e+01 1.619345000000000141e+02 1.449654999999999973e+03
1.209999999999999964e-01 5.351529999999999898e-01 2.878470000000000084e+01 1.616075000000000159e+02 1.449550000000000182e+03
1.219999999999999973e-01 5.350699999999999346e-01 2.812199999999999989e+01 1.612485000000000070e+02 1.449429999999999836e+03
1.229999999999999982e-01 5.349779999999999536e-01 2.745380000000000109e+01 1.608545000000000016e+02 1.449300000000000182e+03
1.239999999999999991e-01 5.348760000000000181e-01 2.677795000000000059e+01 1.604225000000000136e+02 1.449159999999999854e+03
1.250000000000000000e-01 5.347640000000000171e-01 2.609260000000000090e+01 1.599515000000000100e+02 1.449009999999999991e+03
1.260000000000000009e-01 5.346419999999999506e-01 2.539649999999999963e+01 1.594399999999999977e+02 1.448840000000000146e+03
1.270000000000000018e-01 5.345100000000000406e-01 2.468909999999999982e+01 1.588879999999999768e+02 1.448664999999999964e+03
1.280000000000000027e-01 5.343685000000000240e-01 2.397030000000000172e+01 1.582970000000000255e+02 1.448470000000000027e+03
1.290000000000000036e-01 5.342189999999999994e-01 2.324089999999999989e+01 1.576689999999999827e+02 1.448264999999999873e+03
1.300000000000000044e-01 5.340605000000000491e-01 2.250195000000000078e+01 1.570074999999999932e+02 1.448050000000000182e+03
1.310000000000000053e-01 5.338960000000000372e-01 2.175549999999999784e+01 1.563154999999999859e+02 1.447829999999999927e+03
1.320000000000000062e-01 5.337260000000000337e-01 2.100390000000000157e+01 1.555989999999999895e+02 1.447595000000000027e+03
1.330000000000000071e-01 5.335520000000000262e-01 2.025025000000000119e+01 1.548629999999999995e+02 1.447349999999999909e+03
1.340000000000000080e-01 5.333755000000000024e-01 1.949780000000000157e+01 1.541145000000000209e+02 1.447110000000000127e+03
1.350000000000000089e-01 5.331980000000000608e-01 1.875029999999999930e+01 1.533600000000000136e+02 1.446855000000000018e+03
1.360000000000000098e-01 5.330215000000000369e-01 1.801164999999999949e+01 1.526059999999999945e+02 1.446610000000000127e+03
1.370000000000000107e-01 5.328479999999999883e-01 1.728594999999999970e+01 1.518600000000000136e+02 1.446360000000000127e+03
1.380000000000000115e-01 5.326779999999999848e-01 1.657719999999999771e+01 1.511295000000000073e+02 1.446110000000000127e+03
1.390000000000000124e-01 5.325145000000000017e-01 1.588945000000000007e+01 1.504200000000000159e+02 1.445869999999999891e+03
1.400000000000000133e-01 5.323579999999999979e-01 1.522635000000000005e+01 1.497390000000000043e+02 1.445634999999999991e+03
1.410000000000000142e-01 5.322099999999999609e-01 1.459133500000000083e+01 1.490914999999999964e+02 1.445414999999999964e+03
1.420000000000000151e-01 5.320709999999999607e-01 1.398728999999999978e+01 1.484814999999999827e+02 1.445199999999999818e+03
1.430000000000000160e-01 5.319429999999999437e-01 1.341673499999999919e+01 1.479144999999999754e+02 1.445000000000000000e+03
1.440000000000000169e-01 5.318245000000000333e-01 1.288166000000000011e+01 1.473924999999999841e+02 1.444809999999999945e+03
1.450000000000000178e-01 5.317184999999999828e-01 1.238329000000000057e+01 1.469170000000000016e+02 1.444639999999999873e+03
1.459999999999999909e-01 5.316224999999999978e-01 1.192237500000000061e+01 1.464900000000000091e+02 1.444480000000000018e+03
1.469999999999999918e-01 5.315380000000000660e-01 1.149904000000000082e+01 1.461100000000000136e+02 1.444340000000000146e+03
1.479999999999999927e-01 5.314640000000000475e-01 1.111283999999999850e+01 1.457760000000000105e+02 1.444215000000000146e+03
1.489999999999999936e-01 5.313995000000000246e-01 1.076276999999999973e+01 1.454859999999999900e+02 1.444095000000000027e+03
1.499999999999999944e-01 5.313444999999999974e-01 1.044736499999999957e+01 1.452379999999999995e+02 1.444000000000000000e+03
1.509999999999999953e-01 5.312985000000000069e-01 1.016481500000000082e+01 1.450269999999999868e+02 1.443909999999999854e+03
1.519999999999999962e-01 5.312590000000000368e-01 9.913000000000000256e+00 1.448505000000000109e+02 1.443835000000000036e+03
1.529999999999999971e-01 5.312259999999999760e-01 9.689500000000000668e+00 1.447035000000000196e+02 1.443769999999999982e+03
1.539999999999999980e-01 5.311985000000000179e-01 9.491824999999998624e+00 1.445815000000000055e+02 1.443715000000000146e+03
1.549999999999999989e-01 5.311749999999999527e-01 9.317450000000000898e+00 1.444800000000000182e+02 1.443664999999999964e+03
1.559999999999999998e-01 5.311550000000000438e-01 9.163730000000001041e+00 1.443955000000000268e+02 1.443619999999999891e+03
1.570000000000000007e-01 5.311375000000000401e-01 9.028180000000000760e+00 1.443230000000000075e+02 1.443590000000000146e+03
1.580000000000000016e-01 5.311219999999999830e-01 8.908445000000000391e+00 1.442595000000000027e+02 1.443554999999999836e+03
1.590000000000000024e-01 5.311069999999999958e-01 8.802270000000000039e+00 1.442024999999999864e+02 1.443525000000000091e+03
