# t [s], A [cm^2], U [cm/s], P [cPa], c [cm/s]
1.000000000000000021e-03 1.225384999999999946e-01 3.818599999999999772e-01 9.999160000000000537e+01 2.004539999999999964e+03
2.000000000000000042e-03 1.225064999999999904e-01 2.018194999999999961e+00 9.651255000000000450e+01 2.004150000000000091e+03
3.000000000000000062e-03 1.224159999999999970e-01 4.002919499999999964e+00 9.186485000000000412e+01 2.003059999999999945e+03
4.000000000000000083e-03 1.222894999999999954e-01 6.211460500000000273e+00 8.690234999999999843e+01 2.001574999999999818e+03
5.000000000000000104e-03 1.221510000000000096e-01 8.568625000000000824e+00 8.249850000000000705e+01 1.999960000000000036e+03
6.000000000000000125e-03 1.220165000000000000e-01 1.089931500000000142e+01 7.891415000000000646e+01 1.998404999999999973e+03
7.000000000000000146e-03 1.218899999999999983e-01 1.299636499999999906e+01 7.588755000000000450e+01 1.996970000000000027e+03
8.000000000000000167e-03 1.217720000000000052e-01 1.477827500000000072e+01 7.317085000000000150e+01 1.995659999999999854e+03
9.000000000000001055e-03 1.216674999999999979e-01 1.628139999999999787e+01 7.079814999999999259e+01 1.994509999999999991e+03
1.000000000000000194e-02 1.215779999999999916e-01 1.754189999999999827e+01 6.884314999999999429e+01 1.993530000000000200e+03
1.099999999999999936e-02 1.215029999999999999e-01 1.857355000000000089e+01 6.728050000000000352e+01 1.992724999999999909e+03
1.200000000000000025e-02 1.214419999999999944e-01 1.938954999999999984e+01 6.604759999999998854e+01 1.992074999999999818e+03
1.300000000000000114e-02 1.213924999999999865e-01 1.999759999999999849e+01 6.506010000000000559e+01 1.991559999999999945e+03
1.400000000000000203e-02 1.213515000000000010e-01 2.040704999999999814e+01 6.421614999999999895e+01 1.991144999999999982e+03
1.499999999999999944e-02 1.213180000000000092e-01 2.066720000000000113e+01 6.349244999999999806e+01 1.990805000000000064e+03
1.600000000000000033e-02 1.212929999999999980e-01 2.088850000000000051e+01 6.304715000000000202e+01 1.990554999999999836e+03
1.700000000000000122e-02 1.212820000000000009e-01 2.120915000000000106e+01 6.318429999999999325e+01 1.990450000000000045e+03
1.800000000000000211e-02 1.212889999999999940e-01 2.172704999999999842e+01 6.417589999999999861e+01 1.990545000000000073e+03
1.900000000000000300e-02 1.213194999999999968e-01 2.244635000000000247e+01 6.607030000000000314e+01 1.990875000000000000e+03
2.000000000000000042e-02 1.213680000000000037e-01 2.327134999999999820e+01 6.861484999999998990e+01 1.991410000000000082e+03
2.100000000000000130e-02 1.214284999999999948e-01 2.404540000000000077e+01 7.132630000000000337e+01 1.992074999999999818e+03
2.200000000000000219e-02 1.214899999999999869e-01 2.461079999999999757e+01 7.365994999999999493e+01 1.992755000000000109e+03
2.299999999999999961e-02 1.215414999999999968e-01 2.486209999999999809e+01 7.519180000000000064e+01 1.993339999999999918e+03
2.400000000000000050e-02 1.215765000000000040e-01 2.477474999999999739e+01 7.574189999999998690e+01 1.993740000000000009e+03
2.500000000000000139e-02 1.215920000000000056e-01 2.440185000000000315e+01 7.540000000000000568e+01 1.993934999999999945e+03
2.600000000000000228e-02 1.215900000000000036e-01 2.384465000000000146e+01 7.445674999999999955e+01 1.993944999999999936e+03
2.700000000000000316e-02 1.215775000000000050e-01 2.321199999999999974e+01 7.327680000000000859e+01 1.993819999999999936e+03
2.800000000000000058e-02 1.215600000000000014e-01 2.258435000000000059e+01 7.216899999999999693e+01 1.993634999999999991e+03
2.900000000000000147e-02 1.215420000000000111e-01 2.199445000000000050e+01 7.129864999999999498e+01 1.993440000000000055e+03
3.000000000000000236e-02 1.215260000000000090e-01 2.142885000000000062e+01 7.066575000000000273e+01 1.993269999999999982e+03
3.099999999999999978e-02 1.215114999999999945e-01 2.084489999999999910e+01 7.014365000000000805e+01 1.993115000000000009e+03
3.200000000000000067e-02 1.214969999999999939e-01 2.019575000000000031e+01 6.955474999999999852e+01 1.992949999999999818e+03
3.300000000000000155e-02 1.214785000000000031e-01 1.945410000000000039e+01 6.875419999999999732e+01 1.992755000000000109e+03
3.400000000000000244e-02 1.214544999999999930e-01 1.862839999999999918e+01 6.769435000000000002e+01 1.992505000000000109e+03
3.500000000000000333e-02 1.214265000000000067e-01 1.776630000000000109e+01 6.645335000000000036e+01 1.992194999999999936e+03
3.600000000000000422e-02 1.213954999999999895e-01 1.694525000000000148e+01 6.522020000000000550e+01 1.991865000000000009e+03
3.700000000000000511e-02 1.213670000000000027e-01 1.625359999999999872e+01 6.424365000000000236e+01 1.991554999999999836e+03
3.799999999999999906e-02 1.213460000000000094e-01 1.576749999999999829e+01 6.376129999999999853e+01 1.991320000000000164e+03
3.899999999999999994e-02 1.213375000000000009e-01 1.553120000000000189e+01 6.393189999999999884e+01 1.991215000000000146e+03
4.000000000000000083e-02 1.213440000000000074e-01 1.554584999999999972e+01 6.478985000000000127e+01 1.991269999999999982e+03
4.100000000000000172e-02 1.213650000000000007e-01 1.576879999999999882e+01 6.623290000000000077e+01 1.991480000000000018e+03
4.200000000000000261e-02 1.213984999999999925e-01 1.612259999999999849e+01 6.804380000000000450e+01 1.991835000000000036e+03
4.300000000000000350e-02 1.214395000000000058e-01 1.651030000000000086e+01 6.993469999999999231e+01 1.992275000000000091e+03
4.400000000000000439e-02 1.214810000000000056e-01 1.683245000000000147e+01 7.160290000000000532e+01 1.992724999999999909e+03
4.499999999999999833e-02 1.215180000000000010e-01 1.700204999999999700e+01 7.278235000000000809e+01 1.993125000000000000e+03
4.599999999999999922e-02 1.215434999999999988e-01 1.695544999999999902e+01 7.328190000000000737e+01 1.993409999999999854e+03
4.700000000000000011e-02 1.215535000000000088e-01 1.665724999999999767e+01 7.300419999999999732e+01 1.993529999999999973e+03
4.800000000000000100e-02 1.215465000000000018e-01 1.609969999999999857e+01 7.194549999999999557e+01 1.993460000000000036e+03
4.900000000000000189e-02 1.215209999999999901e-01 1.529839999999999911e+01 7.018000000000000682e+01 1.993195000000000164e+03
5.000000000000000278e-02 1.214784999999999893e-01 1.428580000000000183e+01 6.783504999999999541e+01 1.992744999999999891e+03
5.100000000000000366e-02 1.214224999999999888e-01 1.310418500000000108e+01 6.506485000000000696e+01 1.992134999999999991e+03
5.200000000000000455e-02 1.213545000000000040e-01 1.179998499999999950e+01 6.202734999999999843e+01 1.991400000000000091e+03
5.300000000000000544e-02 1.212785000000000113e-01 1.042001499999999936e+01 5.886894999999999811e+01 1.990579999999999927e+03
5.399999999999999939e-02 1.211990000000000012e-01 9.009789999999998855e+00 5.571790000000000020e+01 1.989710000000000036e+03
5.500000000000000028e-02 1.211175000000000029e-01 7.613305000000000433e+00 5.268404999999999916e+01 1.988824999999999818e+03
5.600000000000000117e-02 1.210380000000000067e-01 6.273959999999999759e+00 4.986370000000000147e+01 1.987950000000000045e+03
5.700000000000000205e-02 1.209625000000000006e-01 5.035019999999999385e+00 4.734560000000000457e+01 1.987125000000000000e+03
5.800000000000000294e-02 1.208935000000000010e-01 3.940180000000000238e+00 4.521560000000000201e+01 1.986369999999999891e+03
5.900000000000000383e-02 1.208345000000000113e-01 3.032915000000000028e+00 4.355915000000000248e+01 1.985715000000000146e+03
6.000000000000000472e-02 1.207874999999999921e-01 2.355044499999999985e+00 4.245989999999999753e+01 1.985184999999999945e+03
6.099999999999999867e-02 1.207544999999999868e-01 1.944621999999999851e+00 4.199564999999999770e+01 1.984815000000000055e+03
6.199999999999999956e-02 1.207379999999999981e-01 1.833439999999999959e+00 4.223239999999999839e+01 1.984615000000000009e+03
6.300000000000000044e-02 1.207394999999999996e-01 2.044699999999999740e+00 4.321760000000000446e+01 1.984615000000000009e+03
6.400000000000000133e-02 1.207600000000000062e-01 2.591085000000000083e+00 4.497489999999999810e+01 1.984825000000000045e+03
6.500000000000000222e-02 1.208009999999999917e-01 3.473690000000000389e+00 4.750050000000000239e+01 1.985255000000000109e+03
6.600000000000000311e-02 1.208625000000000116e-01 4.681790000000000340e+00 5.076185000000000258e+01 1.985900000000000091e+03
6.700000000000000400e-02 1.209434999999999955e-01 6.193534999999999791e+00 5.469980000000000331e+01 1.986765000000000100e+03
6.800000000000000488e-02 1.210424999999999973e-01 7.977339999999999876e+00 5.923210000000000264e+01 1.987825000000000045e+03
6.900000000000000577e-02 1.211580000000000018e-01 9.993900000000000006e+00 6.425925000000000864e+01 1.989074999999999818e+03
7.000000000000000666e-02 1.212870000000000059e-01 1.219828499999999849e+01 6.967064999999999486e+01 1.990470000000000027e+03
7.100000000000000755e-02 1.214274999999999938e-01 1.454251000000000005e+01 7.535140000000001237e+01 1.992005000000000109e+03
7.200000000000000844e-02 1.215769999999999906e-01 1.697775000000000034e+01 8.118834999999999980e+01 1.993635000000000218e+03
7.300000000000000933e-02 1.217314999999999925e-01 1.945664999999999978e+01 8.707599999999999341e+01 1.995335000000000036e+03
7.399999999999999634e-02 1.218894999999999978e-01 2.193545000000000300e+01 9.292144999999999300e+01 1.997065000000000055e+03
7.499999999999999722e-02 1.220475000000000032e-01 2.437539999999999907e+01 9.864744999999999209e+01 1.998815000000000055e+03
7.599999999999999811e-02 1.222040000000000071e-01 2.674465000000000003e+01 1.041974000000000018e+02 2.000550000000000182e+03
7.699999999999999900e-02 1.223575000000000079e-01 2.901895000000000024e+01 1.095324999999999989e+02 2.002260000000000218e+03
7.799999999999999989e-02 1.225070000000000048e-01 3.118169999999999931e+01 1.146370000000000005e+02 2.003924999999999955e+03
7.900000000000000078e-02 1.226510000000000100e-01 3.322435000000000116e+01 1.195130000000000052e+02 2.005539999999999964e+03
8.000000000000000167e-02 1.227910000000000112e-01 3.514524999999999721e+01 1.241775000000000091e+02 2.007110000000000127e+03
8.100000000000000255e-02 1.229254999999999931e-01 3.694870000000000232e+01 1.286620000000000061e+02 2.008619999999999891e+03
8.200000000000000344e-02 1.230559999999999987e-01 3.864350000000000307e+01 1.330035000000000025e+02 2.010090000000000146e+03
8.300000000000000433e-02 1.231830000000000008e-01 4.024089999999999634e+01 1.372425000000000068e+02 2.011525000000000091e+03
8.400000000000000522e-02 1.233069999999999999e-01 4.175334999999999752e+01 1.414164999999999850e+02 2.012924999999999955e+03
8.500000000000000611e-02 1.234299999999999981e-01 4.319294999999999618e+01 1.455589999999999975e+02 2.014315000000000055e+03
8.600000000000000699e-02 1.235515000000000085e-01 4.456985000000000241e+01 1.496920000000000073e+02 2.015690000000000055e+03
8.700000000000000788e-02 1.236720000000000041e-01 4.589149999999999352e+01 1.538299999999999841e+02 2.017059999999999945e+03
8.800000000000000877e-02 1.237924999999999998e-01 4.716200000000000614e+01 1.579714999999999918e+02 2.018424999999999955e+03
8.899999999999999578e-02 1.239135000000000097e-01 4.838190000000000168e+01 1.621064999999999827e+02 2.019789999999999964e+03
8.999999999999999667e-02 1.240329999999999905e-01 4.954810000000000514e+01 1.662150000000000034e+02 2.021144999999999982e+03
9.099999999999999756e-02 1.241514999999999980e-01 5.065420000000000300e+01 1.702675000000000125e+02 2.022494999999999891e+03
9.199999999999999845e-02 1.242685000000000040e-01 5.169115000000000038e+01 1.742264999999999873e+02 2.023824999999999818e+03
9.299999999999999933e-02 1.243829999999999936e-01 5.264785000000000537e+01 1.780534999999999854e+02 2.025125000000000000e+03
9.400000000000000022e-02 1.244929999999999926e-01 5.351174999999999926e+01 1.817055000000000007e+02 2.026385000000000218e+03
9.500000000000000111e-02 1.245995000000000019e-01 5.426985000000000525e+01 1.851419999999999959e+02 2.027595000000000027e+03
9.600000000000000200e-02 1.246990000000000043e-01 5.490930000000000177e+01 1.883234999999999957e+02 2.028740000000000009e+03
9.700000000000000289e-02 1.247925000000000006e-01 5.541835000000000377e+01 1.912150000000000034e+02 2.029809999999999945e+03
9.800000000000000377e-02 1.248785000000000034e-01 5.578679999999999950e+01 1.937884999999999991e+02 2.030795000000000073e+03
9.900000000000000466e-02 1.249554999999999971e-01 5.600670000000000215e+01 1.960205000000000268e+02 2.031684999999999945e+03
1.000000000000000056e-01 1.250239999999999962e-01 5.607285000000000252e+01 1.978965000000000032e+02 2.032474999999999909e+03
1.010000000000000064e-01 1.250824999999999854e-01 5.598324999999999818e+01 1.994114999999999895e+02 2.033154999999999973e+03
1.020000000000000073e-01 1.251320000000000210e-01 5.573919999999999675e+01 2.005670000000000073e+02 2.033730000000000018e+03
1.030000000000000082e-01 1.251714999999999911e-01 5.534550000000000125e+01 2.013740000000000236e+02 2.034184999999999945e+03
1.040000000000000091e-01 1.252010000000000067e-01 5.481034999999999968e+01 2.018514999999999873e+02 2.034539999999999964e+03
1.050000000000000100e-01 1.252220000000000000e-01 5.414515000000000100e+01 2.020264999999999986e+02 2.034795000000000073e+03
1.059999999999999970e-01 1.252344999999999986e-01 5.336404999999999887e+01 2.019314999999999998e+02 2.034950000000000045e+03
1.069999999999999979e-01 1.252395000000000036e-01 5.248340000000000316e+01 2.016030000000000086e+02 2.035014999999999873e+03
1.079999999999999988e-01 1.252369999999999872e-01 5.152120000000000033e+01 2.010825000000000102e+02 2.035005000000000109e+03
1.089999999999999997e-01 1.252294999999999936e-01 5.049620000000000175e+01 2.004114999999999895e+02 2.034924999999999955e+03
1.100000000000000006e-01 1.252169999999999950e-01 4.942740000000000578e+01 1.996310000000000002e+02 2.034795000000000073e+03
1.110000000000000014e-01 1.252020000000000077e-01 4.833310000000000173e+01 1.987805000000000177e+02 2.034619999999999891e+03
1.120000000000000023e-01 1.251830000000000165e-01 4.723035000000000139e+01 1.978950000000000102e+02 2.034414999999999964e+03
1.130000000000000032e-01 1.251629999999999965e-01 4.613450000000000273e+01 1.970054999999999836e+02 2.034190000000000055e+03
1.140000000000000041e-01 1.251420000000000032e-01 4.505835000000000434e+01 1.961370000000000005e+02 2.033950000000000045e+03
1.150000000000000050e-01 1.251204999999999956e-01 4.401219999999999999e+01 1.953070000000000164e+02 2.033704999999999927e+03
1.160000000000000059e-01 1.250999999999999890e-01 4.300339999999999918e+01 1.945275000000000034e+02 2.033470000000000027e+03
1.170000000000000068e-01 1.250795000000000101e-01 4.203634999999999877e+01 1.938025000000000091e+02 2.033240000000000009e+03
1.180000000000000077e-01 1.250600000000000045e-01 4.111254999999999882e+01 1.931304999999999836e+02 2.033015000000000100e+03
1.190000000000000085e-01 1.250419999999999865e-01 4.023069999999999879e+01 1.925045000000000073e+02 2.032805000000000064e+03
1.200000000000000094e-01 1.250239999999999962e-01 3.938725000000000165e+01 1.919110000000000014e+02 2.032595000000000027e+03
1.209999999999999964e-01 1.250070000000000070e-01 3.857635000000000502e+01 1.913350000000000080e+02 2.032405000000000200e+03
1.219999999999999973e-01 1.249905000000000044e-01 3.779064999999999941e+01 1.907560000000000002e+02 2.032204999999999927e+03
1.229999999999999982e-01 1.249735000000000013e-01 3.702170000000000272e+01 1.901529999999999916e+02 2.032009999999999991e+03
1.239999999999999991e-01 1.249554999999999971e-01 3.626044999999999874e+01 1.895060000000000002e+02 2.031805000000000064e+03
1.250000000000000000e-01 1.249369999999999925e-01 3.549774999999999636e+01 1.887930000000000064e+02 2.031585000000000036e+03
1.260000000000000009e-01 1.249164999999999998e-01 3.472509999999999764e+01 1.879964999999999975e+02 2.031349999999999909e+03
1.270000000000000018e-01 1.248940000000000050e-01 3.393469999999999942e+01 1.871009999999999991e+02 2.031089999999999918e+03
1.280000000000000027e-01 1.248685000000000073e-01 3.312024999999999864e+01 1.860944999999999823e+02 2.030804999999999836e+03
1.290000000000000036e-01 1.248405000000000070e-01 3.227705000000000268e+01 1.849694999999999823e+02 2.030480000000000018e+03
1.300000000000000044e-01 1.248090000000000033e-01 3.140250000000000341e+01 1.837244999999999777e+02 2.030130000000000109e+03
1.310000000000000053e-01 1.247749999999999970e-01 3.049569999999999936e+01 1.823614999999999782e+02 2.029744999999999891e+03
1.320000000000000062e-01 1.247375000000000012e-01 2.955829999999999913e+01 1.808890000000000100e+02 2.029319999999999936e+03
1.330000000000000071e-01 1.246974999999999889e-01 2.859380000000000166e+01 1.793185000000000002e+02 2.028865000000000009e+03
1.340000000000000080e-01 1.246549999999999880e-01 2.760764999999999958e+01 1.776670000000000016e+02 2.028380000000000109e+03
1.350000000000000089e-01 1.246099999999999985e-01 2.660709999999999908e+01 1.759555000000000007e+02 2.027869999999999891e+03
1.360000000000000098e-01 1.245630000000000071e-01 2.560065000000000168e+01 1.742069999999999936e+02 2.027340000000000146e+03
1.370000000000000107e-01 1.245155000000000012e-01 2.459794999999999732e+01 1.724449999999999932e+02 2.026800000000000182e+03
1.380000000000000115e-01 1.244670000000000082e-01 2.360920000000000130e+01 1.706970000000000027e+02 2.026255000000000109e+03
1.390000000000000124e-01 1.244190000000000018e-01 2.264475000000000193e+01 1.689869999999999948e+02 2.025710000000000036e+03
1.400000000000000133e-01 1.243714999999999959e-01 2.171455000000000268e+01 1.673394999999999868e+02 2.025170000000000073e+03
1.410000000000000142e-01 1.243255000000000055e-01 2.082815000000000083e+01 1.657760000000000105e+02 2.024644999999999982e+03
1.420000000000000151e-01 1.242810000000000026e-01 1.999370000000000047e+01 1.643154999999999859e+02 2.024144999999999982e+03
1.430000000000000160e-01 1.242400000000000032e-01 1.921825000000000117e+01 1.629725000000000250e+02 2.023670000000000073e+03
1.440000000000000169e-01 1.242014999999999925e-01 1.850699999999999790e+01 1.617579999999999814e+02 2.023235000000000127e+03
1.450000000000000178e-01 1.241659999999999986e-01 1.786355000000000004e+01 1.606784999999999854e+02 2.022829999999999927e+03
1.459999999999999909e-01 1.241335000000000077e-01 1.728969999999999985e+01 1.597365000000000066e+02 2.022460000000000036e+03
1.469999999999999918e-01 1.241049999999999931e-01 1.678549999999999898e+01 1.589295000000000186e+02 2.022130000000000109e+03
1.479999999999999927e-01 1.240804999999999964e-01 1.634935000000000116e+01 1.582529999999999859e+02 2.021845000000000027e+03
1.489999999999999936e-01 1.240590000000000026e-01 1.597800000000000153e+01 1.576974999999999909e+02 2.021595000000000027e+03
1.499999999999999944e-01 1.240404999999999980e-01 1.566714999999999947e+01 1.572524999999999977e+02 2.021380000000000109e+03
1.509999999999999953e-01 1.240255000000000107e-01 1.541140000000000043e+01 1.569044999999999845e+02 2.021204999999999927e+03
1.519999999999999962e-01 1.240130000000000121e-01 1.520449999999999946e+01 1.566399999999999864e+02 2.021059999999999945e+03
1.529999999999999971e-01 1.240025000000000016e-01 1.503974999999999973e+01 1.564440000000000168e+02 2.020934999999999945e+03
1.539999999999999980e-01 1.239945000000000075e-01 1.491035000000000110e+01 1.563015000000000043e+02 2.020840000000000146e+03
1.549999999999999989e-01 1.239880000000000010e-01 1.480924999999999869e+01 1.561984999999999957e+02 2.020764999999999873e+03
1.559999999999999998e-01 1.239829999999999960e-01 1.472970000000000113e+01 1.561220000000000141e+02 2.020694999999999936e+03
1.570000000000000007e-01 1.239784999999999915e-01 1.466549999999999976e+01 1.560589999999999975e+02 2.020644999999999982e+03
1.580000000000000016e-01 1.239750000000000019e-01 1.461074999999999946e+01 1.559995000000000118e+02 2.020605000000000018e+03
1.590000000000000024e-01 1.239714999999999984e-01 1.456020000000000003e+01 1.559350000000000023e+02 2.020559999999999945e+03
