# t [s], A [cm^2], U [cm/s], P [cPa], c [cm/s]
1.000000000000000021e-03 7.725515000000000576e-01 3.923500000000003374e-03 1.002224999999999966e+02 1.668764999999999873e+03
2.000000000000000042e-03 7.725480000000000125e-01 1.295509999999999891e-02 1.002009999999999934e+02 1.668759999999999991e+03
3.000000000000000062e-03 7.726444999999999563e-01 1.661175500000000027e-01 1.003714999999999975e+02 1.668795000000000073e+03
4.000000000000000083e-03 7.726714999999999556e-01 2.309485000000000010e-01 1.004412999999999982e+02 1.668809999999999945e+03
5.000000000000000104e-03 7.725830000000000197e-01 1.241815000000000280e-01 1.002187500000000000e+02 1.668769999999999982e+03
6.000000000000000125e-03 7.724815000000000431e-01 -1.523049999999998017e-02 9.984024999999999750e+01 1.668695000000000164e+03
7.000000000000000146e-03 7.723495000000000221e-01 -2.171600000000000197e-01 9.929955000000001064e+01 1.668595000000000027e+03
8.000000000000000167e-03 7.721115000000000617e-01 -6.001000000000000778e-01 9.842549999999999955e+01 1.668424999999999955e+03
9.000000000000001055e-03 7.717674999999999397e-01 -1.162169999999999925e+00 9.715540000000000020e+01 1.668175000000000182e+03
1.000000000000000194e-02 7.712995000000000267e-01 -1.911289999999999933e+00 9.542459999999999809e+01 1.667829999999999927e+03
1.099999999999999936e-02 7.706800000000000317e-01 -2.861365000000000158e+00 9.315440000000000964e+01 1.667369999999999891e+03
1.200000000000000025e-02 7.699555000000000149e-01 -3.909584999999999866e+00 9.042265000000000441e+01 1.666804999999999836e+03
1.300000000000000114e-02 7.692449999999999566e-01 -4.826623999999999803e+00 8.752715000000000600e+01 1.666190000000000055e+03
1.400000000000000203e-02 7.686669999999999892e-01 -5.380841499999999833e+00 8.484990000000000521e+01 1.665585000000000036e+03
1.499999999999999944e-02 7.682729999999999837e-01 -5.457864999999999966e+00 8.266525000000000034e+01 1.665054999999999836e+03
1.600000000000000033e-02 7.680295000000000316e-01 -5.092935000000000656e+00 8.103690000000000282e+01 1.664619999999999891e+03
1.700000000000000122e-02 7.678544999999999954e-01 -4.430524999999999380e+00 7.982724999999999227e+01 1.664265000000000100e+03
1.800000000000000211e-02 7.676534999999999886e-01 -3.651590000000000114e+00 7.878270000000000550e+01 1.663944999999999936e+03
1.900000000000000300e-02 7.673605000000000009e-01 -2.900336499999999873e+00 7.764875000000000682e+01 1.663619999999999891e+03
2.000000000000000042e-02 7.669600000000000861e-01 -2.237179999999999946e+00 7.626939999999999031e+01 1.663250000000000000e+03
2.100000000000000130e-02 7.664809999999999679e-01 -1.637464999999999948e+00 7.462725000000000364e+01 1.662839999999999918e+03
2.200000000000000219e-02 7.659745000000000026e-01 -1.032704999999999984e+00 7.281170000000000186e+01 1.662394999999999982e+03
2.299999999999999961e-02 7.654814999999999259e-01 -3.669149999999996581e-01 7.094190000000000396e+01 1.661934999999999945e+03
2.400000000000000050e-02 7.650114999999999554e-01 3.619750000000001577e-01 6.909094999999999231e+01 1.661470000000000027e+03
2.500000000000000139e-02 7.645394999999999275e-01 1.089469999999999938e+00 6.724079999999999302e+01 1.661000000000000000e+03
2.600000000000000228e-02 7.640139999999999709e-01 1.698905000000000332e+00 6.527904999999999802e+01 1.660509999999999991e+03
2.700000000000000316e-02 7.633754999999999846e-01 2.053439999999999710e+00 6.303074999999999761e+01 1.659965000000000146e+03
2.800000000000000058e-02 7.625750000000000028e-01 2.035180000000000433e+00 6.031419999999999959e+01 1.659335000000000036e+03
2.900000000000000147e-02 7.615909999999999069e-01 1.580270000000000508e+00 5.700199999999999534e+01 1.658589999999999918e+03
3.000000000000000236e-02 7.604375000000000995e-01 6.997150000000003089e-01 5.307115000000000293e+01 1.657715000000000146e+03
3.099999999999999978e-02 7.591665000000000774e-01 -5.213499999999999801e-01 4.862314999999999543e+01 1.656740000000000009e+03
3.200000000000000067e-02 7.578540000000000276e-01 -1.943855000000000111e+00 4.387049999999999983e+01 1.655690000000000055e+03
3.300000000000000155e-02 7.565830000000000055e-01 -3.406065000000000786e+00 3.909645000000000437e+01 1.654615000000000009e+03
3.400000000000000244e-02 7.554324999999999513e-01 -4.753899999999999793e+00 3.460379999999999967e+01 1.653585000000000036e+03
3.500000000000000333e-02 7.544640000000000235e-01 -5.862759999999999749e+00 3.066825000000000045e+01 1.652644999999999982e+03
3.600000000000000422e-02 7.537175000000000402e-01 -6.647701999999999778e+00 2.750495000000000090e+01 1.651860000000000127e+03
3.700000000000000511e-02 7.532134999999999803e-01 -7.063235000000000596e+00 2.525270000000000081e+01 1.651255000000000109e+03
3.799999999999999906e-02 7.529544999999999710e-01 -7.096239999999999881e+00 2.397360000000000113e+01 1.650855000000000018e+03
3.899999999999999994e-02 7.529314999999999758e-01 -6.755015000000000214e+00 2.366525000000000034e+01 1.650664999999999964e+03
4.000000000000000083e-02 7.531280000000000197e-01 -6.058680000000000732e+00 2.427945000000000064e+01 1.650684999999999945e+03
4.100000000000000172e-02 7.535250000000000004e-01 -5.029613499999999959e+00 2.574115000000000109e+01 1.650900000000000091e+03
4.200000000000000261e-02 7.541044999999999554e-01 -3.690319999999999823e+00 2.796345000000000169e+01 1.651304999999999836e+03
4.300000000000000350e-02 7.548454999999999471e-01 -2.064435000000000020e+00 3.085535000000000139e+01 1.651865000000000009e+03
4.400000000000000439e-02 7.557270000000000376e-01 -1.805650000000005306e-01 3.432319999999999993e+01 1.652570000000000164e+03
4.499999999999999833e-02 7.567249999999999810e-01 1.923964999999999925e+00 3.826859999999999928e+01 1.653394999999999982e+03
4.599999999999999922e-02 7.578119999999999301e-01 4.201010000000000133e+00 4.258530000000000371e+01 1.654319999999999936e+03
4.700000000000000011e-02 7.589574999999999516e-01 6.591884999999999550e+00 4.715824999999999534e+01 1.655319999999999936e+03
4.800000000000000100e-02 7.601280000000000259e-01 9.031030000000001223e+00 5.186625000000000085e+01 1.656365000000000009e+03
4.900000000000000189e-02 7.612925000000000386e-01 1.145067500000000038e+01 5.658749999999999858e+01 1.657434999999999945e+03
5.000000000000000278e-02 7.624219999999999331e-01 1.378700500000000062e+01 6.120739999999999270e+01 1.658494999999999891e+03
5.100000000000000366e-02 7.634940000000000060e-01 1.598486499999999921e+01 6.562649999999999295e+01 1.659529999999999973e+03
5.200000000000000455e-02 7.644910000000000316e-01 1.800185000000000102e+01 6.976735000000000753e+01 1.660519999999999982e+03
5.300000000000000544e-02 7.654045000000000432e-01 1.981009999999999849e+01 7.357925000000000182e+01 1.661450000000000045e+03
5.399999999999999939e-02 7.662320000000000242e-01 2.139639999999999986e+01 7.703964999999999463e+01 1.662309999999999945e+03
5.500000000000000028e-02 7.669785000000000075e-01 2.276099999999999923e+01 8.015260000000000673e+01 1.663099999999999909e+03
5.600000000000000117e-02 7.676540000000000585e-01 2.391544999999999987e+01 8.294570000000000221e+01 1.663819999999999936e+03
5.700000000000000205e-02 7.682709999999999262e-01 2.487989999999999924e+01 8.546500000000000341e+01 1.664474999999999909e+03
5.800000000000000294e-02 7.688444999999999308e-01 2.568124999999999858e+01 8.776945000000000618e+01 1.665079999999999927e+03
5.900000000000000383e-02 7.693915000000000060e-01 2.635030000000000072e+01 8.992615000000000691e+01 1.665650000000000091e+03
6.000000000000000472e-02 7.699300000000000033e-01 2.692054999999999865e+01 9.200505000000001132e+01 1.666200000000000045e+03
6.099999999999999867e-02 7.704754999999999798e-01 2.742589999999999861e+01 9.407474999999999454e+01 1.666735000000000127e+03
6.199999999999999956e-02 7.710425000000000750e-01 2.789889999999999759e+01 9.619829999999998904e+01 1.667275000000000091e+03
6.300000000000000044e-02 7.716434999999999267e-01 2.836870000000000047e+01 9.842904999999998950e+01 1.667829999999999927e+03
6.400000000000000133e-02 7.722864999999999869e-01 2.885920000000000130e+01 1.008077499999999986e+02 1.668420000000000073e+03
6.500000000000000222e-02 7.729770000000000252e-01 2.938694999999999879e+01 1.033575000000000017e+02 1.669039999999999964e+03
6.600000000000000311e-02 7.737129999999999841e-01 2.995984999999999943e+01 1.060844999999999914e+02 1.669690000000000055e+03
6.700000000000000400e-02 7.744895000000000529e-01 3.057690000000000197e+01 1.089749999999999943e+02 1.670384999999999991e+03
6.800000000000000488e-02 7.752959999999999852e-01 3.122800000000000153e+01 1.119954999999999927e+02 1.671099999999999909e+03
6.900000000000000577e-02 7.761184999999999334e-01 3.189539999999999864e+01 1.150979999999999990e+02 1.671844999999999800e+03
7.000000000000000666e-02 7.769405000000000339e-01 3.255530000000000257e+01 1.182210000000000036e+02 1.672589999999999918e+03
7.100000000000000755e-02 7.777425000000000033e-01 3.318030000000000257e+01 1.212934999999999945e+02 1.673335000000000036e+03
7.200000000000000844e-02 7.785075000000000189e-01 3.374119999999999919e+01 1.242450000000000045e+02 1.674049999999999955e+03
7.300000000000000933e-02 7.792179999999999662e-01 3.421004999999999541e+01 1.270044999999999931e+02 1.674735000000000127e+03
7.399999999999999634e-02 7.798579999999999401e-01 3.456139999999999901e+01 1.295084999999999980e+02 1.675365000000000009e+03
7.499999999999999722e-02 7.804164999999999575e-01 3.477429999999999666e+01 1.317044999999999959e+02 1.675929999999999836e+03
7.599999999999999811e-02 7.808844999999999814e-01 3.483344999999999914e+01 1.335534999999999854e+02 1.676414999999999964e+03
7.699999999999999900e-02 7.812565000000000204e-01 3.472979999999999734e+01 1.350314999999999941e+02 1.676824999999999818e+03
7.799999999999999989e-02 7.815334999999999921e-01 3.446099999999999852e+01 1.361290000000000191e+02 1.677144999999999982e+03
7.900000000000000078e-02 7.817164999999999253e-01 3.403130000000000166e+01 1.368539999999999850e+02 1.677380000000000109e+03
8.000000000000000167e-02 7.818134999999999390e-01 3.345110000000000383e+01 1.372275000000000205e+02 1.677529999999999973e+03
8.100000000000000255e-02 7.818324999999999303e-01 3.273624999999999829e+01 1.372835000000000036e+02 1.677605000000000018e+03
8.200000000000000344e-02 7.817864999999999398e-01 3.190739999999999910e+01 1.370649999999999977e+02 1.677615000000000009e+03
8.300000000000000433e-02 7.816870000000000207e-01 3.098850000000000193e+01 1.366245000000000118e+02 1.677559999999999945e+03
8.400000000000000522e-02 7.815490000000000492e-01 3.000565000000000282e+01 1.360165000000000077e+02 1.677460000000000036e+03
8.500000000000000611e-02 7.813870000000000537e-01 2.898590000000000089e+01 1.352994999999999948e+02 1.677329999999999927e+03
8.600000000000000699e-02 7.812140000000000750e-01 2.795595000000000141e+01 1.345285000000000082e+02 1.677180000000000064e+03
8.700000000000000788e-02 7.810429999999999318e-01 2.694065000000000154e+01 1.337554999999999836e+02 1.677019999999999982e+03
8.800000000000000877e-02 7.808850000000000513e-01 2.596195000000000164e+01 1.330264999999999986e+02 1.676860000000000127e+03
8.899999999999999578e-02 7.807475000000000387e-01 2.503799999999999670e+01 1.323774999999999977e+02 1.676710000000000036e+03
8.999999999999999667e-02 7.806370000000000253e-01 2.418244999999999933e+01 1.318369999999999891e+02 1.676579999999999927e+03
9.099999999999999756e-02 7.805575000000000152e-01 2.340395000000000181e+01 1.314214999999999804e+02 1.676474999999999909e+03
9.199999999999999845e-02 7.805094999999999672e-01 2.270604999999999762e+01 1.311380000000000052e+02 1.676389999999999873e+03
9.299999999999999933e-02 7.804910000000000458e-01 2.208739999999999881e+01 1.309819999999999993e+02 1.676340000000000146e+03
9.400000000000000022e-02 7.804984999999999840e-01 2.154204999999999970e+01 1.309420000000000073e+02 1.676315000000000055e+03
9.500000000000000111e-02 7.805260000000000531e-01 2.106005000000000038e+01 1.309959999999999809e+02 1.676305000000000064e+03
9.600000000000000200e-02 7.805664999999999409e-01 2.062814999999999799e+01 1.311165000000000020e+02 1.676319999999999936e+03
9.700000000000000289e-02 7.806115000000000137e-01 2.023085000000000022e+01 1.312729999999999961e+02 1.676340000000000146e+03
9.800000000000000377e-02 7.806524999999999714e-01 1.985130000000000194e+01 1.314304999999999950e+02 1.676365000000000009e+03
9.900000000000000466e-02 7.806809999999999583e-01 1.947220000000000084e+01 1.315550000000000068e+02 1.676389999999999873e+03
1.000000000000000056e-01 7.806895000000000362e-01 1.907704999999999984e+01 1.316134999999999877e+02 1.676400000000000091e+03
1.010000000000000064e-01 7.806705000000000449e-01 1.865084999999999837e+01 1.315769999999999982e+02 1.676389999999999873e+03
1.020000000000000073e-01 7.806195000000000217e-01 1.818114999999999881e+01 1.314219999999999970e+02 1.676355000000000018e+03
1.030000000000000082e-01 7.805320000000000036e-01 1.765874999999999773e+01 1.311315000000000168e+02 1.676299999999999955e+03
1.040000000000000091e-01 7.804070000000000729e-01 1.707789999999999964e+01 1.306954999999999814e+02 1.676204999999999927e+03
1.050000000000000100e-01 7.802450000000000774e-01 1.643715000000000259e+01 1.301125000000000114e+02 1.676085000000000036e+03
1.059999999999999970e-01 7.800489999999999924e-01 1.573905000000000065e+01 1.293899999999999864e+02 1.675924999999999955e+03
1.069999999999999979e-01 7.798224999999999740e-01 1.499009999999999998e+01 1.285425000000000182e+02 1.675740000000000009e+03
1.079999999999999988e-01 7.795725000000000016e-01 1.420030500000000018e+01 1.275914999999999964e+02 1.675530000000000200e+03
1.089999999999999997e-01 7.793049999999999145e-01 1.338291500000000056e+01 1.265649999999999977e+02 1.675304999999999836e+03
1.100000000000000006e-01 7.790310000000000290e-01 1.255334500000000020e+01 1.254950000000000045e+02 1.675059999999999945e+03
1.110000000000000014e-01 7.787574999999999914e-01 1.172865499999999983e+01 1.244159999999999968e+02 1.674815000000000055e+03
1.120000000000000023e-01 7.784944999999999782e-01 1.092644999999999911e+01 1.233649999999999949e+02 1.674565000000000055e+03
1.130000000000000032e-01 7.782499999999999973e-01 1.016392500000000076e+01 1.223760000000000048e+02 1.674335000000000036e+03
1.140000000000000041e-01 7.780324999999999047e-01 9.457250000000000156e+00 1.214809999999999945e+02 1.674115000000000009e+03
1.150000000000000050e-01 7.778479999999999839e-01 8.820285000000000153e+00 1.207075000000000102e+02 1.673920000000000073e+03
1.160000000000000059e-01 7.777015000000000455e-01 8.264400000000000190e+00 1.200775000000000006e+02 1.673759999999999991e+03
1.170000000000000068e-01 7.775954999999999950e-01 7.797555000000000014e+00 1.196059999999999945e+02 1.673625000000000000e+03
1.180000000000000077e-01 7.775320000000000009e-01 7.424234999999999474e+00 1.193004999999999995e+02 1.673529999999999973e+03
1.190000000000000085e-01 7.775104999999999933e-01 7.145195000000000185e+00 1.191614999999999895e+02 1.673470000000000027e+03
1.200000000000000094e-01 7.775284999999999558e-01 6.957705000000000695e+00 1.191819999999999879e+02 1.673449999999999818e+03
1.209999999999999964e-01 7.775809999999999667e-01 6.855755000000000265e+00 1.193495000000000061e+02 1.673465000000000146e+03
1.219999999999999973e-01 7.776640000000000219e-01 6.830519999999999925e+00 1.196435000000000031e+02 1.673509999999999991e+03
1.229999999999999982e-01 7.777709999999999901e-01 6.870900000000000674e+00 1.200430000000000064e+02 1.673579999999999927e+03
1.239999999999999991e-01 7.778954999999999620e-01 6.964195000000000135e+00 1.205220000000000056e+02 1.673675000000000182e+03
1.250000000000000000e-01 7.780305000000000692e-01 7.096684999999999910e+00 1.210519999999999925e+02 1.673775000000000091e+03
1.260000000000000009e-01 7.781694999999999585e-01 7.254349999999999632e+00 1.216075000000000017e+02 1.673894999999999982e+03
1.270000000000000018e-01 7.783059999999999423e-01 7.423434999999999562e+00 1.221610000000000014e+02 1.674014999999999873e+03
1.280000000000000027e-01 7.784339999999999593e-01 7.591044999999999376e+00 1.226894999999999953e+02 1.674134999999999991e+03
1.290000000000000036e-01 7.785489999999999355e-01 7.745569999999999844e+00 1.231730000000000018e+02 1.674244999999999891e+03
1.300000000000000044e-01 7.786474999999999369e-01 7.877095000000000624e+00 1.235939999999999941e+02 1.674345000000000027e+03
1.310000000000000053e-01 7.787260000000000293e-01 7.977665000000000006e+00 1.239395000000000095e+02 1.674430000000000064e+03
1.320000000000000062e-01 7.787835000000000729e-01 8.041465000000000529e+00 1.242030000000000030e+02 1.674500000000000000e+03
1.330000000000000071e-01 7.788194999999999979e-01 8.064859999999999474e+00 1.243799999999999955e+02 1.674550000000000182e+03
1.340000000000000080e-01 7.788344999999999851e-01 8.046424999999999272e+00 1.244705000000000013e+02 1.674579999999999927e+03
1.350000000000000089e-01 7.788295000000000634e-01 7.986774999999999736e+00 1.244795000000000016e+02 1.674595000000000027e+03
1.360000000000000098e-01 7.788074999999999859e-01 7.888415000000000177e+00 1.244145000000000039e+02 1.674590000000000146e+03
1.370000000000000107e-01 7.787705000000000322e-01 7.755474999999999675e+00 1.242860000000000014e+02 1.674574999999999818e+03
1.380000000000000115e-01 7.787214999999999554e-01 7.593395000000000117e+00 1.241049999999999898e+02 1.674539999999999964e+03
1.390000000000000124e-01 7.786649999999999405e-01 7.408585000000000420e+00 1.238859999999999957e+02 1.674500000000000000e+03
1.400000000000000133e-01 7.786040000000000738e-01 7.208054999999999879e+00 1.236424999999999983e+02 1.674454999999999927e+03
1.410000000000000142e-01 7.785414999999999974e-01 6.999050000000000438e+00 1.233884999999999934e+02 1.674400000000000091e+03
1.420000000000000151e-01 7.784809999999999786e-01 6.788660000000000139e+00 1.231359999999999957e+02 1.674349999999999909e+03
1.430000000000000160e-01 7.784254999999999924e-01 6.583479999999999777e+00 1.228979999999999961e+02 1.674295000000000073e+03
1.440000000000000169e-01 7.783765000000000267e-01 6.389319999999999666e+00 1.226829999999999927e+02 1.674244999999999891e+03
1.450000000000000178e-01 7.783355000000000690e-01 6.210969999999999658e+00 1.224989999999999952e+02 1.674204999999999927e+03
1.459999999999999909e-01 7.783044999999999547e-01 6.051994999999999791e+00 1.223489999999999895e+02 1.674164999999999964e+03
1.469999999999999918e-01 7.782824999999999882e-01 5.914670000000000094e+00 1.222365000000000066e+02 1.674134999999999991e+03
1.479999999999999927e-01 7.782694999999999474e-01 5.799960000000000448e+00 1.221610000000000014e+02 1.674109999999999900e+03
1.489999999999999936e-01 7.782645000000000257e-01 5.707570000000000476e+00 1.221189999999999998e+02 1.674099999999999909e+03
1.499999999999999944e-01 7.782660000000000133e-01 5.636070000000000135e+00 1.221050000000000040e+02 1.674090000000000146e+03
1.509999999999999953e-01 7.782725000000000337e-01 5.583099999999999952e+00 1.221140000000000043e+02 1.674085000000000036e+03
1.519999999999999962e-01 7.782819999999999183e-01 5.545555000000000234e+00 1.221370000000000005e+02 1.674085000000000036e+03
1.529999999999999971e-01 7.782914999999999139e-01 5.519870000000000054e+00 1.221674999999999898e+02 1.674095000000000027e+03
1.539999999999999980e-01 7.782994999999999219e-01 5.502220000000000333e+00 1.221949999999999932e+02 1.674094999999999800e+03
1.549999999999999989e-01 7.783044999999999547e-01 5.488764999999999894e+00 1.222135000000000105e+02 1.674099999999999909e+03
1.559999999999999998e-01 7.783044999999999547e-01 5.475905000000000022e+00 1.222160000000000082e+02 1.674094999999999800e+03
1.570000000000000007e-01 7.782985000000000042e-01 5.460399999999999920e+00 1.221959999999999980e+02 1.674089999999999918e+03
1.580000000000000016e-01 7.782845000000000457e-01 5.439564999999999984e+00 1.221500000000000057e+02 1.674079999999999927e+03
1.590000000000000024e-01 7.782630000000000381e-01 5.411344999999999850e+00 1.220755000000000052e+02 1.674059999999999945e+03
