# t [s], A [cm^2], U [cm/s], P [cPa], c [cm/s]
1.000000000000000021e-03 5.961174999999999669e-01 4.306600000000000705e-03 9.612685000000000457e+01 1.503960000000000036e+03
2.000000000000000042e-03 5.961064999999999836e-01 -2.898694999999999744e-03 9.610259999999999536e+01 1.503950000000000045e+03
3.000000000000000062e-03 5.961520000000000152e-01 7.597814999999999430e-02 9.617754999999999654e+01 1.503970000000000027e+03
4.000000000000000083e-03 5.962049999999999850e-01 1.749678499999999803e-01 9.629204999999998904e+01 1.504009999999999991e+03
5.000000000000000104e-03 5.961944999999999606e-01 1.742024999999999824e-01 9.627670000000000528e+01 1.504005000000000109e+03
6.000000000000000125e-03 5.961330000000000240e-01 8.383300000000001861e-02 9.610214999999999463e+01 1.503964999999999918e+03
7.000000000000000146e-03 5.960745000000000626e-01 -7.840999999999986869e-03 9.586195000000000732e+01 1.503904999999999973e+03
8.000000000000000167e-03 5.960020000000000318e-01 -1.343205000000000093e-01 9.553714999999999691e+01 1.503829999999999927e+03
9.000000000000001055e-03 5.958759999999999613e-01 -3.659700000000000175e-01 9.503924999999999557e+01 1.503704999999999927e+03
1.000000000000000194e-02 5.956939999999999458e-01 -7.083949999999998859e-01 9.432954999999999757e+01 1.503529999999999973e+03
1.099999999999999936e-02 5.954500000000000348e-01 -1.163139999999999841e+00 9.337465000000000259e+01 1.503289999999999964e+03
1.200000000000000025e-02 5.951245000000000562e-01 -1.748959999999999848e+00 9.211945000000000050e+01 1.502980000000000018e+03
1.300000000000000114e-02 5.947180000000000799e-01 -2.448319999999999830e+00 9.054570000000001073e+01 1.502569999999999936e+03
1.400000000000000203e-02 5.942684999999999773e-01 -3.169795000000000140e+00 8.873220000000000596e+01 1.502090000000000146e+03
1.499999999999999944e-02 5.938364999999999894e-01 -3.775615000000000165e+00 8.684290000000000020e+01 1.501579999999999927e+03
1.600000000000000033e-02 5.934740000000000570e-01 -4.143906499999999937e+00 8.505734999999999957e+01 1.501070000000000164e+03
1.700000000000000122e-02 5.931994999999999907e-01 -4.214824499999999752e+00 8.350030000000000996e+01 1.500599999999999909e+03
1.800000000000000211e-02 5.929999999999999716e-01 -4.000767999999999880e+00 8.220769999999998845e+01 1.500179999999999836e+03
1.900000000000000300e-02 5.928394999999999637e-01 -3.569072000000000244e+00 8.113044999999999618e+01 1.499804999999999836e+03
2.000000000000000042e-02 5.926734999999999642e-01 -3.011908500000000100e+00 8.016394999999999982e+01 1.499460000000000036e+03
2.100000000000000130e-02 5.924684999999999535e-01 -2.414988999999999830e+00 7.918930000000000291e+01 1.499114999999999782e+03
2.200000000000000219e-02 5.922049999999999814e-01 -1.833365000000000133e+00 7.811244999999999550e+01 1.498744999999999891e+03
2.299999999999999961e-02 5.918860000000000232e-01 -1.281020000000000048e+00 7.689074999999999704e+01 1.498344999999999800e+03
2.400000000000000050e-02 5.915295000000000414e-01 -7.370050000000001322e-01 7.553710000000000946e+01 1.497909999999999854e+03
2.500000000000000139e-02 5.911615000000000064e-01 -1.642500000000000071e-01 7.410370000000000346e+01 1.497460000000000036e+03
2.600000000000000228e-02 5.908020000000000493e-01 4.679299999999999571e-01 7.265375000000000227e+01 1.497000000000000000e+03
2.700000000000000316e-02 5.904605000000000548e-01 1.166525000000000034e+00 7.123335000000000150e+01 1.496539999999999964e+03
2.800000000000000058e-02 5.901309999999999611e-01 1.907249999999999890e+00 6.985304999999999609e+01 1.496085000000000036e+03
2.900000000000000147e-02 5.897940000000000405e-01 2.637035000000000018e+00 6.848165000000000191e+01 1.495634999999999991e+03
3.000000000000000236e-02 5.894254999999999356e-01 3.284259999999999735e+00 6.705244999999999322e+01 1.495170000000000073e+03
3.099999999999999978e-02 5.889980000000000215e-01 3.773489999999999789e+00 6.547920000000000584e+01 1.494670000000000073e+03
3.200000000000000067e-02 5.884905000000000275e-01 4.041639999999999233e+00 6.367774999999999608e+01 1.494125000000000000e+03
3.300000000000000155e-02 5.878935000000000688e-01 4.051884999999999515e+00 6.158799999999999386e+01 1.493509999999999991e+03
3.400000000000000244e-02 5.872125000000000261e-01 3.802055000000000184e+00 5.919234999999999758e+01 1.492815000000000055e+03
3.500000000000000333e-02 5.864670000000000716e-01 3.325394999999999879e+00 5.652369999999999806e+01 1.492054999999999836e+03
3.600000000000000422e-02 5.856885000000000563e-01 2.683489999999999931e+00 5.366299999999999670e+01 1.491240000000000009e+03
3.700000000000000511e-02 5.849139999999999340e-01 1.954399999999999693e+00 5.072690000000000055e+01 1.490400000000000091e+03
3.799999999999999906e-02 5.841794999999999627e-01 1.219330000000000247e+00 4.785014999999999930e+01 1.489559999999999945e+03
3.899999999999999994e-02 5.835175000000000223e-01 5.514999999999998792e-01 4.516705000000000325e+01 1.488765000000000100e+03
4.000000000000000083e-02 5.829520000000000257e-01 8.920000000000705143e-03 4.279639999999999844e+01 1.488039999999999964e+03
4.100000000000000172e-02 5.825000000000000178e-01 -3.687450000000001005e-01 4.083109999999999928e+01 1.487414999999999964e+03
4.200000000000000261e-02 5.821680000000000188e-01 -5.594950000000000756e-01 3.933344999999999914e+01 1.486909999999999854e+03
4.300000000000000350e-02 5.819585000000000452e-01 -5.557450000000001555e-01 3.833520000000000039e+01 1.486545000000000073e+03
4.400000000000000439e-02 5.818674999999999820e-01 -3.597350000000000270e-01 3.784215000000000373e+01 1.486315000000000055e+03
4.499999999999999833e-02 5.818894999999999484e-01 2.125430000000000028e-02 3.784035000000000082e+01 1.486224999999999909e+03
4.599999999999999922e-02 5.820170000000000066e-01 5.787869999999999404e-01 3.830380000000000251e+01 1.486275000000000091e+03
4.700000000000000011e-02 5.822424999999999962e-01 1.305620000000000003e+00 3.920059999999999434e+01 1.486454999999999927e+03
4.800000000000000100e-02 5.825614999999999544e-01 2.196169999999999956e+00 4.049739999999999895e+01 1.486750000000000000e+03
4.900000000000000189e-02 5.829659999999999842e-01 3.245414999999999495e+00 4.216124999999999545e+01 1.487164999999999964e+03
5.000000000000000278e-02 5.834504999999999830e-01 4.446870000000000545e+00 4.415935000000000343e+01 1.487684999999999945e+03
5.100000000000000366e-02 5.840069999999999428e-01 5.790354999999999919e+00 4.645739999999999981e+01 1.488289999999999964e+03
5.200000000000000455e-02 5.846259999999999790e-01 7.260402999999999274e+00 4.901770000000000493e+01 1.488990000000000009e+03
5.300000000000000544e-02 5.852969999999999562e-01 8.835793499999999412e+00 5.179795000000000016e+01 1.489759999999999991e+03
5.399999999999999939e-02 5.860064999999999857e-01 1.048982499999999973e+01 5.475065000000000026e+01 1.490585000000000036e+03
5.500000000000000028e-02 5.867419999999999858e-01 1.219206999999999930e+01 5.782455000000000211e+01 1.491460000000000036e+03
5.600000000000000117e-02 5.874884999999999691e-01 1.391026000000000096e+01 6.096620000000000061e+01 1.492360000000000127e+03
5.700000000000000205e-02 5.882340000000000346e-01 1.561275999999999975e+01 6.412340000000000373e+01 1.493280000000000200e+03
5.800000000000000294e-02 5.889664999999999484e-01 1.727074499999999802e+01 6.724764999999999304e+01 1.494210000000000036e+03
5.900000000000000383e-02 5.896780000000000355e-01 1.885965000000000202e+01 7.029734999999999445e+01 1.495119999999999891e+03
6.000000000000000472e-02 5.903605000000000658e-01 2.036070000000000135e+01 7.323969999999999914e+01 1.496014999999999873e+03
6.099999999999999867e-02 5.910120000000000928e-01 2.176100000000000279e+01 7.605195000000000505e+01 1.496875000000000000e+03
6.199999999999999956e-02 5.916304999999999481e-01 2.305365000000000109e+01 7.872194999999999254e+01 1.497710000000000036e+03
6.300000000000000044e-02 5.922164999999999235e-01 2.423695000000000022e+01 8.124739999999999895e+01 1.498505000000000109e+03
6.400000000000000133e-02 5.927739999999999121e-01 2.531380000000000052e+01 8.363474999999999682e+01 1.499264999999999873e+03
6.500000000000000222e-02 5.933060000000000000e-01 2.629039999999999822e+01 8.589759999999999707e+01 1.499990000000000009e+03
6.600000000000000311e-02 5.938179999999999570e-01 2.717569999999999908e+01 8.805474999999999852e+01 1.500684999999999945e+03
6.700000000000000400e-02 5.943150000000000377e-01 2.798039999999999949e+01 9.012864999999999327e+01 1.501355000000000018e+03
6.800000000000000488e-02 5.948029999999999706e-01 2.871589999999999776e+01 9.214320000000000732e+01 1.502005000000000109e+03
6.900000000000000577e-02 5.952874999999999694e-01 2.939414999999999978e+01 9.412250000000000227e+01 1.502644999999999982e+03
7.000000000000000666e-02 5.957725000000000382e-01 3.002649999999999864e+01 9.608905000000000030e+01 1.503275000000000091e+03
7.100000000000000755e-02 5.962634999999999463e-01 3.062330000000000041e+01 9.806170000000000186e+01 1.503905000000000200e+03
7.200000000000000844e-02 5.967624999999999735e-01 3.119315000000000282e+01 1.000570500000000038e+02 1.504539999999999964e+03
7.300000000000000933e-02 5.972705000000000375e-01 3.174239999999999995e+01 1.020836500000000058e+02 1.505184999999999945e+03
7.399999999999999634e-02 5.977894999999999737e-01 3.227459999999999951e+01 1.041460000000000008e+02 1.505829999999999927e+03
7.499999999999999722e-02 5.983165000000000289e-01 3.279044999999999987e+01 1.062420000000000044e+02 1.506490000000000009e+03
7.599999999999999811e-02 5.988485000000000058e-01 3.328764999999999930e+01 1.083619999999999948e+02 1.507150000000000091e+03
7.699999999999999900e-02 5.993820000000000814e-01 3.376104999999999734e+01 1.104915000000000020e+02 1.507819999999999936e+03
7.799999999999999989e-02 5.999099999999999433e-01 3.420329999999999870e+01 1.126110000000000042e+02 1.508485000000000127e+03
7.900000000000000078e-02 6.004285000000000316e-01 3.460535000000000139e+01 1.146965000000000003e+02 1.509139999999999873e+03
8.000000000000000167e-02 6.009295000000000053e-01 3.495705000000000240e+01 1.167214999999999918e+02 1.509779999999999973e+03
8.100000000000000255e-02 6.014070000000000249e-01 3.524810000000000088e+01 1.186595000000000084e+02 1.510404999999999973e+03
8.200000000000000344e-02 6.018544999999999590e-01 3.546859999999999502e+01 1.204850000000000136e+02 1.510985000000000127e+03
8.300000000000000433e-02 6.022674999999999557e-01 3.560970000000000368e+01 1.221719999999999970e+02 1.511534999999999854e+03
8.400000000000000522e-02 6.026400000000000645e-01 3.566414999999999935e+01 1.237019999999999982e+02 1.512045000000000073e+03
8.500000000000000611e-02 6.029694999999999361e-01 3.562669999999999959e+01 1.250564999999999998e+02 1.512500000000000000e+03
8.600000000000000699e-02 6.032534999999999981e-01 3.549414999999999765e+01 1.262255000000000109e+02 1.512904999999999973e+03
8.700000000000000788e-02 6.034909999999999997e-01 3.526579999999999870e+01 1.272009999999999934e+02 1.513255000000000109e+03
8.800000000000000877e-02 6.036820000000000519e-01 3.494315000000000282e+01 1.279819999999999993e+02 1.513545000000000073e+03
8.899999999999999578e-02 6.038280000000000314e-01 3.453000000000000114e+01 1.285720000000000027e+02 1.513775000000000091e+03
8.999999999999999667e-02 6.039315000000000655e-01 3.403239999999999554e+01 1.289805000000000064e+02 1.513954999999999927e+03
9.099999999999999756e-02 6.039950000000000596e-01 3.345824999999999960e+01 1.292189999999999941e+02 1.514075000000000045e+03
9.199999999999999845e-02 6.040235000000000465e-01 3.281690000000000396e+01 1.293040000000000020e+02 1.514154999999999973e+03
9.299999999999999933e-02 6.040214999999999890e-01 3.211925000000000097e+01 1.292549999999999955e+02 1.514180000000000064e+03
9.400000000000000022e-02 6.039935000000000720e-01 3.137700000000000244e+01 1.290914999999999964e+02 1.514170000000000073e+03
9.500000000000000111e-02 6.039449999999999541e-01 3.060235000000000127e+01 1.288369999999999891e+02 1.514130000000000109e+03
9.600000000000000200e-02 6.038810000000000011e-01 2.980774999999999864e+01 1.285134999999999934e+02 1.514070000000000164e+03
9.700000000000000289e-02 6.038075000000000525e-01 2.900515000000000043e+01 1.281419999999999959e+02 1.513980000000000018e+03
9.800000000000000377e-02 6.037285000000000013e-01 2.820589999999999975e+01 1.277439999999999998e+02 1.513880000000000109e+03
9.900000000000000466e-02 6.036479999999999624e-01 2.742024999999999935e+01 1.273395000000000152e+02 1.513775000000000091e+03
1.000000000000000056e-01 6.035695000000000920e-01 2.665695000000000192e+01 1.269419999999999931e+02 1.513664999999999964e+03
1.010000000000000064e-01 6.034975000000000200e-01 2.592300000000000182e+01 1.265674999999999955e+02 1.513555000000000064e+03
1.020000000000000073e-01 6.034315000000000095e-01 2.522350000000000136e+01 1.262229999999999990e+02 1.513454999999999927e+03
1.030000000000000082e-01 6.033740000000000769e-01 2.456149999999999878e+01 1.259170000000000016e+02 1.513360000000000127e+03
1.040000000000000091e-01 6.033250000000000002e-01 2.393795000000000073e+01 1.256494999999999891e+02 1.513275000000000091e+03
1.050000000000000100e-01 6.032834999999999726e-01 2.335184999999999889e+01 1.254210000000000065e+02 1.513200000000000045e+03
1.059999999999999970e-01 6.032485000000000763e-01 2.280044999999999789e+01 1.252265000000000015e+02 1.513130000000000109e+03
1.069999999999999979e-01 6.032174999999999621e-01 2.227940000000000254e+01 1.250580000000000069e+02 1.513069999999999936e+03
1.079999999999999988e-01 6.031885000000000163e-01 2.178305000000000291e+01 1.249070000000000107e+02 1.513014999999999873e+03
1.089999999999999997e-01 6.031584999999999308e-01 2.130485000000000184e+01 1.247609999999999957e+02 1.512954999999999927e+03
1.100000000000000006e-01 6.031245000000000633e-01 2.083765000000000001e+01 1.246085000000000065e+02 1.512904999999999973e+03
1.110000000000000014e-01 6.030834999999999946e-01 2.037404999999999688e+01 1.244364999999999952e+02 1.512845000000000027e+03
1.120000000000000023e-01 6.030329999999999302e-01 1.990684999999999860e+01 1.242319999999999993e+02 1.512784999999999854e+03
1.130000000000000032e-01 6.029694999999999361e-01 1.942914999999999992e+01 1.239835000000000065e+02 1.512704999999999927e+03
1.140000000000000041e-01 6.028915000000000246e-01 1.893505000000000038e+01 1.236814999999999998e+02 1.512615000000000009e+03
1.150000000000000050e-01 6.027979999999999450e-01 1.841955000000000098e+01 1.233174999999999955e+02 1.512505000000000109e+03
1.160000000000000059e-01 6.026864999999999029e-01 1.787894999999999968e+01 1.228849999999999909e+02 1.512380000000000109e+03
1.170000000000000068e-01 6.025574999999999681e-01 1.731115000000000137e+01 1.223810000000000002e+02 1.512235000000000127e+03
1.180000000000000077e-01 6.024110000000000298e-01 1.671545000000000059e+01 1.218054999999999950e+02 1.512069999999999936e+03
1.190000000000000085e-01 6.022475000000000467e-01 1.609305000000000163e+01 1.211610000000000014e+02 1.511884999999999991e+03
1.200000000000000094e-01 6.020699999999999941e-01 1.544660000000000011e+01 1.204530000000000030e+02 1.511679999999999836e+03
1.209999999999999964e-01 6.018799999999999706e-01 1.478023500000000112e+01 1.196899999999999977e+02 1.511454999999999927e+03
1.219999999999999973e-01 6.016799999999999926e-01 1.409970500000000015e+01 1.188820000000000050e+02 1.511220000000000027e+03
1.229999999999999982e-01 6.014740000000000641e-01 1.341176000000000101e+01 1.180430000000000064e+02 1.510974999999999909e+03
1.239999999999999991e-01 6.012655000000000083e-01 1.272417000000000087e+01 1.171860000000000070e+02 1.510719999999999800e+03
1.250000000000000000e-01 6.010584999999999400e-01 1.204528499999999980e+01 1.163275000000000006e+02 1.510460000000000036e+03
1.260000000000000009e-01 6.008560000000000567e-01 1.138371499999999870e+01 1.154830000000000041e+02 1.510204999999999927e+03
1.270000000000000018e-01 6.006625000000000991e-01 1.074804500000000118e+01 1.146684999999999945e+02 1.509960000000000036e+03
1.280000000000000027e-01 6.004810000000000425e-01 1.014648500000000020e+01 1.138979999999999961e+02 1.509715000000000146e+03
1.290000000000000036e-01 6.003150000000000430e-01 9.586460000000000647e+00 1.131860000000000070e+02 1.509489999999999782e+03
1.300000000000000044e-01 6.001674999999999649e-01 9.074460000000000193e+00 1.125444999999999993e+02 1.509284999999999854e+03
1.310000000000000053e-01 6.000389999999999890e-01 8.615674999999999528e+00 1.119819999999999993e+02 1.509099999999999909e+03
1.320000000000000062e-01 5.999330000000000496e-01 8.213924999999999699e+00 1.115054999999999978e+02 1.508940000000000055e+03
1.330000000000000071e-01 5.998474999999999779e-01 7.871430000000000149e+00 1.111195000000000022e+02 1.508799999999999955e+03
1.340000000000000080e-01 5.997850000000000126e-01 7.588930000000000398e+00 1.108245000000000005e+02 1.508690000000000055e+03
1.350000000000000089e-01 5.997429999999999151e-01 7.365515000000000256e+00 1.106200000000000045e+02 1.508605000000000018e+03
1.360000000000000098e-01 5.997209999999999486e-01 7.198885000000000645e+00 1.104994999999999976e+02 1.508545000000000073e+03
1.370000000000000107e-01 5.997164999999999857e-01 7.085409999999999542e+00 1.104590000000000032e+02 1.508509999999999991e+03
1.380000000000000115e-01 5.997280000000000388e-01 7.020364999999999966e+00 1.104879999999999995e+02 1.508494999999999891e+03
1.390000000000000124e-01 5.997524999999999107e-01 6.998154999999999681e+00 1.105765000000000100e+02 1.508500000000000000e+03
1.400000000000000133e-01 5.997874999999999179e-01 7.012544999999999362e+00 1.107150000000000034e+02 1.508525000000000091e+03
1.410000000000000142e-01 5.998299999999999743e-01 7.056955000000000311e+00 1.108905000000000030e+02 1.508559999999999945e+03
1.420000000000000151e-01 5.998775000000000635e-01 7.124660000000000437e+00 1.110914999999999964e+02 1.508599999999999909e+03
1.430000000000000160e-01 5.999274999999999469e-01 7.209075000000000344e+00 1.113075000000000045e+02 1.508659999999999854e+03
1.440000000000000169e-01 5.999769999999999825e-01 7.303895000000000692e+00 1.115279999999999916e+02 1.508710000000000036e+03
1.450000000000000178e-01 6.000250000000000306e-01 7.403324999999999712e+00 1.117435000000000116e+02 1.508764999999999873e+03
1.459999999999999909e-01 6.000685000000000047e-01 7.502180000000000071e+00 1.119454999999999956e+02 1.508819999999999936e+03
1.469999999999999918e-01 6.001075000000000159e-01 7.596014999999999517e+00 1.121295000000000073e+02 1.508875000000000000e+03
1.479999999999999927e-01 6.001404999999999657e-01 7.681165000000000020e+00 1.122879999999999967e+02 1.508924999999999955e+03
1.489999999999999936e-01 6.001665000000000472e-01 7.754785000000000039e+00 1.124205000000000041e+02 1.508964999999999918e+03
1.499999999999999944e-01 6.001859999999999973e-01 7.814869999999999983e+00 1.125234999999999985e+02 1.509000000000000000e+03
1.509999999999999953e-01 6.001985000000000792e-01 7.860185000000000421e+00 1.125964999999999918e+02 1.509019999999999982e+03
1.519999999999999962e-01 6.002049999999999885e-01 7.890274999999999928e+00 1.126419999999999959e+02 1.509039999999999964e+03
1.529999999999999971e-01 6.002049999999999885e-01 7.905345000000000510e+00 1.126614999999999895e+02 1.509049999999999955e+03
1.539999999999999980e-01 6.002005000000000257e-01 7.906230000000000757e+00 1.126569999999999965e+02 1.509050000000000182e+03
1.549999999999999989e-01 6.001920000000000588e-01 7.894235000000000113e+00 1.126334999999999980e+02 1.509055000000000064e+03
1.559999999999999998e-01 6.001805000000000057e-01 7.871100000000000207e+00 1.125945000000000107e+02 1.509045000000000073e+03
1.570000000000000007e-01 6.001670000000000060e-01 7.838855000000000572e+00 1.125450000000000017e+02 1.509034999999999854e+03
1.580000000000000016e-01 6.001524999999999777e-01 7.799725000000000463e+00 1.124884999999999877e+02 1.509019999999999982e+03
1.590000000000000024e-01 6.001384999999999081e-01 7.756000000000000227e+00 1.124294999999999902e+02 1.509009999999999991e+03
