# t [s], A [cm^2], U [cm/s], P [cPa], c [cm/s]
1.000000000000000021e-03 7.564819999999999878e-01 5.188499999999998669e-03 9.229380000000000450e+01 1.710320000000000164e+03
2.000000000000000042e-03 7.564714999999999634e-01 1.868685000000000138e-03 9.226354999999999507e+01 1.710315000000000055e+03
3.000000000000000062e-03 7.565489999999999160e-01 1.283711999999999909e-01 9.240609999999999502e+01 1.710349999999999909e+03
4.000000000000000083e-03 7.565914999999999724e-01 2.174047000000000063e-01 9.251429999999999154e+01 1.710375000000000000e+03
5.000000000000000104e-03 7.565304999999999946e-01 1.497964999999999991e-01 9.236949999999998795e+01 1.710344999999999800e+03
6.000000000000000125e-03 7.564444999999999641e-01 3.404899999999999594e-02 9.206765000000000043e+01 1.710280000000000200e+03
7.000000000000000146e-03 7.563579999999999748e-01 -9.458200000000005492e-02 9.167969999999999686e+01 1.710194999999999936e+03
8.000000000000000167e-03 7.562010000000000121e-01 -3.523150000000000448e-01 9.106100000000000705e+01 1.710059999999999945e+03
9.000000000000001055e-03 7.559595000000000065e-01 -7.656899999999998707e-01 9.013204999999999245e+01 1.709860000000000127e+03
1.000000000000000194e-02 7.556224999999999747e-01 -1.343035000000000201e+00 8.883455000000000723e+01 1.709575000000000045e+03
1.099999999999999936e-02 7.551605000000000123e-01 -2.113580000000000236e+00 8.707849999999999113e+01 1.709194999999999936e+03
1.200000000000000025e-02 7.545924999999999994e-01 -3.024805000000000188e+00 8.487680000000000291e+01 1.708700000000000045e+03
1.300000000000000114e-02 7.540074999999999417e-01 -3.902324999999999378e+00 8.243725000000000591e+01 1.708134999999999991e+03
1.400000000000000203e-02 7.535064999999999680e-01 -4.539086999999999428e+00 8.007540000000000191e+01 1.707559999999999945e+03
1.499999999999999944e-02 7.531455000000000233e-01 -4.806989500000000248e+00 7.804859999999999332e+01 1.707045000000000073e+03
1.600000000000000033e-02 7.529120000000000257e-01 -4.701100000000000279e+00 7.645150000000001000e+01 1.706599999999999909e+03
1.700000000000000122e-02 7.527460000000000262e-01 -4.315744999999999720e+00 7.520994999999999209e+01 1.706230000000000018e+03
1.800000000000000211e-02 7.525739999999999652e-01 -3.787900000000000045e+00 7.414230000000000587e+01 1.705889999999999873e+03
1.900000000000000300e-02 7.523394999999999389e-01 -3.238109999999999822e+00 7.304824999999999591e+01 1.705555000000000064e+03
2.000000000000000042e-02 7.520225000000000382e-01 -2.729008000000000322e+00 7.178954999999999131e+01 1.705190000000000055e+03
2.100000000000000130e-02 7.516389999999999461e-01 -2.255000499999999963e+00 7.033174999999999955e+01 1.704784999999999854e+03
2.200000000000000219e-02 7.512274999999999370e-01 -1.764864999999999906e+00 6.873429999999999040e+01 1.704355000000000018e+03
2.299999999999999961e-02 7.508274999999999810e-01 -1.202684999999999782e+00 6.709924999999999784e+01 1.703910000000000082e+03
2.400000000000000050e-02 7.504565000000000818e-01 -5.455250000000002597e-01 6.550929999999999609e+01 1.703470000000000027e+03
2.500000000000000139e-02 7.501069999999999682e-01 1.773850000000001259e-01 6.398255000000000337e+01 1.703039999999999964e+03
2.600000000000000228e-02 7.497439999999999660e-01 8.869449999999998724e-01 6.245709999999999695e+01 1.702610000000000127e+03
2.700000000000000316e-02 7.493214999999999737e-01 1.473560000000000203e+00 6.080525000000000091e+01 1.702150000000000091e+03
2.800000000000000058e-02 7.487935000000000008e-01 1.826099999999999834e+00 5.887044999999999817e+01 1.701639999999999873e+03
2.900000000000000147e-02 7.481299999999999617e-01 1.862400000000000055e+00 5.651585000000000036e+01 1.701045000000000073e+03
3.000000000000000236e-02 7.473270000000000746e-01 1.552740000000000009e+00 5.366995000000000005e+01 1.700339999999999918e+03
3.099999999999999978e-02 7.464089999999999892e-01 9.286250000000002558e-01 5.035554999999999382e+01 1.699534999999999854e+03
3.200000000000000067e-02 7.454250000000000043e-01 7.414500000000057156e-02 4.669200000000000017e+01 1.698644999999999982e+03
3.300000000000000155e-02 7.444374999999999742e-01 -8.955150000000005051e-01 4.287154999999999916e+01 1.697710000000000036e+03
3.400000000000000244e-02 7.435069999999999180e-01 -1.859774999999999512e+00 3.912140000000000128e+01 1.696775000000000091e+03
3.500000000000000333e-02 7.426844999999999697e-01 -2.713944999999999830e+00 3.566410000000000480e+01 1.695894999999999982e+03
3.600000000000000422e-02 7.420059999999999434e-01 -3.381445000000000256e+00 3.268630000000000280e+01 1.695105000000000018e+03
3.700000000000000511e-02 7.414905000000000523e-01 -3.817314999999999792e+00 3.032065000000000055e+01 1.694454999999999927e+03
3.799999999999999906e-02 7.411434999999999551e-01 -4.004145000000000287e+00 2.864095000000000013e+01 1.693960000000000036e+03
3.899999999999999994e-02 7.409604999999999109e-01 -3.943774999999999586e+00 2.766864999999999952e+01 1.693625000000000000e+03
4.000000000000000083e-02 7.409314999999999651e-01 -3.647725000000000328e+00 2.738609999999999900e+01 1.693464999999999918e+03
4.100000000000000172e-02 7.410459999999999825e-01 -3.129050000000000331e+00 2.775269999999999726e+01 1.693465000000000146e+03
4.200000000000000261e-02 7.412929999999999797e-01 -2.397523000000000071e+00 2.871880000000000166e+01 1.693619999999999891e+03
4.300000000000000350e-02 7.416644999999999488e-01 -1.458875000000000144e+00 3.023470000000000368e+01 1.693920000000000073e+03
4.400000000000000439e-02 7.421524999999999928e-01 -3.175549999999995876e-01 3.225325000000000131e+01 1.694349999999999909e+03
4.499999999999999833e-02 7.427479999999999638e-01 1.018835000000000157e+00 3.472780000000000200e+01 1.694900000000000091e+03
4.599999999999999922e-02 7.434389999999999610e-01 2.535259999999999625e+00 3.760739999999999839e+01 1.695565000000000055e+03
4.700000000000000011e-02 7.442100000000000382e-01 4.206804999999999239e+00 4.083239999999999981e+01 1.696319999999999936e+03
4.800000000000000100e-02 7.450430000000000108e-01 5.998495000000000132e+00 4.433265000000000100e+01 1.697154999999999973e+03
4.900000000000000189e-02 7.459154999999999536e-01 7.867695499999999065e+00 4.802829999999999444e+01 1.698049999999999955e+03
5.000000000000000278e-02 7.468060000000000809e-01 9.767770000000000508e+00 5.183395000000000152e+01 1.698990000000000009e+03
5.100000000000000366e-02 7.476940000000000808e-01 1.165254499999999993e+01 5.566485000000000127e+01 1.699944999999999936e+03
5.200000000000000455e-02 7.485614999999999908e-01 1.348034499999999980e+01 5.944279999999999831e+01 1.700904999999999973e+03
5.300000000000000544e-02 7.493955000000001032e-01 1.521731000000000122e+01 6.310269999999999868e+01 1.701844999999999800e+03
5.399999999999999939e-02 7.501860000000000195e-01 1.683905000000000030e+01 6.659635000000000105e+01 1.702759999999999991e+03
5.500000000000000028e-02 7.509310000000000151e-01 1.833109999999999928e+01 6.989494999999999436e+01 1.703630000000000109e+03
5.600000000000000117e-02 7.516294999999999504e-01 1.968860000000000099e+01 7.298860000000000525e+01 1.704460000000000036e+03
5.700000000000000205e-02 7.522869999999999280e-01 2.091430000000000078e+01 7.588490000000000180e+01 1.705244999999999891e+03
5.800000000000000294e-02 7.529095000000000093e-01 2.201739999999999853e+01 7.860560000000000969e+01 1.705990000000000009e+03
5.900000000000000383e-02 7.535060000000000091e-01 2.301140000000000185e+01 8.118299999999999272e+01 1.706704999999999927e+03
6.000000000000000472e-02 7.540860000000000340e-01 2.391279999999999717e+01 8.365594999999999004e+01 1.707384999999999991e+03
6.099999999999999867e-02 7.546589999999999687e-01 2.473920000000000030e+01 8.606610000000000582e+01 1.708049999999999955e+03
6.199999999999999956e-02 7.552339999999999609e-01 2.550824999999999676e+01 8.845425000000000182e+01 1.708704999999999927e+03
6.300000000000000044e-02 7.558190000000000186e-01 2.623600000000000065e+01 9.085675000000000523e+01 1.709360000000000127e+03
6.400000000000000133e-02 7.564180000000000348e-01 2.693585000000000207e+01 9.330275000000000318e+01 1.710019999999999982e+03
6.500000000000000222e-02 7.570365000000000011e-01 2.761739999999999995e+01 9.581145000000000778e+01 1.710695000000000164e+03
6.600000000000000311e-02 7.576730000000000409e-01 2.828560000000000230e+01 9.839095000000000368e+01 1.711389999999999873e+03
6.700000000000000400e-02 7.583260000000000556e-01 2.894059999999999988e+01 1.010371999999999986e+02 1.712089999999999918e+03
6.800000000000000488e-02 7.589885000000000659e-01 2.957760000000000034e+01 1.037329499999999882e+02 1.712804999999999836e+03
6.900000000000000577e-02 7.596549999999999692e-01 3.018789999999999907e+01 1.064519999999999982e+02 1.713534999999999854e+03
7.000000000000000666e-02 7.603145000000000042e-01 3.075945000000000107e+01 1.091595000000000084e+02 1.714250000000000000e+03
7.100000000000000755e-02 7.609580000000000233e-01 3.127839999999999776e+01 1.118144999999999953e+02 1.714964999999999918e+03
7.200000000000000844e-02 7.615754999999999608e-01 3.173015000000000185e+01 1.143739999999999952e+02 1.715655000000000200e+03
7.300000000000000933e-02 7.621565000000000145e-01 3.210074999999999790e+01 1.167969999999999970e+02 1.716320000000000164e+03
7.399999999999999634e-02 7.626919999999999256e-01 3.237774999999999892e+01 1.190440000000000111e+02 1.716940000000000055e+03
7.499999999999999722e-02 7.631769999999999943e-01 3.255105000000000359e+01 1.210824999999999960e+02 1.717505000000000109e+03
7.599999999999999811e-02 7.636049999999999782e-01 3.261359999999999815e+01 1.228880000000000052e+02 1.718025000000000091e+03
7.699999999999999900e-02 7.639724999999999433e-01 3.256145000000000067e+01 1.244429999999999978e+02 1.718474999999999909e+03
7.799999999999999989e-02 7.642789999999999306e-01 3.239419999999999789e+01 1.257390000000000043e+02 1.718860000000000127e+03
7.900000000000000078e-02 7.645260000000000389e-01 3.211484999999999701e+01 1.267764999999999986e+02 1.719184999999999945e+03
8.000000000000000167e-02 7.647150000000000336e-01 3.172980000000000089e+01 1.275649999999999977e+02 1.719445000000000164e+03
8.100000000000000255e-02 7.648509999999999476e-01 3.124834999999999852e+01 1.281200000000000045e+02 1.719639999999999873e+03
8.200000000000000344e-02 7.649394999999999945e-01 3.068260000000000076e+01 1.284644999999999868e+02 1.719775000000000091e+03
8.300000000000000433e-02 7.649870000000000836e-01 3.004654999999999987e+01 1.286265000000000214e+02 1.719865000000000009e+03
8.400000000000000522e-02 7.650019999999999598e-01 2.935609999999999786e+01 1.286370000000000005e+02 1.719910000000000082e+03
8.500000000000000611e-02 7.649915000000000465e-01 2.862770000000000081e+01 1.285300000000000011e+02 1.719920000000000073e+03
8.600000000000000699e-02 7.649635000000000185e-01 2.787794999999999845e+01 1.283394999999999868e+02 1.719900000000000091e+03
8.700000000000000788e-02 7.649254999999999249e-01 2.712284999999999968e+01 1.280980000000000132e+02 1.719860000000000127e+03
8.800000000000000877e-02 7.648840000000000083e-01 2.637705000000000055e+01 1.278360000000000127e+02 1.719809999999999945e+03
8.899999999999999578e-02 7.648449999999999971e-01 2.565299999999999869e+01 1.275794999999999959e+02 1.719759999999999991e+03
8.999999999999999667e-02 7.648125000000000062e-01 2.496049999999999969e+01 1.273499999999999943e+02 1.719704999999999927e+03
9.099999999999999756e-02 7.647899999999999698e-01 2.430659999999999954e+01 1.271619999999999919e+02 1.719659999999999854e+03
9.199999999999999845e-02 7.647785000000000277e-01 2.369505000000000194e+01 1.270245000000000033e+02 1.719625000000000000e+03
9.299999999999999933e-02 7.647779999999999578e-01 2.312640000000000029e+01 1.269395000000000095e+02 1.719599999999999909e+03
9.400000000000000022e-02 7.647859999999999658e-01 2.259834999999999994e+01 1.269045000000000130e+02 1.719585000000000036e+03
9.500000000000000111e-02 7.648015000000000230e-01 2.210589999999999833e+01 1.269085000000000036e+02 1.719575000000000045e+03
9.600000000000000200e-02 7.648194999999999855e-01 2.164189999999999969e+01 1.269384999999999906e+02 1.719579999999999927e+03
9.700000000000000289e-02 7.648365000000000302e-01 2.119769999999999754e+01 1.269775000000000063e+02 1.719579999999999927e+03
9.800000000000000377e-02 7.648475000000000135e-01 2.076355000000000217e+01 1.270060000000000002e+02 1.719579999999999927e+03
9.900000000000000466e-02 7.648485000000000422e-01 2.032929999999999993e+01 1.270045000000000073e+02 1.719579999999999927e+03
1.000000000000000056e-01 7.648344999999999727e-01 1.988499999999999801e+01 1.269534999999999911e+02 1.719565000000000055e+03
1.010000000000000064e-01 7.648019999999999818e-01 1.942170000000000130e+01 1.268344999999999914e+02 1.719534999999999854e+03
1.020000000000000073e-01 7.647474999999999135e-01 1.893155000000000143e+01 1.266330000000000098e+02 1.719485000000000127e+03
1.030000000000000082e-01 7.646694999999998910e-01 1.840869999999999962e+01 1.263385000000000105e+02 1.719414999999999964e+03
1.040000000000000091e-01 7.645664999999999267e-01 1.784944999999999737e+01 1.259429999999999978e+02 1.719325000000000045e+03
1.050000000000000100e-01 7.644395000000000495e-01 1.725260000000000105e+01 1.254459999999999980e+02 1.719204999999999927e+03
1.059999999999999970e-01 7.642895000000000660e-01 1.661959999999999837e+01 1.248499999999999943e+02 1.719059999999999945e+03
1.069999999999999979e-01 7.641184999999999228e-01 1.595425000000000182e+01 1.241650000000000063e+02 1.718894999999999982e+03
1.079999999999999988e-01 7.639309999999999157e-01 1.526295000000000002e+01 1.234039999999999964e+02 1.718710000000000036e+03
1.089999999999999997e-01 7.637324999999999253e-01 1.455414999999999992e+01 1.225854999999999961e+02 1.718505000000000109e+03
1.100000000000000006e-01 7.635270000000000667e-01 1.383786999999999878e+01 1.217299999999999898e+02 1.718289999999999964e+03
1.110000000000000014e-01 7.633209999999999162e-01 1.312538999999999945e+01 1.208625000000000114e+02 1.718075000000000045e+03
1.120000000000000023e-01 7.631205000000000904e-01 1.242851500000000087e+01 1.200060000000000002e+02 1.717855000000000018e+03
1.130000000000000032e-01 7.629304999999999559e-01 1.175897499999999951e+01 1.191864999999999952e+02 1.717639999999999873e+03
1.140000000000000041e-01 7.627574999999999772e-01 1.112791499999999978e+01 1.184260000000000019e+02 1.717440000000000055e+03
1.150000000000000050e-01 7.626055000000000472e-01 1.054527000000000037e+01 1.177454999999999927e+02 1.717255000000000109e+03
1.160000000000000059e-01 7.624774999999999192e-01 1.001927000000000056e+01 1.171634999999999991e+02 1.717090000000000146e+03
1.170000000000000068e-01 7.623774999999999302e-01 9.556184999999999263e+00 1.166910000000000025e+02 1.716954999999999927e+03
1.180000000000000077e-01 7.623045000000000515e-01 9.159940000000000637e+00 1.163365000000000009e+02 1.716840000000000146e+03
1.190000000000000085e-01 7.622614999999999252e-01 8.832155000000000200e+00 1.161030000000000086e+02 1.716765000000000100e+03
1.200000000000000094e-01 7.622450000000000614e-01 8.571989999999999554e+00 1.159890000000000043e+02 1.716715000000000146e+03
1.209999999999999964e-01 7.622545000000000570e-01 8.376454999999999984e+00 1.159875000000000114e+02 1.716690000000000055e+03
1.219999999999999973e-01 7.622865000000000890e-01 8.240674999999999528e+00 1.160879999999999939e+02 1.716699999999999818e+03
1.229999999999999982e-01 7.623379999999999601e-01 8.158129999999999882e+00 1.162764999999999986e+02 1.716724999999999909e+03
1.239999999999999991e-01 7.624044999999999295e-01 8.121154999999999902e+00 1.165374999999999943e+02 1.716775000000000091e+03
1.250000000000000000e-01 7.624815000000000342e-01 8.121330000000000382e+00 1.168534999999999968e+02 1.716840000000000146e+03
1.260000000000000009e-01 7.625659999999999661e-01 8.149919999999999831e+00 1.172069999999999936e+02 1.716920000000000073e+03
1.270000000000000018e-01 7.626534999999999842e-01 8.198219999999999175e+00 1.175794999999999959e+02 1.717000000000000000e+03
1.280000000000000027e-01 7.627405000000000435e-01 8.257960000000000633e+00 1.179565000000000055e+02 1.717090000000000146e+03
1.290000000000000036e-01 7.628230000000000288e-01 8.321545000000000414e+00 1.183234999999999957e+02 1.717179999999999836e+03
1.300000000000000044e-01 7.628999999999999115e-01 8.382294999999999163e+00 1.186684999999999945e+02 1.717264999999999873e+03
1.310000000000000053e-01 7.629684999999999384e-01 8.434599999999999653e+00 1.189809999999999945e+02 1.717345000000000027e+03
1.320000000000000062e-01 7.630284999999999984e-01 8.474009999999999820e+00 1.192560000000000002e+02 1.717414999999999964e+03
1.330000000000000071e-01 7.630779999999999230e-01 8.497270000000000323e+00 1.194884999999999877e+02 1.717485000000000127e+03
1.340000000000000080e-01 7.631164999999999754e-01 8.502345000000000041e+00 1.196769999999999925e+02 1.717529999999999973e+03
1.350000000000000089e-01 7.631459999999999910e-01 8.488305000000000433e+00 1.198215000000000003e+02 1.717575000000000045e+03
1.360000000000000098e-01 7.631665000000000809e-01 8.455304999999999183e+00 1.199265000000000043e+02 1.717610000000000127e+03
1.370000000000000107e-01 7.631794999999998996e-01 8.404399999999998983e+00 1.199945000000000022e+02 1.717634999999999991e+03
1.380000000000000115e-01 7.631855000000000722e-01 8.337444999999998885e+00 1.200310000000000059e+02 1.717654999999999973e+03
1.390000000000000124e-01 7.631870000000000598e-01 8.256914999999999338e+00 1.200430000000000064e+02 1.717659999999999854e+03
1.400000000000000133e-01 7.631845000000000434e-01 8.165725000000000122e+00 1.200374999999999943e+02 1.717664999999999964e+03
1.410000000000000142e-01 7.631809999999999983e-01 8.067019999999999413e+00 1.200215000000000032e+02 1.717664999999999964e+03
1.420000000000000151e-01 7.631775000000000642e-01 7.964030000000000165e+00 1.200000000000000000e+02 1.717664999999999964e+03
1.430000000000000160e-01 7.631744999999999779e-01 7.859844999999999970e+00 1.199809999999999945e+02 1.717659999999999854e+03
1.440000000000000169e-01 7.631740000000000190e-01 7.757270000000000110e+00 1.199679999999999893e+02 1.717659999999999854e+03
1.450000000000000178e-01 7.631769999999999943e-01 7.658699999999999619e+00 1.199654999999999916e+02 1.717659999999999854e+03
1.459999999999999909e-01 7.631829999999999448e-01 7.565995000000000026e+00 1.199765000000000015e+02 1.717664999999999964e+03
1.469999999999999918e-01 7.631930000000000103e-01 7.480425000000000324e+00 1.200020000000000095e+02 1.717674999999999955e+03
1.479999999999999927e-01 7.632060000000000510e-01 7.402669999999999639e+00 1.200420000000000016e+02 1.717684999999999945e+03
1.489999999999999936e-01 7.632220000000000670e-01 7.332805000000000462e+00 1.200944999999999965e+02 1.717694999999999936e+03
1.499999999999999944e-01 7.632404999999999884e-01 7.270429999999999282e+00 1.201580000000000013e+02 1.717715000000000146e+03
1.509999999999999953e-01 7.632604999999998974e-01 7.214695000000000746e+00 1.202289999999999992e+02 1.717730000000000018e+03
1.519999999999999962e-01 7.632799999999999585e-01 7.164464999999999861e+00 1.203040000000000020e+02 1.717750000000000000e+03
1.529999999999999971e-01 7.632999999999999785e-01 7.118449999999999278e+00 1.203780000000000001e+02 1.717769999999999982e+03
1.539999999999999980e-01 7.633185000000000109e-01 7.075294999999999668e+00 1.204484999999999957e+02 1.717784999999999854e+03
1.549999999999999989e-01 7.633345000000000269e-01 7.033744999999999692e+00 1.205120000000000005e+02 1.717799999999999955e+03
1.559999999999999998e-01 7.633475000000000676e-01 6.992705000000000837e+00 1.205649999999999977e+02 1.717819999999999936e+03
1.570000000000000007e-01 7.633574999999999111e-01 6.951354999999999507e+00 1.206055000000000064e+02 1.717829999999999927e+03
1.580000000000000016e-01 7.633639999999999315e-01 6.909150000000000347e+00 1.206324999999999932e+02 1.717835000000000036e+03
1.590000000000000024e-01 7.633674999999999766e-01 6.865885000000000460e+00 1.206454999999999984e+02 1.717839999999999918e+03
