# t [s], A [cm^2], U [cm/s], P [cPa], c [cm/s]
1.000000000000000021e-03 2.009305000000000119e-01 3.090651999999999844e-01 8.814095000000000368e+01 2.153135000000000218e+03
2.000000000000000042e-03 2.008765000000000134e-01 1.720092500000000024e+00 8.490704999999999814e+01 2.152699999999999818e+03
3.000000000000000062e-03 2.007379999999999998e-01 3.461515499999999967e+00 8.041485000000000127e+01 2.151644999999999982e+03
4.000000000000000083e-03 2.005540000000000100e-01 5.433320499999999775e+00 7.564410000000000878e+01 2.150255000000000109e+03
5.000000000000000104e-03 2.003614999999999979e-01 7.557355000000000267e+00 7.151595000000000368e+01 2.148815000000000055e+03
6.000000000000000125e-03 2.001804999999999835e-01 9.621335000000000193e+00 6.820619999999999550e+01 2.147474999999999909e+03
7.000000000000000146e-03 2.000120000000000231e-01 1.140163500000000063e+01 6.533705000000000496e+01 2.146260000000000218e+03
8.000000000000000167e-03 1.998590000000000089e-01 1.286125499999999988e+01 6.273335000000000150e+01 2.145170000000000073e+03
9.000000000000001055e-03 1.997269999999999879e-01 1.405959999999999965e+01 6.052630000000000621e+01 2.144250000000000000e+03
1.000000000000000194e-02 1.996185000000000043e-01 1.502459999999999951e+01 5.877020000000000266e+01 2.143494999999999891e+03
1.099999999999999936e-02 1.995315000000000005e-01 1.577149999999999963e+01 5.741440000000000055e+01 2.142904999999999745e+03
1.200000000000000025e-02 1.994635000000000158e-01 1.631044999999999945e+01 5.637310000000000088e+01 2.142444999999999709e+03
1.300000000000000114e-02 1.994090000000000029e-01 1.663925000000000054e+01 5.550319999999999965e+01 2.142085000000000036e+03
1.400000000000000203e-02 1.993624999999999980e-01 1.679149999999999920e+01 5.470864999999999867e+01 2.141784999999999854e+03
1.499999999999999944e-02 1.993274999999999908e-01 1.689229999999999876e+01 5.414560000000000173e+01 2.141559999999999945e+03
1.600000000000000033e-02 1.993139999999999912e-01 1.712869999999999848e+01 5.423944999999999794e+01 2.141485000000000127e+03
1.700000000000000122e-02 1.993354999999999988e-01 1.764499999999999957e+01 5.542275000000000063e+01 2.141640000000000327e+03
1.800000000000000211e-02 1.993975000000000053e-01 1.844944999999999879e+01 5.780105000000000359e+01 2.142064999999999600e+03
1.900000000000000300e-02 1.994930000000000037e-01 1.939914999999999878e+01 6.100390000000000157e+01 2.142730000000000018e+03
2.000000000000000042e-02 1.996050000000000046e-01 2.026339999999999719e+01 6.430190000000000339e+01 2.143519999999999982e+03
2.100000000000000130e-02 1.997089999999999976e-01 2.082200000000000273e+01 6.689905000000000257e+01 2.144269999999999982e+03
2.200000000000000219e-02 1.997835000000000027e-01 2.094904999999999973e+01 6.823720000000000141e+01 2.144820000000000164e+03
2.299999999999999961e-02 1.998179999999999956e-01 2.064789999999999992e+01 6.817744999999999322e+01 2.145095000000000255e+03
2.400000000000000050e-02 1.998134999999999772e-01 2.003164999999999907e+01 6.699764999999999304e+01 2.145090000000000146e+03
2.500000000000000139e-02 1.997800000000000131e-01 1.926379999999999981e+01 6.522915000000000418e+01 2.144875000000000000e+03
2.600000000000000228e-02 1.997329999999999939e-01 1.848975000000000080e+01 6.342284999999999684e+01 2.144555000000000291e+03
2.700000000000000316e-02 1.996855000000000158e-01 1.778894999999999982e+01 6.194819999999999993e+01 2.144224999999999909e+03
2.800000000000000058e-02 1.996449999999999891e-01 1.716120000000000090e+01 6.089955000000000496e+01 2.143929999999999836e+03
2.900000000000000147e-02 1.996110000000000106e-01 1.654654999999999987e+01 6.012324999999999875e+01 2.143685000000000400e+03
3.000000000000000236e-02 1.995780000000000054e-01 1.586524999999999963e+01 5.933409999999999940e+01 2.143454999999999927e+03
3.099999999999999978e-02 1.995394999999999808e-01 1.506050000000000111e+01 5.826545000000000130e+01 2.143180000000000291e+03
3.200000000000000067e-02 1.994889999999999997e-01 1.412989999999999924e+01 5.679789999999999850e+01 2.142840000000000146e+03
3.300000000000000155e-02 1.994279999999999942e-01 1.313599999999999923e+01 5.502434999999999832e+01 2.142414999999999964e+03
3.400000000000000244e-02 1.993630000000000124e-01 1.219214999999999982e+01 5.323369999999999891e+01 2.141960000000000036e+03
3.500000000000000333e-02 1.993040000000000089e-01 1.143005000000000138e+01 5.182104999999999961e+01 2.141539999999999964e+03
3.600000000000000422e-02 1.992634999999999823e-01 1.096006000000000036e+01 5.115894999999999726e+01 2.141239999999999782e+03
3.700000000000000511e-02 1.992510000000000114e-01 1.083830000000000027e+01 5.147679999999999723e+01 2.141140000000000327e+03
3.799999999999999906e-02 1.992714999999999903e-01 1.105054999999999943e+01 5.278690000000000282e+01 2.141255000000000109e+03
3.899999999999999994e-02 1.993225000000000136e-01 1.151580000000000048e+01 5.487630000000000052e+01 2.141595000000000255e+03
4.000000000000000083e-02 1.993949999999999889e-01 1.210580000000000034e+01 5.735904999999999632e+01 2.142090000000000146e+03
4.100000000000000172e-02 1.994759999999999867e-01 1.267285000000000039e+01 5.976604999999999990e+01 2.142650000000000091e+03
4.200000000000000261e-02 1.995505000000000195e-01 1.307794999999999952e+01 6.164360000000000639e+01 2.143175000000000182e+03
4.300000000000000350e-02 1.996045000000000180e-01 1.321304999999999907e+01 6.263644999999999641e+01 2.143565000000000055e+03
4.400000000000000439e-02 1.996279999999999999e-01 1.301319999999999943e+01 6.253754999999999598e+01 2.143739999999999782e+03
4.499999999999999833e-02 1.996140000000000136e-01 1.245870000000000033e+01 6.130070000000000618e+01 2.143664999999999964e+03
4.599999999999999922e-02 1.995625000000000038e-01 1.156876499999999908e+01 5.901980000000000359e+01 2.143314999999999600e+03
4.700000000000000011e-02 1.994770000000000154e-01 1.039052500000000023e+01 5.588639999999999475e+01 2.142730000000000018e+03
4.800000000000000100e-02 1.993615000000000248e-01 8.986164999999999736e+00 5.214034999999999798e+01 2.141925000000000182e+03
4.900000000000000189e-02 1.992244999999999988e-01 7.422839999999999883e+00 4.802615000000000123e+01 2.140975000000000364e+03
5.000000000000000278e-02 1.990740000000000010e-01 5.765749999999999709e+00 4.376375000000000171e+01 2.139914999999999964e+03
5.100000000000000366e-02 1.989164999999999961e-01 4.075443900000000674e+00 3.953560000000000230e+01 2.138810000000000400e+03
5.200000000000000455e-02 1.987585000000000046e-01 2.408020000000000049e+00 3.548820000000000618e+01 2.137695000000000164e+03
5.300000000000000544e-02 1.986054999999999904e-01 8.169499999999998430e-01 3.174224999999999852e+01 2.136614999999999782e+03
5.399999999999999939e-02 1.984630000000000005e-01 -6.451449999999998575e-01 2.840465000000000018e+01 2.135604999999999563e+03
5.500000000000000028e-02 1.983349999999999835e-01 -1.925700499999999815e+00 2.557820000000000249e+01 2.134695000000000164e+03
5.600000000000000117e-02 1.982260000000000133e-01 -2.973052000000000028e+00 2.336544999999999916e+01 2.133914999999999964e+03
5.700000000000000205e-02 1.981404999999999972e-01 -3.738864999999999661e+00 2.186589999999999989e+01 2.133295000000000073e+03
5.800000000000000294e-02 1.980814999999999937e-01 -4.181560000000000166e+00 2.116835000000000022e+01 2.132864999999999782e+03
5.900000000000000383e-02 1.980530000000000068e-01 -4.270019999999999705e+00 2.134045000000000059e+01 2.132644999999999982e+03
6.000000000000000472e-02 1.980584999999999984e-01 -3.986769999999999925e+00 2.241829999999999856e+01 2.132654999999999745e+03
6.099999999999999867e-02 1.980970000000000231e-01 -3.329954999999999998e+00 2.439989999999999881e+01 2.132900000000000091e+03
6.199999999999999956e-02 1.981700000000000128e-01 -2.313870650000000140e+00 2.724184999999999945e+01 2.133389999999999873e+03
6.300000000000000044e-02 1.982749999999999790e-01 -9.679649999999999643e-01 3.086149999999999949e+01 2.134105000000000018e+03
6.400000000000000133e-02 1.984095000000000164e-01 6.653900000000001480e-01 3.514314999999999856e+01 2.135024999999999636e+03
6.500000000000000222e-02 1.985684999999999811e-01 2.533945000000000114e+00 3.994695000000000107e+01 2.136130000000000109e+03
6.600000000000000311e-02 1.987479999999999802e-01 4.579004000000000296e+00 4.511934999999999718e+01 2.137380000000000109e+03
6.700000000000000400e-02 1.989420000000000077e-01 6.739044999999999952e+00 5.050359999999999872e+01 2.138739999999999782e+03
6.800000000000000488e-02 1.991445000000000021e-01 8.953110000000000568e+00 5.594955000000000211e+01 2.140164999999999964e+03
6.900000000000000577e-02 1.993515000000000148e-01 1.116407500000000041e+01 6.132200000000000273e+01 2.141625000000000000e+03
7.000000000000000666e-02 1.995570000000000122e-01 1.332163500000000056e+01 6.650825000000000387e+01 2.143085000000000036e+03
7.100000000000000755e-02 1.997570000000000179e-01 1.538435000000000130e+01 7.142324999999999591e+01 2.144510000000000218e+03
7.200000000000000844e-02 1.999485000000000012e-01 1.732179999999999964e+01 7.601335000000000264e+01 2.145875000000000000e+03
7.300000000000000933e-02 2.001295000000000157e-01 1.911514999999999986e+01 8.025700000000000500e+01 2.147179999999999836e+03
7.399999999999999634e-02 2.002990000000000048e-01 2.075740000000000052e+01 8.416380000000000905e+01 2.148400000000000091e+03
7.499999999999999722e-02 2.004580000000000251e-01 2.225240000000000151e+01 8.777039999999999509e+01 2.149545000000000073e+03
7.599999999999999811e-02 2.006070000000000075e-01 2.361299999999999955e+01 9.113434999999999775e+01 2.150619999999999891e+03
7.699999999999999900e-02 2.007474999999999954e-01 2.485875000000000057e+01 9.432680000000000575e+01 2.151644999999999982e+03
7.799999999999999989e-02 2.008824999999999916e-01 2.601324999999999932e+01 9.742304999999998927e+01 2.152619999999999891e+03
7.900000000000000078e-02 2.010139999999999982e-01 2.710130000000000194e+01 1.004968000000000075e+02 2.153574999999999818e+03
8.000000000000000167e-02 2.011449999999999905e-01 2.814630000000000010e+01 1.036107499999999959e+02 2.154519999999999982e+03
8.100000000000000255e-02 2.012769999999999837e-01 2.916830000000000211e+01 1.068130000000000024e+02 2.155480000000000018e+03
8.200000000000000344e-02 2.014120000000000077e-01 3.018215000000000003e+01 1.101320000000000050e+02 2.156454999999999927e+03
8.300000000000000433e-02 2.015505000000000213e-01 3.119675000000000153e+01 1.135775000000000006e+02 2.157454999999999927e+03
8.400000000000000522e-02 2.016930000000000112e-01 3.221460000000000434e+01 1.171375000000000028e+02 2.158489999999999782e+03
8.500000000000000611e-02 2.018395000000000050e-01 3.323185000000000144e+01 1.207845000000000084e+02 2.159545000000000073e+03
8.600000000000000699e-02 2.019874999999999865e-01 3.423915000000000219e+01 1.244754999999999967e+02 2.160614999999999782e+03
8.700000000000000788e-02 2.021370000000000111e-01 3.522240000000000038e+01 1.281560000000000059e+02 2.161694999999999709e+03
8.800000000000000877e-02 2.022855000000000070e-01 3.616389999999999816e+01 1.317665000000000077e+02 2.162769999999999982e+03
8.899999999999999578e-02 2.024305000000000132e-01 3.704399999999999693e+01 1.352415000000000020e+02 2.163819999999999709e+03
8.999999999999999667e-02 2.025704999999999867e-01 3.784205000000000041e+01 1.385199999999999818e+02 2.164835000000000036e+03
9.099999999999999756e-02 2.027025000000000077e-01 3.853795000000000215e+01 1.415434999999999945e+02 2.165800000000000182e+03
9.199999999999999845e-02 2.028240000000000043e-01 3.911319999999999908e+01 1.442620000000000005e+02 2.166684999999999945e+03
9.299999999999999933e-02 2.029350000000000043e-01 3.955235000000000412e+01 1.466334999999999980e+02 2.167494999999999891e+03
9.400000000000000022e-02 2.030319999999999903e-01 3.984340000000000259e+01 1.486295000000000073e+02 2.168210000000000036e+03
9.500000000000000111e-02 2.031149999999999900e-01 3.997889999999999588e+01 1.502334999999999923e+02 2.168819999999999709e+03
9.600000000000000200e-02 2.031824999999999881e-01 3.995635000000000048e+01 1.514420000000000073e+02 2.169324999999999818e+03
9.700000000000000289e-02 2.032355000000000134e-01 3.977814999999999657e+01 1.522649999999999864e+02 2.169720000000000255e+03
9.800000000000000377e-02 2.032740000000000102e-01 3.945190000000000197e+01 1.527250000000000227e+02 2.170014999999999873e+03
9.900000000000000466e-02 2.032984999999999931e-01 3.898949999999999960e+01 1.528555000000000064e+02 2.170199999999999818e+03
1.000000000000000056e-01 2.033099999999999907e-01 3.840690000000000026e+01 1.526980000000000075e+02 2.170300000000000182e+03
1.010000000000000064e-01 2.033109999999999917e-01 3.772310000000000230e+01 1.523025000000000091e+02 2.170319999999999709e+03
1.020000000000000073e-01 2.033019999999999827e-01 3.695915000000000106e+01 1.517205000000000155e+02 2.170265000000000327e+03
1.030000000000000082e-01 2.032855000000000079e-01 3.613725000000000165e+01 1.510054999999999836e+02 2.170149999999999636e+03
1.040000000000000091e-01 2.032640000000000002e-01 3.527949999999999875e+01 1.502110000000000127e+02 2.170000000000000000e+03
1.050000000000000100e-01 2.032384999999999886e-01 3.440715000000000146e+01 1.493840000000000146e+02 2.169819999999999709e+03
1.059999999999999970e-01 2.032110000000000027e-01 3.353955000000000553e+01 1.485679999999999836e+02 2.169625000000000000e+03
1.069999999999999979e-01 2.031830000000000025e-01 3.269350000000000023e+01 1.477984999999999900e+02 2.169425000000000182e+03
1.079999999999999988e-01 2.031564999999999899e-01 3.188269999999999982e+01 1.471009999999999991e+02 2.169235000000000127e+03
1.089999999999999997e-01 2.031319999999999792e-01 3.111694999999999922e+01 1.464950000000000045e+02 2.169054999999999836e+03
1.100000000000000006e-01 2.031100000000000128e-01 3.040245000000000175e+01 1.459869999999999948e+02 2.168890000000000327e+03
1.110000000000000014e-01 2.030909999999999938e-01 2.974119999999999919e+01 1.455749999999999886e+02 2.168750000000000000e+03
1.120000000000000023e-01 2.030750000000000055e-01 2.913159999999999883e+01 1.452495000000000118e+02 2.168630000000000109e+03
1.130000000000000032e-01 2.030619999999999925e-01 2.856824999999999903e+01 1.449925000000000068e+02 2.168529999999999745e+03
1.140000000000000041e-01 2.030504999999999949e-01 2.804285000000000139e+01 1.447769999999999868e+02 2.168445000000000164e+03
1.150000000000000050e-01 2.030405000000000126e-01 2.754464999999999719e+01 1.445745000000000005e+02 2.168364999999999782e+03
1.160000000000000059e-01 2.030305000000000026e-01 2.706119999999999948e+01 1.443509999999999991e+02 2.168295000000000073e+03
1.170000000000000068e-01 2.030195000000000194e-01 2.657920000000000016e+01 1.440730000000000075e+02 2.168210000000000036e+03
1.180000000000000077e-01 2.030064999999999786e-01 2.608539999999999992e+01 1.437079999999999984e+02 2.168114999999999782e+03
1.190000000000000085e-01 2.029905000000000181e-01 2.556734999999999758e+01 1.432255000000000109e+02 2.167994999999999891e+03
1.200000000000000094e-01 2.029695000000000249e-01 2.501429999999999865e+01 1.426030000000000086e+02 2.167845000000000255e+03
1.209999999999999964e-01 2.029429999999999845e-01 2.441785000000000139e+01 1.418224999999999909e+02 2.167650000000000091e+03
1.219999999999999973e-01 2.029110000000000080e-01 2.377264999999999873e+01 1.408745000000000118e+02 2.167420000000000073e+03
1.229999999999999982e-01 2.028725000000000112e-01 2.307634999999999792e+01 1.397595000000000027e+02 2.167144999999999982e+03
1.239999999999999991e-01 2.028285000000000227e-01 2.233035000000000281e+01 1.384850000000000136e+02 2.166829999999999927e+03
1.250000000000000000e-01 2.027780000000000138e-01 2.153940000000000055e+01 1.370699999999999932e+02 2.166470000000000255e+03
1.260000000000000009e-01 2.027224999999999999e-01 2.071139999999999759e+01 1.355380000000000109e+02 2.166070000000000164e+03
1.270000000000000018e-01 2.026630000000000098e-01 1.985705000000000098e+01 1.339214999999999804e+02 2.165644999999999982e+03
1.280000000000000027e-01 2.026000000000000023e-01 1.898939999999999984e+01 1.322570000000000050e+02 2.165190000000000055e+03
1.290000000000000036e-01 2.025355000000000072e-01 1.812274999999999991e+01 1.305834999999999866e+02 2.164724999999999909e+03
1.300000000000000044e-01 2.024704999999999977e-01 1.727234999999999943e+01 1.289404999999999859e+02 2.164260000000000218e+03
1.310000000000000053e-01 2.024070000000000036e-01 1.645315000000000083e+01 1.273675000000000068e+02 2.163795000000000073e+03
1.320000000000000062e-01 2.023455000000000115e-01 1.567934999999999945e+01 1.258994999999999891e+02 2.163349999999999909e+03
1.330000000000000071e-01 2.022884999999999822e-01 1.496345000000000169e+01 1.245660000000000025e+02 2.162934999999999945e+03
1.340000000000000080e-01 2.022359999999999991e-01 1.431600000000000072e+01 1.233924999999999983e+02 2.162550000000000182e+03
1.350000000000000089e-01 2.021890000000000076e-01 1.374490000000000123e+01 1.223944999999999936e+02 2.162210000000000036e+03
1.360000000000000098e-01 2.021485000000000087e-01 1.325520000000000032e+01 1.215819999999999936e+02 2.161909999999999854e+03
1.370000000000000107e-01 2.021155000000000035e-01 1.284909999999999997e+01 1.209569999999999936e+02 2.161659999999999854e+03
1.380000000000000115e-01 2.020885000000000042e-01 1.252609999999999957e+01 1.205144999999999982e+02 2.161465000000000146e+03
1.390000000000000124e-01 2.020685000000000120e-01 1.228275000000000006e+01 1.202429999999999950e+02 2.161315000000000055e+03
1.400000000000000133e-01 2.020554999999999990e-01 1.211370000000000147e+01 1.201264999999999930e+02 2.161215000000000146e+03
1.410000000000000142e-01 2.020480000000000054e-01 1.201130000000000031e+01 1.201454999999999984e+02 2.161150000000000091e+03
1.420000000000000151e-01 2.020460000000000034e-01 1.196675000000000111e+01 1.202764999999999986e+02 2.161130000000000109e+03
1.430000000000000160e-01 2.020480000000000054e-01 1.197005000000000052e+01 1.204944999999999879e+02 2.161140000000000327e+03
1.440000000000000169e-01 2.020534999999999970e-01 1.201085000000000136e+01 1.207759999999999962e+02 2.161175000000000182e+03
1.450000000000000178e-01 2.020615000000000050e-01 1.207859999999999978e+01 1.210949999999999989e+02 2.161230000000000018e+03
1.459999999999999909e-01 2.020715000000000150e-01 1.216300000000000026e+01 1.214310000000000116e+02 2.161295000000000073e+03
1.469999999999999918e-01 2.020819999999999839e-01 1.225469999999999970e+01 1.217640000000000100e+02 2.161369999999999891e+03
1.479999999999999927e-01 2.020929999999999949e-01 1.234509999999999863e+01 1.220750000000000028e+02 2.161449999999999818e+03
1.489999999999999936e-01 2.021034999999999915e-01 1.242680000000000007e+01 1.223509999999999991e+02 2.161525000000000091e+03
1.499999999999999944e-01 2.021129999999999871e-01 1.249404999999999966e+01 1.225819999999999936e+02 2.161590000000000146e+03
1.509999999999999953e-01 2.021209999999999951e-01 1.254224999999999923e+01 1.227599999999999909e+02 2.161644999999999982e+03
1.519999999999999962e-01 2.021275000000000155e-01 1.256864999999999988e+01 1.228824999999999932e+02 2.161694999999999709e+03
1.529999999999999971e-01 2.021320000000000061e-01 1.257189999999999941e+01 1.229500000000000028e+02 2.161729999999999563e+03
1.539999999999999980e-01 2.021344999999999947e-01 1.255194999999999972e+01 1.229639999999999986e+02 2.161750000000000000e+03
1.549999999999999989e-01 2.021355000000000235e-01 1.251030000000000086e+01 1.229325000000000045e+02 2.161755000000000109e+03
1.559999999999999998e-01 2.021344999999999947e-01 1.244935000000000080e+01 1.228619999999999948e+02 2.161755000000000109e+03
1.570000000000000007e-01 2.021320000000000061e-01 1.237235000000000085e+01 1.227624999999999886e+02 2.161734999999999673e+03
1.580000000000000016e-01 2.021290000000000031e-01 1.228314999999999912e+01 1.226444999999999936e+02 2.161715000000000146e+03
1.590000000000000024e-01 2.021249999999999991e-01 1.218590000000000018e+01 1.225175000000000125e+02 2.161690000000000055e+03
