# t [s], A [cm^2], U [cm/s], P [cPa], c [cm/s]
1.000000000000000021e-03 7.557730000000000281e-01 5.741999999999997106e-03 1.076185000000000116e+02 1.747905000000000200e+03
2.000000000000000042e-03 7.557705000000000117e-01 1.652810000000000390e-02 1.075935000000000059e+02 1.747894999999999982e+03
3.000000000000000062e-03 7.558689999999999021e-01 1.886940000000000006e-01 1.077949999999999875e+02 1.747940000000000055e+03
4.000000000000000083e-03 7.558804999999999552e-01 2.421360000000000179e-01 1.078354999999999961e+02 1.747954999999999927e+03
5.000000000000000104e-03 7.557679999999999954e-01 9.767349999999996868e-02 1.075084999999999980e+02 1.747884999999999991e+03
6.000000000000000125e-03 7.556589999999999696e-01 -5.907499999999998863e-02 1.070335000000000036e+02 1.747779999999999973e+03
7.000000000000000146e-03 7.554935000000000400e-01 -3.281499999999999417e-01 1.063225000000000051e+02 1.747619999999999891e+03
8.000000000000000167e-03 7.552090000000000192e-01 -8.191549999999998555e-01 1.051825000000000045e+02 1.747369999999999891e+03
9.000000000000001055e-03 7.548200000000000465e-01 -1.498364999999999947e+00 1.035823499999999910e+02 1.747014999999999873e+03
1.000000000000000194e-02 7.542889999999999873e-01 -2.399855000000000071e+00 1.014115500000000054e+02 1.746525000000000091e+03
1.099999999999999936e-02 7.535950000000000149e-01 -3.522810000000000219e+00 9.858905000000000030e+01 1.745875000000000000e+03
1.200000000000000025e-02 7.528380000000000072e-01 -4.658714999999999939e+00 9.533969999999999345e+01 1.745105000000000018e+03
1.300000000000000114e-02 7.521854999999999514e-01 -5.469740999999999964e+00 9.216719999999999402e+01 1.744329999999999927e+03
1.400000000000000203e-02 7.517495000000000704e-01 -5.710690000000000488e+00 8.955154999999999177e+01 1.743630000000000109e+03
1.499999999999999944e-02 7.515255000000000685e-01 -5.353105000000000224e+00 8.769274999999998954e+01 1.743085000000000036e+03
1.600000000000000033e-02 7.514140000000000263e-01 -4.563954999999999984e+00 8.645584999999999809e+01 1.742664999999999964e+03
1.700000000000000122e-02 7.512809999999999766e-01 -3.603550000000000253e+00 8.547724999999999795e+01 1.742309999999999945e+03
1.800000000000000211e-02 7.510224999999999262e-01 -2.704272000000000009e+00 8.434929999999999950e+01 1.741940000000000055e+03
1.900000000000000300e-02 7.506029999999999092e-01 -1.976944999999999952e+00 8.280395000000000039e+01 1.741490000000000009e+03
2.000000000000000042e-02 7.500624999999999654e-01 -1.388274999999999926e+00 8.080809999999999604e+01 1.740949999999999818e+03
2.100000000000000130e-02 7.494830000000000103e-01 -8.185699999999997978e-01 7.852580000000000382e+01 1.740340000000000146e+03
2.200000000000000219e-02 7.489335000000000298e-01 -1.559749999999997527e-01 7.618715000000000259e+01 1.739704999999999927e+03
2.299999999999999961e-02 7.484394999999999243e-01 6.304249999999997911e-01 7.395125000000000171e+01 1.739090000000000146e+03
2.400000000000000050e-02 7.479729999999999990e-01 1.466005000000000003e+00 7.182554999999999268e+01 1.738490000000000009e+03
2.500000000000000139e-02 7.474665000000000337e-01 2.191119999999999735e+00 6.965674999999998818e+01 1.737875000000000000e+03
2.600000000000000228e-02 7.468369999999999731e-01 2.610735000000000028e+00 6.718330000000000268e+01 1.737204999999999927e+03
2.700000000000000316e-02 7.460175000000000001e-01 2.556490000000000151e+00 6.412730000000000530e+01 1.736414999999999964e+03
2.800000000000000058e-02 7.449794999999999057e-01 1.943130000000000024e+00 6.029935000000000400e+01 1.735460000000000036e+03
2.900000000000000147e-02 7.437499999999999112e-01 7.996500000000006381e-01 5.567830000000000013e+01 1.734329999999999927e+03
3.000000000000000236e-02 7.424020000000000064e-01 -7.366000000000001435e-01 5.043699999999999761e+01 1.733045000000000073e+03
3.099999999999999978e-02 7.410400000000000320e-01 -2.459095000000000475e+00 4.490670000000000073e+01 1.731679999999999836e+03
3.200000000000000067e-02 7.397700000000000387e-01 -4.143444999999999823e+00 3.950159999999999627e+01 1.730320000000000164e+03
3.300000000000000155e-02 7.386839999999998962e-01 -5.592409999999999215e+00 3.463575000000000159e+01 1.729059999999999945e+03
3.400000000000000244e-02 7.378450000000000841e-01 -6.662335000000000562e+00 3.065565000000000140e+01 1.727980000000000018e+03
3.500000000000000333e-02 7.372860000000001079e-01 -7.271510000000000140e+00 2.779960000000000164e+01 1.727150000000000091e+03
3.600000000000000422e-02 7.370145000000000168e-01 -7.393250000000000099e+00 2.618609999999999971e+01 1.726599999999999909e+03
3.700000000000000511e-02 7.370170000000000332e-01 -7.040375000000000050e+00 2.582565000000000310e+01 1.726365000000000009e+03
3.799999999999999906e-02 7.372700000000000919e-01 -6.246855000000000047e+00 2.664965000000000117e+01 1.726420000000000073e+03
3.899999999999999994e-02 7.377460000000000129e-01 -5.052163500000000695e+00 2.854350000000000165e+01 1.726760000000000218e+03
4.000000000000000083e-02 7.384180000000000188e-01 -3.492645000000000444e+00 3.137635000000000218e+01 1.727349999999999909e+03
4.100000000000000172e-02 7.392624999999999336e-01 -1.600900000000000212e+00 3.501780000000000115e+01 1.728159999999999854e+03
4.200000000000000261e-02 7.402539999999999676e-01 5.882100000000001216e-01 3.934159999999999968e+01 1.729164999999999964e+03
4.300000000000000350e-02 7.413665000000000393e-01 3.030170000000000030e+00 4.422050000000000125e+01 1.730324999999999818e+03
4.400000000000000439e-02 7.425680000000000058e-01 5.665354999999999919e+00 4.951845000000000141e+01 1.731615000000000009e+03
4.499999999999999833e-02 7.438219999999999832e-01 8.418664999999998955e+00 5.508629999999999427e+01 1.732990000000000009e+03
4.599999999999999922e-02 7.450894999999999602e-01 1.120410949999999950e+01 6.076444999999999652e+01 1.734414999999999964e+03
4.700000000000000011e-02 7.463319999999999954e-01 1.393272999999999939e+01 6.639130000000000109e+01 1.735849999999999909e+03
4.800000000000000100e-02 7.475160000000000693e-01 1.652197999999999922e+01 7.181659999999999400e+01 1.737265000000000100e+03
4.900000000000000189e-02 7.486159999999999481e-01 1.890384999999999849e+01 7.691429999999999723e+01 1.738615000000000009e+03
5.000000000000000278e-02 7.496160000000000601e-01 2.103059999999999974e+01 8.159414999999999907e+01 1.739884999999999991e+03
5.100000000000000366e-02 7.505109999999999282e-01 2.287640000000000029e+01 8.580719999999999459e+01 1.741045000000000073e+03
5.200000000000000455e-02 7.513039999999999718e-01 2.443674999999999997e+01 8.954765000000000441e+01 1.742099999999999909e+03
5.300000000000000544e-02 7.520069999999999810e-01 2.572465000000000046e+01 9.284470000000000312e+01 1.743045000000000073e+03
5.399999999999999939e-02 7.526355000000000128e-01 2.676624999999999943e+01 9.575874999999999204e+01 1.743900000000000091e+03
5.500000000000000028e-02 7.532090000000000174e-01 2.759669999999999845e+01 9.836959999999999127e+01 1.744670000000000073e+03
5.600000000000000117e-02 7.537480000000000846e-01 2.825625000000000142e+01 1.007677000000000049e+02 1.745380000000000109e+03
5.700000000000000205e-02 7.542729999999999713e-01 2.878835000000000122e+01 1.030480000000000018e+02 1.746049999999999955e+03
5.800000000000000294e-02 7.548030000000000017e-01 2.923720000000000141e+01 1.053029999999999973e+02 1.746710000000000036e+03
5.900000000000000383e-02 7.553570000000000562e-01 2.964614999999999867e+01 1.076200000000000045e+02 1.747369999999999891e+03
6.000000000000000472e-02 7.559489999999999821e-01 3.005525000000000091e+01 1.100720000000000027e+02 1.748049999999999955e+03
6.099999999999999867e-02 7.565919999999999312e-01 3.049860000000000326e+01 1.127180000000000035e+02 1.748780000000000200e+03
6.199999999999999956e-02 7.572920000000000762e-01 3.100114999999999910e+01 1.155960000000000036e+02 1.749554999999999836e+03
6.300000000000000044e-02 7.580485000000000140e-01 3.157609999999999673e+01 1.187185000000000059e+02 1.750384999999999991e+03
6.400000000000000133e-02 7.588565000000000449e-01 3.222330000000000183e+01 1.220685000000000002e+02 1.751269999999999982e+03
6.500000000000000222e-02 7.597019999999999884e-01 3.292905000000000371e+01 1.256025000000000063e+02 1.752210000000000036e+03
6.600000000000000311e-02 7.605675000000000630e-01 3.366740000000000066e+01 1.292515000000000214e+02 1.753170000000000073e+03
6.700000000000000400e-02 7.614300000000000512e-01 3.440299999999999869e+01 1.329250000000000114e+02 1.754150000000000091e+03
6.800000000000000488e-02 7.622649999999999704e-01 3.509475000000000477e+01 1.365219999999999914e+02 1.755115000000000009e+03
6.900000000000000577e-02 7.630490000000000883e-01 3.569979999999999620e+01 1.399350000000000023e+02 1.756045000000000073e+03
7.000000000000000666e-02 7.637594999999999246e-01 3.617709999999999582e+01 1.430629999999999882e+02 1.756910000000000082e+03
7.100000000000000755e-02 7.643780000000000019e-01 3.649110000000000298e+01 1.458164999999999907e+02 1.757690000000000055e+03
7.200000000000000844e-02 7.648905000000000287e-01 3.661410000000000053e+01 1.481250000000000000e+02 1.758355000000000018e+03
7.300000000000000933e-02 7.652879999999999683e-01 3.652779999999999916e+01 1.499395000000000095e+02 1.758909999999999854e+03
7.399999999999999634e-02 7.655674999999999564e-01 3.622440000000000282e+01 1.512379999999999995e+02 1.759329999999999927e+03
7.499999999999999722e-02 7.657325000000000381e-01 3.570629999999999882e+01 1.520210000000000150e+02 1.759619999999999891e+03
7.599999999999999811e-02 7.657895000000000119e-01 3.498569999999999425e+01 1.523149999999999977e+02 1.759779999999999973e+03
7.699999999999999900e-02 7.657505000000000006e-01 3.408379999999999654e+01 1.521665000000000134e+02 1.759820000000000164e+03
7.799999999999999989e-02 7.656309999999999505e-01 3.302859999999999729e+01 1.516374999999999886e+02 1.759755000000000109e+03
7.900000000000000078e-02 7.654484999999999761e-01 3.185395000000000110e+01 1.508040000000000020e+02 1.759605000000000018e+03
8.000000000000000167e-02 7.652209999999999290e-01 3.059705000000000297e+01 1.497475000000000023e+02 1.759385000000000218e+03
8.100000000000000255e-02 7.649684999999999402e-01 2.929660000000000153e+01 1.485550000000000068e+02 1.759115000000000009e+03
8.200000000000000344e-02 7.647079999999999433e-01 2.799074999999999847e+01 1.473079999999999927e+02 1.758820000000000164e+03
8.300000000000000433e-02 7.644569999999999421e-01 2.671490000000000009e+01 1.460840000000000032e+02 1.758509999999999991e+03
8.400000000000000522e-02 7.642290000000000472e-01 2.550029999999999930e+01 1.449490000000000123e+02 1.758224999999999909e+03
8.500000000000000611e-02 7.640344999999999498e-01 2.437205000000000155e+01 1.439569999999999936e+02 1.757960000000000036e+03
8.600000000000000699e-02 7.638819999999999499e-01 2.334839999999999804e+01 1.431444999999999936e+02 1.757730000000000018e+03
8.700000000000000788e-02 7.637734999999999941e-01 2.244014999999999915e+01 1.425339999999999918e+02 1.757554999999999836e+03
8.800000000000000877e-02 7.637095000000000411e-01 2.165044999999999931e+01 1.421304999999999836e+02 1.757420000000000073e+03
8.899999999999999578e-02 7.636870000000000047e-01 2.097510000000000119e+01 1.419234999999999900e+02 1.757335000000000036e+03
8.999999999999999667e-02 7.636990000000000167e-01 2.040334999999999965e+01 1.418909999999999911e+02 1.757295000000000073e+03
9.099999999999999756e-02 7.637380000000000280e-01 1.991890000000000072e+01 1.419960000000000093e+02 1.757295000000000073e+03
9.199999999999999845e-02 7.637920000000000265e-01 1.950110000000000099e+01 1.421959999999999980e+02 1.757320000000000164e+03
9.299999999999999933e-02 7.638515000000000166e-01 1.912615000000000265e+01 1.424415000000000191e+02 1.757365000000000009e+03
9.400000000000000022e-02 7.639034999999999576e-01 1.876890000000000214e+01 1.426800000000000068e+02 1.757410000000000082e+03
9.500000000000000111e-02 7.639380000000000059e-01 1.840415000000000134e+01 1.428614999999999782e+02 1.757450000000000045e+03
9.600000000000000200e-02 7.639434999999999976e-01 1.800839999999999819e+01 1.429385000000000048e+02 1.757460000000000036e+03
9.700000000000000289e-02 7.639124999999999943e-01 1.756109999999999971e+01 1.428704999999999927e+02 1.757444999999999936e+03
9.800000000000000377e-02 7.638395000000000046e-01 1.704599999999999937e+01 1.426259999999999764e+02 1.757394999999999982e+03
9.900000000000000466e-02 7.637205000000000243e-01 1.645214999999999961e+01 1.421854999999999905e+02 1.757289999999999964e+03
1.000000000000000056e-01 7.635540000000000660e-01 1.577444999999999986e+01 1.415420000000000016e+02 1.757139999999999873e+03
1.010000000000000064e-01 7.633440000000000225e-01 1.501410000000000089e+01 1.406984999999999957e+02 1.756934999999999945e+03
1.020000000000000073e-01 7.630954999999999266e-01 1.417846499999999921e+01 1.396744999999999948e+02 1.756695000000000164e+03
1.030000000000000082e-01 7.628155000000000907e-01 1.328045000000000009e+01 1.384985000000000070e+02 1.756400000000000091e+03
1.040000000000000091e-01 7.625135000000000662e-01 1.233795500000000089e+01 1.372099999999999795e+02 1.756079999999999927e+03
1.050000000000000100e-01 7.622010000000000174e-01 1.137267499999999920e+01 1.358545000000000016e+02 1.755740000000000009e+03
1.059999999999999970e-01 7.618899999999999562e-01 1.040874999999999950e+01 1.344834999999999923e+02 1.755390000000000100e+03
1.069999999999999979e-01 7.615920000000000467e-01 9.471399999999999153e+00 1.331499999999999773e+02 1.755039999999999964e+03
1.079999999999999988e-01 7.613185000000000091e-01 8.585399999999999920e+00 1.319050000000000011e+02 1.754704999999999927e+03
1.089999999999999997e-01 7.610795000000000199e-01 7.773539999999999672e+00 1.307955000000000041e+02 1.754405000000000200e+03
1.100000000000000006e-01 7.608840000000000048e-01 7.055334999999999468e+00 1.298600000000000136e+02 1.754139999999999873e+03
1.110000000000000014e-01 7.607369999999999965e-01 6.445945000000000036e+00 1.291299999999999955e+02 1.753924999999999955e+03
1.120000000000000023e-01 7.606414999999999704e-01 5.955339999999999634e+00 1.286225000000000023e+02 1.753764999999999873e+03
1.130000000000000032e-01 7.605984999999999552e-01 5.587959999999999816e+00 1.283464999999999918e+02 1.753659999999999854e+03
1.140000000000000041e-01 7.606049999999999756e-01 5.342654999999999710e+00 1.282955000000000041e+02 1.753614999999999782e+03
1.150000000000000050e-01 7.606580000000000563e-01 5.212960000000000704e+00 1.284560000000000173e+02 1.753619999999999891e+03
1.160000000000000059e-01 7.607494999999999674e-01 5.187760000000000815e+00 1.288009999999999877e+02 1.753675000000000182e+03
1.170000000000000068e-01 7.608725000000000627e-01 5.252079999999999416e+00 1.292984999999999900e+02 1.753775000000000091e+03
1.180000000000000077e-01 7.610170000000000545e-01 5.388080000000000425e+00 1.299099999999999966e+02 1.753909999999999854e+03
1.190000000000000085e-01 7.611755000000000049e-01 5.576134999999999842e+00 1.305949999999999989e+02 1.754059999999999945e+03
1.200000000000000094e-01 7.613365000000000826e-01 5.795875000000000554e+00 1.313125000000000000e+02 1.754234999999999900e+03
1.209999999999999964e-01 7.614924999999999056e-01 6.027224999999999611e+00 1.320210000000000150e+02 1.754404999999999973e+03
1.219999999999999973e-01 7.616354999999999098e-01 6.251335000000000086e+00 1.326854999999999905e+02 1.754575000000000045e+03
1.229999999999999982e-01 7.617595000000000338e-01 6.451354999999999507e+00 1.332735000000000127e+02 1.754730000000000018e+03
1.239999999999999991e-01 7.618580000000000352e-01 6.613075000000000259e+00 1.337605000000000075e+02 1.754859999999999900e+03
1.250000000000000000e-01 7.619290000000000784e-01 6.725374999999999659e+00 1.341290000000000191e+02 1.754964999999999918e+03
1.260000000000000009e-01 7.619700000000000362e-01 6.780524999999999913e+00 1.343659999999999854e+02 1.755039999999999964e+03
1.270000000000000018e-01 7.619810000000000194e-01 6.774239999999999817e+00 1.344695000000000107e+02 1.755079999999999927e+03
1.280000000000000027e-01 7.619635000000000158e-01 6.705674999999999386e+00 1.344415000000000191e+02 1.755090000000000146e+03
1.290000000000000036e-01 7.619194999999999718e-01 6.577175000000000438e+00 1.342909999999999968e+02 1.755069999999999936e+03
1.300000000000000044e-01 7.618519999999999737e-01 6.393955000000000055e+00 1.340319999999999823e+02 1.755019999999999982e+03
1.310000000000000053e-01 7.617674999999999308e-01 6.163600000000000634e+00 1.336825000000000045e+02 1.754945000000000164e+03
1.320000000000000062e-01 7.616690000000000405e-01 5.895580000000000709e+00 1.332640000000000100e+02 1.754855000000000018e+03
1.330000000000000071e-01 7.615619999999999612e-01 5.600609999999999644e+00 1.327984999999999900e+02 1.754740000000000009e+03
1.340000000000000080e-01 7.614520000000000177e-01 5.290020000000000167e+00 1.323079999999999927e+02 1.754625000000000000e+03
1.350000000000000089e-01 7.613434999999999508e-01 4.975094999999999601e+00 1.318154999999999859e+02 1.754500000000000000e+03
1.360000000000000098e-01 7.612404999999999866e-01 4.666475000000000151e+00 1.313389999999999986e+02 1.754380000000000109e+03
1.370000000000000107e-01 7.611470000000000180e-01 4.373594999999999899e+00 1.308965000000000032e+02 1.754264999999999873e+03
1.380000000000000115e-01 7.610649999999999915e-01 4.104235000000000078e+00 1.305000000000000000e+02 1.754159999999999854e+03
1.390000000000000124e-01 7.609949999999999770e-01 3.864184999999999981e+00 1.301574999999999989e+02 1.754065000000000055e+03
1.400000000000000133e-01 7.609390000000000320e-01 3.657065000000000232e+00 1.298734999999999786e+02 1.753985000000000127e+03
1.410000000000000142e-01 7.608960000000000168e-01 3.484304999999999986e+00 1.296460000000000150e+02 1.753920000000000073e+03
1.420000000000000151e-01 7.608635000000000259e-01 3.345229999999999926e+00 1.294714999999999918e+02 1.753860000000000127e+03
1.430000000000000160e-01 7.608399999999999608e-01 3.237284999999999968e+00 1.293410000000000082e+02 1.753820000000000164e+03
1.440000000000000169e-01 7.608230000000000270e-01 3.156410000000000160e+00 1.292445000000000164e+02 1.753785000000000082e+03
1.450000000000000178e-01 7.608090000000000686e-01 3.097380000000000244e+00 1.291670000000000016e+02 1.753759999999999991e+03
1.459999999999999909e-01 7.607949999999999990e-01 3.054275000000000073e+00 1.290975000000000250e+02 1.753735000000000127e+03
1.469999999999999918e-01 7.607779999999999543e-01 3.020909999999999762e+00 1.290204999999999984e+02 1.753704999999999927e+03
1.479999999999999927e-01 7.607549999999999590e-01 2.991209999999999702e+00 1.289250000000000114e+02 1.753680000000000064e+03
1.489999999999999936e-01 7.607245000000000257e-01 2.959629999999999761e+00 1.288000000000000114e+02 1.753644999999999982e+03
1.499999999999999944e-01 7.606839999999999158e-01 2.921415000000000095e+00 1.286365000000000123e+02 1.753599999999999909e+03
1.509999999999999953e-01 7.606330000000000036e-01 2.872874999999999623e+00 1.284300000000000068e+02 1.753545000000000073e+03
1.519999999999999962e-01 7.605710000000001081e-01 2.811544999999999739e+00 1.281769999999999925e+02 1.753480000000000018e+03
1.529999999999999971e-01 7.604990000000000361e-01 2.736295000000000144e+00 1.278789999999999907e+02 1.753404999999999973e+03
1.539999999999999980e-01 7.604174999999999685e-01 2.647364999999999746e+00 1.275389999999999873e+02 1.753320000000000164e+03
1.549999999999999989e-01 7.603280000000000038e-01 2.546304999999999819e+00 1.271639999999999873e+02 1.753219999999999800e+03
1.559999999999999998e-01 7.602330000000000476e-01 2.435894999999999921e+00 1.267620000000000005e+02 1.753119999999999891e+03
1.570000000000000007e-01 7.601354999999999640e-01 2.319976000000000038e+00 1.263439999999999941e+02 1.753009999999999991e+03
1.580000000000000016e-01 7.600379999999999914e-01 2.203205000000000080e+00 1.259230000000000018e+02 1.752900000000000091e+03
1.590000000000000024e-01 7.599430000000000351e-01 2.090826999999999991e+00 1.255109999999999957e+02 1.752789999999999964e+03
