# t [s], A [cm^2], U [cm/s], P [cPa], c [cm/s]
1.000000000000000021e-03 5.712714999999999321e-01 3.565700000000004977e-03 1.074569999999999936e+02 1.391434999999999945e+03
2.000000000000000042e-03 5.712639999999999940e-01 1.084237500000000002e-03 1.074440000000000026e+02 1.391429999999999836e+03
3.000000000000000062e-03 5.712874999999999481e-01 3.664150000000000740e-02 1.074745000000000061e+02 1.391440000000000055e+03
4.000000000000000083e-03 5.713384999999999714e-01 1.142427000000000026e-01 1.075645000000000095e+02 1.391470000000000027e+03
5.000000000000000104e-03 5.713584999999999914e-01 1.475216300000000147e-01 1.076094999999999970e+02 1.391485000000000127e+03
6.000000000000000125e-03 5.713354999999999961e-01 1.133133850000000026e-01 1.075585000000000093e+02 1.391480000000000018e+03
7.000000000000000146e-03 5.712964999999999849e-01 5.178649999999998532e-02 1.074364999999999952e+02 1.391449999999999818e+03
8.000000000000000167e-03 5.712595000000000312e-01 -7.535999999999987153e-03 1.072760000000000105e+02 1.391414999999999964e+03
9.000000000000001055e-03 5.712079999999999380e-01 -9.634950000000003234e-02 1.070529999999999973e+02 1.391355000000000018e+03
1.000000000000000194e-02 5.711209999999999898e-01 -2.499740000000000295e-01 1.067204999999999870e+02 1.391275000000000091e+03
1.099999999999999936e-02 5.709929999999999728e-01 -4.776949999999999807e-01 1.062494999999999976e+02 1.391159999999999854e+03
1.200000000000000025e-02 5.708170000000000188e-01 -7.849950000000001094e-01 1.056129999999999995e+02 1.390994999999999891e+03
1.300000000000000114e-02 5.705824999999999925e-01 -1.179654999999999898e+00 1.047779999999999916e+02 1.390779999999999973e+03
1.400000000000000203e-02 5.702880000000000171e-01 -1.651835000000000164e+00 1.037309999999999945e+02 1.390505000000000109e+03
1.499999999999999944e-02 5.699494999999999978e-01 -2.158729999999999816e+00 1.024965499999999992e+02 1.390170000000000073e+03
1.600000000000000033e-02 5.695964999999999501e-01 -2.631794999999999884e+00 1.011392500000000041e+02 1.389784999999999854e+03
1.700000000000000122e-02 5.692585000000000006e-01 -2.999635000000000051e+00 9.974209999999999354e+01 1.389380000000000109e+03
1.800000000000000211e-02 5.689560000000000173e-01 -3.209975000000000023e+00 9.838259999999999650e+01 1.388974999999999909e+03
1.900000000000000300e-02 5.686930000000000041e-01 -3.240663999999999767e+00 9.710880000000000223e+01 1.388569999999999936e+03
2.000000000000000042e-02 5.684620000000000228e-01 -3.098959999999999937e+00 9.593574999999999875e+01 1.388184999999999945e+03
2.100000000000000130e-02 5.682469999999999466e-01 -2.813283999999999896e+00 9.484815000000000396e+01 1.387809999999999945e+03
2.200000000000000219e-02 5.680300000000000349e-01 -2.421915000000000262e+00 9.381080000000000041e+01 1.387440000000000055e+03
2.299999999999999961e-02 5.677944999999999798e-01 -1.962059999999999915e+00 9.278170000000000073e+01 1.387074999999999818e+03
2.400000000000000050e-02 5.675314999999999666e-01 -1.461509999999999865e+00 9.172435000000000116e+01 1.386695000000000164e+03
2.500000000000000139e-02 5.672399999999999665e-01 -9.344349999999996825e-01 9.061655000000000371e+01 1.386304999999999836e+03
2.600000000000000228e-02 5.669235000000000246e-01 -3.818799999999997752e-01 8.945400000000000773e+01 1.385900000000000091e+03
2.700000000000000316e-02 5.665924999999999434e-01 2.035800000000000942e-01 8.824764999999999304e+01 1.385474999999999909e+03
2.800000000000000058e-02 5.662555000000000227e-01 8.310200000000000919e-01 8.701720000000000255e+01 1.385045000000000073e+03
2.900000000000000147e-02 5.659189999999999499e-01 1.504414999999999836e+00 8.578244999999999720e+01 1.384610000000000127e+03
3.000000000000000236e-02 5.655850000000000044e-01 2.218065000000000175e+00 8.455610000000000070e+01 1.384179999999999836e+03
3.099999999999999978e-02 5.652515000000000178e-01 2.954874999999999474e+00 8.333865000000000123e+01 1.383744999999999891e+03
3.200000000000000067e-02 5.649089999999999945e-01 3.687759999999999927e+00 8.211730000000000018e+01 1.383315000000000055e+03
3.300000000000000155e-02 5.645480000000000498e-01 4.383335000000000647e+00 8.086820000000000164e+01 1.382869999999999891e+03
3.400000000000000244e-02 5.641579999999999373e-01 5.007055000000000256e+00 7.956129999999998859e+01 1.382414999999999964e+03
3.500000000000000333e-02 5.637305000000000232e-01 5.528639999999999333e+00 7.816689999999999827e+01 1.381940000000000055e+03
3.600000000000000422e-02 5.632615000000000816e-01 5.927179999999999893e+00 7.666245000000000687e+01 1.381440000000000055e+03
3.700000000000000511e-02 5.627519999999999190e-01 6.194190000000000751e+00 7.503864999999998986e+01 1.380909999999999854e+03
3.799999999999999906e-02 5.622080000000000410e-01 6.334979999999999833e+00 7.330280000000000484e+01 1.380355000000000018e+03
3.899999999999999994e-02 5.616434999999999622e-01 6.367599999999999483e+00 7.147999999999998977e+01 1.379769999999999982e+03
4.000000000000000083e-02 5.610729999999999329e-01 6.319675000000000153e+00 6.961064999999999259e+01 1.379174999999999955e+03
4.100000000000000172e-02 5.605139999999999567e-01 6.224444999999999339e+00 6.774684999999999491e+01 1.378579999999999927e+03
4.200000000000000261e-02 5.599844999999999962e-01 6.116545000000000343e+00 6.594615000000000293e+01 1.378000000000000000e+03
4.300000000000000350e-02 5.595004999999999562e-01 6.028169999999999362e+00 6.426659999999999684e+01 1.377450000000000045e+03
4.400000000000000439e-02 5.590745000000000298e-01 5.986925000000000274e+00 6.276189999999999714e+01 1.376950000000000045e+03
4.499999999999999833e-02 5.587165000000000603e-01 6.014265499999999598e+00 6.147764999999999702e+01 1.376509999999999991e+03
4.599999999999999922e-02 5.584335000000000271e-01 6.125633999999999801e+00 6.044974999999999454e+01 1.376134999999999991e+03
4.700000000000000011e-02 5.582305000000000739e-01 6.331319999999999837e+00 5.970404999999999518e+01 1.375849999999999909e+03
4.800000000000000100e-02 5.581085000000000074e-01 6.637544999999999362e+00 5.925670000000000215e+01 1.375644999999999982e+03
4.900000000000000189e-02 5.580684999999999674e-01 7.048169999999999824e+00 5.911610000000000298e+01 1.375535000000000082e+03
5.000000000000000278e-02 5.581104999999999539e-01 7.565799999999999415e+00 5.928435000000000343e+01 1.375525000000000091e+03
5.100000000000000366e-02 5.582350000000000367e-01 8.192714999999999748e+00 5.975964999999999350e+01 1.375599999999999909e+03
5.200000000000000455e-02 5.584394999999999776e-01 8.931200000000000472e+00 6.053695000000000448e+01 1.375780000000000200e+03
5.300000000000000544e-02 5.587235000000000396e-01 9.783260000000000289e+00 6.160945000000000249e+01 1.376049999999999955e+03
5.399999999999999939e-02 5.590850000000000541e-01 1.075031500000000051e+01 6.296835000000000093e+01 1.376410000000000082e+03
5.500000000000000028e-02 5.595210000000000461e-01 1.183202499999999979e+01 6.460304999999999609e+01 1.376865000000000009e+03
5.600000000000000117e-02 5.600300000000000278e-01 1.302588000000000079e+01 6.650045000000000073e+01 1.377400000000000091e+03
5.700000000000000205e-02 5.606050000000000200e-01 1.432640499999999939e+01 6.864409999999999457e+01 1.378019999999999982e+03
5.800000000000000294e-02 5.612420000000000186e-01 1.572489999999999988e+01 7.101439999999999486e+01 1.378715000000000146e+03
5.900000000000000383e-02 5.619330000000000158e-01 1.720947999999999922e+01 7.358795000000000641e+01 1.379480000000000018e+03
6.000000000000000472e-02 5.626700000000000035e-01 1.876569999999999894e+01 7.633825000000000216e+01 1.380304999999999836e+03
6.099999999999999867e-02 5.634455000000000435e-01 2.037679999999999936e+01 7.923615000000000919e+01 1.381190000000000055e+03
6.199999999999999956e-02 5.642500000000000293e-01 2.202515000000000001e+01 8.225075000000001069e+01 1.382115000000000009e+03
6.300000000000000044e-02 5.650749999999999940e-01 2.369245000000000090e+01 8.535110000000000241e+01 1.383075000000000045e+03
6.400000000000000133e-02 5.659119999999999706e-01 2.536120000000000019e+01 8.850614999999999100e+01 1.384065000000000055e+03
6.500000000000000222e-02 5.667545000000000499e-01 2.701500000000000057e+01 9.168750000000000000e+01 1.385075000000000045e+03
6.600000000000000311e-02 5.675959999999999894e-01 2.863954999999999984e+01 9.486984999999999957e+01 1.386095000000000027e+03
6.700000000000000400e-02 5.684310000000000196e-01 3.022245000000000203e+01 9.803034999999999854e+01 1.387110000000000127e+03
6.800000000000000488e-02 5.692554999999999144e-01 3.175390000000000157e+01 1.011522500000000093e+02 1.388130000000000109e+03
6.900000000000000577e-02 5.700665000000000315e-01 3.322644999999999982e+01 1.042204499999999996e+02 1.389140000000000100e+03
7.000000000000000666e-02 5.708630000000000093e-01 3.463479999999999848e+01 1.072269500000000022e+02 1.390135000000000218e+03
7.100000000000000755e-02 5.716434999999999711e-01 3.597554999999999836e+01 1.101658500000000060e+02 1.391114999999999782e+03
7.200000000000000844e-02 5.724080000000000279e-01 3.724710000000000321e+01 1.130344999999999942e+02 1.392079999999999927e+03
7.300000000000000933e-02 5.731574999999999864e-01 3.844899999999999807e+01 1.158340000000000032e+02 1.393025000000000091e+03
7.399999999999999634e-02 5.738925000000000276e-01 3.958185000000000286e+01 1.185674999999999955e+02 1.393950000000000045e+03
7.499999999999999722e-02 5.746134999999999993e-01 4.064670000000000272e+01 1.212374999999999829e+02 1.394860000000000127e+03
7.599999999999999811e-02 5.753224999999999589e-01 4.164509999999999934e+01 1.238495000000000061e+02 1.395759999999999991e+03
7.699999999999999900e-02 5.760199999999999765e-01 4.257849999999999824e+01 1.264080000000000013e+02 1.396634999999999991e+03
7.799999999999999989e-02 5.767059999999999409e-01 4.344809999999999661e+01 1.289170000000000016e+02 1.397494999999999891e+03
7.900000000000000078e-02 5.773814999999999920e-01 4.425464999999999804e+01 1.313779999999999859e+02 1.398349999999999909e+03
8.000000000000000167e-02 5.780465000000000186e-01 4.499855000000000160e+01 1.337924999999999898e+02 1.399184999999999945e+03
8.100000000000000255e-02 5.786994999999999223e-01 4.567945000000000277e+01 1.361595000000000084e+02 1.400005000000000109e+03
8.200000000000000344e-02 5.793405000000000360e-01 4.629635000000000389e+01 1.384764999999999873e+02 1.400804999999999836e+03
8.300000000000000433e-02 5.799664999999999404e-01 4.684770000000000323e+01 1.407384999999999877e+02 1.401590000000000146e+03
8.400000000000000522e-02 5.805755000000000221e-01 4.733159999999999457e+01 1.429395000000000095e+02 1.402360000000000127e+03
8.500000000000000611e-02 5.811669999999999892e-01 4.774559999999999604e+01 1.450715000000000146e+02 1.403110000000000127e+03
8.600000000000000699e-02 5.817364999999999897e-01 4.808724999999999739e+01 1.471260000000000048e+02 1.403835000000000036e+03
8.700000000000000788e-02 5.822825000000000362e-01 4.835410000000000252e+01 1.490944999999999823e+02 1.404529999999999973e+03
8.800000000000000877e-02 5.828014999999999723e-01 4.854384999999999906e+01 1.509660000000000082e+02 1.405200000000000045e+03
8.899999999999999578e-02 5.832924999999999915e-01 4.865474999999999994e+01 1.527330000000000041e+02 1.405835000000000036e+03
8.999999999999999667e-02 5.837529999999999664e-01 4.868550000000000466e+01 1.543859999999999957e+02 1.406434999999999945e+03
9.099999999999999756e-02 5.841800000000000326e-01 4.863544999999999874e+01 1.559184999999999945e+02 1.407000000000000000e+03
9.199999999999999845e-02 5.845730000000000093e-01 4.850464999999999804e+01 1.573240000000000123e+02 1.407514999999999873e+03
9.299999999999999933e-02 5.849315000000000486e-01 4.829415000000000191e+01 1.585995000000000061e+02 1.407994999999999891e+03
9.400000000000000022e-02 5.852539999999999409e-01 4.800554999999999950e+01 1.597409999999999854e+02 1.408434999999999945e+03
9.500000000000000111e-02 5.855405000000000193e-01 4.764135000000000275e+01 1.607479999999999905e+02 1.408825000000000045e+03
9.600000000000000200e-02 5.857919999999999794e-01 4.720494999999999663e+01 1.616220000000000141e+02 1.409174999999999955e+03
9.700000000000000289e-02 5.860090000000000021e-01 4.670029999999999859e+01 1.623650000000000091e+02 1.409480000000000018e+03
9.800000000000000377e-02 5.861920000000000464e-01 4.613219999999999743e+01 1.629819999999999993e+02 1.409740000000000009e+03
9.900000000000000466e-02 5.863435000000000175e-01 4.550589999999999691e+01 1.634770000000000039e+02 1.409960000000000036e+03
1.000000000000000056e-01 5.864644999999999442e-01 4.482719999999999771e+01 1.638590000000000089e+02 1.410139999999999873e+03
1.010000000000000064e-01 5.865580000000000238e-01 4.410240000000000293e+01 1.641345000000000027e+02 1.410284999999999854e+03
1.020000000000000073e-01 5.866255000000000219e-01 4.333814999999999884e+01 1.643129999999999882e+02 1.410394999999999982e+03
1.030000000000000082e-01 5.866704999999999837e-01 4.254129999999999967e+01 1.644044999999999845e+02 1.410465000000000146e+03
1.040000000000000091e-01 5.866945000000000077e-01 4.171864999999999668e+01 1.644180000000000064e+02 1.410515000000000100e+03
1.050000000000000100e-01 5.867010000000000280e-01 4.087725000000000364e+01 1.643645000000000209e+02 1.410534999999999854e+03
1.059999999999999970e-01 5.866915000000000324e-01 4.002370000000000516e+01 1.642535000000000025e+02 1.410534999999999854e+03
1.069999999999999979e-01 5.866700000000000248e-01 3.916455000000000553e+01 1.640964999999999918e+02 1.410509999999999991e+03
1.079999999999999988e-01 5.866384999999999517e-01 3.830564999999999998e+01 1.639014999999999986e+02 1.410474999999999909e+03
1.089999999999999997e-01 5.865985000000000227e-01 3.745250000000000057e+01 1.636790000000000020e+02 1.410425000000000182e+03
1.100000000000000006e-01 5.865519999999999623e-01 3.660970000000000368e+01 1.634345000000000141e+02 1.410365000000000009e+03
1.110000000000000014e-01 5.865025000000000377e-01 3.578115000000000379e+01 1.631765000000000043e+02 1.410289999999999964e+03
1.120000000000000023e-01 5.864489999999999981e-01 3.496985000000000099e+01 1.629099999999999966e+02 1.410214999999999918e+03
1.130000000000000032e-01 5.863935000000000120e-01 3.417775000000000318e+01 1.626399999999999864e+02 1.410134999999999991e+03
1.140000000000000041e-01 5.863359999999999683e-01 3.340605000000000047e+01 1.623679999999999950e+02 1.410049999999999955e+03
1.150000000000000050e-01 5.862775000000000070e-01 3.265474999999999994e+01 1.620955000000000155e+02 1.409960000000000036e+03
1.160000000000000059e-01 5.862174999999999470e-01 3.192320000000000135e+01 1.618235000000000241e+02 1.409875000000000000e+03
1.170000000000000068e-01 5.861549999999999816e-01 3.120980000000000132e+01 1.615494999999999948e+02 1.409779999999999973e+03
1.180000000000000077e-01 5.860899999999999999e-01 3.051234999999999786e+01 1.612715000000000032e+02 1.409684999999999945e+03
1.190000000000000085e-01 5.860210000000000141e-01 2.982820000000000249e+01 1.609864999999999782e+02 1.409590000000000146e+03
1.200000000000000094e-01 5.859469999999999956e-01 2.915409999999999968e+01 1.606904999999999859e+02 1.409494999999999891e+03
1.209999999999999964e-01 5.858674999999999855e-01 2.848675000000000068e+01 1.603785000000000025e+02 1.409389999999999873e+03
1.219999999999999973e-01 5.857805000000000373e-01 2.782265000000000299e+01 1.600464999999999804e+02 1.409275000000000091e+03
1.229999999999999982e-01 5.856859999999999289e-01 2.715834999999999866e+01 1.596899999999999977e+02 1.409154999999999973e+03
1.239999999999999991e-01 5.855814999999999770e-01 2.649069999999999681e+01 1.593040000000000020e+02 1.409029999999999973e+03
1.250000000000000000e-01 5.854675000000000296e-01 2.581674999999999898e+01 1.588854999999999791e+02 1.408894999999999982e+03
1.260000000000000009e-01 5.853420000000000289e-01 2.513410000000000011e+01 1.584319999999999879e+02 1.408744999999999891e+03
1.270000000000000018e-01 5.852060000000000040e-01 2.444084999999999752e+01 1.579404999999999859e+02 1.408585000000000036e+03
1.280000000000000027e-01 5.850589999999999957e-01 2.373559999999999803e+01 1.574099999999999966e+02 1.408414999999999964e+03
1.290000000000000036e-01 5.849005000000000454e-01 2.301769999999999783e+01 1.568400000000000034e+02 1.408235000000000127e+03
1.300000000000000044e-01 5.847320000000000295e-01 2.228710000000000235e+01 1.562325000000000159e+02 1.408034999999999854e+03
1.310000000000000053e-01 5.845529999999999893e-01 2.154439999999999955e+01 1.555885000000000105e+02 1.407829999999999927e+03
1.320000000000000062e-01 5.843660000000000521e-01 2.079100000000000037e+01 1.549105000000000132e+02 1.407610000000000127e+03
1.330000000000000071e-01 5.841709999999999958e-01 2.002880000000000038e+01 1.542034999999999911e+02 1.407389999999999873e+03
1.340000000000000080e-01 5.839695000000000302e-01 1.926034999999999897e+01 1.534720000000000084e+02 1.407150000000000091e+03
1.350000000000000089e-01 5.837639999999999496e-01 1.848870000000000147e+01 1.527219999999999800e+02 1.406910000000000082e+03
1.360000000000000098e-01 5.835555000000000048e-01 1.771739999999999782e+01 1.519594999999999914e+02 1.406655000000000200e+03
1.370000000000000107e-01 5.833455000000000723e-01 1.695015000000000072e+01 1.511904999999999859e+02 1.406410000000000082e+03
1.380000000000000115e-01 5.831374999999999753e-01 1.619105000000000061e+01 1.504225000000000136e+02 1.406155000000000200e+03
1.390000000000000124e-01 5.829320000000000057e-01 1.544431499999999957e+01 1.496634999999999991e+02 1.405905000000000200e+03
1.400000000000000133e-01 5.827320000000000277e-01 1.471401499999999984e+01 1.489184999999999945e+02 1.405660000000000082e+03
1.410000000000000142e-01 5.825380000000000003e-01 1.400424499999999917e+01 1.481954999999999814e+02 1.405414999999999964e+03
1.420000000000000151e-01 5.823524999999999396e-01 1.331895000000000095e+01 1.475000000000000000e+02 1.405179999999999836e+03
1.430000000000000160e-01 5.821764999999999857e-01 1.266155000000000186e+01 1.468379999999999939e+02 1.404954999999999927e+03
1.440000000000000169e-01 5.820110000000000561e-01 1.203519999999999968e+01 1.462139999999999986e+02 1.404740000000000009e+03
1.450000000000000178e-01 5.818575000000000275e-01 1.144254500000000085e+01 1.456324999999999932e+02 1.404535000000000082e+03
1.459999999999999909e-01 5.817164999999999697e-01 1.088571499999999936e+01 1.450960000000000036e+02 1.404344999999999800e+03
1.469999999999999918e-01 5.815885000000000637e-01 1.036620500000000078e+01 1.446069999999999993e+02 1.404170000000000073e+03
1.479999999999999927e-01 5.814734999999999765e-01 9.884895000000000209e+00 1.441659999999999968e+02 1.404009999999999991e+03
1.489999999999999936e-01 5.813709999999999711e-01 9.442130000000000578e+00 1.437735000000000127e+02 1.403860000000000127e+03
1.499999999999999944e-01 5.812819999999999654e-01 9.037649999999999295e+00 1.434279999999999973e+02 1.403730000000000018e+03
1.509999999999999953e-01 5.812040000000000539e-01 8.670550000000000423e+00 1.431274999999999977e+02 1.403615000000000009e+03
1.519999999999999962e-01 5.811375000000000846e-01 8.339599999999999014e+00 1.428695000000000164e+02 1.403509999999999991e+03
1.529999999999999971e-01 5.810804999999999998e-01 8.042934999999999945e+00 1.426510000000000105e+02 1.403425000000000182e+03
1.539999999999999980e-01 5.810324999999999518e-01 7.778434999999999988e+00 1.424680000000000177e+02 1.403345000000000027e+03
1.549999999999999989e-01 5.809929999999999817e-01 7.543689999999999785e+00 1.423154999999999859e+02 1.403275000000000091e+03
1.559999999999999998e-01 5.809595000000000731e-01 7.336024999999999352e+00 1.421899999999999977e+02 1.403215000000000146e+03
1.570000000000000007e-01 5.809309999999999752e-01 7.152664999999999829e+00 1.420860000000000127e+02 1.403170000000000073e+03
1.580000000000000016e-01 5.809070000000000622e-01 6.990739999999999732e+00 1.419990000000000236e+02 1.403125000000000000e+03
1.590000000000000024e-01 5.808860000000000134e-01 6.847414999999999807e+00 1.419250000000000114e+02 1.403090000000000146e+03
