# t [s], A [cm^2], U [cm/s], P [cPa], c [cm/s]
1.000000000000000021e-03 1.895100000000000118e-01 4.416373950000000437e-01 1.010544500000000028e+02 2.285800000000000182e+03
2.000000000000000042e-03 1.894414999999999849e-01 2.160370999999999597e+00 9.680250000000000909e+01 2.285234999999999673e+03
3.000000000000000062e-03 1.892849999999999810e-01 4.260553999999999952e+00 9.101724999999999000e+01 2.283975000000000364e+03
4.000000000000000083e-03 1.890875000000000195e-01 6.637734999999999275e+00 8.520969999999999800e+01 2.282414999999999964e+03
5.000000000000000104e-03 1.888910000000000033e-01 9.140620000000000189e+00 8.044724999999999682e+01 2.280864999999999782e+03
6.000000000000000125e-03 1.887070000000000136e-01 1.144570500000000024e+01 7.661189999999999145e+01 2.279449999999999818e+03
7.000000000000000146e-03 1.885384999999999978e-01 1.334620499999999943e+01 7.317764999999999986e+01 2.278180000000000291e+03
8.000000000000000167e-03 1.883910000000000029e-01 1.488749999999999929e+01 7.016980000000000928e+01 2.277079999999999927e+03
9.000000000000001055e-03 1.882685000000000053e-01 1.613074999999999903e+01 6.775249999999999773e+01 2.276184999999999945e+03
1.000000000000000194e-02 1.881705000000000183e-01 1.709714999999999918e+01 6.588710000000000377e+01 2.275475000000000364e+03
1.099999999999999936e-02 1.880944999999999978e-01 1.780774999999999864e+01 6.447364999999999213e+01 2.274930000000000291e+03
1.200000000000000025e-02 1.880350000000000077e-01 1.826429999999999865e+01 6.333785000000000309e+01 2.274515000000000327e+03
1.300000000000000114e-02 1.879854999999999998e-01 1.849840000000000018e+01 6.232039999999999935e+01 2.274175000000000182e+03
1.400000000000000203e-02 1.879480000000000040e-01 1.866280000000000072e+01 6.159994999999999976e+01 2.273925000000000182e+03
1.499999999999999944e-02 1.879345000000000043e-01 1.900300000000000011e+01 6.176604999999999990e+01 2.273840000000000146e+03
1.600000000000000033e-02 1.879609999999999892e-01 1.970134999999999792e+01 6.340859999999999985e+01 2.274034999999999854e+03
1.700000000000000122e-02 1.880320000000000047e-01 2.073924999999999841e+01 6.658634999999999593e+01 2.274560000000000400e+03
1.800000000000000211e-02 1.881364999999999843e-01 2.188925000000000054e+01 7.063519999999999754e+01 2.275324999999999818e+03
1.900000000000000300e-02 1.882504999999999873e-01 2.282880000000000109e+01 7.443319999999999936e+01 2.276175000000000182e+03
2.000000000000000042e-02 1.883440000000000114e-01 2.329335000000000022e+01 7.691155000000000541e+01 2.276890000000000327e+03
2.100000000000000130e-02 1.883964999999999945e-01 2.318499999999999872e+01 7.750970000000000937e+01 2.277315000000000055e+03
2.200000000000000219e-02 1.884025000000000005e-01 2.259309999999999974e+01 7.635559999999999548e+01 2.277390000000000327e+03
2.299999999999999961e-02 1.883700000000000097e-01 2.172735000000000127e+01 7.411754999999999427e+01 2.277180000000000291e+03
2.400000000000000050e-02 1.883174999999999988e-01 2.081000000000000227e+01 7.164000000000000057e+01 2.276800000000000182e+03
2.500000000000000139e-02 1.882624999999999993e-01 1.998275000000000290e+01 6.956589999999999918e+01 2.276389999999999873e+03
2.600000000000000228e-02 1.882149999999999934e-01 1.926814999999999856e+01 6.811825000000000330e+01 2.276034999999999854e+03
2.700000000000000316e-02 1.881764999999999965e-01 1.859120000000000061e+01 6.710604999999999620e+01 2.275744999999999891e+03
2.800000000000000058e-02 1.881410000000000027e-01 1.783990000000000009e+01 6.610790000000000077e+01 2.275480000000000018e+03
2.900000000000000147e-02 1.880979999999999874e-01 1.693410000000000082e+01 6.472589999999999577e+01 2.275164999999999964e+03
3.000000000000000236e-02 1.880435000000000023e-01 1.587555000000000049e+01 6.280275000000000318e+01 2.274765000000000327e+03
3.099999999999999978e-02 1.879770000000000052e-01 1.476174999999999926e+01 6.052149999999999608e+01 2.274279999999999745e+03
3.200000000000000067e-02 1.879084999999999783e-01 1.375835000000000008e+01 5.835590000000000543e+01 2.273769999999999982e+03
3.300000000000000155e-02 1.878520000000000190e-01 1.304315000000000069e+01 5.689700000000000557e+01 2.273345000000000255e+03
3.400000000000000244e-02 1.878219999999999890e-01 1.274370000000000047e+01 5.663030000000000541e+01 2.273105000000000018e+03
3.500000000000000333e-02 1.878279999999999950e-01 1.289325000000000010e+01 5.775379999999999825e+01 2.273125000000000000e+03
3.600000000000000422e-02 1.878704999999999958e-01 1.341910000000000025e+01 6.010110000000000241e+01 2.273414999999999964e+03
3.700000000000000511e-02 1.879419999999999980e-01 1.416270000000000095e+01 6.318449999999999989e+01 2.273930000000000291e+03
3.799999999999999906e-02 1.880275000000000141e-01 1.492020000000000124e+01 6.632824999999999704e+01 2.274550000000000182e+03
3.899999999999999994e-02 1.881085000000000118e-01 1.548974999999999902e+01 6.883754999999999313e+01 2.275150000000000091e+03
4.000000000000000083e-02 1.881670000000000009e-01 1.570969999999999978e+01 7.015059999999999718e+01 2.275595000000000255e+03
4.100000000000000172e-02 1.881904999999999828e-01 1.548195000000000121e+01 6.993520000000000891e+01 2.275784999999999854e+03
4.200000000000000261e-02 1.881700000000000039e-01 1.477769999999999939e+01 6.811764999999999759e+01 2.275650000000000091e+03
4.300000000000000350e-02 1.881049999999999944e-01 1.362725000000000009e+01 6.484905000000000541e+01 2.275190000000000055e+03
4.400000000000000439e-02 1.880000000000000004e-01 1.210246000000000066e+01 6.043245000000000289e+01 2.274425000000000182e+03
4.499999999999999833e-02 1.878624999999999878e-01 1.029621999999999993e+01 5.523799999999999955e+01 2.273420000000000073e+03
4.599999999999999922e-02 1.877024999999999944e-01 8.306149999999998812e+00 4.963115000000000521e+01 2.272239999999999782e+03
4.700000000000000011e-02 1.875300000000000022e-01 6.225050000000000416e+00 4.392879999999999541e+01 2.270960000000000036e+03
4.800000000000000100e-02 1.873524999999999774e-01 4.137556000000000012e+00 3.838510000000000133e+01 2.269645000000000437e+03
4.900000000000000189e-02 1.871789999999999843e-01 2.121570000000000178e+00 3.320009999999999906e+01 2.268355000000000018e+03
5.000000000000000278e-02 1.870149999999999868e-01 2.511400000000001409e-01 2.853930000000000078e+01 2.267130000000000109e+03
5.100000000000000366e-02 1.868664999999999909e-01 -1.401284999999999892e+00 2.455339999999999989e+01 2.266019999999999982e+03
5.200000000000000455e-02 1.867389999999999883e-01 -2.765078549999999691e+00 2.138899999999999935e+01 2.265059999999999945e+03
5.300000000000000544e-02 1.866379999999999983e-01 -3.774300000000000210e+00 1.918775000000000119e+01 2.264295000000000073e+03
5.399999999999999939e-02 1.865674999999999972e-01 -4.372709999999999653e+00 1.807564999999999955e+01 2.263750000000000000e+03
5.500000000000000028e-02 1.865319999999999756e-01 -4.519434999999999647e+00 1.814620000000000033e+01 2.263460000000000036e+03
5.600000000000000117e-02 1.865340000000000054e-01 -4.193939999999999557e+00 1.944350000000000023e+01 2.263449999999999818e+03
5.700000000000000205e-02 1.865745000000000042e-01 -3.398979999999999890e+00 2.195080000000000098e+01 2.263720000000000255e+03
5.800000000000000294e-02 1.866524999999999990e-01 -2.160991500000000176e+00 2.558639999999999759e+01 2.264269999999999982e+03
5.900000000000000383e-02 1.867659999999999876e-01 -5.279450000000001086e-01 3.020924999999999727e+01 2.265090000000000146e+03
6.000000000000000472e-02 1.869100000000000206e-01 1.434755000000000225e+00 3.563105000000000189e+01 2.266135000000000218e+03
6.099999999999999867e-02 1.870795000000000097e-01 3.649507500000000348e+00 4.163259999999999650e+01 2.267369999999999891e+03
6.199999999999999956e-02 1.872670000000000168e-01 6.032100000000000684e+00 4.798189999999999600e+01 2.268755000000000109e+03
6.300000000000000044e-02 1.874664999999999804e-01 8.497064999999999202e+00 5.445074999999999932e+01 2.270225000000000364e+03
6.400000000000000133e-02 1.876704999999999901e-01 1.096286999999999878e+01 6.082909999999999684e+01 2.271744999999999891e+03
6.500000000000000222e-02 1.878730000000000122e-01 1.335649000000000086e+01 6.693774999999999409e+01 2.273255000000000109e+03
6.600000000000000311e-02 1.880684999999999996e-01 1.561695000000000100e+01 7.263755000000000450e+01 2.274725000000000364e+03
6.700000000000000400e-02 1.882524999999999893e-01 1.769899999999999807e+01 7.783625000000000682e+01 2.276110000000000127e+03
6.800000000000000488e-02 1.884230000000000071e-01 1.957450000000000045e+01 8.249215000000000941e+01 2.277399999999999636e+03
6.900000000000000577e-02 1.885779999999999956e-01 2.123324999999999818e+01 8.661320000000000618e+01 2.278574999999999818e+03
7.000000000000000666e-02 1.887185000000000112e-01 2.268215000000000003e+01 9.025270000000000437e+01 2.279639999999999873e+03
7.100000000000000755e-02 1.888444999999999985e-01 2.394245000000000090e+01 9.349979999999999336e+01 2.280605000000000018e+03
7.200000000000000844e-02 1.889595000000000025e-01 2.504619999999999891e+01 9.646784999999999854e+01 2.281489999999999782e+03
7.300000000000000933e-02 1.890674999999999994e-01 2.603190000000000026e+01 9.927975000000000705e+01 2.282320000000000164e+03
7.399999999999999634e-02 1.891705000000000192e-01 2.694004999999999939e+01 1.020550499999999943e+02 2.283105000000000018e+03
7.499999999999999722e-02 1.892719999999999958e-01 2.780884999999999962e+01 1.048984999999999985e+02 2.283880000000000109e+03
7.599999999999999811e-02 1.893759999999999888e-01 2.867044999999999888e+01 1.078884999999999934e+02 2.284675000000000182e+03
7.699999999999999900e-02 1.894839999999999858e-01 2.954864999999999853e+01 1.110730000000000075e+02 2.285494999999999891e+03
7.799999999999999989e-02 1.895969999999999878e-01 3.045714999999999861e+01 1.144675000000000011e+02 2.286355000000000018e+03
7.900000000000000078e-02 1.897154999999999814e-01 3.139939999999999998e+01 1.180540000000000020e+02 2.287250000000000000e+03
8.000000000000000167e-02 1.898394999999999944e-01 3.236870000000000402e+01 1.217874999999999943e+02 2.288184999999999945e+03
8.100000000000000255e-02 1.899664999999999826e-01 3.334969999999999857e+01 1.255995000000000061e+02 2.289144999999999982e+03
8.200000000000000344e-02 1.900950000000000140e-01 3.431990000000000407e+01 1.294060000000000059e+02 2.290125000000000000e+03
8.300000000000000433e-02 1.902224999999999888e-01 3.525215000000000032e+01 1.331134999999999877e+02 2.291090000000000146e+03
8.400000000000000522e-02 1.903460000000000152e-01 3.611660000000000537e+01 1.366270000000000095e+02 2.292029999999999745e+03
8.500000000000000611e-02 1.904629999999999934e-01 3.688304999999999723e+01 1.398559999999999945e+02 2.292920000000000073e+03
8.600000000000000699e-02 1.905709999999999904e-01 3.752335000000000065e+01 1.427194999999999823e+02 2.293744999999999891e+03
8.700000000000000788e-02 1.906664999999999888e-01 3.801309999999999434e+01 1.451519999999999868e+02 2.294480000000000018e+03
8.800000000000000877e-02 1.907484999999999875e-01 3.833344999999999914e+01 1.471064999999999827e+02 2.295105000000000018e+03
8.899999999999999578e-02 1.908150000000000124e-01 3.847209999999999752e+01 1.485550000000000068e+02 2.295625000000000000e+03
8.999999999999999667e-02 1.908660000000000079e-01 3.842425000000000068e+01 1.494934999999999832e+02 2.296025000000000091e+03
9.099999999999999756e-02 1.909005000000000007e-01 3.819284999999999997e+01 1.499379999999999882e+02 2.296300000000000182e+03
9.199999999999999845e-02 1.909195000000000197e-01 3.778825000000000500e+01 1.499230000000000018e+02 2.296454999999999927e+03
9.299999999999999933e-02 1.909239999999999826e-01 3.722740000000000293e+01 1.495015000000000214e+02 2.296500000000000000e+03
9.400000000000000022e-02 1.909150000000000014e-01 3.653284999999999627e+01 1.487384999999999877e+02 2.296444999999999709e+03
9.500000000000000111e-02 1.908960000000000101e-01 3.573134999999999906e+01 1.477090000000000032e+02 2.296309999999999945e+03
9.600000000000000200e-02 1.908680000000000099e-01 3.485214999999999463e+01 1.464909999999999854e+02 2.296105000000000018e+03
9.700000000000000289e-02 1.908334999999999892e-01 3.392544999999999789e+01 1.451634999999999991e+02 2.295849999999999909e+03
9.800000000000000377e-02 1.907944999999999780e-01 3.298064999999999714e+01 1.438000000000000114e+02 2.295559999999999945e+03
9.900000000000000466e-02 1.907544999999999935e-01 3.204509999999999792e+01 1.424675000000000011e+02 2.295260000000000218e+03
1.000000000000000056e-01 1.907145000000000090e-01 3.114274999999999949e+01 1.412214999999999918e+02 2.294960000000000036e+03
1.010000000000000064e-01 1.906769999999999854e-01 3.029299999999999926e+01 1.401050000000000182e+02 2.294670000000000073e+03
1.020000000000000073e-01 1.906424999999999925e-01 2.950985000000000014e+01 1.391459999999999866e+02 2.294409999999999854e+03
1.030000000000000082e-01 1.906125000000000180e-01 2.880169999999999675e+01 1.383584999999999923e+02 2.294180000000000291e+03
1.040000000000000091e-01 1.905875000000000208e-01 2.817079999999999984e+01 1.377379999999999995e+02 2.293980000000000018e+03
1.050000000000000100e-01 1.905664999999999998e-01 2.761350000000000193e+01 1.372685000000000173e+02 2.293819999999999709e+03
1.059999999999999970e-01 1.905499999999999972e-01 2.712075000000000102e+01 1.369184999999999945e+02 2.293690000000000055e+03
1.069999999999999979e-01 1.905364999999999975e-01 2.667905000000000015e+01 1.366475000000000080e+02 2.293585000000000036e+03
1.079999999999999988e-01 1.905249999999999999e-01 2.627120000000000033e+01 1.364055000000000177e+02 2.293489999999999782e+03
1.089999999999999997e-01 1.905145000000000033e-01 2.587769999999999726e+01 1.361380000000000052e+02 2.293404999999999745e+03
1.100000000000000006e-01 1.905025000000000190e-01 2.547830000000000084e+01 1.357925000000000182e+02 2.293315000000000055e+03
1.110000000000000014e-01 1.904879999999999907e-01 2.505315000000000225e+01 1.353160000000000025e+02 2.293199999999999818e+03
1.120000000000000023e-01 1.904695000000000138e-01 2.458449999999999847e+01 1.346659999999999968e+02 2.293055000000000291e+03
1.130000000000000032e-01 1.904454999999999898e-01 2.405770000000000053e+01 1.338070000000000164e+02 2.292880000000000109e+03
1.140000000000000041e-01 1.904144999999999865e-01 2.346249999999999858e+01 1.327185000000000059e+02 2.292644999999999982e+03
1.150000000000000050e-01 1.903770000000000184e-01 2.279350000000000165e+01 1.313924999999999841e+02 2.292364999999999782e+03
1.160000000000000059e-01 1.903314999999999868e-01 2.205075000000000074e+01 1.298385000000000105e+02 2.292024999999999636e+03
1.170000000000000068e-01 1.902794999999999903e-01 2.123980000000000246e+01 1.280765000000000100e+02 2.291635000000000218e+03
1.180000000000000077e-01 1.902220000000000022e-01 2.037124999999999986e+01 1.261444999999999936e+02 2.291199999999999818e+03
1.190000000000000085e-01 1.901585000000000081e-01 1.946005000000000251e+01 1.240879999999999939e+02 2.290719999999999800e+03
1.200000000000000094e-01 1.900910000000000100e-01 1.852479999999999905e+01 1.219625000000000057e+02 2.290215000000000146e+03
1.209999999999999964e-01 1.900219999999999965e-01 1.758614999999999995e+01 1.198264999999999958e+02 2.289695000000000164e+03
1.219999999999999973e-01 1.899530000000000107e-01 1.666584999999999894e+01 1.177420000000000044e+02 2.289170000000000073e+03
1.229999999999999982e-01 1.898849999999999982e-01 1.578545000000000087e+01 1.157650000000000006e+02 2.288659999999999854e+03
1.239999999999999991e-01 1.898210000000000175e-01 1.496470000000000056e+01 1.139474999999999909e+02 2.288170000000000073e+03
1.250000000000000000e-01 1.897614999999999996e-01 1.422105000000000175e+01 1.123335000000000008e+02 2.287720000000000255e+03
1.260000000000000009e-01 1.897079999999999878e-01 1.356820000000000093e+01 1.109559999999999889e+02 2.287309999999999945e+03
1.270000000000000018e-01 1.896625000000000116e-01 1.301595000000000013e+01 1.098345000000000056e+02 2.286960000000000036e+03
1.280000000000000027e-01 1.896245000000000014e-01 1.256970000000000098e+01 1.089795000000000016e+02 2.286670000000000073e+03
1.290000000000000036e-01 1.895950000000000135e-01 1.223060000000000080e+01 1.083880000000000052e+02 2.286439999999999600e+03
1.300000000000000044e-01 1.895735000000000059e-01 1.199549999999999983e+01 1.080469999999999970e+02 2.286264999999999873e+03
1.310000000000000053e-01 1.895600000000000063e-01 1.185754999999999981e+01 1.079339999999999975e+02 2.286154999999999745e+03
1.320000000000000062e-01 1.895534999999999859e-01 1.180685000000000073e+01 1.080199999999999960e+02 2.286099999999999909e+03
1.330000000000000071e-01 1.895529999999999993e-01 1.183089999999999975e+01 1.082700000000000102e+02 2.286094999999999800e+03
1.340000000000000080e-01 1.895585000000000186e-01 1.191574999999999918e+01 1.086469999999999914e+02 2.286125000000000000e+03
1.350000000000000089e-01 1.895674999999999999e-01 1.204609999999999914e+01 1.091119999999999948e+02 2.286190000000000055e+03
1.360000000000000098e-01 1.895800000000000263e-01 1.220684999999999931e+01 1.096274999999999977e+02 2.286279999999999745e+03
1.370000000000000107e-01 1.895944999999999991e-01 1.238320000000000043e+01 1.101574999999999989e+02 2.286380000000000109e+03
1.380000000000000115e-01 1.896094999999999864e-01 1.256139999999999901e+01 1.106709999999999923e+02 2.286494999999999891e+03
1.390000000000000124e-01 1.896239999999999870e-01 1.272940000000000005e+01 1.111405000000000030e+02 2.286599999999999909e+03
1.400000000000000133e-01 1.896375000000000144e-01 1.287715000000000032e+01 1.115460000000000065e+02 2.286704999999999927e+03
1.410000000000000142e-01 1.896494999999999986e-01 1.299695000000000000e+01 1.118709999999999951e+02 2.286800000000000182e+03
1.420000000000000151e-01 1.896589999999999943e-01 1.308360000000000056e+01 1.121090000000000089e+02 2.286875000000000000e+03
1.430000000000000160e-01 1.896665000000000156e-01 1.313449999999999918e+01 1.122564999999999884e+02 2.286930000000000291e+03
1.440000000000000169e-01 1.896710000000000063e-01 1.314959999999999951e+01 1.123190000000000026e+02 2.286965000000000146e+03
1.450000000000000178e-01 1.896734999999999949e-01 1.313109999999999999e+01 1.123044999999999902e+02 2.286984999999999673e+03
1.459999999999999909e-01 1.896734999999999949e-01 1.308309999999999995e+01 1.122280000000000086e+02 2.286985000000000127e+03
1.469999999999999918e-01 1.896714999999999929e-01 1.301144999999999996e+01 1.121055000000000064e+02 2.286975000000000364e+03
1.479999999999999927e-01 1.896685000000000176e-01 1.292279999999999873e+01 1.119569999999999936e+02 2.286954999999999927e+03
1.489999999999999936e-01 1.896650000000000003e-01 1.282440000000000069e+01 1.118015000000000043e+02 2.286930000000000291e+03
1.499999999999999944e-01 1.896605000000000096e-01 1.272350000000000136e+01 1.116564999999999941e+02 2.286894999999999982e+03
1.509999999999999953e-01 1.896569999999999923e-01 1.262695000000000078e+01 1.115395000000000039e+02 2.286875000000000000e+03
1.519999999999999962e-01 1.896539999999999893e-01 1.254029999999999845e+01 1.114625000000000057e+02 2.286849999999999909e+03
1.529999999999999971e-01 1.896525000000000016e-01 1.246815000000000140e+01 1.114344999999999999e+02 2.286835000000000036e+03
1.539999999999999980e-01 1.896519999999999873e-01 1.241370000000000040e+01 1.114609999999999985e+02 2.286829999999999927e+03
1.549999999999999989e-01 1.896534999999999749e-01 1.237839999999999918e+01 1.115420000000000016e+02 2.286840000000000146e+03
1.559999999999999998e-01 1.896565000000000056e-01 1.236234999999999928e+01 1.116750000000000114e+02 2.286859999999999673e+03
1.570000000000000007e-01 1.896605000000000096e-01 1.236434999999999995e+01 1.118524999999999920e+02 2.286894999999999982e+03
1.580000000000000016e-01 1.896665000000000156e-01 1.238199999999999967e+01 1.120670000000000073e+02 2.286940000000000055e+03
1.590000000000000024e-01 1.896734999999999949e-01 1.241210000000000058e+01 1.123064999999999998e+02 2.286984999999999673e+03
