# t [s], A [cm^2], U [cm/s], P [cPa], c [cm/s]
1.000000000000000021e-03 7.134899999999999576e-01 5.972999999999999143e-03 1.061320000000000050e+02 1.815730000000000018e+03
2.000000000000000042e-03 7.134869999999999823e-01 1.446870000000000100e-02 1.061084999999999923e+02 1.815724999999999909e+03
3.000000000000000062e-03 7.135719999999999841e-01 1.737401000000000084e-01 1.063054999999999950e+02 1.815764999999999873e+03
4.000000000000000083e-03 7.135875000000000412e-01 2.310130000000000239e-01 1.063659999999999997e+02 1.815775000000000091e+03
5.000000000000000104e-03 7.135009999999999408e-01 1.094579999999999997e-01 1.060870000000000033e+02 1.815724999999999909e+03
6.000000000000000125e-03 7.134169999999999678e-01 -2.295849999999999280e-02 1.056705000000000041e+02 1.815639999999999873e+03
7.000000000000000146e-03 7.132944999999999425e-01 -2.410400000000000320e-01 1.050554999999999950e+02 1.815529999999999973e+03
8.000000000000000167e-03 7.130775000000000308e-01 -6.544750000000000290e-01 1.040550000000000068e+02 1.815340000000000146e+03
9.000000000000001055e-03 7.127634999999999943e-01 -1.260575000000000223e+00 1.026018499999999989e+02 1.815065000000000055e+03
1.000000000000000194e-02 7.123219999999998997e-01 -2.093910000000000160e+00 1.005794500000000085e+02 1.814674999999999955e+03
1.099999999999999936e-02 7.117504999999999526e-01 -3.132140000000000146e+00 9.793840000000000146e+01 1.814155000000000200e+03
1.200000000000000025e-02 7.111335000000000850e-01 -4.178570000000000562e+00 9.490649999999999409e+01 1.813539999999999964e+03
1.300000000000000114e-02 7.105974999999999930e-01 -4.952211499999999766e+00 9.192175000000000296e+01 1.812909999999999854e+03
1.400000000000000203e-02 7.102154999999999996e-01 -5.263465500000000574e+00 8.937389999999999191e+01 1.812340000000000146e+03
1.499999999999999944e-02 7.099779999999999980e-01 -5.098105000000000331e+00 8.741179999999999950e+01 1.811855000000000018e+03
1.600000000000000033e-02 7.098119999999999985e-01 -4.586895000000000167e+00 8.592304999999998927e+01 1.811454999999999927e+03
1.700000000000000122e-02 7.096299999999999830e-01 -3.919089999999999741e+00 8.463364999999998872e+01 1.811099999999999909e+03
1.800000000000000211e-02 7.093679999999999986e-01 -3.251539499999999805e+00 8.325585000000000946e+01 1.810735000000000127e+03
1.900000000000000300e-02 7.090115000000000167e-01 -2.649227000000000221e+00 8.161699999999999022e+01 1.810319999999999936e+03
2.000000000000000042e-02 7.085909999999999709e-01 -2.080750000000000099e+00 7.971164999999999168e+01 1.809869999999999891e+03
2.100000000000000130e-02 7.081574999999999953e-01 -1.466210000000000235e+00 7.766024999999999068e+01 1.809380000000000109e+03
2.200000000000000219e-02 7.077480000000000437e-01 -7.443249999999999034e-01 7.560904999999999632e+01 1.808884999999999991e+03
2.299999999999999961e-02 7.073679999999999968e-01 7.902500000000012292e-02 7.363349999999999795e+01 1.808404999999999973e+03
2.400000000000000050e-02 7.069870000000000321e-01 9.188199999999997480e-01 7.168659999999999854e+01 1.807924999999999955e+03
2.500000000000000139e-02 7.065500000000000114e-01 1.632365000000000066e+00 6.960460000000000491e+01 1.807420000000000073e+03
2.600000000000000228e-02 7.059980000000000144e-01 2.061899999999999622e+00 6.715850000000000364e+01 1.806849999999999909e+03
2.700000000000000316e-02 7.052890000000000548e-01 2.083865000000000300e+00 6.413394999999999868e+01 1.806175000000000182e+03
2.800000000000000058e-02 7.044150000000000134e-01 1.649244999999999628e+00 6.041154999999999831e+01 1.805375000000000000e+03
2.900000000000000147e-02 7.034044999999999881e-01 8.004800000000003024e-01 5.602025000000000432e+01 1.804440000000000055e+03
3.000000000000000236e-02 7.023200000000000554e-01 -3.413000000000003809e-01 5.114289999999999736e+01 1.803404999999999973e+03
3.099999999999999978e-02 7.012374999999999581e-01 -1.611220000000000319e+00 4.607555000000000689e+01 1.802315000000000055e+03
3.200000000000000067e-02 7.002334999999999532e-01 -2.841524999999999856e+00 4.116085000000000349e+01 1.801235000000000127e+03
3.300000000000000155e-02 6.993655000000000843e-01 -3.893310000000000048e+00 3.672220000000000084e+01 1.800235000000000127e+03
3.400000000000000244e-02 6.986715000000000009e-01 -4.673000000000000043e+00 3.301474999999999937e+01 1.799364999999999782e+03
3.500000000000000333e-02 6.981690000000000396e-01 -5.133564999999999934e+00 3.020159999999999911e+01 1.798670000000000073e+03
3.600000000000000422e-02 6.978579999999999783e-01 -5.265095000000000525e+00 2.835320000000000107e+01 1.798164999999999964e+03
3.700000000000000511e-02 6.977284999999999737e-01 -5.079939999999999678e+00 2.746459999999999724e+01 1.797869999999999891e+03
3.799999999999999906e-02 6.977649999999999686e-01 -4.598370000000000068e+00 2.748189999999999955e+01 1.797764999999999873e+03
3.899999999999999994e-02 6.979539999999999633e-01 -3.838271000000000210e+00 2.832820000000000249e+01 1.797849999999999909e+03
4.000000000000000083e-02 6.982829999999999870e-01 -2.811719999999999775e+00 2.992304999999999993e+01 1.798105000000000018e+03
4.100000000000000172e-02 6.987410000000000565e-01 -1.527810000000000112e+00 3.218980000000000530e+01 1.798519999999999982e+03
4.200000000000000261e-02 6.993154999999999788e-01 6.950000000003342393e-04 3.505400000000000205e+01 1.799069999999999936e+03
4.300000000000000350e-02 6.999915000000000997e-01 1.750634999999999941e+00 3.843565000000000254e+01 1.799750000000000000e+03
4.400000000000000439e-02 7.007499999999999840e-01 3.684469999999999690e+00 4.224235000000000184e+01 1.800525000000000091e+03
4.499999999999999833e-02 7.015655000000000641e-01 5.750375000000000014e+00 4.636610000000000298e+01 1.801389999999999873e+03
4.599999999999999922e-02 7.024125000000001062e-01 7.886340000000000572e+00 5.068560000000000088e+01 1.802309999999999945e+03
4.700000000000000011e-02 7.032629999999999715e-01 1.002623999999999960e+01 5.507374999999999687e+01 1.803259999999999991e+03
4.800000000000000100e-02 7.040939999999999976e-01 1.210724000000000089e+01 5.940834999999999866e+01 1.804215000000000146e+03
4.900000000000000189e-02 7.048845000000000249e-01 1.407562500000000050e+01 6.358254999999999768e+01 1.805154999999999973e+03
5.000000000000000278e-02 7.056214999999999016e-01 1.589122000000000057e+01 6.751409999999999911e+01 1.806050000000000182e+03
5.100000000000000366e-02 7.062995000000000800e-01 1.752880000000000038e+01 7.115045000000000641e+01 1.806900000000000091e+03
5.200000000000000455e-02 7.069164999999999477e-01 1.897824999999999918e+01 7.447034999999999627e+01 1.807690000000000055e+03
5.300000000000000544e-02 7.074789999999999690e-01 2.024210000000000065e+01 7.748140000000000782e+01 1.808414999999999964e+03
5.399999999999999939e-02 7.079934999999999423e-01 2.133344999999999914e+01 8.021545000000000414e+01 1.809079999999999927e+03
5.500000000000000028e-02 7.084719999999999906e-01 2.227264999999999873e+01 8.272275000000000489e+01 1.809699999999999818e+03
5.600000000000000117e-02 7.089274999999999327e-01 2.308520000000000039e+01 8.506520000000000437e+01 1.810279999999999973e+03
5.700000000000000205e-02 7.093730000000000313e-01 2.379910000000000281e+01 8.731020000000000891e+01 1.810835000000000036e+03
5.800000000000000294e-02 7.098204999999999654e-01 2.444284999999999997e+01 8.952465000000000828e+01 1.811380000000000109e+03
5.900000000000000383e-02 7.102820000000000800e-01 2.504305000000000092e+01 9.176919999999999789e+01 1.811925000000000182e+03
6.000000000000000472e-02 7.107645000000000213e-01 2.562239999999999895e+01 9.409344999999999004e+01 1.812474999999999909e+03
6.099999999999999867e-02 7.112735000000000030e-01 2.619774999999999920e+01 9.653110000000000923e+01 1.813055000000000064e+03
6.199999999999999956e-02 7.118100000000000538e-01 2.677854999999999919e+01 9.909729999999998995e+01 1.813650000000000091e+03
6.300000000000000044e-02 7.123709999999999765e-01 2.736619999999999919e+01 1.017866999999999962e+02 1.814275000000000091e+03
6.400000000000000133e-02 7.129490000000000549e-01 2.795429999999999993e+01 1.045745000000000005e+02 1.814920000000000073e+03
6.500000000000000222e-02 7.135354999999999892e-01 2.852960000000000207e+01 1.074184999999999945e+02 1.815575000000000045e+03
6.600000000000000311e-02 7.141180000000000305e-01 2.907399999999999807e+01 1.102640000000000100e+02 1.816235000000000127e+03
6.700000000000000400e-02 7.146824999999999983e-01 2.956644999999999968e+01 1.130484999999999900e+02 1.816885000000000218e+03
6.800000000000000488e-02 7.152175000000000615e-01 2.998505000000000109e+01 1.157059999999999889e+02 1.817515000000000100e+03
6.900000000000000577e-02 7.157109999999999861e-01 3.030944999999999823e+01 1.181765000000000043e+02 1.818110000000000127e+03
7.000000000000000666e-02 7.161524999999999697e-01 3.052190000000000225e+01 1.204025000000000034e+02 1.818650000000000091e+03
7.100000000000000755e-02 7.165349999999999220e-01 3.060880000000000223e+01 1.223429999999999893e+02 1.819130000000000109e+03
7.200000000000000844e-02 7.168529999999999625e-01 3.056150000000000233e+01 1.239660000000000082e+02 1.819545000000000073e+03
7.300000000000000933e-02 7.171049999999999924e-01 3.037650000000000006e+01 1.252554999999999978e+02 1.819884999999999991e+03
7.399999999999999634e-02 7.172910000000000119e-01 3.005589999999999762e+01 1.262085000000000008e+02 1.820154999999999973e+03
7.499999999999999722e-02 7.174145000000000660e-01 2.960679999999999978e+01 1.268379999999999939e+02 1.820345000000000027e+03
7.599999999999999811e-02 7.174810000000000354e-01 2.904139999999999588e+01 1.271680000000000064e+02 1.820474999999999909e+03
7.699999999999999900e-02 7.174979999999999691e-01 2.837590000000000146e+01 1.272325000000000017e+02 1.820535000000000082e+03
7.799999999999999989e-02 7.174730000000000274e-01 2.762995000000000090e+01 1.270745000000000005e+02 1.820545000000000073e+03
7.900000000000000078e-02 7.174175000000000413e-01 2.682529999999999859e+01 1.267415000000000020e+02 1.820509999999999991e+03
8.000000000000000167e-02 7.173404999999999365e-01 2.598499999999999943e+01 1.262845000000000084e+02 1.820434999999999945e+03
8.100000000000000255e-02 7.172520000000000007e-01 2.513190000000000168e+01 1.257540000000000049e+02 1.820340000000000146e+03
8.200000000000000344e-02 7.171600000000000197e-01 2.428739999999999810e+01 1.251984999999999957e+02 1.820235000000000127e+03
8.300000000000000433e-02 7.170734999999999193e-01 2.347039999999999793e+01 1.246580000000000013e+02 1.820130000000000109e+03
8.400000000000000522e-02 7.169980000000000242e-01 2.269630000000000081e+01 1.241680000000000064e+02 1.820025000000000091e+03
8.500000000000000611e-02 7.169364999999999766e-01 2.197615000000000052e+01 1.237524999999999977e+02 1.819930000000000064e+03
8.600000000000000699e-02 7.168930000000000025e-01 2.131644999999999968e+01 1.234270000000000067e+02 1.819849999999999909e+03
8.700000000000000788e-02 7.168660000000000032e-01 2.071884999999999977e+01 1.231954999999999956e+02 1.819789999999999964e+03
8.800000000000000877e-02 7.168539999999999912e-01 2.018050000000000210e+01 1.230510000000000019e+02 1.819744999999999891e+03
8.899999999999999578e-02 7.168539999999999912e-01 1.969449999999999790e+01 1.229795000000000016e+02 1.819720000000000027e+03
8.999999999999999667e-02 7.168604999999999006e-01 1.925045000000000073e+01 1.229590000000000032e+02 1.819704999999999927e+03
9.099999999999999756e-02 7.168674999999999908e-01 1.883559999999999945e+01 1.229604999999999961e+02 1.819695000000000164e+03
9.199999999999999845e-02 7.168695000000000483e-01 1.843549999999999756e+01 1.229544999999999959e+02 1.819684999999999945e+03
9.299999999999999933e-02 7.168600000000000527e-01 1.803484999999999872e+01 1.229064999999999941e+02 1.819670000000000073e+03
9.400000000000000022e-02 7.168320000000000247e-01 1.761915000000000120e+01 1.227865000000000038e+02 1.819639999999999873e+03
9.500000000000000111e-02 7.167820000000000302e-01 1.717504999999999882e+01 1.225655000000000001e+02 1.819590000000000146e+03
9.600000000000000200e-02 7.167049999999999255e-01 1.669149999999999778e+01 1.222205000000000013e+02 1.819519999999999982e+03
9.700000000000000289e-02 7.165985000000000271e-01 1.616039999999999921e+01 1.217344999999999970e+02 1.819414999999999964e+03
9.800000000000000377e-02 7.164614999999999734e-01 1.557755000000000045e+01 1.210995000000000061e+02 1.819279999999999973e+03
9.900000000000000466e-02 7.162954999999999739e-01 1.494255000000000067e+01 1.203155000000000001e+02 1.819119999999999891e+03
1.000000000000000056e-01 7.161020000000000163e-01 1.425919999999999987e+01 1.193915000000000077e+02 1.818920000000000073e+03
1.010000000000000064e-01 7.158854999999999524e-01 1.353502500000000097e+01 1.183444999999999965e+02 1.818695000000000164e+03
1.020000000000000073e-01 7.156519999999999548e-01 1.278124499999999841e+01 1.172009999999999934e+02 1.818449999999999818e+03
1.030000000000000082e-01 7.154080000000000439e-01 1.201182999999999979e+01 1.159904999999999973e+02 1.818190000000000055e+03
1.040000000000000091e-01 7.151609999999999356e-01 1.124274499999999932e+01 1.147500000000000000e+02 1.817910000000000082e+03
1.050000000000000100e-01 7.149185000000000123e-01 1.049111999999999867e+01 1.135164999999999935e+02 1.817634999999999991e+03
1.059999999999999970e-01 7.146879999999999900e-01 9.773894999999999555e+00 1.123290000000000077e+02 1.817365000000000009e+03
1.069999999999999979e-01 7.144764999999999588e-01 9.107295000000000584e+00 1.112230000000000132e+02 1.817110000000000127e+03
1.079999999999999988e-01 7.142889999999999517e-01 8.505509999999999238e+00 1.102295000000000016e+02 1.816875000000000000e+03
1.089999999999999997e-01 7.141310000000000713e-01 7.980180000000000717e+00 1.093750000000000000e+02 1.816664999999999964e+03
1.100000000000000006e-01 7.140050000000000008e-01 7.539680000000000604e+00 1.086779999999999973e+02 1.816490000000000009e+03
1.110000000000000014e-01 7.139119999999999910e-01 7.188679999999999737e+00 1.081490000000000009e+02 1.816345000000000027e+03
1.120000000000000023e-01 7.138530000000000708e-01 6.928320000000000256e+00 1.077904999999999944e+02 1.816240000000000009e+03
1.130000000000000032e-01 7.138249999999999318e-01 6.756054999999999922e+00 1.075964999999999918e+02 1.816170000000000073e+03
1.140000000000000041e-01 7.138255000000000017e-01 6.666140000000000398e+00 1.075550000000000068e+02 1.816134999999999991e+03
1.150000000000000050e-01 7.138510000000000133e-01 6.650079999999999991e+00 1.076479999999999961e+02 1.816134999999999991e+03
1.160000000000000059e-01 7.138955000000000162e-01 6.697255000000000180e+00 1.078520000000000039e+02 1.816159999999999854e+03
1.170000000000000068e-01 7.139550000000000063e-01 6.795619999999999550e+00 1.081415000000000077e+02 1.816204999999999927e+03
1.180000000000000077e-01 7.140239999999999920e-01 6.932380000000000209e+00 1.084904999999999973e+02 1.816265000000000100e+03
1.190000000000000085e-01 7.140969999999999818e-01 7.094640000000000057e+00 1.088714999999999975e+02 1.816335000000000036e+03
1.200000000000000094e-01 7.141699999999999715e-01 7.270039999999999836e+00 1.092609999999999957e+02 1.816409999999999854e+03
1.209999999999999964e-01 7.142384999999999984e-01 7.447194999999999787e+00 1.096370000000000005e+02 1.816490000000000009e+03
1.219999999999999973e-01 7.142994999999999761e-01 7.616145000000000387e+00 1.099809999999999945e+02 1.816559999999999945e+03
1.229999999999999982e-01 7.143504999999999994e-01 7.768629999999999924e+00 1.102789999999999964e+02 1.816630000000000109e+03
1.239999999999999991e-01 7.143904999999999283e-01 7.898289999999999367e+00 1.105215000000000032e+02 1.816684999999999945e+03
1.250000000000000000e-01 7.144179999999999975e-01 8.000754999999999839e+00 1.107030000000000030e+02 1.816724999999999909e+03
1.260000000000000009e-01 7.144334999999999436e-01 8.073629999999999640e+00 1.108224999999999909e+02 1.816759999999999991e+03
1.270000000000000018e-01 7.144384999999999764e-01 8.116445000000000576e+00 1.108824999999999932e+02 1.816780000000000200e+03
1.280000000000000027e-01 7.144340000000000135e-01 8.130470000000000752e+00 1.108894999999999982e+02 1.816789999999999964e+03
1.290000000000000036e-01 7.144209999999999727e-01 8.118494999999999351e+00 1.108515000000000015e+02 1.816789999999999964e+03
1.300000000000000044e-01 7.144034999999999691e-01 8.084564999999999557e+00 1.107800000000000011e+02 1.816775000000000091e+03
1.310000000000000053e-01 7.143824999999999203e-01 8.033615000000001061e+00 1.106860000000000070e+02 1.816759999999999991e+03
1.320000000000000062e-01 7.143610000000000237e-01 7.971154999999999546e+00 1.105829999999999984e+02 1.816744999999999891e+03
1.330000000000000071e-01 7.143410000000000037e-01 7.902860000000000440e+00 1.104835000000000065e+02 1.816730000000000018e+03
1.340000000000000080e-01 7.143254999999999466e-01 7.834229999999999805e+00 1.103969999999999914e+02 1.816710000000000036e+03
1.350000000000000089e-01 7.143154999999999921e-01 7.770220000000000127e+00 1.103345000000000056e+02 1.816699999999999818e+03
1.360000000000000098e-01 7.143125000000000169e-01 7.714999999999999858e+00 1.103034999999999997e+02 1.816694999999999936e+03
1.370000000000000107e-01 7.143169999999999797e-01 7.671680000000000277e+00 1.103075000000000045e+02 1.816690000000000055e+03
1.380000000000000115e-01 7.143289999999999917e-01 7.642224999999999824e+00 1.103505000000000109e+02 1.816699999999999818e+03
1.390000000000000124e-01 7.143490000000000117e-01 7.627399999999999736e+00 1.104304999999999950e+02 1.816715000000000146e+03
1.400000000000000133e-01 7.143749999999999822e-01 7.626820000000000377e+00 1.105450000000000017e+02 1.816740000000000009e+03
1.410000000000000142e-01 7.144064999999999444e-01 7.639084999999999681e+00 1.106889999999999930e+02 1.816764999999999873e+03
1.420000000000000151e-01 7.144420000000000215e-01 7.661970000000000169e+00 1.108555000000000064e+02 1.816799999999999955e+03
1.430000000000000160e-01 7.144800000000000040e-01 7.692675000000000374e+00 1.110349999999999966e+02 1.816840000000000146e+03
1.440000000000000169e-01 7.145175000000000276e-01 7.728080000000000283e+00 1.112214999999999918e+02 1.816880000000000109e+03
1.450000000000000178e-01 7.145540000000000225e-01 7.765005000000000379e+00 1.114050000000000011e+02 1.816920000000000073e+03
1.459999999999999909e-01 7.145885000000000709e-01 7.800419999999999909e+00 1.115780000000000030e+02 1.816960000000000036e+03
1.469999999999999918e-01 7.146185000000000453e-01 7.831685000000000230e+00 1.117344999999999970e+02 1.816994999999999891e+03
1.479999999999999927e-01 7.146445000000000158e-01 7.856669999999999376e+00 1.118700000000000045e+02 1.817029999999999973e+03
1.489999999999999936e-01 7.146649999999999947e-01 7.873864999999999448e+00 1.119809999999999945e+02 1.817049999999999955e+03
1.499999999999999944e-01 7.146805000000000518e-01 7.882455000000000211e+00 1.120664999999999907e+02 1.817079999999999927e+03
1.509999999999999953e-01 7.146915000000000351e-01 7.882315000000000182e+00 1.121274999999999977e+02 1.817094999999999800e+03
1.519999999999999962e-01 7.146974999999999856e-01 7.874000000000000554e+00 1.121659999999999968e+02 1.817105000000000018e+03
1.529999999999999971e-01 7.147004999999999608e-01 7.858710000000000306e+00 1.121860000000000070e+02 1.817115000000000009e+03
1.539999999999999980e-01 7.147014999999999896e-01 7.838205000000000311e+00 1.121924999999999955e+02 1.817119999999999891e+03
1.549999999999999989e-01 7.147010000000000307e-01 7.814705000000000013e+00 1.121920000000000073e+02 1.817119999999999891e+03
1.559999999999999998e-01 7.147010000000000307e-01 7.790794999999999249e+00 1.121910000000000025e+02 1.817119999999999891e+03
1.570000000000000007e-01 7.147029999999999772e-01 7.769275000000000375e+00 1.121965000000000003e+02 1.817119999999999891e+03
1.580000000000000016e-01 7.147079999999998989e-01 7.753049999999999997e+00 1.122170000000000130e+02 1.817125000000000000e+03
1.590000000000000024e-01 7.147179999999999644e-01 7.744939999999999714e+00 1.122580000000000098e+02 1.817134999999999991e+03
