# t [s], A [cm^2], U [cm/s], P [cPa], c [cm/s]
1.000000000000000021e-03 1.687214999999999965e-01 4.393441399999999941e-01 9.623165000000000191e+01 2.221985000000000127e+03
2.000000000000000042e-03 1.686610000000000054e-01 2.123101499999999753e+00 9.216339999999999577e+01 2.221385000000000218e+03
3.000000000000000062e-03 1.685205000000000175e-01 4.171907000000000032e+00 8.664459999999999695e+01 2.220050000000000182e+03
4.000000000000000083e-03 1.683439999999999936e-01 6.487454999999999750e+00 8.111179999999998813e+01 2.218390000000000327e+03
5.000000000000000104e-03 1.681674999999999975e-01 8.930254999999998944e+00 7.659125000000000227e+01 2.216739999999999782e+03
6.000000000000000125e-03 1.680039999999999867e-01 1.118835500000000138e+01 7.298024999999999807e+01 2.215239999999999782e+03
7.000000000000000146e-03 1.678530000000000022e-01 1.304993999999999943e+01 6.974625000000000341e+01 2.213889999999999873e+03
8.000000000000000167e-03 1.677210000000000090e-01 1.455774999999999864e+01 6.689020000000000721e+01 2.212715000000000146e+03
9.000000000000001055e-03 1.676104999999999956e-01 1.577724999999999866e+01 6.458310000000000173e+01 2.211755000000000109e+03
1.000000000000000194e-02 1.675214999999999899e-01 1.672964999999999947e+01 6.279460000000000264e+01 2.210994999999999891e+03
1.099999999999999936e-02 1.674525000000000041e-01 1.744180000000000064e+01 6.144705000000000439e+01 2.210404999999999745e+03
1.200000000000000025e-02 1.673995000000000066e-01 1.791975000000000051e+01 6.040234999999999843e+01 2.209960000000000036e+03
1.300000000000000114e-02 1.673560000000000048e-01 1.817685000000000173e+01 5.948029999999999973e+01 2.209610000000000127e+03
1.400000000000000203e-02 1.673215000000000119e-01 1.833395000000000152e+01 5.876245000000000118e+01 2.209335000000000036e+03
1.499999999999999944e-02 1.673054999999999959e-01 1.862525000000000119e+01 5.876044999999999874e+01 2.209215000000000146e+03
1.600000000000000033e-02 1.673235000000000139e-01 1.925959999999999894e+01 6.010079999999999956e+01 2.209375000000000000e+03
1.700000000000000122e-02 1.673820000000000030e-01 2.026384999999999792e+01 6.298355000000000103e+01 2.209880000000000109e+03
1.800000000000000211e-02 1.674749999999999850e-01 2.144180000000000064e+01 6.689390000000000214e+01 2.210690000000000055e+03
1.900000000000000300e-02 1.675810000000000077e-01 2.246654999999999802e+01 7.076935000000000286e+01 2.211625000000000000e+03
2.000000000000000042e-02 1.676719999999999877e-01 2.303555000000000064e+01 7.347579999999999245e+01 2.212449999999999818e+03
2.100000000000000130e-02 1.677275000000000016e-01 2.300030000000000285e+01 7.430180000000000007e+01 2.212970000000000255e+03
2.200000000000000219e-02 1.677365000000000106e-01 2.241339999999999932e+01 7.322400000000000375e+01 2.213085000000000036e+03
2.299999999999999961e-02 1.677049999999999930e-01 2.148185000000000144e+01 7.084305000000000518e+01 2.212840000000000146e+03
2.400000000000000050e-02 1.676495000000000068e-01 2.045939999999999870e+01 6.805459999999999354e+01 2.212375000000000000e+03
2.500000000000000139e-02 1.675895000000000024e-01 1.953819999999999979e+01 6.564400000000000546e+01 2.211849999999999909e+03
2.600000000000000228e-02 1.675385000000000069e-01 1.878715000000000046e+01 6.399849999999999284e+01 2.211394999999999982e+03
2.700000000000000316e-02 1.675010000000000110e-01 1.815429999999999922e+01 6.303964999999999463e+01 2.211050000000000182e+03
2.800000000000000058e-02 1.674720000000000097e-01 1.751890000000000214e+01 6.235984999999999445e+01 2.210789999999999964e+03
2.900000000000000147e-02 1.674419999999999797e-01 1.676340000000000074e+01 6.146889999999999787e+01 2.210529999999999745e+03
3.000000000000000236e-02 1.674025000000000096e-01 1.583654999999999902e+01 6.004169999999999874e+01 2.210185000000000400e+03
3.099999999999999978e-02 1.673509999999999998e-01 1.478594999999999970e+01 5.807654999999999745e+01 2.209739999999999782e+03
3.200000000000000067e-02 1.672910000000000230e-01 1.374885000000000090e+01 5.591360000000000241e+01 2.209215000000000146e+03
3.300000000000000155e-02 1.672334999999999794e-01 1.290755000000000052e+01 5.411289999999999623e+01 2.208704999999999927e+03
3.400000000000000244e-02 1.671934999999999949e-01 1.242539999999999978e+01 5.324510000000000076e+01 2.208340000000000146e+03
3.500000000000000333e-02 1.671819999999999973e-01 1.239049999999999940e+01 5.367945000000000277e+01 2.208220000000000255e+03
3.600000000000000422e-02 1.672055000000000069e-01 1.278529999999999944e+01 5.544865000000000066e+01 2.208400000000000091e+03
3.700000000000000511e-02 1.672599999999999920e-01 1.349054999999999893e+01 5.822934999999999661e+01 2.208855000000000018e+03
3.799999999999999906e-02 1.673359999999999848e-01 1.431690000000000040e+01 6.143124999999999858e+01 2.209505000000000109e+03
3.899999999999999994e-02 1.674164999999999959e-01 1.505039999999999978e+01 6.435114999999998986e+01 2.210210000000000036e+03
4.000000000000000083e-02 1.674849999999999950e-01 1.549739999999999895e+01 6.633735000000000070e+01 2.210815000000000055e+03
4.100000000000000172e-02 1.675254999999999939e-01 1.551834999999999987e+01 6.692000000000000171e+01 2.211185000000000400e+03
4.200000000000000261e-02 1.675280000000000102e-01 1.504389999999999894e+01 6.587980000000000302e+01 2.211224999999999909e+03
4.300000000000000350e-02 1.674875000000000114e-01 1.407404999999999973e+01 6.325045000000000073e+01 2.210889999999999873e+03
4.400000000000000439e-02 1.674049999999999983e-01 1.266471999999999909e+01 5.926769999999999783e+01 2.210184999999999945e+03
4.499999999999999833e-02 1.672874999999999779e-01 1.090729999999999933e+01 5.428889999999999816e+01 2.209170000000000073e+03
4.599999999999999922e-02 1.671429999999999860e-01 8.908640000000000114e+00 4.871054999999999779e+01 2.207909999999999854e+03
4.700000000000000011e-02 1.669825000000000059e-01 6.776075000000000514e+00 4.290415000000000134e+01 2.206500000000000000e+03
4.800000000000000100e-02 1.668140000000000178e-01 4.609216999999999231e+00 3.718184999999999718e+01 2.205019999999999982e+03
4.900000000000000189e-02 1.666465000000000030e-01 2.498165000000000191e+00 3.179044999999999987e+01 2.203545000000000073e+03
5.000000000000000278e-02 1.664869999999999961e-01 5.252999999999998781e-01 2.692385000000000161e+01 2.202135000000000218e+03
5.100000000000000366e-02 1.663415000000000032e-01 -1.231820000000000137e+00 2.274405000000000143e+01 2.200845000000000255e+03
5.200000000000000455e-02 1.662160000000000026e-01 -2.698873499999999925e+00 1.939825000000000088e+01 2.199729999999999563e+03
5.300000000000000544e-02 1.661150000000000126e-01 -3.805835000000000079e+00 1.702615000000000123e+01 2.198824999999999818e+03
5.399999999999999939e-02 1.660429999999999962e-01 -4.490535000000000387e+00 1.575685000000000002e+01 2.198164999999999964e+03
5.500000000000000028e-02 1.660044999999999993e-01 -4.704064999999999941e+00 1.569514999999999993e+01 2.197800000000000182e+03
5.600000000000000117e-02 1.660014999999999963e-01 -4.416339999999999932e+00 1.690534999999999854e+01 2.197744999999999891e+03
5.700000000000000205e-02 1.660369999999999902e-01 -3.620345000000000368e+00 1.939545000000000030e+01 2.198024999999999636e+03
5.800000000000000294e-02 1.661099999999999799e-01 -2.334015500000000021e+00 2.310924999999999940e+01 2.198640000000000327e+03
5.900000000000000383e-02 1.662200000000000066e-01 -5.991850000000000787e-01 2.792660000000000053e+01 2.199569999999999709e+03
6.000000000000000472e-02 1.663614999999999955e-01 1.521990000000000176e+00 3.367310000000000514e+01 2.200789999999999964e+03
6.099999999999999867e-02 1.665309999999999846e-01 3.952316499999999344e+00 4.013560000000000372e+01 2.202255000000000109e+03
6.199999999999999956e-02 1.667220000000000091e-01 6.605489999999999640e+00 4.708079999999999643e+01 2.203925000000000182e+03
6.300000000000000044e-02 1.669279999999999931e-01 9.392050000000001120e+00 5.427325000000000443e+01 2.205730000000000018e+03
6.400000000000000133e-02 1.671424999999999994e-01 1.222426000000000101e+01 6.149080000000000723e+01 2.207619999999999891e+03
6.500000000000000222e-02 1.673589999999999800e-01 1.502082000000000050e+01 6.853634999999999877e+01 2.209534999999999854e+03
6.600000000000000311e-02 1.675714999999999844e-01 1.771054999999999779e+01 7.524680000000000746e+01 2.211425000000000182e+03
6.700000000000000400e-02 1.677764999999999951e-01 2.023564999999999969e+01 8.149985000000000923e+01 2.213255000000000109e+03
6.800000000000000488e-02 1.679684999999999928e-01 2.255409999999999826e+01 8.721850000000000591e+01 2.214980000000000018e+03
6.900000000000000577e-02 1.681475000000000053e-01 2.464170000000000016e+01 9.237354999999999450e+01 2.216590000000000146e+03
7.000000000000000666e-02 1.683105000000000018e-01 2.649235000000000184e+01 9.698365000000001146e+01 2.218064999999999600e+03
7.100000000000000755e-02 1.684594999999999843e-01 2.811715000000000231e+01 1.011099499999999978e+02 2.219420000000000073e+03
7.200000000000000844e-02 1.685955000000000092e-01 2.954240000000000066e+01 1.048490999999999929e+02 2.220654999999999745e+03
7.300000000000000933e-02 1.687204999999999955e-01 3.080559999999999832e+01 1.083234999999999957e+02 2.221800000000000182e+03
7.399999999999999634e-02 1.688395000000000035e-01 3.195110000000000028e+01 1.116649999999999920e+02 2.222880000000000109e+03
7.499999999999999722e-02 1.689545000000000075e-01 3.302514999999999645e+01 1.150024999999999977e+02 2.223925000000000182e+03
7.599999999999999811e-02 1.690694999999999837e-01 3.407150000000000034e+01 1.184495000000000005e+02 2.224970000000000255e+03
7.699999999999999900e-02 1.691864999999999897e-01 3.512669999999999959e+01 1.220929999999999893e+02 2.226039999999999964e+03
7.799999999999999989e-02 1.693095000000000017e-01 3.621755000000000280e+01 1.259860000000000042e+02 2.227150000000000091e+03
7.900000000000000078e-02 1.694390000000000063e-01 3.735900000000000176e+01 1.301440000000000055e+02 2.228319999999999709e+03
8.000000000000000167e-02 1.695750000000000035e-01 3.855344999999999800e+01 1.345469999999999970e+02 2.229545000000000073e+03
8.100000000000000255e-02 1.697170000000000067e-01 3.979129999999999967e+01 1.391394999999999982e+02 2.230829999999999927e+03
8.200000000000000344e-02 1.698640000000000150e-01 4.105235000000000412e+01 1.438410000000000082e+02 2.232154999999999745e+03
8.300000000000000433e-02 1.700125000000000108e-01 4.230805000000000149e+01 1.485515000000000043e+02 2.233500000000000000e+03
8.400000000000000522e-02 1.701604999999999923e-01 4.352394999999999925e+01 1.531585000000000036e+02 2.234845000000000255e+03
8.500000000000000611e-02 1.703049999999999842e-01 4.466275000000000261e+01 1.575490000000000066e+02 2.236154999999999745e+03
8.600000000000000699e-02 1.704424999999999968e-01 4.568710000000000093e+01 1.616150000000000091e+02 2.237409999999999854e+03
8.700000000000000788e-02 1.705694999999999850e-01 4.656210000000000093e+01 1.652604999999999791e+02 2.238570000000000164e+03
8.800000000000000877e-02 1.706845000000000168e-01 4.725769999999999982e+01 1.684069999999999823e+02 2.239619999999999891e+03
8.899999999999999578e-02 1.707839999999999914e-01 4.775059999999999860e+01 1.709989999999999952e+02 2.240545000000000073e+03
8.999999999999999667e-02 1.708675000000000055e-01 4.802544999999999931e+01 1.730024999999999977e+02 2.241309999999999945e+03
9.099999999999999756e-02 1.709335000000000160e-01 4.807574999999999932e+01 1.744110000000000014e+02 2.241925000000000182e+03
9.199999999999999845e-02 1.709815000000000085e-01 4.790404999999999802e+01 1.752400000000000091e+02 2.242380000000000109e+03
9.299999999999999933e-02 1.710119999999999973e-01 4.752134999999999820e+01 1.755280000000000200e+02 2.242679999999999836e+03
9.400000000000000022e-02 1.710269999999999846e-01 4.694669999999999987e+01 1.753305000000000007e+02 2.242829999999999927e+03
9.500000000000000111e-02 1.710274999999999990e-01 4.620530000000000115e+01 1.747199999999999989e+02 2.242849999999999909e+03
9.600000000000000200e-02 1.710150000000000003e-01 4.532734999999999559e+01 1.737760000000000105e+02 2.242750000000000000e+03
9.700000000000000289e-02 1.709924999999999917e-01 4.434614999999999441e+01 1.725860000000000127e+02 2.242555000000000291e+03
9.800000000000000377e-02 1.709620000000000029e-01 4.329630000000000223e+01 1.712365000000000066e+02 2.242289999999999964e+03
9.900000000000000466e-02 1.709265000000000090e-01 4.221195000000000164e+01 1.698104999999999905e+02 2.241974999999999909e+03
1.000000000000000056e-01 1.708880000000000121e-01 4.112519999999999953e+01 1.683829999999999814e+02 2.241630000000000109e+03
1.010000000000000064e-01 1.708485000000000142e-01 4.006465000000000032e+01 1.670194999999999936e+02 2.241275000000000091e+03
1.020000000000000073e-01 1.708105000000000040e-01 3.905440000000000111e+01 1.657724999999999795e+02 2.240925000000000182e+03
1.030000000000000082e-01 1.707744999999999957e-01 3.811289999999999623e+01 1.646800000000000068e+02 2.240600000000000364e+03
1.040000000000000091e-01 1.707430000000000059e-01 3.725244999999999607e+01 1.637640000000000100e+02 2.240309999999999945e+03
1.050000000000000100e-01 1.707155000000000200e-01 3.647879999999999967e+01 1.630294999999999845e+02 2.240059999999999945e+03
1.059999999999999970e-01 1.706929999999999836e-01 3.579135000000000133e+01 1.624669999999999845e+02 2.239845000000000255e+03
1.069999999999999979e-01 1.706755000000000078e-01 3.518325000000000102e+01 1.620529999999999973e+02 2.239675000000000182e+03
1.079999999999999988e-01 1.706610000000000071e-01 3.464229999999999876e+01 1.617495000000000118e+02 2.239539999999999964e+03
1.089999999999999997e-01 1.706495000000000095e-01 3.415174999999999983e+01 1.615104999999999791e+02 2.239425000000000182e+03
1.100000000000000006e-01 1.706394999999999995e-01 3.369180000000000064e+01 1.612814999999999941e+02 2.239335000000000036e+03
1.110000000000000014e-01 1.706294999999999895e-01 3.324054999999999893e+01 1.610060000000000002e+02 2.239235000000000127e+03
1.120000000000000023e-01 1.706179999999999919e-01 3.277599999999999625e+01 1.606285000000000025e+02 2.239125000000000000e+03
1.130000000000000032e-01 1.706030000000000046e-01 3.227714999999999890e+01 1.600970000000000084e+02 2.238989999999999782e+03
1.140000000000000041e-01 1.705840000000000134e-01 3.172550000000000026e+01 1.593689999999999998e+02 2.238819999999999709e+03
1.150000000000000050e-01 1.705585000000000018e-01 3.110654999999999859e+01 1.584120000000000061e+02 2.238590000000000146e+03
1.160000000000000059e-01 1.705270000000000119e-01 3.041029999999999944e+01 1.572069999999999936e+02 2.238305000000000291e+03
1.170000000000000068e-01 1.704884999999999873e-01 2.963239999999999696e+01 1.557504999999999882e+02 2.237954999999999927e+03
1.180000000000000077e-01 1.704419999999999824e-01 2.877420000000000044e+01 1.540545000000000186e+02 2.237539999999999964e+03
1.190000000000000085e-01 1.703890000000000127e-01 2.784295000000000186e+01 1.521449999999999818e+02 2.237065000000000055e+03
1.200000000000000094e-01 1.703299999999999814e-01 2.685090000000000288e+01 1.500610000000000070e+02 2.236534999999999854e+03
1.209999999999999964e-01 1.702660000000000007e-01 2.581504999999999939e+01 1.478534999999999968e+02 2.235960000000000036e+03
1.219999999999999973e-01 1.701985000000000026e-01 2.475585000000000235e+01 1.455805000000000007e+02 2.235349999999999909e+03
1.229999999999999982e-01 1.701289999999999747e-01 2.369579999999999842e+01 1.433040000000000020e+02 2.234724999999999909e+03
1.239999999999999991e-01 1.700595000000000023e-01 2.265850000000000009e+01 1.410869999999999891e+02 2.234095000000000255e+03
1.250000000000000000e-01 1.699920000000000042e-01 2.166665000000000063e+01 1.389884999999999877e+02 2.233480000000000018e+03
1.260000000000000009e-01 1.699275000000000091e-01 2.074159999999999826e+01 1.370620000000000118e+02 2.232900000000000091e+03
1.270000000000000018e-01 1.698684999999999778e-01 1.990135000000000076e+01 1.353520000000000039e+02 2.232355000000000018e+03
1.280000000000000027e-01 1.698155000000000081e-01 1.916040000000000276e+01 1.338910000000000196e+02 2.231869999999999891e+03
1.290000000000000036e-01 1.697690000000000032e-01 1.852875000000000227e+01 1.326999999999999886e+02 2.231449999999999818e+03
1.300000000000000044e-01 1.697310000000000207e-01 1.801170000000000115e+01 1.317880000000000109e+02 2.231099999999999909e+03
1.310000000000000053e-01 1.697015000000000051e-01 1.760985000000000156e+01 1.311505000000000223e+02 2.230820000000000164e+03
1.320000000000000062e-01 1.696794999999999831e-01 1.731940000000000168e+01 1.307735000000000127e+02 2.230614999999999782e+03
1.330000000000000071e-01 1.696650000000000102e-01 1.713244999999999862e+01 1.306324999999999932e+02 2.230474999999999909e+03
1.340000000000000080e-01 1.696580000000000032e-01 1.703784999999999883e+01 1.306954999999999814e+02 2.230400000000000091e+03
1.350000000000000089e-01 1.696564999999999879e-01 1.702179999999999893e+01 1.309259999999999877e+02 2.230380000000000109e+03
1.360000000000000098e-01 1.696604999999999919e-01 1.706884999999999764e+01 1.312835000000000036e+02 2.230409999999999854e+03
1.370000000000000107e-01 1.696684999999999999e-01 1.716254999999999953e+01 1.317280000000000086e+02 2.230475000000000364e+03
1.380000000000000115e-01 1.696790000000000243e-01 1.728629999999999711e+01 1.322185000000000059e+02 2.230565000000000055e+03
1.390000000000000124e-01 1.696914999999999951e-01 1.742425000000000068e+01 1.327175000000000011e+02 2.230675000000000182e+03
1.400000000000000133e-01 1.697039999999999937e-01 1.756174999999999997e+01 1.331940000000000168e+02 2.230784999999999854e+03
1.410000000000000142e-01 1.697170000000000067e-01 1.768599999999999994e+01 1.336184999999999832e+02 2.230899999999999636e+03
1.420000000000000151e-01 1.697285000000000044e-01 1.778640000000000043e+01 1.339699999999999989e+02 2.231000000000000000e+03
1.430000000000000160e-01 1.697374999999999856e-01 1.785494999999999877e+01 1.342330000000000041e+02 2.231090000000000146e+03
1.440000000000000169e-01 1.697450000000000070e-01 1.788640000000000185e+01 1.344005000000000223e+02 2.231154999999999745e+03
1.450000000000000178e-01 1.697494999999999976e-01 1.787814999999999799e+01 1.344694999999999823e+02 2.231199999999999818e+03
1.459999999999999909e-01 1.697514999999999996e-01 1.783030000000000115e+01 1.344454999999999814e+02 2.231220000000000255e+03
1.469999999999999918e-01 1.697509999999999852e-01 1.774544999999999817e+01 1.343374999999999773e+02 2.231220000000000255e+03
1.479999999999999927e-01 1.697480000000000100e-01 1.762814999999999799e+01 1.341605000000000132e+02 2.231194999999999709e+03
1.489999999999999936e-01 1.697434999999999916e-01 1.748454999999999870e+01 1.339320000000000164e+02 2.231154999999999745e+03
1.499999999999999944e-01 1.697369999999999990e-01 1.732195000000000107e+01 1.336719999999999970e+02 2.231100000000000364e+03
1.509999999999999953e-01 1.697305000000000064e-01 1.714825000000000088e+01 1.334004999999999939e+02 2.231039999999999964e+03
1.519999999999999962e-01 1.697230000000000127e-01 1.697125000000000128e+01 1.331355000000000075e+02 2.230974999999999909e+03
1.529999999999999971e-01 1.697150000000000047e-01 1.679834999999999923e+01 1.328954999999999984e+02 2.230909999999999854e+03
1.539999999999999980e-01 1.697089999999999987e-01 1.663589999999999947e+01 1.326940000000000168e+02 2.230850000000000364e+03
1.549999999999999989e-01 1.697035000000000071e-01 1.648920000000000030e+01 1.325420000000000016e+02 2.230800000000000182e+03
1.559999999999999998e-01 1.696989999999999887e-01 1.636204999999999998e+01 1.324449999999999932e+02 2.230765000000000327e+03
1.570000000000000007e-01 1.696965000000000001e-01 1.625669999999999860e+01 1.324064999999999941e+02 2.230739999999999782e+03
1.580000000000000016e-01 1.696954999999999991e-01 1.617379999999999995e+01 1.324239999999999782e+02 2.230724999999999909e+03
1.590000000000000024e-01 1.696960000000000135e-01 1.611254999999999882e+01 1.324925000000000068e+02 2.230730000000000018e+03
