# t [s], A [cm^2], U [cm/s], P [cPa], c [cm/s]
1.000000000000000021e-03 6.938964999999999161e-01 5.106650000000004241e-03 1.089170000000000016e+02 1.606860000000000127e+03
2.000000000000000042e-03 6.938860000000000028e-01 -1.820149999999999980e-04 1.088924999999999983e+02 1.606855000000000018e+03
3.000000000000000062e-03 6.939450000000000340e-01 9.115265000000000173e-02 1.089915000000000020e+02 1.606880000000000109e+03
4.000000000000000083e-03 6.939980000000000038e-01 1.820290999999999992e-01 1.091089999999999947e+02 1.606905000000000200e+03
5.000000000000000104e-03 6.939735000000000209e-01 1.600281000000000065e-01 1.090625000000000000e+02 1.606900000000000091e+03
6.000000000000000125e-03 6.939075000000000104e-01 6.851250000000000395e-02 1.088615000000000066e+02 1.606859999999999900e+03
7.000000000000000146e-03 6.938480000000000203e-01 -2.026499999999997748e-02 1.085960000000000036e+02 1.606804999999999836e+03
8.000000000000000167e-03 6.937569999999999570e-01 -1.695269999999999833e-01 1.082065000000000055e+02 1.606724999999999909e+03
9.000000000000001055e-03 6.936010000000000231e-01 -4.368499999999999606e-01 1.076024999999999920e+02 1.606599999999999909e+03
1.000000000000000194e-02 6.933734999999999760e-01 -8.290600000000001302e-01 1.067355000000000018e+02 1.606424999999999955e+03
1.099999999999999936e-02 6.930590000000000916e-01 -1.362169999999999881e+00 1.055450000000000017e+02 1.606170000000000073e+03
1.200000000000000025e-02 6.926440000000000374e-01 -2.037889999999999979e+00 1.039826500000000067e+02 1.605835000000000036e+03
1.300000000000000114e-02 6.921570000000000222e-01 -2.787815000000000154e+00 1.020921999999999912e+02 1.605420000000000073e+03
1.400000000000000203e-02 6.916594999999999827e-01 -3.478370000000000406e+00 1.000259000000000071e+02 1.604954999999999927e+03
1.499999999999999944e-02 6.912165000000000115e-01 -3.972099500000000560e+00 9.798304999999999154e+01 1.604474999999999909e+03
1.600000000000000033e-02 6.908590000000000009e-01 -4.185768999999999629e+00 9.612084999999999013e+01 1.604005000000000109e+03
1.700000000000000122e-02 6.905814999999999593e-01 -4.110670500000000338e+00 9.450829999999999131e+01 1.603585000000000036e+03
1.800000000000000211e-02 6.903509999999999369e-01 -3.798677000000000081e+00 9.311854999999999905e+01 1.603195000000000164e+03
1.900000000000000300e-02 6.901239999999999597e-01 -3.331669500000000284e+00 9.186095000000000255e+01 1.602829999999999927e+03
2.000000000000000042e-02 6.898644999999999916e-01 -2.789134000000000224e+00 9.062430000000000518e+01 1.602465000000000146e+03
2.100000000000000130e-02 6.895545000000000702e-01 -2.223669999999999813e+00 8.931844999999999857e+01 1.602090000000000146e+03
2.200000000000000219e-02 6.891944999999999322e-01 -1.650770000000000071e+00 8.790174999999999272e+01 1.601694999999999936e+03
2.299999999999999961e-02 6.888035000000000130e-01 -1.055224999999999858e+00 8.638519999999999754e+01 1.601279999999999973e+03
2.400000000000000050e-02 6.884040000000000159e-01 -4.097150000000002734e-01 8.481459999999999866e+01 1.600849999999999909e+03
2.500000000000000139e-02 6.880129999999999857e-01 3.035700000000001175e-01 8.324115000000000464e+01 1.600414999999999964e+03
2.600000000000000228e-02 6.876335000000000086e-01 1.077354999999999841e+00 8.169395000000000095e+01 1.599985000000000127e+03
2.700000000000000316e-02 6.872540000000000315e-01 1.874199999999999866e+00 8.016310000000000002e+01 1.599555000000000064e+03
2.800000000000000058e-02 6.868509999999999893e-01 2.631780000000000008e+00 7.859805000000000064e+01 1.599119999999999891e+03
2.900000000000000147e-02 6.863974999999999937e-01 3.275780000000000136e+00 7.691915000000000191e+01 1.598659999999999854e+03
3.000000000000000236e-02 6.858675000000000743e-01 3.736305000000000209e+00 7.503794999999999504e+01 1.598164999999999964e+03
3.099999999999999978e-02 6.852464999999999806e-01 3.963860000000000383e+00 7.288245000000000573e+01 1.597609999999999900e+03
3.200000000000000067e-02 6.845345000000000457e-01 3.940864999999999618e+00 7.041884999999999195e+01 1.596994999999999891e+03
3.300000000000000155e-02 6.837480000000000224e-01 3.685410000000000075e+00 6.766495000000000459e+01 1.596319999999999936e+03
3.400000000000000244e-02 6.829175000000000662e-01 3.247020000000000461e+00 6.469159999999999400e+01 1.595590000000000146e+03
3.500000000000000333e-02 6.820809999999999373e-01 2.695564999999999767e+00 6.161190000000000566e+01 1.594829999999999927e+03
3.600000000000000422e-02 6.812769999999999104e-01 2.107940000000000147e+00 5.856340000000000146e+01 1.594074999999999818e+03
3.700000000000000511e-02 6.805415000000000214e-01 1.555860000000000021e+00 5.568765000000000498e+01 1.593355000000000018e+03
3.799999999999999906e-02 6.799025000000000762e-01 1.097650000000000237e+00 5.311254999999999882e+01 1.592684999999999945e+03
3.899999999999999994e-02 6.793789999999999552e-01 7.743850000000001010e-01 5.094044999999999845e+01 1.592105000000000018e+03
4.000000000000000083e-02 6.789800000000000280e-01 6.105550000000001809e-01 4.924240000000000350e+01 1.591630000000000109e+03
4.100000000000000172e-02 6.787104999999999944e-01 6.173350000000001891e-01 4.805854999999999677e+01 1.591269999999999982e+03
4.200000000000000261e-02 6.785685000000000189e-01 7.973049999999999304e-01 4.740279999999999916e+01 1.591030000000000200e+03
4.300000000000000350e-02 6.785499999999999865e-01 1.149106500000000031e+00 4.726989999999999981e+01 1.590924999999999955e+03
4.400000000000000439e-02 6.786514999999999631e-01 1.670887000000000011e+00 4.764265000000000327e+01 1.590940000000000055e+03
4.499999999999999833e-02 6.788674999999999571e-01 2.361961250000000234e+00 4.849814999999999543e+01 1.591079999999999927e+03
4.599999999999999922e-02 6.791929999999999357e-01 3.222471999999999781e+00 4.981094999999999828e+01 1.591335000000000036e+03
4.700000000000000011e-02 6.796240000000000059e-01 4.251680499999999974e+00 5.155414999999999992e+01 1.591695000000000164e+03
4.800000000000000100e-02 6.801535000000000775e-01 5.445593500000000198e+00 5.369804999999999495e+01 1.592170000000000073e+03
4.900000000000000189e-02 6.807739999999999903e-01 6.794749799999999951e+00 5.620810000000000173e+01 1.592735000000000127e+03
5.000000000000000278e-02 6.814735000000000653e-01 8.283166500000000099e+00 5.904319999999999879e+01 1.593384999999999991e+03
5.100000000000000366e-02 6.822390000000000398e-01 9.887955000000001604e+00 6.215500000000000114e+01 1.594115000000000009e+03
5.200000000000000455e-02 6.830555000000000376e-01 1.158070000000000022e+01 6.548805000000000121e+01 1.594909999999999854e+03
5.300000000000000544e-02 6.839070000000000427e-01 1.332929999999999993e+01 6.898220000000000596e+01 1.595750000000000000e+03
5.399999999999999939e-02 6.847775000000000389e-01 1.510051500000000146e+01 7.257574999999999932e+01 1.596630000000000109e+03
5.500000000000000028e-02 6.856519999999999282e-01 1.686233000000000004e+01 7.620865000000000578e+01 1.597529999999999973e+03
5.600000000000000117e-02 6.865185000000000315e-01 1.858599999999999852e+01 7.982659999999999911e+01 1.598434999999999945e+03
5.700000000000000205e-02 6.873664999999999914e-01 2.024794999999999945e+01 8.338364999999998872e+01 1.599340000000000146e+03
5.800000000000000294e-02 6.881900000000000794e-01 2.183024999999999949e+01 8.684430000000000405e+01 1.600224999999999909e+03
5.900000000000000383e-02 6.889844999999999997e-01 2.332104999999999961e+01 9.018524999999999636e+01 1.601095000000000027e+03
6.000000000000000472e-02 6.897485000000000976e-01 2.471410000000000196e+01 9.339435000000000286e+01 1.601940000000000055e+03
6.099999999999999867e-02 6.904835000000000278e-01 2.600809999999999889e+01 9.646930000000000405e+01 1.602755000000000109e+03
6.199999999999999956e-02 6.911929999999999463e-01 2.720564999999999856e+01 9.941790000000000305e+01 1.603545000000000073e+03
6.300000000000000044e-02 6.918800000000000505e-01 2.831239999999999668e+01 1.022537999999999982e+02 1.604305000000000064e+03
6.400000000000000133e-02 6.925499999999999989e-01 2.933579999999999899e+01 1.049962999999999909e+02 1.605050000000000182e+03
6.500000000000000222e-02 6.932080000000000464e-01 3.028419999999999845e+01 1.076659999999999968e+02 1.605769999999999982e+03
6.600000000000000311e-02 6.938580000000000858e-01 3.116629999999999967e+01 1.102830000000000013e+02 1.606480000000000018e+03
6.700000000000000400e-02 6.945049999999999280e-01 3.198995000000000033e+01 1.128669999999999902e+02 1.607180000000000064e+03
6.800000000000000488e-02 6.951505000000000045e-01 3.276149999999999807e+01 1.154329999999999927e+02 1.607869999999999891e+03
6.900000000000000577e-02 6.957975000000000687e-01 3.348564999999999969e+01 1.179915000000000020e+02 1.608559999999999945e+03
7.000000000000000666e-02 6.964455000000000506e-01 3.416450000000000387e+01 1.205459999999999923e+02 1.609244999999999891e+03
7.100000000000000755e-02 6.970914999999999750e-01 3.479814999999999969e+01 1.230944999999999965e+02 1.609934999999999945e+03
7.200000000000000844e-02 6.977349999999999941e-01 3.538400000000000034e+01 1.256274999999999977e+02 1.610615000000000009e+03
7.300000000000000933e-02 6.983694999999999764e-01 3.591750000000000398e+01 1.281310000000000002e+02 1.611284999999999854e+03
7.399999999999999634e-02 6.989905000000000701e-01 3.639260000000000161e+01 1.305854999999999961e+02 1.611950000000000045e+03
7.499999999999999722e-02 6.995925000000000615e-01 3.680214999999999748e+01 1.329689999999999941e+02 1.612595000000000027e+03
7.599999999999999811e-02 7.001684999999999715e-01 3.713859999999999673e+01 1.352565000000000168e+02 1.613220000000000027e+03
7.699999999999999900e-02 7.007139999999999480e-01 3.739480000000000359e+01 1.374240000000000066e+02 1.613820000000000164e+03
7.799999999999999989e-02 7.012220000000000120e-01 3.756425000000000125e+01 1.394490000000000123e+02 1.614380000000000109e+03
7.900000000000000078e-02 7.016890000000000072e-01 3.764159999999999684e+01 1.413095000000000141e+02 1.614905000000000200e+03
8.000000000000000167e-02 7.021104999999999707e-01 3.762319999999999709e+01 1.429904999999999973e+02 1.615380000000000109e+03
8.100000000000000255e-02 7.024835000000000385e-01 3.750704999999999956e+01 1.444769999999999754e+02 1.615809999999999945e+03
8.200000000000000344e-02 7.028075000000000294e-01 3.729314999999999714e+01 1.457615000000000123e+02 1.616195000000000164e+03
8.300000000000000433e-02 7.030814999999999149e-01 3.698324999999999818e+01 1.468419999999999845e+02 1.616519999999999982e+03
8.400000000000000522e-02 7.033059999999999867e-01 3.658119999999999550e+01 1.477180000000000177e+02 1.616800000000000182e+03
8.500000000000000611e-02 7.034830000000000805e-01 3.609259999999999735e+01 1.483965000000000032e+02 1.617025000000000091e+03
8.600000000000000699e-02 7.036154999999999493e-01 3.552479999999999905e+01 1.488880000000000052e+02 1.617199999999999818e+03
8.700000000000000788e-02 7.037065000000000126e-01 3.488665000000000305e+01 1.492059999999999889e+02 1.617329999999999927e+03
8.800000000000000877e-02 7.037605000000000111e-01 3.418829999999999814e+01 1.493675000000000068e+02 1.617414999999999964e+03
8.899999999999999578e-02 7.037819999999999077e-01 3.344075000000000131e+01 1.493924999999999841e+02 1.617460000000000036e+03
8.999999999999999667e-02 7.037759999999999572e-01 3.265585000000000093e+01 1.493009999999999877e+02 1.617480000000000018e+03
9.099999999999999756e-02 7.037489999999999579e-01 3.184555000000000291e+01 1.491159999999999854e+02 1.617460000000000036e+03
9.199999999999999845e-02 7.037054999999999838e-01 3.102159999999999940e+01 1.488600000000000136e+02 1.617425000000000182e+03
9.299999999999999933e-02 7.036499999999999977e-01 3.019519999999999982e+01 1.485540000000000020e+02 1.617369999999999891e+03
9.400000000000000022e-02 7.035879999999999912e-01 2.937644999999999840e+01 1.482175000000000011e+02 1.617299999999999955e+03
9.500000000000000111e-02 7.035225000000000506e-01 2.857410000000000139e+01 1.478679999999999950e+02 1.617230000000000018e+03
9.600000000000000200e-02 7.034579999999999167e-01 2.779509999999999792e+01 1.475200000000000102e+02 1.617144999999999982e+03
9.700000000000000289e-02 7.033949999999999925e-01 2.704444999999999766e+01 1.471839999999999975e+02 1.617065000000000055e+03
9.800000000000000377e-02 7.033359999999999612e-01 2.632509999999999906e+01 1.468679999999999950e+02 1.616985000000000127e+03
9.900000000000000466e-02 7.032810000000000450e-01 2.563785000000000025e+01 1.465749999999999886e+02 1.616909999999999854e+03
1.000000000000000056e-01 7.032289999999999930e-01 2.498170000000000002e+01 1.463045000000000186e+02 1.616839999999999918e+03
1.010000000000000064e-01 7.031799999999999162e-01 2.435369999999999990e+01 1.460525000000000091e+02 1.616764999999999873e+03
1.020000000000000073e-01 7.031309999999999505e-01 2.374970000000000070e+01 1.458120000000000118e+02 1.616699999999999818e+03
1.030000000000000082e-01 7.030804999999999971e-01 2.316420000000000101e+01 1.455755000000000052e+02 1.616634999999999991e+03
1.040000000000000091e-01 7.030250000000000110e-01 2.259105000000000274e+01 1.453315000000000055e+02 1.616565000000000055e+03
1.050000000000000100e-01 7.029630000000000045e-01 2.202374999999999972e+01 1.450695000000000050e+02 1.616490000000000009e+03
1.059999999999999970e-01 7.028909999999999325e-01 2.145584999999999809e+01 1.447775000000000034e+02 1.616414999999999964e+03
1.069999999999999979e-01 7.028069999999999595e-01 2.088130000000000308e+01 1.444459999999999980e+02 1.616329999999999927e+03
1.079999999999999988e-01 7.027094999999999869e-01 2.029459999999999908e+01 1.440654999999999859e+02 1.616230000000000018e+03
1.089999999999999997e-01 7.025965000000000682e-01 1.969134999999999991e+01 1.436285000000000025e+02 1.616119999999999891e+03
1.100000000000000006e-01 7.024675000000000225e-01 1.906840000000000046e+01 1.431305000000000121e+02 1.615994999999999891e+03
1.110000000000000014e-01 7.023215000000000430e-01 1.842370000000000019e+01 1.425690000000000168e+02 1.615855000000000018e+03
1.120000000000000023e-01 7.021600000000000064e-01 1.775704999999999956e+01 1.419440000000000168e+02 1.615699999999999818e+03
1.130000000000000032e-01 7.019845000000000113e-01 1.706940000000000168e+01 1.412599999999999909e+02 1.615529999999999973e+03
1.140000000000000041e-01 7.017960000000000864e-01 1.636339999999999861e+01 1.405225000000000080e+02 1.615344999999999800e+03
1.150000000000000050e-01 7.015970000000000262e-01 1.564304999999999879e+01 1.397400000000000091e+02 1.615154999999999973e+03
1.160000000000000059e-01 7.013909999999999867e-01 1.491365000000000052e+01 1.389234999999999900e+02 1.614944999999999936e+03
1.170000000000000068e-01 7.011810000000000542e-01 1.418144999999999811e+01 1.380860000000000127e+02 1.614735000000000127e+03
1.180000000000000077e-01 7.009714999999999696e-01 1.345353000000000065e+01 1.372420000000000186e+02 1.614515000000000100e+03
1.190000000000000085e-01 7.007650000000000823e-01 1.273751000000000033e+01 1.364064999999999941e+02 1.614305000000000064e+03
1.200000000000000094e-01 7.005664999999999809e-01 1.204119999999999990e+01 1.355949999999999989e+02 1.614095000000000027e+03
1.209999999999999964e-01 7.003785000000000149e-01 1.137232000000000021e+01 1.348215000000000146e+02 1.613894999999999982e+03
1.219999999999999973e-01 7.002055000000000362e-01 1.073802500000000038e+01 1.341009999999999991e+02 1.613700000000000045e+03
1.229999999999999982e-01 7.000489999999999213e-01 1.014497499999999874e+01 1.334454999999999814e+02 1.613525000000000091e+03
1.239999999999999991e-01 6.999124999999999375e-01 9.598599999999999355e+00 1.328659999999999854e+02 1.613355000000000018e+03
1.250000000000000000e-01 6.997970000000000024e-01 9.103310000000000457e+00 1.323695000000000164e+02 1.613220000000000027e+03
1.260000000000000009e-01 6.997039999999999926e-01 8.662095000000000766e+00 1.319619999999999891e+02 1.613095000000000027e+03
1.270000000000000018e-01 6.996339999999999781e-01 8.276485000000000980e+00 1.316460000000000150e+02 1.612994999999999891e+03
1.280000000000000027e-01 6.995854999999999713e-01 7.946640000000000370e+00 1.314205000000000041e+02 1.612920000000000073e+03
1.290000000000000036e-01 6.995590000000000419e-01 7.671265000000000001e+00 1.312839999999999918e+02 1.612869999999999891e+03
1.300000000000000044e-01 6.995510000000000339e-01 7.447784999999999656e+00 1.312284999999999968e+02 1.612835000000000036e+03
1.310000000000000053e-01 6.995605000000000295e-01 7.272510000000000474e+00 1.312485000000000070e+02 1.612825000000000045e+03
1.320000000000000062e-01 6.995850000000000124e-01 7.140830000000000233e+00 1.313325000000000102e+02 1.612824999999999818e+03
1.330000000000000071e-01 6.996225000000000360e-01 7.047454999999999359e+00 1.314719999999999800e+02 1.612845000000000027e+03
1.340000000000000080e-01 6.996685000000000265e-01 6.986670000000000158e+00 1.316544999999999845e+02 1.612875000000000000e+03
1.350000000000000089e-01 6.997210000000000374e-01 6.952550000000000452e+00 1.318684999999999832e+02 1.612914999999999964e+03
1.360000000000000098e-01 6.997780000000000111e-01 6.939194999999999780e+00 1.321034999999999968e+02 1.612965000000000146e+03
1.370000000000000107e-01 6.998364999999999725e-01 6.940945000000000142e+00 1.323485000000000014e+02 1.613019999999999982e+03
1.380000000000000115e-01 6.998940000000000161e-01 6.952505000000000379e+00 1.325935000000000059e+02 1.613075000000000045e+03
1.390000000000000124e-01 6.999495000000000022e-01 6.969115000000000393e+00 1.328305000000000007e+02 1.613125000000000000e+03
1.400000000000000133e-01 7.000005000000000255e-01 6.986634999999999707e+00 1.330534999999999854e+02 1.613184999999999945e+03
1.410000000000000142e-01 7.000465000000000160e-01 7.001580000000000581e+00 1.332560000000000002e+02 1.613230000000000018e+03
1.420000000000000151e-01 7.000870000000000148e-01 7.011165000000000092e+00 1.334354999999999905e+02 1.613279999999999973e+03
1.430000000000000160e-01 7.001209999999999933e-01 7.013320000000000221e+00 1.335889999999999986e+02 1.613315000000000055e+03
1.440000000000000169e-01 7.001489999999999103e-01 7.006629999999999470e+00 1.337160000000000082e+02 1.613355000000000018e+03
1.450000000000000178e-01 7.001705000000000290e-01 6.990320000000000533e+00 1.338160000000000025e+02 1.613384999999999991e+03
1.459999999999999909e-01 7.001865000000000450e-01 6.964175000000000004e+00 1.338910000000000196e+02 1.613404999999999973e+03
1.469999999999999918e-01 7.001975000000000282e-01 6.928514999999999979e+00 1.339435000000000002e+02 1.613420000000000073e+03
1.479999999999999927e-01 7.002040000000000486e-01 6.884059999999999846e+00 1.339750000000000227e+02 1.613434999999999945e+03
1.489999999999999936e-01 7.002064999999999539e-01 6.831889999999999574e+00 1.339890000000000043e+02 1.613444999999999936e+03
1.499999999999999944e-01 7.002064999999999539e-01 6.773350000000000648e+00 1.339900000000000091e+02 1.613444999999999936e+03
1.509999999999999953e-01 7.002045000000000075e-01 6.709934999999999761e+00 1.339805000000000064e+02 1.613450000000000045e+03
1.519999999999999962e-01 7.002009999999999623e-01 6.643250000000000099e+00 1.339639999999999986e+02 1.613445000000000164e+03
1.529999999999999971e-01 7.001975000000000282e-01 6.574889999999999901e+00 1.339429999999999836e+02 1.613445000000000164e+03
1.539999999999999980e-01 7.001939999999999831e-01 6.506365000000000620e+00 1.339215000000000089e+02 1.613445000000000164e+03
1.549999999999999989e-01 7.001915000000000777e-01 6.439054999999999751e+00 1.339010000000000105e+02 1.613434999999999945e+03
1.559999999999999998e-01 7.001889999999999503e-01 6.374109999999999943e+00 1.338829999999999814e+02 1.613440000000000055e+03
1.570000000000000007e-01 7.001880000000000326e-01 6.312469999999999359e+00 1.338684999999999832e+02 1.613434999999999945e+03
1.580000000000000016e-01 7.001884999999999915e-01 6.254780000000000229e+00 1.338584999999999923e+02 1.613429999999999836e+03
1.590000000000000024e-01 7.001895000000000202e-01 6.201414999999999900e+00 1.338524999999999920e+02 1.613429999999999836e+03
