# t [s], A [cm^2], U [cm/s], P [cPa], c [cm/s]
1.000000000000000021e-03 1.953749999999999931e-01 5.569296000000000246e-01 8.583074999999999477e+01 2.033654999999999973e+03
2.000000000000000042e-03 1.953030000000000044e-01 2.261231500000000061e+00 8.188634999999999309e+01 2.033090000000000146e+03
3.000000000000000062e-03 1.951370000000000049e-01 4.248532499999999601e+00 7.689209999999999923e+01 2.031835000000000036e+03
4.000000000000000083e-03 1.949299999999999922e-01 6.451789999999999914e+00 7.221885000000000332e+01 2.030279999999999973e+03
5.000000000000000104e-03 1.947249999999999814e-01 8.726565000000000794e+00 6.864570000000000505e+01 2.028750000000000000e+03
6.000000000000000125e-03 1.945350000000000135e-01 1.078270499999999998e+01 6.589300000000000068e+01 2.027360000000000127e+03
7.000000000000000146e-03 1.943610000000000060e-01 1.246151499999999857e+01 6.345664999999999623e+01 2.026110000000000127e+03
8.000000000000000167e-03 1.942085000000000061e-01 1.381934000000000040e+01 6.134539999999999793e+01 2.025030000000000200e+03
9.000000000000001055e-03 1.940810000000000035e-01 1.491270000000000095e+01 5.968260000000000076e+01 2.024139999999999873e+03
1.000000000000000194e-02 1.939779999999999838e-01 1.575225000000000009e+01 5.840179999999999438e+01 2.023429999999999836e+03
1.099999999999999936e-02 1.938964999999999994e-01 1.636289999999999978e+01 5.742504999999999882e+01 2.022875000000000000e+03
1.200000000000000025e-02 1.938340000000000063e-01 1.676450000000000173e+01 5.667990000000000350e+01 2.022454999999999927e+03
1.300000000000000114e-02 1.937840000000000118e-01 1.697475000000000023e+01 5.605894999999999584e+01 2.022134999999999991e+03
1.400000000000000203e-02 1.937450000000000006e-01 1.708265000000000100e+01 5.560654999999999859e+01 2.021884999999999991e+03
1.499999999999999944e-02 1.937249999999999805e-01 1.727560000000000073e+01 5.569105000000000416e+01 2.021769999999999982e+03
1.600000000000000033e-02 1.937380000000000213e-01 1.774719999999999942e+01 5.683405000000000484e+01 2.021869999999999891e+03
1.700000000000000122e-02 1.937969999999999970e-01 1.856114999999999782e+01 5.929410000000000025e+01 2.022289999999999964e+03
1.800000000000000211e-02 1.939004999999999757e-01 1.958705000000000140e+01 6.276779999999999404e+01 2.023014999999999873e+03
1.900000000000000300e-02 1.940295000000000214e-01 2.054954999999999998e+01 6.643474999999999397e+01 2.023920000000000073e+03
2.000000000000000042e-02 1.941549999999999943e-01 2.114900000000000091e+01 6.929184999999999661e+01 2.024815000000000055e+03
2.100000000000000130e-02 1.942470000000000030e-01 2.118430000000000035e+01 7.056889999999999930e+01 2.025485000000000127e+03
2.200000000000000219e-02 1.942854999999999999e-01 2.062265000000000015e+01 7.001849999999998886e+01 2.025784999999999854e+03
2.299999999999999961e-02 1.942679999999999962e-01 1.959369999999999834e+01 6.796514999999999418e+01 2.025695000000000164e+03
2.400000000000000050e-02 1.942069999999999907e-01 1.832075000000000031e+01 6.511950000000000216e+01 2.025295000000000073e+03
2.500000000000000139e-02 1.941235000000000044e-01 1.702785000000000082e+01 6.226740000000000208e+01 2.024720000000000027e+03
2.600000000000000228e-02 1.940390000000000170e-01 1.586510000000000176e+01 5.998380000000000223e+01 2.024130000000000109e+03
2.700000000000000316e-02 1.939675000000000149e-01 1.487860000000000049e+01 5.848329999999999984e+01 2.023625000000000000e+03
2.800000000000000058e-02 1.939144999999999897e-01 1.402585000000000015e+01 5.763620000000000232e+01 2.023240000000000009e+03
2.900000000000000147e-02 1.938759999999999928e-01 1.322050000000000125e+01 5.710715000000000430e+01 2.022970000000000027e+03
3.000000000000000236e-02 1.938429999999999875e-01 1.238374999999999915e+01 5.653900000000000148e+01 2.022735000000000127e+03
3.099999999999999978e-02 1.938075000000000214e-01 1.148444500000000090e+01 5.571079999999999899e+01 2.022490000000000009e+03
3.200000000000000067e-02 1.937655000000000072e-01 1.055592000000000041e+01 5.462125000000000341e+01 2.022194999999999936e+03
3.300000000000000155e-02 1.937200000000000033e-01 9.687155000000000626e+00 5.348180000000000689e+01 2.021875000000000000e+03
3.400000000000000244e-02 1.936785000000000034e-01 8.992309999999999803e+00 5.263029999999999831e+01 2.021585000000000036e+03
3.500000000000000333e-02 1.936519999999999908e-01 8.571534999999999016e+00 5.240115000000000123e+01 2.021384999999999991e+03
3.600000000000000422e-02 1.936495000000000022e-01 8.475545000000000329e+00 5.300030000000000285e+01 2.021349999999999909e+03
3.700000000000000511e-02 1.936755000000000004e-01 8.685555000000000803e+00 5.442414999999999736e+01 2.021519999999999982e+03
3.799999999999999906e-02 1.937289999999999845e-01 9.113095000000001278e+00 5.644499999999999318e+01 2.021875000000000000e+03
3.899999999999999994e-02 1.938000000000000000e-01 9.617390000000000327e+00 5.865905000000000058e+01 2.022365000000000009e+03
4.000000000000000083e-02 1.938745000000000052e-01 1.003332999999999942e+01 6.057659999999999911e+01 2.022880000000000109e+03
4.100000000000000172e-02 1.939365000000000117e-01 1.020193000000000083e+01 6.172339999999999804e+01 2.023315000000000055e+03
4.200000000000000261e-02 1.939700000000000035e-01 9.995470000000000965e+00 6.172809999999999775e+01 2.023554999999999836e+03
4.300000000000000350e-02 1.939615000000000089e-01 9.333729999999999194e+00 6.037720000000000198e+01 2.023505000000000109e+03
4.400000000000000439e-02 1.939045000000000074e-01 8.189750000000000085e+00 5.763235000000000241e+01 2.023115000000000009e+03
4.499999999999999833e-02 1.937959999999999960e-01 6.586304999999999410e+00 5.361325000000000074e+01 2.022375000000000000e+03
4.599999999999999922e-02 1.936410000000000076e-01 4.586373000000000033e+00 4.855795000000000528e+01 2.021295000000000073e+03
4.700000000000000011e-02 1.934454999999999925e-01 2.280770000000000408e+00 4.277445000000000164e+01 2.019934999999999945e+03
4.800000000000000100e-02 1.932205000000000172e-01 -2.238050000000000317e-01 3.659485000000000099e+01 2.018365000000000009e+03
4.900000000000000189e-02 1.929770000000000096e-01 -2.814445000000000086e+00 3.034109999999999729e+01 2.016664999999999964e+03
5.000000000000000278e-02 1.927280000000000104e-01 -5.378718000000000110e+00 2.430474999999999852e+01 2.014920000000000073e+03
5.100000000000000366e-02 1.924825000000000008e-01 -7.808769999999999101e+00 1.873985000000000056e+01 2.013199999999999818e+03
5.200000000000000455e-02 1.922530000000000072e-01 -1.000337000000000032e+01 1.386322499999999991e+01 2.011585000000000036e+03
5.300000000000000544e-02 1.920474999999999821e-01 -1.187000000000000099e+01 9.858724999999999739e+00 2.010130000000000109e+03
5.399999999999999939e-02 1.918739999999999890e-01 -1.332649999999999935e+01 6.879936999999999969e+00 2.008904999999999973e+03
5.500000000000000028e-02 1.917400000000000215e-01 -1.430399999999999849e+01 5.049862000000000073e+00 2.007950000000000045e+03
5.600000000000000117e-02 1.916505000000000014e-01 -1.475039999999999907e+01 4.455849999999999866e+00 2.007299999999999955e+03
5.700000000000000205e-02 1.916104999999999892e-01 -1.463390000000000057e+01 5.142229999999999634e+00 2.006990000000000009e+03
5.800000000000000294e-02 1.916215000000000002e-01 -1.394650000000000034e+01 7.102090000000000458e+00 2.007039999999999964e+03
5.900000000000000383e-02 1.916839999999999933e-01 -1.270570000000000022e+01 1.027150999999999925e+01 2.007440000000000055e+03
6.000000000000000472e-02 1.917959999999999943e-01 -1.095461500000000044e+01 1.452860000000000085e+01 2.008190000000000055e+03
6.099999999999999867e-02 1.919524999999999981e-01 -8.759634999999999394e+00 1.969900000000000162e+01 2.009250000000000000e+03
6.199999999999999956e-02 1.921474999999999989e-01 -6.205750000000000099e+00 2.556735000000000113e+01 2.010590000000000146e+03
6.300000000000000044e-02 1.923730000000000162e-01 -3.390759999999999774e+00 3.189339999999999975e+01 2.012139999999999873e+03
6.400000000000000133e-02 1.926200000000000134e-01 -4.182299999999998796e-01 3.843104999999999905e+01 2.013860000000000127e+03
6.500000000000000222e-02 1.928794999999999815e-01 2.608870000000000466e+00 4.494579999999999842e+01 2.015664999999999964e+03
6.600000000000000311e-02 1.931410000000000071e-01 5.594047499999999395e+00 5.122964999999999947e+01 2.017505000000000109e+03
6.700000000000000400e-02 1.933980000000000143e-01 8.451634999999999565e+00 5.711150000000000659e+01 2.019309999999999945e+03
6.800000000000000488e-02 1.936430000000000096e-01 1.110998999999999981e+01 6.246255000000000024e+01 2.021045000000000073e+03
6.900000000000000577e-02 1.938699999999999868e-01 1.351355500000000021e+01 6.719814999999999827e+01 2.022660000000000082e+03
7.000000000000000666e-02 1.940755000000000119e-01 1.562374999999999936e+01 7.127655000000000030e+01 2.024125000000000000e+03
7.100000000000000755e-02 1.942574999999999996e-01 1.741955000000000098e+01 7.469624999999999204e+01 2.025429999999999836e+03
7.200000000000000844e-02 1.944144999999999901e-01 1.889719999999999800e+01 7.749230000000000018e+01 2.026565000000000055e+03
7.300000000000000933e-02 1.945479999999999987e-01 2.006954999999999956e+01 7.973224999999999341e+01 2.027534999999999854e+03
7.399999999999999634e-02 1.946594999999999853e-01 2.096464999999999890e+01 8.151165000000000305e+01 2.028349999999999909e+03
7.499999999999999722e-02 1.947524999999999951e-01 2.162349999999999994e+01 8.294835000000000491e+01 2.029039999999999964e+03
7.599999999999999811e-02 1.948320000000000052e-01 2.209750000000000014e+01 8.417555000000000121e+01 2.029630000000000109e+03
7.699999999999999900e-02 1.949020000000000197e-01 2.244474999999999909e+01 8.533419999999999561e+01 2.030150000000000091e+03
7.799999999999999989e-02 1.949680000000000024e-01 2.272625000000000028e+01 8.656385000000000218e+01 2.030639999999999873e+03
7.900000000000000078e-02 1.950359999999999872e-01 2.300140000000000029e+01 8.799344999999999573e+01 2.031135000000000218e+03
8.000000000000000167e-02 1.951109999999999789e-01 2.332424999999999926e+01 8.973265000000000668e+01 2.031679999999999836e+03
8.100000000000000255e-02 1.951959999999999806e-01 2.373960000000000292e+01 9.186390000000000100e+01 2.032295000000000073e+03
8.200000000000000344e-02 1.952955000000000108e-01 2.427989999999999782e+01 9.443629999999998859e+01 2.033009999999999991e+03
8.300000000000000433e-02 1.954110000000000014e-01 2.496345000000000169e+01 9.746235000000000070e+01 2.033835000000000036e+03
8.400000000000000522e-02 1.955430000000000224e-01 2.579310000000000258e+01 1.009169499999999999e+02 2.034779999999999973e+03
8.500000000000000611e-02 1.956915000000000182e-01 2.675694999999999979e+01 1.047400000000000091e+02 2.035835000000000036e+03
8.600000000000000699e-02 1.958535000000000137e-01 2.782934999999999803e+01 1.088414999999999964e+02 2.037000000000000000e+03
8.700000000000000788e-02 1.960264999999999924e-01 2.897334999999999994e+01 1.131069999999999993e+02 2.038235000000000127e+03
8.800000000000000877e-02 1.962065000000000059e-01 3.014369999999999905e+01 1.174089999999999918e+02 2.039519999999999982e+03
8.899999999999999578e-02 1.963880000000000070e-01 3.129025000000000034e+01 1.216125000000000114e+02 2.040820000000000164e+03
8.999999999999999667e-02 1.965664999999999774e-01 3.236140000000000327e+01 1.255889999999999986e+02 2.042099999999999909e+03
9.099999999999999756e-02 1.967360000000000220e-01 3.330754999999999910e+01 1.292175000000000011e+02 2.043329999999999927e+03
9.199999999999999845e-02 1.968929999999999847e-01 3.408384999999999820e+01 1.323979999999999961e+02 2.044464999999999918e+03
9.299999999999999933e-02 1.970330000000000137e-01 3.465250000000000341e+01 1.350500000000000114e+02 2.045485000000000127e+03
9.400000000000000022e-02 1.971525000000000083e-01 3.498479999999999990e+01 1.371204999999999927e+02 2.046360000000000127e+03
9.500000000000000111e-02 1.972494999999999943e-01 3.506215000000000259e+01 1.385810000000000173e+02 2.047069999999999936e+03
9.600000000000000200e-02 1.973225000000000118e-01 3.487659999999999627e+01 1.394284999999999854e+02 2.047610000000000127e+03
9.700000000000000289e-02 1.973710000000000186e-01 3.443094999999999573e+01 1.396860000000000070e+02 2.047980000000000018e+03
9.800000000000000377e-02 1.973955000000000015e-01 3.373805000000000121e+01 1.393959999999999866e+02 2.048175000000000182e+03
9.900000000000000466e-02 1.973975000000000035e-01 3.282009999999999650e+01 1.386214999999999975e+02 2.048204999999999927e+03
1.000000000000000056e-01 1.973794999999999855e-01 3.170720000000000027e+01 1.374385000000000048e+02 2.048090000000000146e+03
1.010000000000000064e-01 1.973439999999999916e-01 3.043574999999999875e+01 1.359345000000000141e+02 2.047849999999999909e+03
1.020000000000000073e-01 1.972939999999999972e-01 2.904659999999999798e+01 1.342040000000000077e+02 2.047500000000000000e+03
1.030000000000000082e-01 1.972335000000000060e-01 2.758315000000000339e+01 1.323425000000000011e+02 2.047075000000000045e+03
1.040000000000000091e-01 1.971660000000000079e-01 2.608955000000000268e+01 1.304445000000000050e+02 2.046599999999999909e+03
1.050000000000000100e-01 1.970950000000000202e-01 2.460820000000000007e+01 1.285980000000000132e+02 2.046094999999999800e+03
1.059999999999999970e-01 1.970244999999999913e-01 2.317855000000000132e+01 1.268820000000000050e+02 2.045595000000000027e+03
1.069999999999999979e-01 1.969575000000000076e-01 2.183500000000000085e+01 1.253615000000000066e+02 2.045110000000000127e+03
1.079999999999999988e-01 1.968969999999999887e-01 2.060560000000000258e+01 1.240870000000000033e+02 2.044674999999999955e+03
1.089999999999999997e-01 1.968445000000000056e-01 1.951140000000000185e+01 1.230929999999999893e+02 2.044289999999999964e+03
1.100000000000000006e-01 1.968024999999999913e-01 1.856540000000000035e+01 1.223930000000000007e+02 2.043974999999999909e+03
1.110000000000000014e-01 1.967705000000000148e-01 1.777230000000000132e+01 1.219865000000000066e+02 2.043739999999999782e+03
1.120000000000000023e-01 1.967495000000000216e-01 1.712894999999999968e+01 1.218524999999999920e+02 2.043579999999999927e+03
1.130000000000000032e-01 1.967395000000000116e-01 1.662490000000000023e+01 1.219569999999999936e+02 2.043500000000000000e+03
1.140000000000000041e-01 1.967379999999999962e-01 1.624300000000000210e+01 1.222520000000000095e+02 2.043475000000000136e+03
1.150000000000000050e-01 1.967444999999999888e-01 1.596095000000000041e+01 1.226804999999999950e+02 2.043514999999999873e+03
1.160000000000000059e-01 1.967565000000000008e-01 1.575254999999999939e+01 1.231779999999999973e+02 2.043589999999999918e+03
1.170000000000000068e-01 1.967714999999999881e-01 1.558915000000000006e+01 1.236784999999999997e+02 2.043690000000000055e+03
1.180000000000000077e-01 1.967869999999999897e-01 1.544150000000000134e+01 1.241165000000000020e+02 2.043795000000000073e+03
1.190000000000000085e-01 1.968015000000000181e-01 1.528120000000000012e+01 1.244309999999999974e+02 2.043890000000000100e+03
1.200000000000000094e-01 1.968104999999999993e-01 1.508204999999999885e+01 1.245695000000000050e+02 2.043954999999999927e+03
1.209999999999999964e-01 1.968135000000000023e-01 1.482184999999999953e+01 1.244890000000000043e+02 2.043974999999999909e+03
1.219999999999999973e-01 1.968090000000000117e-01 1.448284999999999911e+01 1.241599999999999966e+02 2.043940000000000055e+03
1.229999999999999982e-01 1.967944999999999833e-01 1.405325000000000024e+01 1.235655000000000001e+02 2.043839999999999918e+03
1.239999999999999991e-01 1.967700000000000005e-01 1.352724999999999866e+01 1.227044999999999959e+02 2.043664999999999964e+03
1.250000000000000000e-01 1.967355000000000076e-01 1.290545000000000009e+01 1.215914999999999964e+02 2.043414999999999964e+03
1.260000000000000009e-01 1.966904999999999903e-01 1.219449999999999967e+01 1.202520000000000095e+02 2.043099999999999909e+03
1.270000000000000018e-01 1.966370000000000062e-01 1.140695499999999996e+01 1.187249999999999943e+02 2.042719999999999800e+03
1.280000000000000027e-01 1.965760000000000007e-01 1.056001999999999974e+01 1.170589999999999975e+02 2.042279999999999973e+03
1.290000000000000036e-01 1.965085000000000026e-01 9.675060000000000215e+00 1.153094999999999999e+02 2.041799999999999955e+03
1.300000000000000044e-01 1.964374999999999871e-01 8.775999999999999801e+00 1.135360000000000014e+02 2.041295000000000073e+03
1.310000000000000053e-01 1.963654999999999984e-01 7.888199999999999434e+00 1.117994999999999948e+02 2.040774999999999864e+03
1.320000000000000062e-01 1.962935000000000096e-01 7.037225000000000286e+00 1.101585000000000036e+02 2.040259999999999764e+03
1.330000000000000071e-01 1.962254999999999971e-01 6.247384999999999522e+00 1.086674999999999898e+02 2.039769999999999982e+03
1.340000000000000080e-01 1.961620000000000030e-01 5.540604999999999336e+00 1.073719999999999999e+02 2.039315000000000055e+03
1.350000000000000089e-01 1.961060000000000025e-01 4.935369999999999813e+00 1.063110000000000070e+02 2.038914999999999964e+03
1.360000000000000098e-01 1.960589999999999833e-01 4.445875000000000021e+00 1.055095000000000027e+02 2.038569999999999936e+03
1.370000000000000107e-01 1.960224999999999884e-01 4.081425000000000303e+00 1.049819999999999993e+02 2.038295000000000073e+03
1.380000000000000115e-01 1.959960000000000035e-01 3.846049999999999969e+00 1.047319999999999993e+02 2.038099999999999909e+03
1.390000000000000124e-01 1.959805000000000019e-01 3.738499999999999712e+00 1.047485000000000070e+02 2.037980000000000018e+03
1.400000000000000133e-01 1.959754999999999969e-01 3.752360000000000362e+00 1.050099999999999909e+02 2.037934999999999945e+03
1.410000000000000142e-01 1.959805000000000019e-01 3.876554999999999751e+00 1.054869999999999948e+02 2.037965000000000146e+03
1.420000000000000151e-01 1.959950000000000025e-01 4.095959999999999823e+00 1.061400000000000006e+02 2.038059999999999945e+03
1.430000000000000160e-01 1.960164999999999824e-01 4.392255000000000464e+00 1.069249999999999972e+02 2.038204999999999927e+03
1.440000000000000169e-01 1.960439999999999960e-01 4.744815000000000005e+00 1.077930000000000064e+02 2.038394999999999982e+03
1.450000000000000178e-01 1.960755000000000137e-01 5.131755000000000067e+00 1.086949999999999932e+02 2.038615000000000009e+03
1.459999999999999909e-01 1.961084999999999912e-01 5.530920000000000059e+00 1.095835000000000008e+02 2.038849999999999909e+03
1.469999999999999918e-01 1.961424999999999974e-01 5.920840000000000103e+00 1.104134999999999991e+02 2.039090000000000146e+03
1.479999999999999927e-01 1.961745000000000017e-01 6.281634999999999636e+00 1.111440000000000055e+02 2.039319999999999936e+03
1.489999999999999936e-01 1.962034999999999751e-01 6.595774999999999721e+00 1.117419999999999902e+02 2.039519999999999982e+03
1.499999999999999944e-01 1.962274999999999991e-01 6.848720000000000141e+00 1.121814999999999998e+02 2.039695000000000164e+03
1.509999999999999953e-01 1.962460000000000038e-01 7.029374999999999929e+00 1.124455000000000098e+02 2.039829999999999927e+03
1.519999999999999962e-01 1.962579999999999880e-01 7.130365000000000286e+00 1.125240000000000009e+02 2.039920000000000073e+03
1.529999999999999971e-01 1.962630000000000208e-01 7.148149999999999338e+00 1.124164999999999992e+02 2.039960000000000036e+03
1.539999999999999980e-01 1.962605000000000044e-01 7.082980000000000054e+00 1.121304999999999978e+02 2.039950000000000045e+03
1.549999999999999989e-01 1.962510000000000088e-01 6.938615000000000421e+00 1.116804999999999950e+02 2.039885000000000218e+03
1.559999999999999998e-01 1.962349999999999928e-01 6.721985000000000099e+00 1.110859999999999985e+02 2.039775000000000091e+03
1.570000000000000007e-01 1.962129999999999985e-01 6.442655000000000243e+00 1.103725000000000023e+02 2.039625000000000000e+03
1.580000000000000016e-01 1.961864999999999859e-01 6.112260000000000026e+00 1.095679999999999978e+02 2.039430000000000064e+03
1.590000000000000024e-01 1.961550000000000238e-01 5.743819999999999482e+00 1.087030000000000030e+02 2.039215000000000146e+03
