# t [s], A [cm^2], U [cm/s], P [cPa], c [cm/s]
1.000000000000000021e-03 7.355589999999999629e-01 6.989999999999982339e-04 9.110529999999999973e+01 1.615384999999999991e+03
2.000000000000000042e-03 7.355625000000000080e-01 2.345784999999999537e-02 9.109489999999999554e+01 1.615380000000000109e+03
3.000000000000000062e-03 7.356620000000000381e-01 1.875031999999999810e-01 9.126970000000000027e+01 1.615424999999999955e+03
4.000000000000000083e-03 7.356765000000000665e-01 2.321570000000000022e-01 9.131245000000001255e+01 1.615434999999999945e+03
5.000000000000000104e-03 7.355855000000000032e-01 1.111325000000000229e-01 9.106815000000000282e+01 1.615384999999999991e+03
6.000000000000000125e-03 7.354810000000000514e-01 -4.623499999999991505e-02 9.065979999999998995e+01 1.615295000000000073e+03
7.000000000000000146e-03 7.353264999999999940e-01 -2.979549999999999699e-01 9.004054999999999609e+01 1.615154999999999973e+03
8.000000000000000167e-03 7.350579999999999892e-01 -7.473600000000000243e-01 8.904834999999999923e+01 1.614930000000000064e+03
9.000000000000001055e-03 7.346749999999999670e-01 -1.384355000000000224e+00 8.762829999999999586e+01 1.614605000000000018e+03
1.000000000000000194e-02 7.341604999999999936e-01 -2.215599999999999792e+00 8.572124999999999773e+01 1.614159999999999854e+03
1.099999999999999936e-02 7.334924999999999917e-01 -3.247089999999999588e+00 8.326699999999999591e+01 1.613570000000000164e+03
1.200000000000000025e-02 7.327224999999999433e-01 -4.363644999999999996e+00 8.036619999999999209e+01 1.612860000000000127e+03
1.300000000000000114e-02 7.319765000000000299e-01 -5.323403500000000399e+00 7.734194999999999709e+01 1.612090000000000146e+03
1.400000000000000203e-02 7.313775000000000137e-01 -5.885240000000000471e+00 7.460269999999999868e+01 1.611355000000000018e+03
1.499999999999999944e-02 7.309820000000000206e-01 -5.932220000000000049e+00 7.244610000000000127e+01 1.610724999999999909e+03
1.600000000000000033e-02 7.307609999999999939e-01 -5.506695000000000562e+00 7.094659999999998945e+01 1.610235000000000127e+03
1.700000000000000122e-02 7.306280000000000552e-01 -4.770059999999999967e+00 6.995834999999999582e+01 1.609849999999999909e+03
1.800000000000000211e-02 7.304834999999999523e-01 -3.925549999999999873e+00 6.919950000000000045e+01 1.609534999999999854e+03
1.900000000000000300e-02 7.302515000000000533e-01 -3.139215000000000089e+00 6.837475000000000591e+01 1.609219999999999800e+03
2.000000000000000042e-02 7.299035000000000384e-01 -2.488510400000000011e+00 6.728360000000000696e+01 1.608860000000000127e+03
2.100000000000000130e-02 7.294609999999999150e-01 -1.958884999999999987e+00 6.587004999999999200e+01 1.608440000000000055e+03
2.200000000000000219e-02 7.289689999999999781e-01 -1.484360000000000124e+00 6.419735000000000014e+01 1.607960000000000036e+03
2.299999999999999961e-02 7.284650000000000292e-01 -1.004259999999999931e+00 6.237590000000000146e+01 1.607440000000000055e+03
2.400000000000000050e-02 7.279655000000000431e-01 -5.061550000000001326e-01 6.048620000000000374e+01 1.606894999999999982e+03
2.500000000000000139e-02 7.274510000000000698e-01 -4.078500000000007120e-02 5.853090000000000259e+01 1.606325000000000045e+03
2.600000000000000228e-02 7.268809999999999993e-01 2.897400000000001086e-01 5.642504999999999882e+01 1.605720000000000027e+03
2.700000000000000316e-02 7.262014999999999443e-01 3.614100000000002311e-01 5.402129999999999654e+01 1.605045000000000073e+03
2.800000000000000058e-02 7.253674999999999429e-01 6.478000000000072589e-02 5.115820000000000078e+01 1.604264999999999873e+03
2.900000000000000147e-02 7.243565000000000698e-01 -6.619799999999997908e-01 4.771654999999999802e+01 1.603349999999999909e+03
3.000000000000000236e-02 7.231775000000000286e-01 -1.812510000000000510e+00 4.366610000000000014e+01 1.602295000000000073e+03
3.099999999999999978e-02 7.218729999999999869e-01 -3.310294999999999987e+00 3.908974999999999511e+01 1.601110000000000127e+03
3.200000000000000067e-02 7.205094999999999139e-01 -5.023509999999999920e+00 3.417770000000000152e+01 1.599825000000000045e+03
3.300000000000000155e-02 7.191684999999999883e-01 -6.791499999999999204e+00 2.919719999999999871e+01 1.598515000000000100e+03
3.400000000000000244e-02 7.179290000000000393e-01 -8.452270000000000394e+00 2.444912000000000063e+01 1.597230000000000018e+03
3.500000000000000333e-02 7.168609999999999705e-01 -9.865215499999999693e+00 2.022401999999999944e+01 1.596050000000000182e+03
3.600000000000000422e-02 7.160165000000000557e-01 -1.092428999999999917e+01 1.676598500000000058e+01 1.595039999999999964e+03
3.700000000000000511e-02 7.154270000000000351e-01 -1.156253500000000045e+01 1.425046000000000035e+01 1.594244999999999891e+03
3.799999999999999906e-02 7.151069999999999371e-01 -1.174910999999999994e+01 1.277610499999999938e+01 1.593704999999999927e+03
3.899999999999999994e-02 7.150539999999999674e-01 -1.148185000000000144e+01 1.236919999999999931e+01 1.593430000000000064e+03
4.000000000000000083e-02 7.152540000000000564e-01 -1.077841499999999897e+01 1.299633000000000038e+01 1.593429999999999836e+03
4.100000000000000172e-02 7.156860000000000444e-01 -9.668825000000000003e+00 1.458107500000000023e+01 1.593690000000000055e+03
4.200000000000000261e-02 7.163249999999999895e-01 -8.190373500000001528e+00 1.701922000000000068e+01 1.594184999999999945e+03
4.300000000000000350e-02 7.171404999999999585e-01 -6.385984999999999800e+00 2.019082500000000024e+01 1.594894999999999982e+03
4.400000000000000439e-02 7.181029999999999358e-01 -4.304850000000000065e+00 2.396665500000000293e+01 1.595780000000000200e+03
4.499999999999999833e-02 7.191784999999999428e-01 -2.003775000000000084e+00 2.821135500000000107e+01 1.596820000000000164e+03
4.599999999999999922e-02 7.203310000000000546e-01 4.522500000000002629e-01 3.278464999999999918e+01 1.597965000000000146e+03
4.700000000000000011e-02 7.215240000000000542e-01 2.991169999999999440e+00 3.754330000000000211e+01 1.599190000000000055e+03
4.800000000000000100e-02 7.227200000000000291e-01 5.536775000000000446e+00 4.234409999999999741e+01 1.600444999999999936e+03
4.900000000000000189e-02 7.238845000000000418e-01 8.013355000000000672e+00 4.704970000000000141e+01 1.601710000000000036e+03
5.000000000000000278e-02 7.249860000000000193e-01 1.035093100000000099e+01 5.153540000000000276e+01 1.602934999999999945e+03
5.100000000000000366e-02 7.260005000000000486e-01 1.248984499999999898e+01 5.569619999999999749e+01 1.604105000000000018e+03
5.200000000000000455e-02 7.269094999999999862e-01 1.438498500000000035e+01 5.945340000000000202e+01 1.605184999999999945e+03
5.300000000000000544e-02 7.277050000000000463e-01 1.600784999999999769e+01 6.275884999999999536e+01 1.606159999999999854e+03
5.399999999999999939e-02 7.283859999999999779e-01 1.734709999999999752e+01 6.559669999999999845e+01 1.607025000000000091e+03
5.500000000000000028e-02 7.289600000000000524e-01 1.840770000000000195e+01 6.798220000000000596e+01 1.607779999999999973e+03
5.600000000000000117e-02 7.294395000000000184e-01 1.920880000000000010e+01 6.995805000000000007e+01 1.608434999999999945e+03
5.700000000000000205e-02 7.298434999999999784e-01 1.978054999999999808e+01 7.158899999999999864e+01 1.608984999999999900e+03
5.800000000000000294e-02 7.301910000000000345e-01 2.016150000000000020e+01 7.295525000000000659e+01 1.609460000000000036e+03
5.900000000000000383e-02 7.305064999999999475e-01 2.039535000000000053e+01 7.414619999999999322e+01 1.609884999999999991e+03
6.000000000000000472e-02 7.308105000000000295e-01 2.052844999999999942e+01 7.525415000000000987e+01 1.610279999999999973e+03
6.099999999999999867e-02 7.311259999999999426e-01 2.060759999999999792e+01 7.636895000000001232e+01 1.610654999999999973e+03
6.199999999999999956e-02 7.314724999999999699e-01 2.067784999999999940e+01 7.757354999999999734e+01 1.611039999999999964e+03
6.300000000000000044e-02 7.318664999999999754e-01 2.078059999999999974e+01 7.894010000000000105e+01 1.611465000000000146e+03
6.400000000000000133e-02 7.323220000000000285e-01 2.095145000000000124e+01 8.052644999999999698e+01 1.611924999999999955e+03
6.500000000000000222e-02 7.328470000000000262e-01 2.121829999999999927e+01 8.237359999999999616e+01 1.612454999999999927e+03
6.600000000000000311e-02 7.334465000000000012e-01 2.159965000000000046e+01 8.450264999999998849e+01 1.613050000000000182e+03
6.700000000000000400e-02 7.341174999999999784e-01 2.210289999999999822e+01 8.691355000000000075e+01 1.613714999999999918e+03
6.800000000000000488e-02 7.348524999999999086e-01 2.272409999999999997e+01 8.958424999999999727e+01 1.614440000000000055e+03
6.900000000000000577e-02 7.356395000000000017e-01 2.344800000000000040e+01 9.247155000000000769e+01 1.615230000000000018e+03
7.000000000000000666e-02 7.364610000000000323e-01 2.424915000000000020e+01 9.551330000000000098e+01 1.616065000000000055e+03
7.100000000000000755e-02 7.372950000000000337e-01 2.509390000000000143e+01 9.863245000000000573e+01 1.616929999999999836e+03
7.200000000000000844e-02 7.381185000000000107e-01 2.594299999999999784e+01 1.017408000000000072e+02 1.617795000000000073e+03
7.300000000000000933e-02 7.389080000000000092e-01 2.675410000000000110e+01 1.047468000000000075e+02 1.618644999999999982e+03
7.399999999999999634e-02 7.396409999999999929e-01 2.748539999999999850e+01 1.075600000000000023e+02 1.619454999999999927e+03
7.499999999999999722e-02 7.402965000000000240e-01 2.809774999999999778e+01 1.100955000000000013e+02 1.620200000000000045e+03
7.599999999999999811e-02 7.408574999999999466e-01 2.855745000000000289e+01 1.122839999999999918e+02 1.620860000000000127e+03
7.699999999999999900e-02 7.413119999999999710e-01 2.883804999999999907e+01 1.140690000000000026e+02 1.621420000000000073e+03
7.799999999999999989e-02 7.416525000000000478e-01 2.892150000000000176e+01 1.154145000000000039e+02 1.621869999999999891e+03
7.900000000000000078e-02 7.418759999999999799e-01 2.879899999999999949e+01 1.163054999999999950e+02 1.622199999999999818e+03
8.000000000000000167e-02 7.419850000000000056e-01 2.847090000000000032e+01 1.167454999999999927e+02 1.622414999999999964e+03
8.100000000000000255e-02 7.419875000000000220e-01 2.794655000000000200e+01 1.167579999999999956e+02 1.622505000000000109e+03
8.200000000000000344e-02 7.418929999999999136e-01 2.724310000000000187e+01 1.163840000000000003e+02 1.622490000000000009e+03
8.300000000000000433e-02 7.417175000000000296e-01 2.638465000000000060e+01 1.156779999999999973e+02 1.622375000000000000e+03
8.400000000000000522e-02 7.414775000000000116e-01 2.540039999999999765e+01 1.147034999999999911e+02 1.622179999999999836e+03
8.500000000000000611e-02 7.411915000000000031e-01 2.432375000000000043e+01 1.135330000000000013e+02 1.621920000000000073e+03
8.600000000000000699e-02 7.408770000000000078e-01 2.318994999999999962e+01 1.122409999999999997e+02 1.621615000000000009e+03
8.700000000000000788e-02 7.405534999999999757e-01 2.203480000000000061e+01 1.109009999999999962e+02 1.621284999999999854e+03
8.800000000000000877e-02 7.402385000000000215e-01 2.089315000000000211e+01 1.095844999999999914e+02 1.620945000000000164e+03
8.899999999999999578e-02 7.399469999999999104e-01 1.979690000000000083e+01 1.083534999999999968e+02 1.620615000000000009e+03
8.999999999999999667e-02 7.396925000000000860e-01 1.877400000000000091e+01 1.072632499999999993e+02 1.620315000000000055e+03
9.099999999999999756e-02 7.394855000000000178e-01 1.784720000000000084e+01 1.063561500000000137e+02 1.620049999999999955e+03
9.199999999999999845e-02 7.393324999999999481e-01 1.703294999999999959e+01 1.056617999999999995e+02 1.619839999999999918e+03
9.299999999999999933e-02 7.392365000000000741e-01 1.634110000000000085e+01 1.051959999999999980e+02 1.619680000000000064e+03
9.400000000000000022e-02 7.391969999999999930e-01 1.577454999999999963e+01 1.049629999999999939e+02 1.619579999999999927e+03
9.500000000000000111e-02 7.392115000000000213e-01 1.532935000000000159e+01 1.049509999999999934e+02 1.619535000000000082e+03
9.600000000000000200e-02 7.392730000000000690e-01 1.499530000000000030e+01 1.051375000000000028e+02 1.619545000000000073e+03
9.700000000000000289e-02 7.393735000000000168e-01 1.475685000000000002e+01 1.054904999999999973e+02 1.619599999999999909e+03
9.800000000000000377e-02 7.395009999999999639e-01 1.459394999999999953e+01 1.059689999999999941e+02 1.619699999999999818e+03
9.900000000000000466e-02 7.396445000000000380e-01 1.448359999999999914e+01 1.065264999999999986e+02 1.619819999999999936e+03
1.000000000000000056e-01 7.397909999999999764e-01 1.440085000000000015e+01 1.071150000000000091e+02 1.619954999999999927e+03
1.010000000000000064e-01 7.399289999999999479e-01 1.432065000000000055e+01 1.076850000000000023e+02 1.620099999999999909e+03
1.020000000000000073e-01 7.400465000000000515e-01 1.421890000000000143e+01 1.081915000000000049e+02 1.620224999999999909e+03
1.030000000000000082e-01 7.401344999999999175e-01 1.407385000000000019e+01 1.085929999999999893e+02 1.620335000000000036e+03
1.040000000000000091e-01 7.401850000000000929e-01 1.386690000000000111e+01 1.088564999999999969e+02 1.620414999999999964e+03
1.050000000000000100e-01 7.401930000000001009e-01 1.358399999999999963e+01 1.089574999999999960e+02 1.620454999999999927e+03
1.059999999999999970e-01 7.401550000000000074e-01 1.321574999999999989e+01 1.088805000000000121e+02 1.620449999999999818e+03
1.069999999999999979e-01 7.400704999999999645e-01 1.275809500000000085e+01 1.086210000000000093e+02 1.620400000000000091e+03
1.079999999999999988e-01 7.399424999999999475e-01 1.221218499999999985e+01 1.081860000000000070e+02 1.620304999999999836e+03
1.089999999999999997e-01 7.397755000000000303e-01 1.158443000000000112e+01 1.075900000000000034e+02 1.620164999999999964e+03
1.100000000000000006e-01 7.395764999999999700e-01 1.088608999999999938e+01 1.068584999999999923e+02 1.619990000000000009e+03
1.110000000000000014e-01 7.393534999999999968e-01 1.013249000000000066e+01 1.060229999999999961e+02 1.619780000000000200e+03
1.120000000000000023e-01 7.391179999999999417e-01 9.342295000000000016e+00 1.051210499999999968e+02 1.619554999999999836e+03
1.130000000000000032e-01 7.388795000000000224e-01 8.536429999999999296e+00 1.041947000000000116e+02 1.619315000000000055e+03
1.140000000000000041e-01 7.386494999999999589e-01 7.737215000000000842e+00 1.032861499999999921e+02 1.619075000000000045e+03
1.150000000000000050e-01 7.384384999999999977e-01 6.966779999999999973e+00 1.024380500000000040e+02 1.618845000000000027e+03
1.160000000000000059e-01 7.382554999999999534e-01 6.246409999999999130e+00 1.016896999999999878e+02 1.618630000000000109e+03
1.170000000000000068e-01 7.381100000000000438e-01 5.595035000000000203e+00 1.010752500000000111e+02 1.618449999999999818e+03
1.180000000000000077e-01 7.380074999999999275e-01 5.028589999999999449e+00 1.006222999999999956e+02 1.618309999999999945e+03
1.190000000000000085e-01 7.379530000000000811e-01 4.559155000000000513e+00 1.003509999999999991e+02 1.618210000000000036e+03
1.200000000000000094e-01 7.379480000000000484e-01 4.194449999999999790e+00 1.002729999999999961e+02 1.618164999999999964e+03
1.209999999999999964e-01 7.379934999999999690e-01 3.937594999999999956e+00 1.003893500000000074e+02 1.618164999999999964e+03
1.219999999999999973e-01 7.380860000000000198e-01 3.787085000000000257e+00 1.006945000000000050e+02 1.618214999999999918e+03
1.229999999999999982e-01 7.382214999999999749e-01 3.737004999999999910e+00 1.011724999999999994e+02 1.618315000000000055e+03
1.239999999999999991e-01 7.383929999999999660e-01 3.777464999999999851e+00 1.018010000000000019e+02 1.618454999999999927e+03
1.250000000000000000e-01 7.385939999999999728e-01 3.895210000000000505e+00 1.025515000000000043e+02 1.618630000000000109e+03
1.260000000000000009e-01 7.388149999999999995e-01 4.074349999999999916e+00 1.033919999999999959e+02 1.618839999999999918e+03
1.270000000000000018e-01 7.390474999999999683e-01 4.297195000000000320e+00 1.042854999999999990e+02 1.619065000000000055e+03
1.280000000000000027e-01 7.392814999999999248e-01 4.545119999999999827e+00 1.051970000000000027e+02 1.619299999999999955e+03
1.290000000000000036e-01 7.395080000000000542e-01 4.799414999999999765e+00 1.060895000000000010e+02 1.619534999999999854e+03
1.300000000000000044e-01 7.397195000000000853e-01 5.042149999999999466e+00 1.069300000000000068e+02 1.619769999999999982e+03
1.310000000000000053e-01 7.399080000000000101e-01 5.256850000000000023e+00 1.076885000000000048e+02 1.619980000000000018e+03
1.320000000000000062e-01 7.400679999999999481e-01 5.429194999999999993e+00 1.083404999999999916e+02 1.620170000000000073e+03
1.330000000000000071e-01 7.401944999999999775e-01 5.547494999999999621e+00 1.088659999999999997e+02 1.620329999999999927e+03
1.340000000000000080e-01 7.402854999999999297e-01 5.603035000000000210e+00 1.092520000000000095e+02 1.620454999999999927e+03
1.350000000000000089e-01 7.403390000000000803e-01 5.590329999999999799e+00 1.094915000000000020e+02 1.620545000000000073e+03
1.360000000000000098e-01 7.403554999999999442e-01 5.507145000000000401e+00 1.095840000000000032e+02 1.620594999999999800e+03
1.370000000000000107e-01 7.403374999999999817e-01 5.354435000000000500e+00 1.095345000000000084e+02 1.620610000000000127e+03
1.380000000000000115e-01 7.402865000000000695e-01 5.136115000000000208e+00 1.093530000000000086e+02 1.620579999999999927e+03
1.390000000000000124e-01 7.402074999999999072e-01 4.858744999999999870e+00 1.090554999999999950e+02 1.620529999999999973e+03
1.400000000000000133e-01 7.401055000000000827e-01 4.531109999999999971e+00 1.086604999999999990e+02 1.620440000000000055e+03
1.410000000000000142e-01 7.399849999999998929e-01 4.163674999999999571e+00 1.081869999999999976e+02 1.620329999999999927e+03
1.420000000000000151e-01 7.398529999999999829e-01 3.768085000000000129e+00 1.076604999999999990e+02 1.620210000000000036e+03
1.430000000000000160e-01 7.397149999999999004e-01 3.356539999999999857e+00 1.071009999999999991e+02 1.620070000000000164e+03
1.440000000000000169e-01 7.395755000000000523e-01 2.941215000000000135e+00 1.065310000000000059e+02 1.619924999999999955e+03
1.450000000000000178e-01 7.394399999999999862e-01 2.533723499999999795e+00 1.059720000000000084e+02 1.619775000000000091e+03
1.459999999999999909e-01 7.393125000000000391e-01 2.144600000000000062e+00 1.054405000000000001e+02 1.619630000000000109e+03
1.469999999999999918e-01 7.391969999999999930e-01 1.782865499999999992e+00 1.049509999999999934e+02 1.619494999999999891e+03
1.479999999999999927e-01 7.390950000000000575e-01 1.455713500000000105e+00 1.045140000000000100e+02 1.619369999999999891e+03
1.489999999999999936e-01 7.390079999999999982e-01 1.168274100000000093e+00 1.041364999999999981e+02 1.619260000000000218e+03
1.499999999999999944e-01 7.389369999999999550e-01 9.235051499999999969e-01 1.038205000000000098e+02 1.619164999999999964e+03
1.509999999999999953e-01 7.388799999999999812e-01 7.222016500000000283e-01 1.035649999999999977e+02 1.619079999999999927e+03
1.519999999999999962e-01 7.388365000000000071e-01 5.630989499999999870e-01 1.033644999999999925e+02 1.619014999999999873e+03
1.529999999999999971e-01 7.388034999999999464e-01 4.430824499999999611e-01 1.032115000000000009e+02 1.618960000000000036e+03
1.539999999999999980e-01 7.387779999999999347e-01 3.574629000000000278e-01 1.030949999999999989e+02 1.618914999999999964e+03
1.549999999999999989e-01 7.387580000000000258e-01 3.003176999999999652e-01 1.030019999999999953e+02 1.618875000000000000e+03
1.559999999999999998e-01 7.387384999999999646e-01 2.648645499999999764e-01 1.029205000000000041e+02 1.618840000000000146e+03
1.570000000000000007e-01 7.387170000000000680e-01 2.438532450000000240e-01 1.028360000000000127e+02 1.618809999999999945e+03
1.580000000000000016e-01 7.386894999999999989e-01 2.299577499999999886e-01 1.027355000000000018e+02 1.618775000000000091e+03
1.590000000000000024e-01 7.386540000000000328e-01 2.161484999999999934e-01 1.026069999999999993e+02 1.618730000000000018e+03
