# t [s], A [cm^2], U [cm/s], P [cPa], c [cm/s]
1.000000000000000021e-03 6.184859999999999802e-01 3.440600000000001990e-03 9.853934999999999889e+01 1.398235000000000127e+03
2.000000000000000042e-03 6.184775000000000134e-01 4.761450000000003006e-04 9.852649999999999864e+01 1.398230000000000018e+03
3.000000000000000062e-03 6.184979999999999922e-01 2.855125000000000371e-02 9.854954999999999643e+01 1.398235000000000127e+03
4.000000000000000083e-03 6.185514999999999208e-01 1.061949999999999977e-01 9.863749999999998863e+01 1.398264999999999873e+03
5.000000000000000104e-03 6.185780000000000722e-01 1.492833999999999828e-01 9.869105000000000416e+01 1.398280000000000200e+03
6.000000000000000125e-03 6.185545000000000071e-01 1.227369500000000113e-01 9.864885000000001014e+01 1.398275000000000091e+03
7.000000000000000146e-03 6.185089999999999755e-01 6.096150000000000180e-02 9.853014999999999191e+01 1.398244999999999891e+03
8.000000000000000167e-03 6.184685000000000876e-01 5.042999999999964178e-03 9.838050000000001205e+01 1.398210000000000036e+03
9.000000000000001055e-03 6.184184999999999821e-01 -7.097999999999998755e-02 9.818250000000000455e+01 1.398154999999999973e+03
1.000000000000000194e-02 6.183345000000000091e-01 -2.067259999999999653e-01 9.789060000000000628e+01 1.398079999999999927e+03
1.099999999999999936e-02 6.182100000000000373e-01 -4.136499999999999622e-01 9.747644999999999982e+01 1.397974999999999909e+03
1.200000000000000025e-02 6.180390000000000050e-01 -6.966749999999999332e-01 9.691559999999999775e+01 1.397829999999999927e+03
1.300000000000000114e-02 6.178099999999999703e-01 -1.066575000000000051e+00 9.617564999999999031e+01 1.397630000000000109e+03
1.400000000000000203e-02 6.175180000000000113e-01 -1.521065000000000111e+00 9.523494999999999777e+01 1.397380000000000109e+03
1.499999999999999944e-02 6.171765000000000168e-01 -2.024759999999999671e+00 9.410939999999999372e+01 1.397065000000000055e+03
1.600000000000000033e-02 6.168164999999999898e-01 -2.511949999999999683e+00 9.285805000000000575e+01 1.396710000000000036e+03
1.700000000000000122e-02 6.164715000000000611e-01 -2.909049999999999692e+00 9.156360000000000809e+01 1.396329999999999927e+03
1.800000000000000211e-02 6.161664999999999504e-01 -3.159120999999999846e+00 9.030395000000000039e+01 1.395950000000000045e+03
1.900000000000000300e-02 6.159075000000000522e-01 -3.235475499999999727e+00 8.913040000000000873e+01 1.395579999999999927e+03
2.000000000000000042e-02 6.156874999999999432e-01 -3.142424499999999732e+00 8.805940000000001078e+01 1.395220000000000027e+03
2.100000000000000130e-02 6.154874999999999652e-01 -2.907283000000000062e+00 8.707554999999999268e+01 1.394880000000000109e+03
2.200000000000000219e-02 6.152859999999999996e-01 -2.568658000000000108e+00 8.614260000000000161e+01 1.394545000000000073e+03
2.299999999999999961e-02 6.150655000000000427e-01 -2.164884999999999948e+00 8.521649999999999636e+01 1.394204999999999927e+03
2.400000000000000050e-02 6.148135000000000128e-01 -1.725004999999999900e+00 8.425894999999999868e+01 1.393860000000000127e+03
2.500000000000000139e-02 6.145279999999999632e-01 -1.263870000000000049e+00 8.324645000000001005e+01 1.393500000000000000e+03
2.600000000000000228e-02 6.142144999999999966e-01 -7.820650000000000102e-01 8.217439999999999145e+01 1.393119999999999891e+03
2.700000000000000316e-02 6.138840000000000963e-01 -2.701899999999999302e-01 8.105535000000000423e+01 1.392724999999999909e+03
2.800000000000000058e-02 6.135479999999999823e-01 2.841000000000000192e-01 7.991230000000000189e+01 1.392325000000000045e+03
2.900000000000000147e-02 6.132159999999999833e-01 8.888199999999999434e-01 7.876935000000000286e+01 1.391925000000000182e+03
3.000000000000000236e-02 6.128919999999999924e-01 1.542204999999999826e+00 7.764379999999999882e+01 1.391525000000000091e+03
3.099999999999999978e-02 6.125730000000000341e-01 2.230240000000000222e+00 7.654009999999999536e+01 1.391125000000000000e+03
3.200000000000000067e-02 6.122505000000000308e-01 2.927359999999999740e+00 7.544810000000001082e+01 1.390730000000000018e+03
3.300000000000000155e-02 6.119140000000000690e-01 3.599775000000000169e+00 7.434420000000000073e+01 1.390335000000000036e+03
3.400000000000000244e-02 6.115494999999999681e-01 4.210550000000000459e+00 7.319624999999999204e+01 1.389929999999999836e+03
3.500000000000000333e-02 6.111459999999999670e-01 4.725435000000000052e+00 7.197005000000000052e+01 1.389500000000000000e+03
3.600000000000000422e-02 6.106960000000000166e-01 5.118314999999999948e+00 7.063670000000000471e+01 1.389049999999999955e+03
3.700000000000000511e-02 6.101984999999999770e-01 5.375384999999999636e+00 6.917924999999999613e+01 1.388575000000000045e+03
3.799999999999999906e-02 6.096589999999999510e-01 5.497205000000000119e+00 6.759749999999999659e+01 1.388054999999999836e+03
3.899999999999999994e-02 6.090884999999999216e-01 5.498210000000000264e+00 6.590969999999998663e+01 1.387519999999999982e+03
4.000000000000000083e-02 6.085045000000000037e-01 5.403919999999999391e+00 6.415109999999999957e+01 1.386954999999999927e+03
4.100000000000000172e-02 6.079244999999999788e-01 5.246790000000000731e+00 6.236970000000000169e+01 1.386384999999999991e+03
4.200000000000000261e-02 6.073684999999999778e-01 5.061605000000000132e+00 6.062109999999999843e+01 1.385829999999999927e+03
4.300000000000000350e-02 6.068530000000000868e-01 4.881319999999999659e+00 5.896209999999999951e+01 1.385284999999999854e+03
4.400000000000000439e-02 6.063925000000000010e-01 4.734090000000000131e+00 5.744570000000000221e+01 1.384785000000000082e+03
4.499999999999999833e-02 6.059974999999999667e-01 4.641935000000000144e+00 5.611735000000000184e+01 1.384329999999999927e+03
4.599999999999999922e-02 6.056759999999999922e-01 4.620305000000000106e+00 5.501269999999999527e+01 1.383944999999999936e+03
4.700000000000000011e-02 6.054315000000000113e-01 4.678916500000000589e+00 5.415704999999999814e+01 1.383625000000000000e+03
4.800000000000000100e-02 6.052649999999999419e-01 4.823249999999999815e+00 5.356600000000000250e+01 1.383389999999999873e+03
4.900000000000000189e-02 6.051775000000000349e-01 5.056079999999999686e+00 5.324699999999999989e+01 1.383235000000000127e+03
5.000000000000000278e-02 6.051674999999999693e-01 5.379089999999999705e+00 5.320145000000000124e+01 1.383159999999999854e+03
5.100000000000000366e-02 6.052344999999998976e-01 5.793989999999999974e+00 5.342705000000000126e+01 1.383180000000000064e+03
5.200000000000000455e-02 6.053774999999999018e-01 6.303105000000000402e+00 5.391899999999999693e+01 1.383279999999999973e+03
5.300000000000000544e-02 6.055954999999999533e-01 6.909374999999999822e+00 5.467145000000000010e+01 1.383464999999999918e+03
5.399999999999999939e-02 6.058870000000000644e-01 7.615795000000000314e+00 5.567780000000000484e+01 1.383730000000000018e+03
5.500000000000000028e-02 6.062514999999999432e-01 8.424590000000000245e+00 5.693040000000000589e+01 1.384079999999999927e+03
5.600000000000000117e-02 6.066854999999999887e-01 9.336285000000000167e+00 5.842009999999999792e+01 1.384500000000000000e+03
5.700000000000000205e-02 6.071865000000000734e-01 1.034871000000000052e+01 6.013530000000000086e+01 1.385005000000000109e+03
5.800000000000000294e-02 6.077490000000000947e-01 1.145671500000000087e+01 6.206119999999999948e+01 1.385570000000000164e+03
5.900000000000000383e-02 6.083674999999999500e-01 1.265175999999999945e+01 6.417969999999999686e+01 1.386204999999999927e+03
6.000000000000000472e-02 6.090344999999999231e-01 1.392225999999999964e+01 6.646904999999999575e+01 1.386900000000000091e+03
6.099999999999999867e-02 6.097414999999999363e-01 1.525416000000000061e+01 6.890449999999999875e+01 1.387644999999999982e+03
6.199999999999999956e-02 6.104804999999999815e-01 1.663158500000000117e+01 7.145884999999999820e+01 1.388434999999999945e+03
6.300000000000000044e-02 6.112420000000000631e-01 1.803784500000000079e+01 7.410380000000000678e+01 1.389264999999999873e+03
6.400000000000000133e-02 6.120185000000000208e-01 1.945629999999999882e+01 7.681090000000000373e+01 1.390119999999999891e+03
6.500000000000000222e-02 6.128014999999999990e-01 2.087115000000000009e+01 7.955285000000000650e+01 1.390990000000000009e+03
6.600000000000000311e-02 6.135844999999999771e-01 2.226825000000000188e+01 8.230469999999999686e+01 1.391880000000000109e+03
6.700000000000000400e-02 6.143624999999999226e-01 2.363544999999999874e+01 8.504439999999999600e+01 1.392769999999999982e+03
6.800000000000000488e-02 6.151305000000000245e-01 2.496274999999999977e+01 8.775384999999999991e+01 1.393654999999999973e+03
6.900000000000000577e-02 6.158854999999999746e-01 2.624255000000000138e+01 9.041925000000000523e+01 1.394535000000000082e+03
7.000000000000000666e-02 6.166255000000000486e-01 2.746929999999999694e+01 9.302979999999999450e+01 1.395409999999999854e+03
7.100000000000000755e-02 6.173499999999999543e-01 2.863949999999999818e+01 9.557994999999999663e+01 1.396259999999999991e+03
7.200000000000000844e-02 6.180579999999999963e-01 2.975119999999999720e+01 9.806624999999999659e+01 1.397099999999999909e+03
7.300000000000000933e-02 6.187504999999999811e-01 3.080395000000000039e+01 1.004885500000000036e+02 1.397925000000000182e+03
7.399999999999999634e-02 6.194279999999999786e-01 3.179795000000000016e+01 1.028494499999999903e+02 1.398730000000000018e+03
7.499999999999999722e-02 6.200919999999999765e-01 3.273420000000000130e+01 1.051518000000000086e+02 1.399519999999999982e+03
7.599999999999999811e-02 6.207435000000000036e-01 3.361390000000000100e+01 1.074000000000000057e+02 1.400295000000000073e+03
7.699999999999999900e-02 6.213835000000000885e-01 3.443849999999999767e+01 1.095985000000000014e+02 1.401055000000000064e+03
7.799999999999999989e-02 6.220129999999999271e-01 3.520905000000000484e+01 1.117510000000000048e+02 1.401800000000000182e+03
7.900000000000000078e-02 6.226319999999999633e-01 3.592645000000000266e+01 1.138609999999999900e+02 1.402534999999999854e+03
8.000000000000000167e-02 6.232415000000000038e-01 3.659105000000000274e+01 1.159294999999999902e+02 1.403250000000000000e+03
8.100000000000000255e-02 6.238394999999999913e-01 3.720260000000000389e+01 1.179574999999999960e+02 1.403954999999999927e+03
8.200000000000000344e-02 6.244264999999999954e-01 3.776040000000000418e+01 1.199429999999999978e+02 1.404644999999999982e+03
8.300000000000000433e-02 6.250000000000000000e-01 3.826310000000000144e+01 1.218824999999999932e+02 1.405324999999999818e+03
8.400000000000000522e-02 6.255589999999999762e-01 3.870879999999999654e+01 1.237710000000000008e+02 1.405989999999999782e+03
8.500000000000000611e-02 6.261020000000000474e-01 3.909560000000000457e+01 1.256030000000000086e+02 1.406634999999999991e+03
8.600000000000000699e-02 6.266255000000000575e-01 3.942104999999999393e+01 1.273704999999999927e+02 1.407259999999999991e+03
8.700000000000000788e-02 6.271269999999999900e-01 3.968285000000000196e+01 1.290664999999999907e+02 1.407860000000000127e+03
8.800000000000000877e-02 6.276049999999999685e-01 3.987899999999999778e+01 1.306825000000000045e+02 1.408434999999999945e+03
8.899999999999999578e-02 6.280575000000000463e-01 4.000750000000000028e+01 1.322099999999999795e+02 1.408985000000000127e+03
8.999999999999999667e-02 6.284810000000000674e-01 4.006709999999999638e+01 1.336424999999999841e+02 1.409505000000000109e+03
9.099999999999999756e-02 6.288750000000000728e-01 4.005695000000000050e+01 1.349724999999999966e+02 1.409990000000000009e+03
9.199999999999999845e-02 6.292379999999999640e-01 3.997684999999999889e+01 1.361945000000000050e+02 1.410444999999999936e+03
9.299999999999999933e-02 6.295684999999999754e-01 3.982734999999999559e+01 1.373045000000000186e+02 1.410860000000000127e+03
9.400000000000000022e-02 6.298654999999999671e-01 3.960944999999999538e+01 1.383000000000000114e+02 1.411235000000000127e+03
9.500000000000000111e-02 6.301299999999999679e-01 3.932509999999999906e+01 1.391785000000000139e+02 1.411579999999999927e+03
9.600000000000000200e-02 6.303604999999999903e-01 3.897669999999999391e+01 1.399410000000000025e+02 1.411880000000000109e+03
9.700000000000000289e-02 6.305590000000000916e-01 3.856745000000000090e+01 1.405894999999999868e+02 1.412144999999999982e+03
9.800000000000000377e-02 6.307249999999999801e-01 3.810094999999999743e+01 1.411250000000000000e+02 1.412369999999999891e+03
9.900000000000000466e-02 6.308610000000000051e-01 3.758160000000000167e+01 1.415525000000000091e+02 1.412559999999999945e+03
1.000000000000000056e-01 6.309679999999999733e-01 3.701404999999999745e+01 1.418774999999999977e+02 1.412710000000000036e+03
1.010000000000000064e-01 6.310480000000000533e-01 3.640370000000000061e+01 1.421059999999999945e+02 1.412829999999999927e+03
1.020000000000000073e-01 6.311025000000000107e-01 3.575605000000000189e+01 1.422459999999999809e+02 1.412920000000000073e+03
1.030000000000000082e-01 6.311344999999999317e-01 3.507719999999999771e+01 1.423050000000000068e+02 1.412974999999999909e+03
1.040000000000000091e-01 6.311465000000000547e-01 3.437324999999999875e+01 1.422920000000000016e+02 1.413005000000000109e+03
1.050000000000000100e-01 6.311404999999999932e-01 3.365040000000000475e+01 1.422150000000000034e+02 1.413009999999999991e+03
1.059999999999999970e-01 6.311200000000000143e-01 3.291489999999999583e+01 1.420854999999999961e+02 1.413000000000000000e+03
1.069999999999999979e-01 6.310864999999999947e-01 3.217284999999999684e+01 1.419110000000000014e+02 1.412965000000000146e+03
1.079999999999999988e-01 6.310434999999999794e-01 3.142999999999999972e+01 1.417015000000000100e+02 1.412920000000000073e+03
1.089999999999999997e-01 6.309925000000000672e-01 3.069154999999999944e+01 1.414650000000000034e+02 1.412855000000000018e+03
1.100000000000000006e-01 6.309365000000000112e-01 2.996229999999999905e+01 1.412099999999999795e+02 1.412784999999999854e+03
1.110000000000000014e-01 6.308770000000000211e-01 2.924615000000000009e+01 1.409429999999999836e+02 1.412710000000000036e+03
1.120000000000000023e-01 6.308149999999999036e-01 2.854609999999999914e+01 1.406699999999999875e+02 1.412630000000000109e+03
1.130000000000000032e-01 6.307519999999999794e-01 2.786455000000000126e+01 1.403960000000000150e+02 1.412539999999999964e+03
1.140000000000000041e-01 6.306890000000000551e-01 2.720275000000000176e+01 1.401234999999999786e+02 1.412454999999999927e+03
1.150000000000000050e-01 6.306255000000000610e-01 2.656109999999999971e+01 1.398549999999999898e+02 1.412369999999999891e+03
1.160000000000000059e-01 6.305620000000000669e-01 2.593914999999999793e+01 1.395910000000000082e+02 1.412280000000000200e+03
1.170000000000000068e-01 6.304980000000000029e-01 2.533565000000000111e+01 1.393305000000000007e+02 1.412190000000000055e+03
1.180000000000000077e-01 6.304330000000000211e-01 2.474869999999999948e+01 1.390720000000000027e+02 1.412099999999999909e+03
1.190000000000000085e-01 6.303654999999999120e-01 2.417585000000000051e+01 1.388125000000000000e+02 1.412009999999999991e+03
1.200000000000000094e-01 6.302950000000000497e-01 2.361430000000000007e+01 1.385484999999999900e+02 1.411920000000000073e+03
1.209999999999999964e-01 6.302205000000000723e-01 2.306074999999999875e+01 1.382769999999999868e+02 1.411824999999999818e+03
1.219999999999999973e-01 6.301404999999999923e-01 2.251210000000000022e+01 1.379929999999999950e+02 1.411724999999999909e+03
1.229999999999999982e-01 6.300544999999999618e-01 2.196509999999999962e+01 1.376935000000000002e+02 1.411625000000000000e+03
1.239999999999999991e-01 6.299605000000000343e-01 2.141680000000000206e+01 1.373735000000000070e+02 1.411519999999999982e+03
1.250000000000000000e-01 6.298584999999999878e-01 2.086424999999999841e+01 1.370300000000000011e+02 1.411400000000000091e+03
1.260000000000000009e-01 6.297485000000000444e-01 2.030515000000000114e+01 1.366599999999999966e+02 1.411279999999999973e+03
1.270000000000000018e-01 6.296285000000000354e-01 1.973754999999999882e+01 1.362620000000000005e+02 1.411150000000000091e+03
1.280000000000000027e-01 6.294994999999999896e-01 1.916004999999999825e+01 1.358340000000000032e+02 1.411009999999999991e+03
1.290000000000000036e-01 6.293604999999999894e-01 1.857169999999999987e+01 1.353754999999999882e+02 1.410855000000000018e+03
1.300000000000000044e-01 6.292134999999999811e-01 1.797234999999999872e+01 1.348885000000000218e+02 1.410699999999999818e+03
1.310000000000000053e-01 6.290575000000000472e-01 1.736224999999999952e+01 1.343725000000000023e+02 1.410530000000000200e+03
1.320000000000000062e-01 6.288949999999999818e-01 1.674244999999999806e+01 1.338315000000000055e+02 1.410355000000000018e+03
1.330000000000000071e-01 6.287264999999999660e-01 1.611434999999999818e+01 1.332690000000000055e+02 1.410170000000000073e+03
1.340000000000000080e-01 6.285525000000000695e-01 1.548010000000000019e+01 1.326875000000000000e+02 1.409985000000000127e+03
1.350000000000000089e-01 6.283760000000000456e-01 1.484220000000000184e+01 1.320929999999999893e+02 1.409789999999999964e+03
1.360000000000000098e-01 6.281974999999999643e-01 1.420357499999999895e+01 1.314904999999999973e+02 1.409590000000000146e+03
1.370000000000000107e-01 6.280194999999999528e-01 1.356761000000000195e+01 1.308865000000000123e+02 1.409389999999999873e+03
1.380000000000000115e-01 6.278434999999999988e-01 1.293770500000000112e+01 1.302854999999999848e+02 1.409190000000000055e+03
1.390000000000000124e-01 6.276714999999999378e-01 1.231758499999999934e+01 1.296954999999999814e+02 1.408994999999999891e+03
1.400000000000000133e-01 6.275049999999999795e-01 1.171091000000000015e+01 1.291214999999999975e+02 1.408799999999999955e+03
1.410000000000000142e-01 6.273459999999999592e-01 1.112133000000000038e+01 1.285695000000000050e+02 1.408615000000000009e+03
1.420000000000000151e-01 6.271960000000000868e-01 1.055236000000000018e+01 1.280455000000000041e+02 1.408434999999999945e+03
1.430000000000000160e-01 6.270564999999999056e-01 1.000714999999999932e+01 1.275540000000000020e+02 1.408265000000000100e+03
1.440000000000000169e-01 6.269284999999999997e-01 9.488649999999999807e+00 1.270994999999999919e+02 1.408105000000000018e+03
1.450000000000000178e-01 6.268124999999999947e-01 8.999195000000000277e+00 1.266860000000000070e+02 1.407960000000000036e+03
1.459999999999999909e-01 6.267095000000000304e-01 8.540849999999998943e+00 1.263155000000000143e+02 1.407825000000000045e+03
1.469999999999999918e-01 6.266205000000000247e-01 8.114974999999999383e+00 1.259900000000000091e+02 1.407700000000000045e+03
1.479999999999999927e-01 6.265439999999999898e-01 7.722495000000000331e+00 1.257104999999999961e+02 1.407595000000000027e+03
1.489999999999999936e-01 6.264819999999999833e-01 7.363715000000000011e+00 1.254759999999999991e+02 1.407505000000000109e+03
1.499999999999999944e-01 6.264315000000000300e-01 7.038429999999999964e+00 1.252870000000000061e+02 1.407425000000000182e+03
1.509999999999999953e-01 6.263935000000000475e-01 6.745905000000000484e+00 1.251405000000000030e+02 1.407365000000000009e+03
1.519999999999999962e-01 6.263674999999999660e-01 6.484910000000000174e+00 1.250335000000000036e+02 1.407315000000000055e+03
1.529999999999999971e-01 6.263510000000001021e-01 6.253824999999999967e+00 1.249639999999999986e+02 1.407275000000000091e+03
1.539999999999999980e-01 6.263434999999999420e-01 6.050689999999999458e+00 1.249265000000000043e+02 1.407250000000000000e+03
1.549999999999999989e-01 6.263434999999999420e-01 5.873255000000000337e+00 1.249174999999999898e+02 1.407230000000000018e+03
1.559999999999999998e-01 6.263505000000000322e-01 5.719109999999999694e+00 1.249329999999999927e+02 1.407224999999999909e+03
1.570000000000000007e-01 6.263615000000000155e-01 5.585700000000000109e+00 1.249675000000000011e+02 1.407224999999999909e+03
1.580000000000000016e-01 6.263769999999999616e-01 5.470469999999999722e+00 1.250165000000000077e+02 1.407230000000000018e+03
1.590000000000000024e-01 6.263950000000000351e-01 5.370849999999999902e+00 1.250765000000000100e+02 1.407240000000000009e+03
