# t [s], A [cm^2], U [cm/s], P [cPa], c [cm/s]
1.000000000000000021e-03 2.033960000000000212e-01 2.225405000000000022e-01 9.353000000000000114e+01 1.992300000000000182e+03
2.000000000000000042e-03 2.033535000000000204e-01 1.606611500000000081e+00 9.069794999999999163e+01 1.991974999999999909e+03
3.000000000000000062e-03 2.032189999999999830e-01 3.350026999999999866e+00 8.673994999999999322e+01 1.990994999999999891e+03
4.000000000000000083e-03 2.030264999999999986e-01 5.317402299999999471e+00 8.224434999999999718e+01 1.989625000000000000e+03
5.000000000000000104e-03 2.028119999999999923e-01 7.452989999999999782e+00 7.801240000000001373e+01 1.988105000000000018e+03
6.000000000000000125e-03 2.026000000000000023e-01 9.627380000000000493e+00 7.444145000000000323e+01 1.986625000000000000e+03
7.000000000000000146e-03 2.023999999999999966e-01 1.164586000000000077e+01 7.143770000000000664e+01 1.985244999999999891e+03
8.000000000000000167e-03 2.022140000000000049e-01 1.338214499999999951e+01 6.875475000000000136e+01 1.983985000000000127e+03
9.000000000000001055e-03 2.020465000000000177e-01 1.483889999999999887e+01 6.635660000000000025e+01 1.982875000000000000e+03
1.000000000000000194e-02 2.019015000000000115e-01 1.605574999999999974e+01 6.432849999999999113e+01 1.981920000000000073e+03
1.099999999999999936e-02 2.017804999999999738e-01 1.705375000000000085e+01 6.269350000000000023e+01 1.981125000000000000e+03
1.200000000000000025e-02 2.016815000000000135e-01 1.784830000000000183e+01 6.141769999999999641e+01 1.980490000000000009e+03
1.300000000000000114e-02 2.016040000000000054e-01 1.845004999999999740e+01 6.043959999999999866e+01 1.980000000000000000e+03
1.400000000000000203e-02 2.015414999999999845e-01 1.886009999999999920e+01 5.965919999999999845e+01 1.979615000000000009e+03
1.499999999999999944e-02 2.014904999999999891e-01 1.909604999999999819e+01 5.898629999999999995e+01 1.979299999999999955e+03
1.600000000000000033e-02 2.014500000000000179e-01 1.922800000000000153e+01 5.845304999999999751e+01 1.979065000000000055e+03
1.700000000000000122e-02 2.014255000000000073e-01 1.937780000000000058e+01 5.826469999999999771e+01 1.978920000000000073e+03
1.800000000000000211e-02 2.014265000000000083e-01 1.967054999999999865e+01 5.871035000000000537e+01 1.978940000000000055e+03
1.900000000000000300e-02 2.014595000000000136e-01 2.017314999999999969e+01 5.998834999999999695e+01 1.979159999999999854e+03
2.000000000000000042e-02 2.015264999999999973e-01 2.085900000000000176e+01 6.206425000000000125e+01 1.979599999999999909e+03
2.100000000000000130e-02 2.016205000000000080e-01 2.161744999999999806e+01 6.464379999999999882e+01 1.980219999999999800e+03
2.200000000000000219e-02 2.017265000000000030e-01 2.229694999999999894e+01 6.726354999999999507e+01 1.980929999999999836e+03
2.299999999999999961e-02 2.018274999999999930e-01 2.275900000000000034e+01 6.944534999999999059e+01 1.981610000000000127e+03
2.400000000000000050e-02 2.019084999999999908e-01 2.292159999999999798e+01 7.084514999999998963e+01 1.982170000000000073e+03
2.500000000000000139e-02 2.019604999999999873e-01 2.277769999999999939e+01 7.134315000000000850e+01 1.982539999999999964e+03
2.600000000000000228e-02 2.019814999999999805e-01 2.238680000000000092e+01 7.105025000000000546e+01 1.982700000000000045e+03
2.700000000000000316e-02 2.019775000000000043e-01 2.184604999999999819e+01 7.023935000000000173e+01 1.982700000000000045e+03
2.800000000000000058e-02 2.019575000000000120e-01 2.125369999999999848e+01 6.923554999999998927e+01 1.982579999999999927e+03
2.900000000000000147e-02 2.019309999999999994e-01 2.067880000000000251e+01 6.830724999999999625e+01 1.982414999999999964e+03
3.000000000000000236e-02 2.019064999999999888e-01 2.014585000000000292e+01 6.759475000000000477e+01 1.982244999999999891e+03
3.099999999999999978e-02 2.018849999999999811e-01 1.963689999999999714e+01 6.709260000000000446e+01 1.982105000000000018e+03
3.200000000000000067e-02 2.018655000000000033e-01 1.910725000000000051e+01 6.668200000000000216e+01 1.981970000000000027e+03
3.300000000000000155e-02 2.018445000000000100e-01 1.850784999999999769e+01 6.619480000000000075e+01 1.981835000000000036e+03
3.400000000000000244e-02 2.018169999999999964e-01 1.780765000000000242e+01 6.548720000000000141e+01 1.981654999999999973e+03
3.500000000000000333e-02 2.017789999999999861e-01 1.700904999999999845e+01 6.449925000000000352e+01 1.981414999999999964e+03
3.600000000000000422e-02 2.017319999999999947e-01 1.615269999999999939e+01 6.328580000000000183e+01 1.981110000000000127e+03
3.700000000000000511e-02 2.016799999999999982e-01 1.531065000000000076e+01 6.201009999999999422e+01 1.980764999999999873e+03
3.799999999999999906e-02 2.016295000000000170e-01 1.456935000000000002e+01 6.090354999999999563e+01 1.980434999999999945e+03
3.899999999999999994e-02 2.015895000000000048e-01 1.400884999999999891e+01 6.020430000000000348e+01 1.980164999999999964e+03
4.000000000000000083e-02 2.015684999999999838e-01 1.368315000000000126e+01 6.009405000000000285e+01 1.980010000000000218e+03
4.100000000000000172e-02 2.015710000000000002e-01 1.360764999999999958e+01 6.065059999999999718e+01 1.980014999999999873e+03
4.200000000000000261e-02 2.015994999999999870e-01 1.375619999999999976e+01 6.182784999999999798e+01 1.980179999999999836e+03
4.300000000000000350e-02 2.016499999999999959e-01 1.406700000000000017e+01 6.346509999999999962e+01 1.980500000000000000e+03
4.400000000000000439e-02 2.017160000000000064e-01 1.445504999999999995e+01 6.532065000000000055e+01 1.980930000000000064e+03
4.499999999999999833e-02 2.017880000000000229e-01 1.482719999999999949e+01 6.711795000000000755e+01 1.981394999999999982e+03
4.599999999999999922e-02 2.018560000000000076e-01 1.509709999999999930e+01 6.859389999999999077e+01 1.981844999999999800e+03
4.700000000000000011e-02 2.019100000000000061e-01 1.519585000000000008e+01 6.953770000000000095e+01 1.982210000000000036e+03
4.800000000000000100e-02 2.019424999999999970e-01 1.507910000000000039e+01 6.981575000000000841e+01 1.982434999999999945e+03
4.900000000000000189e-02 2.019489999999999896e-01 1.472794999999999987e+01 6.937960000000001060e+01 1.982490000000000009e+03
5.000000000000000278e-02 2.019270000000000231e-01 1.414665000000000106e+01 6.825794999999999391e+01 1.982360000000000127e+03
5.100000000000000366e-02 2.018785000000000163e-01 1.335670000000000002e+01 6.653860000000000241e+01 1.982045000000000073e+03
5.200000000000000455e-02 2.018054999999999988e-01 1.239093000000000089e+01 6.434470000000000312e+01 1.981570000000000164e+03
5.300000000000000544e-02 2.017125000000000168e-01 1.128697999999999979e+01 6.181220000000000425e+01 1.980965000000000146e+03
5.399999999999999939e-02 2.016044999999999920e-01 1.008348499999999959e+01 5.907169999999999987e+01 1.980259999999999991e+03
5.500000000000000028e-02 2.014865000000000128e-01 8.817129999999998802e+00 5.623834999999999695e+01 1.979480000000000018e+03
5.600000000000000117e-02 2.013630000000000142e-01 7.522624999999999673e+00 5.340840000000000032e+01 1.978660000000000082e+03
5.700000000000000205e-02 2.012380000000000002e-01 6.233080000000000176e+00 5.066150000000000375e+01 1.977835000000000036e+03
5.800000000000000294e-02 2.011155000000000026e-01 4.981215000000000614e+00 4.806680000000000064e+01 1.977015000000000100e+03
5.900000000000000383e-02 2.009974999999999956e-01 3.800591499999999900e+00 4.568869999999999720e+01 1.976235000000000127e+03
6.000000000000000472e-02 2.008894999999999986e-01 2.726041050000000077e+00 4.359234999999999616e+01 1.975510000000000218e+03
6.099999999999999867e-02 2.007935000000000136e-01 1.793276999999999788e+00 4.184515000000000384e+01 1.974869999999999891e+03
6.199999999999999956e-02 2.007125000000000159e-01 1.037648499999999974e+00 4.051635000000000275e+01 1.974324999999999818e+03
6.300000000000000044e-02 2.006505000000000094e-01 4.922745000000000037e-01 3.967314999999999969e+01 1.973894999999999982e+03
6.400000000000000133e-02 2.006100000000000105e-01 1.857739999999999947e-01 3.937525000000000119e+01 1.973619999999999891e+03
6.500000000000000222e-02 2.005945000000000089e-01 1.401071299999999964e-01 3.966915000000000191e+01 1.973494999999999891e+03
6.600000000000000311e-02 2.006045000000000189e-01 3.688059999999999672e-01 4.058244999999999436e+01 1.973539999999999964e+03
6.700000000000000400e-02 2.006425000000000014e-01 8.758460000000000134e-01 4.212085000000000434e+01 1.973775000000000091e+03
6.800000000000000488e-02 2.007079999999999975e-01 1.655275999999999970e+00 4.426599999999999824e+01 1.974184999999999945e+03
6.900000000000000577e-02 2.008004999999999929e-01 2.691649500000000028e+00 4.697650000000000148e+01 1.974779999999999973e+03
7.000000000000000666e-02 2.009184999999999999e-01 3.961030000000000051e+00 5.019095000000000084e+01 1.975539999999999964e+03
7.100000000000000755e-02 2.010589999999999877e-01 5.432549999999999990e+00 5.383140000000000214e+01 1.976454999999999927e+03
7.200000000000000844e-02 2.012190000000000090e-01 7.070224999999999760e+00 5.780944999999999823e+01 1.977505000000000109e+03
7.300000000000000933e-02 2.013949999999999907e-01 8.835000000000000853e+00 6.203099999999999881e+01 1.978659999999999854e+03
7.399999999999999634e-02 2.015830000000000122e-01 1.068659000000000070e+01 6.640210000000000434e+01 1.979894999999999982e+03
7.499999999999999722e-02 2.017784999999999995e-01 1.258566000000000074e+01 7.083389999999999986e+01 1.981195000000000164e+03
7.599999999999999811e-02 2.019779999999999909e-01 1.449540000000000006e+01 7.524680000000000746e+01 1.982529999999999973e+03
7.699999999999999900e-02 2.021784999999999832e-01 1.638340000000000174e+01 7.957460000000000377e+01 1.983865000000000009e+03
7.799999999999999989e-02 2.023770000000000013e-01 1.822220000000000084e+01 8.376650000000000773e+01 1.985194999999999936e+03
7.900000000000000078e-02 2.025710000000000011e-01 1.999105000000000132e+01 8.778905000000000314e+01 1.986500000000000000e+03
8.000000000000000167e-02 2.027590000000000225e-01 2.167540000000000333e+01 9.162590000000000146e+01 1.987769999999999982e+03
8.100000000000000255e-02 2.029400000000000093e-01 2.326735000000000042e+01 9.527660000000000196e+01 1.988994999999999891e+03
8.200000000000000344e-02 2.031145000000000034e-01 2.476480000000000103e+01 9.875579999999999359e+01 1.990175000000000182e+03
8.300000000000000433e-02 2.032820000000000182e-01 2.617079999999999984e+01 1.020872499999999974e+02 1.991315000000000055e+03
8.400000000000000522e-02 2.034434999999999993e-01 2.749210000000000065e+01 1.053031500000000023e+02 1.992414999999999964e+03
8.500000000000000611e-02 2.036014999999999908e-01 2.873770000000000024e+01 1.084375000000000000e+02 1.993489999999999782e+03
8.600000000000000699e-02 2.037549999999999917e-01 2.991805000000000092e+01 1.115234999999999985e+02 1.994545000000000073e+03
8.700000000000000788e-02 2.039075000000000193e-01 3.104315000000000069e+01 1.145910000000000082e+02 1.995575000000000045e+03
8.800000000000000877e-02 2.040585000000000038e-01 3.212184999999999491e+01 1.176624999999999943e+02 1.996610000000000127e+03
8.899999999999999578e-02 2.042094999999999883e-01 3.316105000000000302e+01 1.207520000000000095e+02 1.997639999999999873e+03
8.999999999999999667e-02 2.043605000000000005e-01 3.416505000000000081e+01 1.238644999999999925e+02 1.998674999999999955e+03
9.099999999999999756e-02 2.045124999999999860e-01 3.513530000000000086e+01 1.269950000000000045e+02 1.999715000000000146e+03
9.199999999999999845e-02 2.046644999999999992e-01 3.607049999999999557e+01 1.301310000000000002e+02 2.000755000000000109e+03
9.299999999999999933e-02 2.048165000000000124e-01 3.696665000000000134e+01 1.332515000000000214e+02 2.001795000000000073e+03
9.400000000000000022e-02 2.049670000000000103e-01 3.781745000000000090e+01 1.363315000000000055e+02 2.002825000000000045e+03
9.500000000000000111e-02 2.051155000000000062e-01 3.861469999999999914e+01 1.393404999999999916e+02 2.003839999999999918e+03
9.600000000000000200e-02 2.052605000000000124e-01 3.934895000000000209e+01 1.422450000000000045e+02 2.004840000000000146e+03
9.700000000000000289e-02 2.054010000000000002e-01 4.000985000000000014e+01 1.450129999999999768e+02 2.005795000000000073e+03
9.800000000000000377e-02 2.055339999999999945e-01 4.058700000000000330e+01 1.476125000000000114e+02 2.006715000000000146e+03
9.900000000000000466e-02 2.056600000000000095e-01 4.107019999999999982e+01 1.500124999999999886e+02 2.007585000000000036e+03
1.000000000000000056e-01 2.057769999999999877e-01 4.145004999999999740e+01 1.521884999999999764e+02 2.008394999999999982e+03
1.010000000000000064e-01 2.058834999999999971e-01 4.171880000000000166e+01 1.541165000000000020e+02 2.009130000000000109e+03
1.020000000000000073e-01 2.059785000000000088e-01 4.187009999999999366e+01 1.557810000000000059e+02 2.009795000000000073e+03
1.030000000000000082e-01 2.060619999999999952e-01 4.189994999999999692e+01 1.571705000000000041e+02 2.010375000000000000e+03
1.040000000000000091e-01 2.061330000000000107e-01 4.180684999999999718e+01 1.582805000000000177e+02 2.010875000000000000e+03
1.050000000000000100e-01 2.061914999999999998e-01 4.159194999999999709e+01 1.591139999999999759e+02 2.011289999999999964e+03
1.059999999999999970e-01 2.062370000000000037e-01 4.125905000000000200e+01 1.596790000000000020e+02 2.011610000000000127e+03
1.069999999999999979e-01 2.062704999999999955e-01 4.081470000000000198e+01 1.599909999999999854e+02 2.011855000000000018e+03
1.079999999999999988e-01 2.062924999999999898e-01 4.026789999999999736e+01 1.600705000000000098e+02 2.012014999999999873e+03
1.089999999999999997e-01 2.063035000000000008e-01 3.962989999999999924e+01 1.599430000000000121e+02 2.012099999999999909e+03
1.100000000000000006e-01 2.063050000000000161e-01 3.891355000000000075e+01 1.596380000000000052e+02 2.012115000000000009e+03
1.110000000000000014e-01 2.062980000000000091e-01 3.813299999999999557e+01 1.591870000000000118e+02 2.012079999999999927e+03
1.120000000000000023e-01 2.062839999999999951e-01 3.730315000000000225e+01 1.586229999999999905e+02 2.011990000000000009e+03
1.130000000000000032e-01 2.062634999999999885e-01 3.643890000000000384e+01 1.579764999999999873e+02 2.011860000000000127e+03
1.140000000000000041e-01 2.062399999999999789e-01 3.555474999999999852e+01 1.572805000000000177e+02 2.011700000000000045e+03
1.150000000000000050e-01 2.062130000000000074e-01 3.466424999999999557e+01 1.565610000000000070e+02 2.011519999999999982e+03
1.160000000000000059e-01 2.061835000000000195e-01 3.377965000000000373e+01 1.558425000000000011e+02 2.011324999999999818e+03
1.170000000000000068e-01 2.061540000000000039e-01 3.291120000000000090e+01 1.551449999999999818e+02 2.011125000000000000e+03
1.180000000000000077e-01 2.061250000000000027e-01 3.206750000000000256e+01 1.544819999999999993e+02 2.010925000000000182e+03
1.190000000000000085e-01 2.060965000000000158e-01 3.125459999999999638e+01 1.538634999999999877e+02 2.010724999999999909e+03
1.200000000000000094e-01 2.060700000000000032e-01 3.047640000000000171e+01 1.532944999999999993e+02 2.010539999999999964e+03
1.209999999999999964e-01 2.060440000000000049e-01 2.973450000000000060e+01 1.527724999999999795e+02 2.010360000000000127e+03
1.219999999999999973e-01 2.060200000000000087e-01 2.902824999999999989e+01 1.522939999999999827e+02 2.010195000000000164e+03
1.229999999999999982e-01 2.059975000000000001e-01 2.835494999999999877e+01 1.518480000000000132e+02 2.010039999999999964e+03
1.239999999999999991e-01 2.059759999999999924e-01 2.771014999999999873e+01 1.514209999999999923e+02 2.009884999999999991e+03
1.250000000000000000e-01 2.059549999999999992e-01 2.708800000000000097e+01 1.509985000000000070e+02 2.009740000000000009e+03
1.260000000000000009e-01 2.059340000000000059e-01 2.648150000000000048e+01 1.505620000000000118e+02 2.009589999999999918e+03
1.270000000000000018e-01 2.059119999999999839e-01 2.588289999999999935e+01 1.500930000000000177e+02 2.009434999999999945e+03
1.280000000000000027e-01 2.058885000000000021e-01 2.528444999999999965e+01 1.495740000000000123e+02 2.009275000000000091e+03
1.290000000000000036e-01 2.058630000000000182e-01 2.467844999999999800e+01 1.489875000000000114e+02 2.009095000000000027e+03
1.300000000000000044e-01 2.058340000000000169e-01 2.405785000000000196e+01 1.483179999999999836e+02 2.008894999999999982e+03
1.310000000000000053e-01 2.058014999999999983e-01 2.341655000000000086e+01 1.475545000000000186e+02 2.008674999999999955e+03
1.320000000000000062e-01 2.057649999999999757e-01 2.275000000000000000e+01 1.466884999999999764e+02 2.008424999999999955e+03
1.330000000000000071e-01 2.057235000000000036e-01 2.205505000000000138e+01 1.457160000000000082e+02 2.008144999999999982e+03
1.340000000000000080e-01 2.056775000000000131e-01 2.133050000000000068e+01 1.446370000000000005e+02 2.007829999999999927e+03
1.350000000000000089e-01 2.056275000000000186e-01 2.057710000000000150e+01 1.434565000000000055e+02 2.007490000000000009e+03
1.360000000000000098e-01 2.055719999999999770e-01 1.979749999999999943e+01 1.421845000000000141e+02 2.007110000000000127e+03
1.370000000000000107e-01 2.055130000000000012e-01 1.899620000000000175e+01 1.408344999999999914e+02 2.006715000000000146e+03
1.380000000000000115e-01 2.054509999999999947e-01 1.817944999999999922e+01 1.394244999999999948e+02 2.006284999999999854e+03
1.390000000000000124e-01 2.053854999999999986e-01 1.735490000000000066e+01 1.379744999999999777e+02 2.005840000000000146e+03
1.400000000000000133e-01 2.053190000000000015e-01 1.653134999999999977e+01 1.365079999999999814e+02 2.005389999999999873e+03
1.410000000000000142e-01 2.052510000000000168e-01 1.571825000000000117e+01 1.350484999999999900e+02 2.004924999999999955e+03
1.420000000000000151e-01 2.051835000000000186e-01 1.492530000000000001e+01 1.336195000000000164e+02 2.004465000000000146e+03
1.430000000000000160e-01 2.051169999999999938e-01 1.416230000000000011e+01 1.322450000000000045e+02 2.004009999999999991e+03
1.440000000000000169e-01 2.050529999999999853e-01 1.343825000000000003e+01 1.309459999999999980e+02 2.003574999999999818e+03
1.450000000000000178e-01 2.049920000000000075e-01 1.276149999999999984e+01 1.297419999999999902e+02 2.003154999999999973e+03
1.459999999999999909e-01 2.049350000000000060e-01 1.213884999999999970e+01 1.286465000000000032e+02 2.002759999999999991e+03
1.469999999999999918e-01 2.048829999999999818e-01 1.157595500000000044e+01 1.276724999999999994e+02 2.002400000000000091e+03
1.479999999999999927e-01 2.048360000000000181e-01 1.107658999999999949e+01 1.268265000000000100e+02 2.002079999999999927e+03
1.489999999999999936e-01 2.047944999999999904e-01 1.064292000000000016e+01 1.261115000000000066e+02 2.001789999999999964e+03
1.499999999999999944e-01 2.047589999999999966e-01 1.027532499999999871e+01 1.255270000000000010e+02 2.001539999999999964e+03
1.509999999999999953e-01 2.047285000000000077e-01 9.972684999999998468e+00 1.250685000000000002e+02 2.001329999999999927e+03
1.519999999999999962e-01 2.047045000000000115e-01 9.732195000000000817e+00 1.247279999999999944e+02 2.001160000000000082e+03
1.529999999999999971e-01 2.046855000000000202e-01 9.549825000000000230e+00 1.244950000000000045e+02 2.001019999999999982e+03
1.539999999999999980e-01 2.046709999999999918e-01 9.420524999999999594e+00 1.243575000000000017e+02 2.000920000000000073e+03
1.549999999999999989e-01 2.046614999999999962e-01 9.338370000000001170e+00 1.243010000000000019e+02 2.000844999999999800e+03
1.559999999999999998e-01 2.046554999999999902e-01 9.296870000000000189e+00 1.243119999999999976e+02 2.000799999999999955e+03
1.570000000000000007e-01 2.046524999999999872e-01 9.289255000000000706e+00 1.243744999999999976e+02 2.000775000000000091e+03
1.580000000000000016e-01 2.046525000000000150e-01 9.308659999999999712e+00 1.244759999999999991e+02 2.000769999999999982e+03
1.590000000000000024e-01 2.046545000000000170e-01 9.348354999999999748e+00 1.246014999999999873e+02 2.000779999999999973e+03
