# t [s], A [cm^2], U [cm/s], P [cPa], c [cm/s]
1.000000000000000021e-03 1.684839999999999949e-01 2.245665000000000022e-01 9.485304999999999609e+01 2.076860000000000127e+03
2.000000000000000042e-03 1.684490000000000154e-01 1.589334500000000094e+00 9.192504999999999882e+01 2.076510000000000218e+03
3.000000000000000062e-03 1.683419999999999916e-01 3.312647000000000119e+00 8.782640000000000668e+01 2.075500000000000000e+03
4.000000000000000083e-03 1.681904999999999928e-01 5.263649050000000607e+00 8.319499999999999318e+01 2.074085000000000036e+03
5.000000000000000104e-03 1.680220000000000047e-01 7.384050000000000225e+00 7.885784999999999911e+01 2.072525000000000091e+03
6.000000000000000125e-03 1.678560000000000052e-01 9.537404999999999688e+00 7.520289999999999964e+01 2.071010000000000218e+03
7.000000000000000146e-03 1.676989999999999870e-01 1.152411999999999992e+01 7.210094999999999743e+01 2.069595000000000255e+03
8.000000000000000167e-03 1.675534999999999941e-01 1.322818499999999986e+01 6.930389999999999873e+01 2.068309999999999945e+03
9.000000000000001055e-03 1.674215000000000009e-01 1.466239000000000203e+01 6.680485000000000184e+01 2.067164999999999964e+03
1.000000000000000194e-02 1.673080000000000123e-01 1.586485000000000056e+01 6.469620000000000459e+01 2.066190000000000055e+03
1.099999999999999936e-02 1.672130000000000005e-01 1.685399999999999920e+01 6.299279999999999546e+01 2.065385000000000218e+03
1.200000000000000025e-02 1.671360000000000068e-01 1.764240000000000208e+01 6.165194999999999936e+01 2.064730000000000018e+03
1.300000000000000114e-02 1.670740000000000003e-01 1.823404999999999987e+01 6.059199999999999875e+01 2.064215000000000146e+03
1.400000000000000203e-02 1.670234999999999914e-01 1.862814999999999799e+01 5.969280000000000541e+01 2.063800000000000182e+03
1.499999999999999944e-02 1.669800000000000173e-01 1.885620000000000118e+01 5.888485000000000014e+01 2.063460000000000036e+03
1.600000000000000033e-02 1.669459999999999833e-01 1.901335000000000264e+01 5.827114999999999867e+01 2.063194999999999709e+03
1.700000000000000122e-02 1.669275000000000064e-01 1.923655000000000115e+01 5.813139999999999930e+01 2.063055000000000291e+03
1.800000000000000211e-02 1.669324999999999837e-01 1.964144999999999897e+01 5.877145000000000152e+01 2.063099999999999909e+03
1.900000000000000300e-02 1.669645000000000157e-01 2.026190000000000069e+01 6.032425000000000637e+01 2.063380000000000109e+03
2.000000000000000042e-02 1.670230000000000048e-01 2.103180000000000049e+01 6.263649999999999807e+01 2.063885000000000218e+03
2.100000000000000130e-02 1.670989999999999975e-01 2.181340000000000146e+01 6.529919999999999902e+01 2.064539999999999964e+03
2.200000000000000219e-02 1.671790000000000220e-01 2.245250000000000057e+01 6.779134999999999422e+01 2.065239999999999782e+03
2.299999999999999961e-02 1.672500000000000098e-01 2.283274999999999721e+01 6.965739999999999554e+01 2.065869999999999891e+03
2.400000000000000050e-02 1.673014999999999919e-01 2.290894999999999726e+01 7.064395000000000380e+01 2.066340000000000146e+03
2.500000000000000139e-02 1.673295000000000199e-01 2.271089999999999876e+01 7.075135000000000218e+01 2.066609999999999673e+03
2.600000000000000228e-02 1.673364999999999991e-01 2.232119999999999749e+01 7.019214999999999804e+01 2.066689999999999600e+03
2.700000000000000316e-02 1.673270000000000035e-01 2.183874999999999744e+01 6.928620000000000800e+01 2.066630000000000109e+03
2.800000000000000058e-02 1.673094999999999999e-01 2.134319999999999951e+01 6.833695000000000164e+01 2.066489999999999782e+03
2.900000000000000147e-02 1.672905000000000086e-01 2.087290000000000134e+01 6.753650000000000375e+01 2.066329999999999927e+03
3.000000000000000236e-02 1.672730000000000050e-01 2.042114999999999725e+01 6.692480000000000473e+01 2.066175000000000182e+03
3.099999999999999978e-02 1.672565000000000024e-01 1.994839999999999947e+01 6.640860000000000696e+01 2.066030000000000200e+03
3.200000000000000067e-02 1.672375000000000111e-01 1.940490000000000137e+01 6.582304999999999495e+01 2.065864999999999782e+03
3.300000000000000155e-02 1.672135000000000149e-01 1.875509999999999877e+01 6.501144999999999641e+01 2.065664999999999964e+03
3.400000000000000244e-02 1.671810000000000240e-01 1.799589999999999890e+01 6.389654999999999774e+01 2.065389999999999873e+03
3.500000000000000333e-02 1.671400000000000108e-01 1.716450000000000031e+01 6.252185000000000059e+01 2.065045000000000073e+03
3.600000000000000422e-02 1.670944999999999792e-01 1.633275000000000077e+01 6.105214999999999748e+01 2.064654999999999745e+03
3.700000000000000511e-02 1.670490000000000030e-01 1.559055000000000035e+01 5.973369999999999891e+01 2.064264999999999873e+03
3.799999999999999906e-02 1.670119999999999938e-01 1.502299999999999969e+01 5.882725000000000648e+01 2.063934999999999945e+03
3.899999999999999994e-02 1.669889999999999985e-01 1.468935000000000102e+01 5.853725000000000023e+01 2.063730000000000018e+03
4.000000000000000083e-02 1.669859999999999955e-01 1.460885000000000034e+01 5.895680000000000121e+01 2.063680000000000291e+03
4.100000000000000172e-02 1.670030000000000125e-01 1.475710000000000122e+01 6.004380000000000450e+01 2.063815000000000055e+03
4.200000000000000261e-02 1.670389999999999930e-01 1.507240000000000002e+01 6.163129999999999598e+01 2.064099999999999909e+03
4.300000000000000350e-02 1.670869999999999855e-01 1.546914999999999907e+01 6.346469999999999345e+01 2.064510000000000218e+03
4.400000000000000439e-02 1.671409999999999840e-01 1.585419999999999874e+01 6.525329999999999586e+01 2.064965000000000146e+03
4.499999999999999833e-02 1.671920000000000073e-01 1.614209999999999923e+01 6.672354999999998881e+01 2.065404999999999745e+03
4.599999999999999922e-02 1.672325000000000061e-01 1.626654999999999873e+01 6.766110000000000468e+01 2.065760000000000218e+03
4.700000000000000011e-02 1.672565000000000024e-01 1.618625000000000114e+01 6.793530000000001223e+01 2.065980000000000018e+03
4.800000000000000100e-02 1.672604999999999786e-01 1.588574999999999982e+01 6.750524999999998954e+01 2.066030000000000200e+03
4.900000000000000189e-02 1.672445000000000181e-01 1.537129999999999974e+01 6.640860000000000696e+01 2.065894999999999982e+03
5.000000000000000278e-02 1.672079999999999955e-01 1.466514999999999880e+01 6.473935000000000173e+01 2.065595000000000255e+03
5.100000000000000366e-02 1.671535000000000104e-01 1.379839999999999911e+01 6.262199999999999989e+01 2.065135000000000218e+03
5.200000000000000455e-02 1.670849999999999835e-01 1.280528999999999940e+01 6.018779999999999575e+01 2.064550000000000182e+03
5.300000000000000544e-02 1.670055000000000012e-01 1.171957500000000074e+01 5.755819999999999936e+01 2.063869999999999891e+03
5.399999999999999939e-02 1.669189999999999841e-01 1.057287999999999961e+01 5.483634999999999593e+01 2.063119999999999891e+03
5.500000000000000028e-02 1.668280000000000041e-01 9.395170000000000243e+00 5.210715000000000430e+01 2.062340000000000146e+03
5.600000000000000117e-02 1.667354999999999809e-01 8.215854999999999464e+00 4.944205000000000183e+01 2.061534999999999854e+03
5.700000000000000205e-02 1.666445000000000010e-01 7.065644999999999953e+00 4.690654999999999575e+01 2.060750000000000000e+03
5.800000000000000294e-02 1.665570000000000106e-01 5.977729999999999322e+00 4.456739999999999924e+01 2.059984999999999673e+03
5.900000000000000383e-02 1.664754999999999985e-01 4.987734999999999808e+00 4.249684999999999491e+01 2.059275000000000091e+03
6.000000000000000472e-02 1.664034999999999820e-01 4.133149999999999658e+00 4.077309999999999945e+01 2.058640000000000327e+03
6.099999999999999867e-02 1.663430000000000186e-01 3.451389999999999958e+00 3.947780000000000200e+01 2.058114999999999782e+03
6.199999999999999956e-02 1.662974999999999870e-01 2.977430000000000021e+00 3.868965000000000032e+01 2.057704999999999927e+03
6.300000000000000044e-02 1.662695000000000145e-01 2.741134999999999877e+00 3.847789999999999822e+01 2.057445000000000164e+03
6.400000000000000133e-02 1.662609999999999921e-01 2.764904999999999724e+00 3.889459999999999695e+01 2.057355000000000018e+03
6.500000000000000222e-02 1.662734999999999908e-01 3.061824999999999797e+00 3.996920000000000073e+01 2.057440000000000055e+03
6.600000000000000311e-02 1.663085000000000258e-01 3.634724999999999540e+00 4.170510000000000161e+01 2.057720000000000255e+03
6.700000000000000400e-02 1.663654999999999995e-01 4.476004999999999789e+00 4.407840000000000202e+01 2.058194999999999709e+03
6.800000000000000488e-02 1.664440000000000086e-01 5.568340000000000067e+00 4.704039999999999822e+01 2.058859999999999673e+03
6.900000000000000577e-02 1.665429999999999966e-01 6.886015000000000441e+00 5.052085000000000292e+01 2.059695000000000164e+03
7.000000000000000666e-02 1.666595000000000160e-01 8.396750000000000824e+00 5.443354999999999677e+01 2.060684999999999945e+03
7.100000000000000755e-02 1.667910000000000226e-01 1.006367999999999974e+01 5.868254999999999910e+01 2.061819999999999709e+03
7.200000000000000844e-02 1.669350000000000001e-01 1.184788499999999978e+01 6.316864999999999952e+01 2.063055000000000291e+03
7.300000000000000933e-02 1.670874999999999999e-01 1.371023999999999887e+01 6.779550000000000409e+01 2.064380000000000109e+03
7.399999999999999634e-02 1.672465000000000201e-01 1.561364999999999981e+01 7.247520000000000095e+01 2.065750000000000000e+03
7.499999999999999722e-02 1.674085000000000156e-01 1.752485000000000070e+01 7.713300000000000978e+01 2.067159999999999854e+03
7.599999999999999811e-02 1.675699999999999967e-01 1.941579999999999728e+01 8.171054999999999779e+01 2.068574999999999818e+03
7.699999999999999900e-02 1.677309999999999912e-01 2.126435000000000031e+01 8.616769999999999641e+01 2.069989999999999782e+03
7.799999999999999989e-02 1.678894999999999971e-01 2.305505000000000138e+01 9.048269999999999413e+01 2.071375000000000000e+03
7.900000000000000078e-02 1.680439999999999989e-01 2.477844999999999942e+01 9.465070000000000050e+01 2.072744999999999891e+03
8.000000000000000167e-02 1.681950000000000112e-01 2.643055000000000021e+01 9.868104999999999905e+01 2.074074999999999818e+03
8.100000000000000255e-02 1.683419999999999916e-01 2.801214999999999833e+01 1.025932999999999993e+02 2.075375000000000000e+03
8.200000000000000344e-02 1.684855000000000103e-01 2.952694999999999936e+01 1.064137499999999932e+02 2.076650000000000091e+03
8.300000000000000433e-02 1.686269999999999991e-01 3.098055000000000092e+01 1.101694999999999993e+02 2.077904999999999745e+03
8.400000000000000522e-02 1.687659999999999993e-01 3.237924999999999898e+01 1.138859999999999957e+02 2.079149999999999636e+03
8.500000000000000611e-02 1.689045000000000130e-01 3.372854999999999848e+01 1.175825000000000102e+02 2.080375000000000000e+03
8.600000000000000699e-02 1.690419999999999978e-01 3.503284999999999627e+01 1.212715000000000032e+02 2.081599999999999909e+03
8.700000000000000788e-02 1.691785000000000094e-01 3.629449999999999932e+01 1.249574999999999960e+02 2.082819999999999709e+03
8.800000000000000877e-02 1.693149999999999933e-01 3.751375000000000171e+01 1.286355000000000075e+02 2.084039999999999964e+03
8.899999999999999578e-02 1.694510000000000183e-01 3.868864999999999554e+01 1.322930000000000064e+02 2.085250000000000000e+03
8.999999999999999667e-02 1.695860000000000145e-01 3.981510000000000105e+01 1.359119999999999777e+02 2.086460000000000036e+03
9.099999999999999756e-02 1.697194999999999954e-01 4.088734999999999786e+01 1.394679999999999893e+02 2.087654999999999745e+03
9.199999999999999845e-02 1.698500000000000010e-01 4.189809999999999945e+01 1.429320000000000164e+02 2.088824999999999818e+03
9.299999999999999933e-02 1.699775000000000036e-01 4.283915000000000362e+01 1.462755000000000223e+02 2.089970000000000255e+03
9.400000000000000022e-02 1.701010000000000022e-01 4.370130000000000337e+01 1.494674999999999727e+02 2.091074999999999818e+03
9.500000000000000111e-02 1.702184999999999948e-01 4.447549999999999670e+01 1.524780000000000086e+02 2.092130000000000109e+03
9.600000000000000200e-02 1.703295000000000226e-01 4.515269999999999584e+01 1.552785000000000082e+02 2.093139999999999873e+03
9.700000000000000289e-02 1.704340000000000022e-01 4.572444999999999737e+01 1.578435000000000059e+02 2.094074999999999818e+03
9.800000000000000377e-02 1.705295000000000005e-01 4.618330000000000268e+01 1.601510000000000105e+02 2.094944999999999709e+03
9.900000000000000466e-02 1.706165000000000043e-01 4.652344999999999686e+01 1.621835000000000093e+02 2.095735000000000127e+03
1.000000000000000056e-01 1.706934999999999980e-01 4.674065000000000225e+01 1.639275000000000091e+02 2.096434999999999945e+03
1.010000000000000064e-01 1.707605000000000095e-01 4.683305000000000007e+01 1.653770000000000095e+02 2.097050000000000182e+03
1.020000000000000073e-01 1.708175000000000110e-01 4.680134999999999934e+01 1.665310000000000059e+02 2.097574999999999818e+03
1.030000000000000082e-01 1.708640000000000159e-01 4.664855000000000018e+01 1.673969999999999914e+02 2.098000000000000000e+03
1.040000000000000091e-01 1.709005000000000107e-01 4.638065000000000282e+01 1.679884999999999877e+02 2.098345000000000255e+03
1.050000000000000100e-01 1.709275000000000100e-01 4.600585000000000235e+01 1.683245000000000005e+02 2.098595000000000255e+03
1.059999999999999970e-01 1.709455000000000002e-01 4.553475000000000250e+01 1.684294999999999902e+02 2.098769999999999982e+03
1.069999999999999979e-01 1.709550000000000236e-01 4.497955000000000325e+01 1.683329999999999984e+02 2.098869999999999891e+03
1.079999999999999988e-01 1.709574999999999845e-01 4.435375000000000512e+01 1.680665000000000191e+02 2.098900000000000091e+03
1.089999999999999997e-01 1.709535000000000082e-01 4.367170000000000130e+01 1.676634999999999991e+02 2.098869999999999891e+03
1.100000000000000006e-01 1.709444999999999992e-01 4.294764999999999588e+01 1.671560000000000059e+02 2.098800000000000182e+03
1.110000000000000014e-01 1.709315000000000140e-01 4.219554999999999723e+01 1.665760000000000218e+02 2.098684999999999945e+03
1.120000000000000023e-01 1.709149999999999836e-01 4.142835000000000178e+01 1.659510000000000218e+02 2.098550000000000182e+03
1.130000000000000032e-01 1.708970000000000211e-01 4.065765000000000384e+01 1.653064999999999998e+02 2.098390000000000327e+03
1.140000000000000041e-01 1.708780000000000021e-01 3.989324999999999477e+01 1.646614999999999895e+02 2.098215000000000146e+03
1.150000000000000050e-01 1.708574999999999955e-01 3.914314999999999856e+01 1.640304999999999893e+02 2.098034999999999854e+03
1.160000000000000059e-01 1.708369999999999889e-01 3.841295000000000215e+01 1.634240000000000066e+02 2.097855000000000018e+03
1.170000000000000068e-01 1.708175000000000110e-01 3.770645000000000380e+01 1.628449999999999989e+02 2.097670000000000073e+03
1.180000000000000077e-01 1.707980000000000054e-01 3.702490000000000236e+01 1.622944999999999993e+02 2.097494999999999891e+03
1.190000000000000085e-01 1.707790000000000141e-01 3.636775000000000091e+01 1.617665000000000077e+02 2.097320000000000164e+03
1.200000000000000094e-01 1.707599999999999951e-01 3.573255000000000337e+01 1.612520000000000095e+02 2.097149999999999636e+03
1.209999999999999964e-01 1.707414999999999905e-01 3.511509999999999820e+01 1.607390000000000043e+02 2.096985000000000127e+03
1.219999999999999973e-01 1.707230000000000136e-01 3.451030000000000086e+01 1.602119999999999891e+02 2.096814999999999600e+03
1.229999999999999982e-01 1.707035000000000080e-01 3.391174999999999784e+01 1.596555000000000177e+02 2.096635000000000218e+03
1.239999999999999991e-01 1.706825000000000148e-01 3.331284999999999741e+01 1.590525000000000091e+02 2.096444999999999709e+03
1.250000000000000000e-01 1.706599999999999784e-01 3.270669999999999789e+01 1.583865000000000123e+02 2.096244999999999891e+03
1.260000000000000009e-01 1.706354999999999955e-01 3.208684999999999832e+01 1.576435000000000173e+02 2.096025000000000091e+03
1.270000000000000018e-01 1.706079999999999819e-01 3.144749999999999801e+01 1.568104999999999905e+02 2.095775000000000091e+03
1.280000000000000027e-01 1.705774999999999930e-01 3.078394999999999726e+01 1.558770000000000095e+02 2.095505000000000109e+03
1.290000000000000036e-01 1.705440000000000011e-01 3.009284999999999854e+01 1.548385000000000105e+02 2.095199999999999818e+03
1.300000000000000044e-01 1.705059999999999909e-01 2.937239999999999895e+01 1.536939999999999884e+02 2.094864999999999782e+03
1.310000000000000053e-01 1.704654999999999920e-01 2.862255000000000038e+01 1.524449999999999932e+02 2.094505000000000109e+03
1.320000000000000062e-01 1.704205000000000025e-01 2.784510000000000218e+01 1.510989999999999895e+02 2.094109999999999673e+03
1.330000000000000071e-01 1.703729999999999967e-01 2.704370000000000118e+01 1.496680000000000064e+02 2.093680000000000291e+03
1.340000000000000080e-01 1.703224999999999878e-01 2.622350000000000136e+01 1.481689999999999827e+02 2.093225000000000364e+03
1.350000000000000089e-01 1.702690000000000037e-01 2.539139999999999731e+01 1.466190000000000282e+02 2.092755000000000109e+03
1.360000000000000098e-01 1.702150000000000052e-01 2.455525000000000091e+01 1.450414999999999850e+02 2.092269999999999982e+03
1.370000000000000107e-01 1.701590000000000047e-01 2.372375000000000256e+01 1.434594999999999914e+02 2.091774999999999636e+03
1.380000000000000115e-01 1.701030000000000042e-01 2.290630000000000166e+01 1.418959999999999866e+02 2.091274999999999636e+03
1.390000000000000124e-01 1.700475000000000181e-01 2.211214999999999975e+01 1.403760000000000048e+02 2.090775000000000091e+03
1.400000000000000133e-01 1.699935000000000196e-01 2.135014999999999930e+01 1.389205000000000041e+02 2.090289999999999964e+03
1.410000000000000142e-01 1.699415000000000231e-01 2.062855000000000061e+01 1.375504999999999995e+02 2.089829999999999927e+03
1.420000000000000151e-01 1.698925000000000018e-01 1.995434999999999803e+01 1.362819999999999823e+02 2.089380000000000109e+03
1.430000000000000160e-01 1.698465000000000114e-01 1.933334999999999937e+01 1.351279999999999859e+02 2.088969999999999800e+03
1.440000000000000169e-01 1.698040000000000105e-01 1.876970000000000027e+01 1.340970000000000084e+02 2.088590000000000146e+03
1.450000000000000178e-01 1.697660000000000002e-01 1.826604999999999990e+01 1.331945000000000050e+02 2.088244999999999891e+03
1.459999999999999909e-01 1.697325000000000084e-01 1.782345000000000113e+01 1.324205000000000041e+02 2.087935000000000400e+03
1.469999999999999918e-01 1.697024999999999784e-01 1.744129999999999825e+01 1.317719999999999914e+02 2.087670000000000073e+03
1.479999999999999927e-01 1.696769999999999945e-01 1.711764999999999759e+01 1.312439999999999998e+02 2.087440000000000055e+03
1.489999999999999936e-01 1.696560000000000012e-01 1.684939999999999927e+01 1.308265000000000100e+02 2.087244999999999891e+03
1.499999999999999944e-01 1.696384999999999976e-01 1.663224999999999909e+01 1.305095000000000027e+02 2.087079999999999927e+03
1.509999999999999953e-01 1.696249999999999980e-01 1.646134999999999948e+01 1.302800000000000011e+02 2.086949999999999818e+03
1.519999999999999962e-01 1.696139999999999870e-01 1.633109999999999928e+01 1.301254999999999882e+02 2.086849999999999909e+03
1.529999999999999971e-01 1.696059999999999790e-01 1.623590000000000089e+01 1.300324999999999989e+02 2.086775000000000091e+03
1.539999999999999980e-01 1.696004999999999874e-01 1.616969999999999885e+01 1.299890000000000043e+02 2.086720000000000255e+03
1.549999999999999989e-01 1.695964999999999834e-01 1.612669999999999959e+01 1.299819999999999993e+02 2.086679999999999836e+03
1.559999999999999998e-01 1.695939999999999948e-01 1.610139999999999816e+01 1.299995000000000118e+02 2.086659999999999854e+03
1.570000000000000007e-01 1.695929999999999938e-01 1.608849999999999980e+01 1.300330000000000155e+02 2.086645000000000437e+03
1.580000000000000016e-01 1.695919999999999928e-01 1.608334999999999937e+01 1.300724999999999909e+02 2.086635000000000218e+03
1.590000000000000024e-01 1.695915000000000061e-01 1.608174999999999955e+01 1.301105000000000018e+02 2.086635000000000218e+03
