# t [s], A [cm^2], U [cm/s], P [cPa], c [cm/s]
1.000000000000000021e-03 1.239000000000000101e-01 3.456415000000000459e-01 9.892130000000000223e+01 1.973059999999999945e+03
2.000000000000000042e-03 1.238700000000000079e-01 1.933991499999999863e+00 9.562344999999999118e+01 1.972644999999999982e+03
3.000000000000000062e-03 1.237800000000000011e-01 3.872399500000000216e+00 9.119185000000000230e+01 1.971460000000000036e+03
4.000000000000000083e-03 1.236534999999999995e-01 6.031215000000000437e+00 8.638070000000000448e+01 1.969804999999999836e+03
5.000000000000000104e-03 1.235134999999999983e-01 8.342835000000000889e+00 8.203414999999999679e+01 1.967994999999999891e+03
6.000000000000000125e-03 1.233760000000000134e-01 1.065105499999999950e+01 7.846274999999999977e+01 1.966235000000000127e+03
7.000000000000000146e-03 1.232464999999999949e-01 1.275436499999999995e+01 7.546630000000000393e+01 1.964595000000000027e+03
8.000000000000000167e-03 1.231254999999999988e-01 1.455297000000000018e+01 7.278679999999999950e+01 1.963105000000000018e+03
9.000000000000001055e-03 1.230180000000000023e-01 1.607085000000000008e+01 7.042270000000000607e+01 1.961784999999999854e+03
1.000000000000000194e-02 1.229244999999999921e-01 1.734694999999999965e+01 6.845310000000000628e+01 1.960660000000000082e+03
1.099999999999999936e-02 1.228459999999999969e-01 1.839815000000000111e+01 6.687215000000000487e+01 1.959724999999999909e+03
1.200000000000000025e-02 1.227820000000000022e-01 1.923859999999999815e+01 6.562919999999999732e+01 1.958970000000000027e+03
1.300000000000000114e-02 1.227304999999999924e-01 1.987790000000000035e+01 6.465354999999999563e+01 1.958369999999999891e+03
1.400000000000000203e-02 1.226885000000000059e-01 2.031990000000000052e+01 6.384434999999999860e+01 1.957889999999999873e+03
1.499999999999999944e-02 1.226534999999999986e-01 2.059490000000000265e+01 6.313850000000000051e+01 1.957505000000000109e+03
1.600000000000000033e-02 1.226264999999999994e-01 2.079115000000000180e+01 6.262335000000000207e+01 1.957204999999999927e+03
1.700000000000000122e-02 1.226109999999999978e-01 2.103944999999999865e+01 6.255349999999999966e+01 1.957045000000000073e+03
1.800000000000000211e-02 1.226125000000000131e-01 2.145555000000000234e+01 6.322039999999999793e+01 1.957075000000000045e+03
1.900000000000000300e-02 1.226355000000000084e-01 2.207959999999999923e+01 6.476394999999999413e+01 1.957365000000000009e+03
2.000000000000000042e-02 1.226794999999999969e-01 2.285304999999999964e+01 6.705375000000000796e+01 1.957894999999999982e+03
2.100000000000000130e-02 1.227385000000000004e-01 2.364135000000000275e+01 6.970394999999999186e+01 1.958605000000000018e+03
2.200000000000000219e-02 1.228029999999999955e-01 2.428580000000000183e+01 7.220224999999999227e+01 1.959389999999999873e+03
2.299999999999999961e-02 1.228609999999999980e-01 2.465890000000000271e+01 7.408150000000000546e+01 1.960115000000000009e+03
2.400000000000000050e-02 1.229049999999999865e-01 2.470250000000000057e+01 7.506279999999999575e+01 1.960674999999999955e+03
2.500000000000000139e-02 1.229299999999999976e-01 2.443740000000000023e+01 7.512020000000001119e+01 1.961009999999999991e+03
2.600000000000000228e-02 1.229365000000000041e-01 2.394550000000000267e+01 7.445435000000000514e+01 1.961110000000000127e+03
2.700000000000000316e-02 1.229279999999999956e-01 2.333494999999999919e+01 7.339619999999999322e+01 1.961035000000000082e+03
2.800000000000000058e-02 1.229124999999999940e-01 2.270244999999999891e+01 7.228315000000000623e+01 1.960860000000000127e+03
2.900000000000000147e-02 1.228944999999999899e-01 2.210609999999999786e+01 7.135444999999999993e+01 1.960650000000000091e+03
3.000000000000000236e-02 1.228785000000000016e-01 2.155680000000000263e+01 7.069764999999999588e+01 1.960454999999999927e+03
3.099999999999999978e-02 1.228660000000000030e-01 2.102575000000000216e+01 7.025345000000000084e+01 1.960299999999999955e+03
3.200000000000000067e-02 1.228539999999999910e-01 2.046474999999999866e+01 6.986775000000000091e+01 1.960160000000000082e+03
3.300000000000000155e-02 1.228415000000000062e-01 1.982949999999999946e+01 6.936619999999999209e+01 1.960005000000000109e+03
3.400000000000000244e-02 1.228240000000000026e-01 1.910025000000000261e+01 6.862635000000000218e+01 1.959805000000000064e+03
3.500000000000000333e-02 1.228015000000000079e-01 1.829299999999999926e+01 6.762839999999999918e+01 1.959534999999999854e+03
3.600000000000000422e-02 1.227739999999999942e-01 1.746010000000000062e+01 6.646999999999999886e+01 1.959210000000000036e+03
3.700000000000000511e-02 1.227445000000000064e-01 1.667859999999999943e+01 6.534404999999999575e+01 1.958860000000000127e+03
3.799999999999999906e-02 1.227179999999999938e-01 1.603194999999999837e+01 6.448709999999999809e+01 1.958534999999999854e+03
3.899999999999999994e-02 1.226990000000000025e-01 1.558859999999999957e+01 6.411440000000000339e+01 1.958300000000000182e+03
4.000000000000000083e-02 1.226934999999999970e-01 1.538560000000000016e+01 6.436140000000000327e+01 1.958215000000000146e+03
4.100000000000000172e-02 1.227020000000000055e-01 1.541929999999999978e+01 6.524739999999999895e+01 1.958299999999999955e+03
4.200000000000000261e-02 1.227245000000000141e-01 1.564634999999999998e+01 6.666849999999999454e+01 1.958559999999999945e+03
4.300000000000000350e-02 1.227590000000000070e-01 1.599245000000000161e+01 6.841884999999999195e+01 1.958965000000000146e+03
4.400000000000000439e-02 1.228009999999999935e-01 1.636639999999999873e+01 7.023239999999999839e+01 1.959454999999999927e+03
4.499999999999999833e-02 1.228429999999999939e-01 1.667539999999999978e+01 7.183119999999999550e+01 1.959965000000000146e+03
4.599999999999999922e-02 1.228805000000000036e-01 1.683865000000000123e+01 7.297159999999999513e+01 1.960409999999999854e+03
4.700000000000000011e-02 1.229060000000000014e-01 1.679664999999999964e+01 7.347745000000000459e+01 1.960730000000000018e+03
4.800000000000000100e-02 1.229175000000000129e-01 1.651599999999999824e+01 7.325724999999999909e+01 1.960875000000000000e+03
4.900000000000000189e-02 1.229110000000000064e-01 1.598879999999999946e+01 7.230440000000000111e+01 1.960809999999999945e+03
5.000000000000000278e-02 1.228869999999999962e-01 1.522885000000000133e+01 7.068385000000000673e+01 1.960534999999999854e+03
5.100000000000000366e-02 1.228464999999999974e-01 1.426579999999999870e+01 6.851045000000000584e+01 1.960059999999999945e+03
5.200000000000000455e-02 1.227914999999999979e-01 1.313879999999999981e+01 6.592515000000000214e+01 1.959404999999999973e+03
5.300000000000000544e-02 1.227260000000000018e-01 1.189117500000000049e+01 6.307390000000000185e+01 1.958615000000000009e+03
5.399999999999999939e-02 1.226520000000000110e-01 1.056665500000000080e+01 6.009340000000000259e+01 1.957724999999999909e+03
5.500000000000000028e-02 1.225730000000000014e-01 9.207720000000000127e+00 5.710360000000000014e+01 1.956775000000000091e+03
5.600000000000000117e-02 1.224924999999999903e-01 7.855290000000000106e+00 5.420695000000000618e+01 1.955799999999999955e+03
5.700000000000000205e-02 1.224125000000000074e-01 6.549140000000000406e+00 5.149210000000000065e+01 1.954840000000000146e+03
5.800000000000000294e-02 1.223370000000000013e-01 5.328850000000000087e+00 4.903910000000000480e+01 1.953920000000000073e+03
5.900000000000000383e-02 1.222670000000000146e-01 4.234110000000000262e+00 4.692414999999999736e+01 1.953070000000000164e+03
6.000000000000000472e-02 1.222064999999999957e-01 3.304472999999999772e+00 4.522244999999999493e+01 1.952325000000000045e+03
6.099999999999999867e-02 1.221559999999999868e-01 2.578273000000000259e+00 4.400795000000000101e+01 1.951704999999999927e+03
6.199999999999999956e-02 1.221184999999999909e-01 2.090872500000000134e+00 4.335030000000000427e+01 1.951240000000000009e+03
6.300000000000000044e-02 1.220960000000000101e-01 1.872530000000000028e+00 4.331024999999999636e+01 1.950954999999999927e+03
6.400000000000000133e-02 1.220904999999999907e-01 1.946184999999999832e+00 4.393380000000000507e+01 1.950869999999999891e+03
6.500000000000000222e-02 1.221030000000000032e-01 2.325655000000000250e+00 4.524705000000000155e+01 1.950994999999999891e+03
6.600000000000000311e-02 1.221340000000000064e-01 3.014384999999999870e+00 4.725220000000000198e+01 1.951349999999999909e+03
6.700000000000000400e-02 1.221845000000000014e-01 4.004999999999999893e+00 4.992614999999999981e+01 1.951929999999999836e+03
6.800000000000000488e-02 1.222530000000000006e-01 5.279734999999999623e+00 5.322105000000000530e+01 1.952740000000000009e+03
6.900000000000000577e-02 1.223390000000000033e-01 6.811494999999999855e+00 5.706739999999999924e+01 1.953759999999999991e+03
7.000000000000000666e-02 1.224409999999999943e-01 8.565595000000000070e+00 6.137820000000000675e+01 1.954974999999999909e+03
7.100000000000000755e-02 1.225564999999999988e-01 1.050164000000000009e+01 6.605504999999999427e+01 1.956349999999999909e+03
7.200000000000000844e-02 1.226824999999999999e-01 1.257578499999999977e+01 7.099389999999999645e+01 1.957869999999999891e+03
7.300000000000000933e-02 1.228174999999999961e-01 1.474300000000000033e+01 7.609074999999999989e+01 1.959500000000000000e+03
7.399999999999999634e-02 1.229580000000000117e-01 1.695889999999999986e+01 8.124705000000000155e+01 1.961204999999999927e+03
7.499999999999999722e-02 1.231015000000000026e-01 1.918189999999999884e+01 8.637444999999999595e+01 1.962954999999999927e+03
7.599999999999999811e-02 1.232459999999999944e-01 2.137474999999999881e+01 9.139815000000000111e+01 1.964719999999999800e+03
7.699999999999999900e-02 1.233889999999999987e-01 2.350580000000000069e+01 9.626009999999999422e+01 1.966474999999999909e+03
7.799999999999999989e-02 1.235285000000000133e-01 2.555004999999999882e+01 1.009197000000000060e+02 1.968194999999999936e+03
7.900000000000000078e-02 1.236645000000000105e-01 2.748964999999999748e+01 1.053554000000000030e+02 1.969869999999999891e+03
8.000000000000000167e-02 1.237950000000000023e-01 2.931385000000000218e+01 1.095614999999999952e+02 1.971490000000000009e+03
8.100000000000000255e-02 1.239204999999999890e-01 3.101879999999999882e+01 1.135504999999999995e+02 1.973045000000000073e+03
8.200000000000000344e-02 1.240404999999999980e-01 3.260634999999999906e+01 1.173449999999999989e+02 1.974545000000000073e+03
8.300000000000000433e-02 1.241560000000000025e-01 3.408310000000000173e+01 1.209770000000000039e+02 1.975985000000000127e+03
8.400000000000000522e-02 1.242670000000000025e-01 3.545904999999999774e+01 1.244834999999999923e+02 1.977380000000000109e+03
8.500000000000000611e-02 1.243749999999999994e-01 3.674600000000000222e+01 1.279019999999999868e+02 1.978735000000000127e+03
8.600000000000000699e-02 1.244805000000000078e-01 3.795589999999999975e+01 1.312665000000000077e+02 1.980059999999999945e+03
8.700000000000000788e-02 1.245845000000000008e-01 3.910009999999999764e+01 1.346039999999999850e+02 1.981365000000000009e+03
8.800000000000000877e-02 1.246869999999999923e-01 4.018784999999999741e+01 1.379334999999999809e+02 1.982654999999999973e+03
8.899999999999999578e-02 1.247890000000000110e-01 4.122560000000000002e+01 1.412640000000000100e+02 1.983940000000000055e+03
8.999999999999999667e-02 1.248905000000000015e-01 4.221659999999999968e+01 1.445930000000000177e+02 1.985214999999999918e+03
9.099999999999999756e-02 1.249914999999999915e-01 4.316089999999999804e+01 1.479094999999999800e+02 1.986490000000000009e+03
9.199999999999999845e-02 1.250920000000000087e-01 4.405530000000000257e+01 1.511929999999999836e+02 1.987759999999999991e+03
9.299999999999999933e-02 1.251915000000000111e-01 4.489379999999999882e+01 1.544164999999999850e+02 1.989009999999999991e+03
9.400000000000000022e-02 1.252884999999999971e-01 4.566805000000000092e+01 1.575459999999999923e+02 1.990235000000000127e+03
9.500000000000000111e-02 1.253829999999999945e-01 4.636800000000000210e+01 1.605465000000000089e+02 1.991429999999999836e+03
9.600000000000000200e-02 1.254734999999999878e-01 4.698270000000000124e+01 1.633815000000000168e+02 1.992579999999999927e+03
9.700000000000000289e-02 1.255600000000000049e-01 4.750100000000000477e+01 1.660149999999999864e+02 1.993670000000000073e+03
9.800000000000000377e-02 1.256400000000000017e-01 4.791205000000000069e+01 1.684149999999999920e+02 1.994695000000000164e+03
9.900000000000000466e-02 1.257139999999999924e-01 4.820609999999999928e+01 1.705529999999999973e+02 1.995639999999999873e+03
1.000000000000000056e-01 1.257805000000000173e-01 4.837505000000000166e+01 1.724060000000000059e+02 1.996494999999999891e+03
1.010000000000000064e-01 1.258394999999999930e-01 4.841280000000000427e+01 1.739559999999999889e+02 1.997250000000000000e+03
1.020000000000000073e-01 1.258900000000000019e-01 4.831575000000000131e+01 1.751945000000000050e+02 1.997894999999999982e+03
1.030000000000000082e-01 1.259319999999999884e-01 4.808294999999999675e+01 1.761179999999999950e+02 1.998440000000000055e+03
1.040000000000000091e-01 1.259644999999999793e-01 4.771649999999999636e+01 1.767305000000000064e+02 1.998865000000000009e+03
1.050000000000000100e-01 1.259885000000000033e-01 4.722115000000000151e+01 1.770434999999999945e+02 1.999184999999999945e+03
1.059999999999999970e-01 1.260045000000000193e-01 4.660470000000000113e+01 1.770749999999999886e+02 1.999400000000000091e+03
1.069999999999999979e-01 1.260120000000000129e-01 4.587749999999999773e+01 1.768489999999999895e+02 1.999510000000000218e+03
1.079999999999999988e-01 1.260124999999999995e-01 4.505214999999999748e+01 1.763930000000000007e+02 1.999525000000000091e+03
1.089999999999999997e-01 1.260054999999999925e-01 4.414310000000000400e+01 1.757415000000000020e+02 1.999449999999999818e+03
1.100000000000000006e-01 1.259925000000000073e-01 4.316615000000000180e+01 1.749279999999999973e+02 1.999295000000000073e+03
1.110000000000000014e-01 1.259755000000000180e-01 4.213774999999999693e+01 1.739890000000000043e+02 1.999085000000000036e+03
1.120000000000000023e-01 1.259534999999999960e-01 4.107455000000000211e+01 1.729599999999999795e+02 1.998819999999999936e+03
1.130000000000000032e-01 1.259284999999999988e-01 3.999264999999999759e+01 1.718750000000000000e+02 1.998505000000000109e+03
1.140000000000000041e-01 1.259014999999999995e-01 3.890744999999999720e+01 1.707655000000000030e+02 1.998170000000000073e+03
1.150000000000000050e-01 1.258730000000000127e-01 3.783245000000000147e+01 1.696589999999999918e+02 1.997815000000000055e+03
1.160000000000000059e-01 1.258440000000000114e-01 3.677970000000000539e+01 1.685779999999999745e+02 1.997450000000000045e+03
1.170000000000000068e-01 1.258150000000000102e-01 3.575879999999999370e+01 1.675395000000000039e+02 1.997085000000000036e+03
1.180000000000000077e-01 1.257864999999999955e-01 3.477700000000000102e+01 1.665559999999999832e+02 1.996724999999999909e+03
1.190000000000000085e-01 1.257590000000000097e-01 3.383899999999999864e+01 1.656329999999999814e+02 1.996375000000000000e+03
1.200000000000000094e-01 1.257330000000000114e-01 3.294705000000000439e+01 1.647719999999999914e+02 1.996039999999999964e+03
1.209999999999999964e-01 1.257080000000000142e-01 3.210085000000000122e+01 1.639680000000000177e+02 1.995720000000000027e+03
1.219999999999999973e-01 1.256845000000000045e-01 3.129789999999999850e+01 1.632119999999999891e+02 1.995414999999999964e+03
1.229999999999999982e-01 1.256614999999999815e-01 3.053359999999999985e+01 1.624894999999999925e+02 1.995125000000000000e+03
1.239999999999999991e-01 1.256395000000000151e-01 2.980174999999999841e+01 1.617860000000000014e+02 1.994840000000000146e+03
1.250000000000000000e-01 1.256180000000000074e-01 2.909469999999999956e+01 1.610819999999999936e+02 1.994559999999999945e+03
1.260000000000000009e-01 1.255964999999999998e-01 2.840419999999999945e+01 1.603580000000000041e+02 1.994284999999999854e+03
1.270000000000000018e-01 1.255739999999999912e-01 2.772135000000000105e+01 1.595935000000000059e+02 1.994000000000000000e+03
1.280000000000000027e-01 1.255505000000000093e-01 2.703739999999999810e+01 1.587699999999999818e+02 1.993704999999999927e+03
1.290000000000000036e-01 1.255259999999999987e-01 2.634405000000000285e+01 1.578700000000000045e+02 1.993384999999999991e+03
1.300000000000000044e-01 1.254985000000000128e-01 2.563410000000000011e+01 1.568790000000000191e+02 1.993045000000000073e+03
1.310000000000000053e-01 1.254689999999999972e-01 2.490135000000000076e+01 1.557870000000000061e+02 1.992670000000000073e+03
1.320000000000000062e-01 1.254375000000000073e-01 2.414160000000000039e+01 1.545860000000000127e+02 1.992269999999999982e+03
1.330000000000000071e-01 1.254025000000000001e-01 2.335215000000000174e+01 1.532744999999999891e+02 1.991829999999999927e+03
1.340000000000000080e-01 1.253644999999999898e-01 2.253249999999999886e+01 1.518555000000000064e+02 1.991355000000000018e+03
1.350000000000000089e-01 1.253234999999999766e-01 2.168424999999999869e+01 1.503360000000000127e+02 1.990840000000000146e+03
1.360000000000000098e-01 1.252800000000000025e-01 2.081099999999999994e+01 1.487289999999999850e+02 1.990295000000000073e+03
1.370000000000000107e-01 1.252340000000000120e-01 1.991825000000000045e+01 1.470500000000000114e+02 1.989724999999999909e+03
1.380000000000000115e-01 1.251865000000000061e-01 1.901310000000000144e+01 1.453189999999999884e+02 1.989119999999999891e+03
1.390000000000000124e-01 1.251365000000000116e-01 1.810425000000000040e+01 1.435595000000000141e+02 1.988505000000000109e+03
1.400000000000000133e-01 1.250860000000000027e-01 1.720110000000000028e+01 1.417950000000000159e+02 1.987869999999999891e+03
1.410000000000000142e-01 1.250354999999999939e-01 1.631384999999999863e+01 1.400504999999999995e+02 1.987235000000000127e+03
1.420000000000000151e-01 1.249850000000000128e-01 1.545260000000000034e+01 1.383514999999999873e+02 1.986605000000000018e+03
1.430000000000000160e-01 1.249360000000000054e-01 1.462729999999999997e+01 1.367205000000000155e+02 1.985984999999999900e+03
1.440000000000000169e-01 1.248879999999999990e-01 1.384710000000000107e+01 1.351789999999999736e+02 1.985384999999999991e+03
1.450000000000000178e-01 1.248424999999999951e-01 1.312000000000000099e+01 1.337434999999999832e+02 1.984815000000000055e+03
1.459999999999999909e-01 1.247995000000000076e-01 1.245270000000000010e+01 1.324290000000000020e+02 1.984269999999999982e+03
1.469999999999999918e-01 1.247600000000000098e-01 1.185013499999999986e+01 1.312450000000000045e+02 1.983775000000000091e+03
1.479999999999999927e-01 1.247240000000000015e-01 1.131559500000000007e+01 1.301974999999999909e+02 1.983315000000000055e+03
1.489999999999999936e-01 1.246914999999999968e-01 1.085050999999999988e+01 1.292869999999999777e+02 1.982900000000000091e+03
1.499999999999999944e-01 1.246619999999999950e-01 1.045441500000000090e+01 1.285105000000000075e+02 1.982534999999999854e+03
1.509999999999999953e-01 1.246369999999999978e-01 1.012541500000000028e+01 1.278619999999999948e+02 1.982214999999999918e+03
1.519999999999999962e-01 1.246154999999999902e-01 9.859919999999998907e+00 1.273319999999999936e+02 1.981934999999999945e+03
1.529999999999999971e-01 1.245970000000000133e-01 9.653254999999999697e+00 1.269085000000000036e+02 1.981694999999999936e+03
1.539999999999999980e-01 1.245819999999999983e-01 9.499565000000000481e+00 1.265775000000000006e+02 1.981500000000000000e+03
1.549999999999999989e-01 1.245694999999999997e-01 9.392434999999998979e+00 1.263240000000000123e+02 1.981335000000000036e+03
1.559999999999999998e-01 1.245590000000000031e-01 9.324854999999999450e+00 1.261334999999999980e+02 1.981200000000000045e+03
1.570000000000000007e-01 1.245505000000000084e-01 9.289719999999999089e+00 1.259899999999999949e+02 1.981090000000000146e+03
1.580000000000000016e-01 1.245440000000000019e-01 9.279885000000000161e+00 1.258799999999999955e+02 1.981005000000000109e+03
1.590000000000000024e-01 1.245380000000000098e-01 9.288465000000000416e+00 1.257895000000000039e+02 1.980930000000000064e+03
