# t [s], A [cm^2], U [cm/s], P [cPa], c [cm/s]
1.000000000000000021e-03 1.463949999999999974e-01 2.434089999999999865e-01 8.638319999999998799e+01 2.034865000000000009e+03
2.000000000000000042e-03 1.463685000000000125e-01 1.507999000000000089e+00 8.366254999999999598e+01 2.034599999999999909e+03
3.000000000000000062e-03 1.462855000000000127e-01 3.073998000000000008e+00 7.996469999999999345e+01 2.033779999999999973e+03
4.000000000000000083e-03 1.461669999999999914e-01 4.830416500000000113e+00 7.586490000000000578e+01 2.032619999999999891e+03
5.000000000000000104e-03 1.460345000000000115e-01 6.729524999999999757e+00 7.208559999999999945e+01 2.031344999999999800e+03
6.000000000000000125e-03 1.459040000000000059e-01 8.652884999999999494e+00 6.894804999999999495e+01 2.030090000000000146e+03
7.000000000000000146e-03 1.457795000000000063e-01 1.042766999999999911e+01 6.631739999999999213e+01 2.028925000000000182e+03
8.000000000000000167e-03 1.456640000000000157e-01 1.195342499999999930e+01 6.395785000000000053e+01 2.027849999999999909e+03
9.000000000000001055e-03 1.455584999999999796e-01 1.324165999999999954e+01 6.185049999999999670e+01 2.026894999999999982e+03
1.000000000000000194e-02 1.454674999999999996e-01 1.432714999999999961e+01 6.007604999999999507e+01 2.026070000000000164e+03
1.099999999999999936e-02 1.453904999999999781e-01 1.522375000000000078e+01 5.864579999999999416e+01 2.025380000000000109e+03
1.200000000000000025e-02 1.453274999999999983e-01 1.593734999999999857e+01 5.751259999999999906e+01 2.024824999999999818e+03
1.300000000000000114e-02 1.452760000000000162e-01 1.646909999999999741e+01 5.659969999999999857e+01 2.024380000000000109e+03
1.400000000000000203e-02 1.452335000000000154e-01 1.681899999999999906e+01 5.580809999999999604e+01 2.024014999999999873e+03
1.499999999999999944e-02 1.451965000000000061e-01 1.701415000000000077e+01 5.508239999999999981e+01 2.023710000000000036e+03
1.600000000000000033e-02 1.451664999999999761e-01 1.713344999999999985e+01 5.450685000000000002e+01 2.023464999999999918e+03
1.700000000000000122e-02 1.451479999999999992e-01 1.729344999999999999e+01 5.431619999999999493e+01 2.023315000000000055e+03
1.800000000000000211e-02 1.451469999999999982e-01 1.759924999999999784e+01 5.478239999999999554e+01 2.023315000000000055e+03
1.900000000000000300e-02 1.451665000000000039e-01 1.809329999999999927e+01 5.605190000000000339e+01 2.023494999999999891e+03
2.000000000000000042e-02 1.452085000000000181e-01 1.873515000000000086e+01 5.803985000000000127e+01 2.023869999999999891e+03
2.100000000000000130e-02 1.452664999999999929e-01 1.941844999999999999e+01 6.043675000000000352e+01 2.024394999999999982e+03
2.200000000000000219e-02 1.453315000000000023e-01 2.001250000000000284e+01 6.281090000000000373e+01 2.024990000000000009e+03
2.299999999999999961e-02 1.453945000000000098e-01 2.040690000000000026e+01 6.475005000000000166e+01 2.025565000000000055e+03
2.400000000000000050e-02 1.454444999999999766e-01 2.054314999999999714e+01 6.598229999999999507e+01 2.026039999999999964e+03
2.500000000000000139e-02 1.454785000000000106e-01 2.042415000000000092e+01 6.643595000000000539e+01 2.026369999999999891e+03
2.600000000000000228e-02 1.454944999999999988e-01 2.010244999999999749e+01 6.622735000000000127e+01 2.026534999999999854e+03
2.700000000000000316e-02 1.454965000000000008e-01 1.965404999999999802e+01 6.559059999999999491e+01 2.026569999999999936e+03
2.800000000000000058e-02 1.454880000000000062e-01 1.914995000000000047e+01 6.478199999999999648e+01 2.026505000000000109e+03
2.900000000000000147e-02 1.454755000000000076e-01 1.863479999999999848e+01 6.399545000000000528e+01 2.026400000000000091e+03
3.000000000000000236e-02 1.454615000000000213e-01 1.811870000000000047e+01 6.331525000000000603e+01 2.026269999999999982e+03
3.099999999999999978e-02 1.454459999999999920e-01 1.758324999999999960e+01 6.271500000000000341e+01 2.026134999999999991e+03
3.200000000000000067e-02 1.454294999999999893e-01 1.699615000000000009e+01 6.209495000000000431e+01 2.025990000000000009e+03
3.300000000000000155e-02 1.454094999999999971e-01 1.632969999999999899e+01 6.133955000000000268e+01 2.025809999999999945e+03
3.400000000000000244e-02 1.453844999999999998e-01 1.557669999999999888e+01 6.037505000000000166e+01 2.025590000000000146e+03
3.500000000000000333e-02 1.453539999999999832e-01 1.475894999999999868e+01 5.920919999999999561e+01 2.025319999999999936e+03
3.600000000000000422e-02 1.453185000000000171e-01 1.392644999999999911e+01 5.794275000000000375e+01 2.025005000000000109e+03
3.700000000000000511e-02 1.452829999999999955e-01 1.314770000000000039e+01 5.674954999999999927e+01 2.024690000000000055e+03
3.799999999999999906e-02 1.452510000000000190e-01 1.249385000000000012e+01 5.583344999999999914e+01 2.024394999999999982e+03
3.899999999999999994e-02 1.452280000000000237e-01 1.202195000000000036e+01 5.537480000000000047e+01 2.024184999999999945e+03
4.000000000000000083e-02 1.452180000000000137e-01 1.176170000000000115e+01 5.548310000000000031e+01 2.024079999999999927e+03
4.100000000000000172e-02 1.452229999999999910e-01 1.170909999999999940e+01 5.616844999999999999e+01 2.024110000000000127e+03
4.200000000000000261e-02 1.452424999999999966e-01 1.182754999999999868e+01 5.733780000000000143e+01 2.024269999999999982e+03
4.300000000000000350e-02 1.452734999999999999e-01 1.205584999999999951e+01 5.881400000000000006e+01 2.024545000000000073e+03
4.400000000000000439e-02 1.453125000000000111e-01 1.231994999999999862e+01 6.037134999999999962e+01 2.024889999999999873e+03
4.499999999999999833e-02 1.453524999999999956e-01 1.254490000000000016e+01 6.177615000000000123e+01 2.025244999999999891e+03
4.599999999999999922e-02 1.453884999999999761e-01 1.266605000000000025e+01 6.282419999999999760e+01 2.025565000000000055e+03
4.700000000000000011e-02 1.454145000000000021e-01 1.263550000000000040e+01 6.336714999999999520e+01 2.025809999999999945e+03
4.800000000000000100e-02 1.454280000000000017e-01 1.242544999999999966e+01 6.332545000000000357e+01 2.025929999999999836e+03
4.900000000000000189e-02 1.454254999999999853e-01 1.202735000000000021e+01 6.268690000000000140e+01 2.025920000000000073e+03
5.000000000000000278e-02 1.454070000000000085e-01 1.144847000000000037e+01 6.149514999999999532e+01 2.025759999999999991e+03
5.100000000000000366e-02 1.453734999999999888e-01 1.070705500000000043e+01 5.983180000000000121e+01 2.025465000000000146e+03
5.200000000000000455e-02 1.453264999999999973e-01 9.827894999999999825e+00 5.779749999999999943e+01 2.025049999999999955e+03
5.300000000000000544e-02 1.452684999999999949e-01 8.838435000000000485e+00 5.549615000000000009e+01 2.024529999999999973e+03
5.399999999999999939e-02 1.452019999999999977e-01 7.766455000000000553e+00 5.302439999999999998e+01 2.023925000000000182e+03
5.500000000000000028e-02 1.451290000000000080e-01 6.639465000000000394e+00 5.046734999999999616e+01 2.023275000000000091e+03
5.600000000000000117e-02 1.450520000000000143e-01 5.484895000000000742e+00 4.789894999999999925e+01 2.022579999999999927e+03
5.700000000000000205e-02 1.449739999999999918e-01 4.330985000000000085e+00 4.538595000000000113e+01 2.021875000000000000e+03
5.800000000000000294e-02 1.448959999999999970e-01 3.207660499999999804e+00 4.299285000000000423e+01 2.021175000000000182e+03
5.900000000000000383e-02 1.448214999999999919e-01 2.146945000000000103e+00 4.078560000000000230e+01 2.020494999999999891e+03
6.000000000000000472e-02 1.447519999999999918e-01 1.182729999999999837e+00 3.883405000000000484e+01 2.019860000000000127e+03
6.099999999999999867e-02 1.446899999999999853e-01 3.497799999999999798e-01 3.721110000000000184e+01 2.019289999999999964e+03
6.199999999999999956e-02 1.446375000000000022e-01 -3.178800000000000514e-01 3.598985000000000412e+01 2.018809999999999945e+03
6.300000000000000044e-02 1.445974999999999899e-01 -7.889355000000000118e-01 3.523879999999999768e+01 2.018434999999999945e+03
6.400000000000000133e-02 1.445710000000000051e-01 -1.036882999999999999e+00 3.501645000000000607e+01 2.018184999999999945e+03
6.500000000000000222e-02 1.445604999999999807e-01 -1.041841499999999865e+00 3.536605000000000132e+01 2.018069999999999936e+03
6.600000000000000311e-02 1.445670000000000011e-01 -7.919939999999999758e-01 3.631109999999999616e+01 2.018115000000000009e+03
6.700000000000000400e-02 1.445914999999999839e-01 -2.843434999999999713e-01 3.785340000000000060e+01 2.018320000000000164e+03
6.800000000000000488e-02 1.446339999999999848e-01 4.750950000000000450e-01 3.997199999999999420e+01 2.018690000000000055e+03
6.900000000000000577e-02 1.446945000000000037e-01 1.471810499999999911e+00 4.262494999999999834e+01 2.019220000000000027e+03
7.000000000000000666e-02 1.447714999999999974e-01 2.683758499999999714e+00 4.575199999999999534e+01 2.019900000000000091e+03
7.100000000000000755e-02 1.448630000000000195e-01 4.082796500000000606e+00 4.927890000000000015e+01 2.020715000000000146e+03
7.200000000000000844e-02 1.449674999999999991e-01 5.636369999999999436e+00 5.312229999999999563e+01 2.021650000000000091e+03
7.300000000000000933e-02 1.450825000000000031e-01 7.309305000000000163e+00 5.719490000000000407e+01 2.022679999999999836e+03
7.399999999999999634e-02 1.452060000000000017e-01 9.065794999999999604e+00 6.141065000000000396e+01 2.023785000000000082e+03
7.499999999999999722e-02 1.453344999999999776e-01 1.087091000000000030e+01 6.568940000000000623e+01 2.024954999999999927e+03
7.599999999999999811e-02 1.454664999999999986e-01 1.269256500000000010e+01 6.996084999999999354e+01 2.026150000000000091e+03
7.699999999999999900e-02 1.455994999999999928e-01 1.450234999999999985e+01 7.416774999999999807e+01 2.027360000000000127e+03
7.799999999999999989e-02 1.457320000000000004e-01 1.627684999999999960e+01 7.826760000000000161e+01 2.028569999999999936e+03
7.900000000000000078e-02 1.458625000000000060e-01 1.799779999999999802e+01 8.223314999999999486e+01 2.029769999999999982e+03
8.000000000000000167e-02 1.459904999999999953e-01 1.965245000000000175e+01 8.605180000000000007e+01 2.030934999999999945e+03
8.100000000000000255e-02 1.461144999999999805e-01 2.123284999999999911e+01 8.972364999999999213e+01 2.032079999999999927e+03
8.200000000000000344e-02 1.462355000000000183e-01 2.273550000000000182e+01 9.325925000000000864e+01 2.033194999999999936e+03
8.300000000000000433e-02 1.463524999999999965e-01 2.416025000000000134e+01 9.667510000000000048e+01 2.034279999999999973e+03
8.400000000000000522e-02 1.464664999999999995e-01 2.550945000000000107e+01 9.999254999999999427e+01 2.035339999999999918e+03
8.500000000000000611e-02 1.465779999999999861e-01 2.678679999999999950e+01 1.032319999999999993e+02 2.036369999999999891e+03
8.600000000000000699e-02 1.466870000000000118e-01 2.799654999999999916e+01 1.064120000000000061e+02 2.037384999999999991e+03
8.700000000000000788e-02 1.467950000000000088e-01 2.914274999999999949e+01 1.095474999999999994e+02 2.038384999999999991e+03
8.800000000000000877e-02 1.469004999999999894e-01 3.022854999999999848e+01 1.126469999999999914e+02 2.039369999999999891e+03
8.899999999999999578e-02 1.470049999999999968e-01 3.125609999999999999e+01 1.157129999999999939e+02 2.040339999999999918e+03
8.999999999999999667e-02 1.471085000000000031e-01 3.222599999999999909e+01 1.187420000000000044e+02 2.041305000000000064e+03
9.099999999999999756e-02 1.472104999999999941e-01 3.313755000000000450e+01 1.217249999999999943e+02 2.042259999999999991e+03
9.199999999999999845e-02 1.473110000000000253e-01 3.398859999999999815e+01 1.246500000000000057e+02 2.043194999999999936e+03
9.299999999999999933e-02 1.474094999999999989e-01 3.477585000000000548e+01 1.274994999999999976e+02 2.044115000000000009e+03
9.400000000000000022e-02 1.475055000000000116e-01 3.549479999999999791e+01 1.302524999999999977e+02 2.045009999999999764e+03
9.500000000000000111e-02 1.475985000000000213e-01 3.614039999999999964e+01 1.328894999999999982e+02 2.045884999999999991e+03
9.600000000000000200e-02 1.476879999999999860e-01 3.670674999999999955e+01 1.353870000000000005e+02 2.046714999999999918e+03
9.700000000000000289e-02 1.477725000000000011e-01 3.718795000000000073e+01 1.377245000000000061e+02 2.047514999999999873e+03
9.800000000000000377e-02 1.478519999999999834e-01 3.757784999999999798e+01 1.398789999999999907e+02 2.048260000000000218e+03
9.900000000000000466e-02 1.479264999999999886e-01 3.787089999999999890e+01 1.418329999999999984e+02 2.048960000000000036e+03
1.000000000000000056e-01 1.479945000000000010e-01 3.806199999999999761e+01 1.435690000000000168e+02 2.049599999999999909e+03
1.010000000000000064e-01 1.480549999999999922e-01 3.814735000000000298e+01 1.450724999999999909e+02 2.050175000000000182e+03
1.020000000000000073e-01 1.481089999999999907e-01 3.812434999999999974e+01 1.463340000000000032e+02 2.050684999999999945e+03
1.030000000000000082e-01 1.481544999999999945e-01 3.799215000000000231e+01 1.473494999999999777e+02 2.051125000000000000e+03
1.040000000000000091e-01 1.481929999999999914e-01 3.775189999999999912e+01 1.481175000000000068e+02 2.051489999999999782e+03
1.050000000000000100e-01 1.482240000000000224e-01 3.740675000000000239e+01 1.486449999999999818e+02 2.051784999999999854e+03
1.059999999999999970e-01 1.482465000000000033e-01 3.696195000000000164e+01 1.489410000000000025e+02 2.052010000000000218e+03
1.069999999999999979e-01 1.482620000000000049e-01 3.642475000000000307e+01 1.490224999999999795e+02 2.052164999999999964e+03
1.079999999999999988e-01 1.482709999999999861e-01 3.580420000000000158e+01 1.489089999999999918e+02 2.052255000000000109e+03
1.089999999999999997e-01 1.482729999999999881e-01 3.511105000000000587e+01 1.486254999999999882e+02 2.052284999999999854e+03
1.100000000000000006e-01 1.482700000000000129e-01 3.435694999999999766e+01 1.481965000000000146e+02 2.052260000000000218e+03
1.110000000000000014e-01 1.482614999999999905e-01 3.355434999999999945e+01 1.476514999999999986e+02 2.052190000000000055e+03
1.120000000000000023e-01 1.482489999999999919e-01 3.271585000000000321e+01 1.470169999999999959e+02 2.052085000000000036e+03
1.130000000000000032e-01 1.482334999999999903e-01 3.185390000000000299e+01 1.463205000000000098e+02 2.051940000000000055e+03
1.140000000000000041e-01 1.482155000000000000e-01 3.098029999999999973e+01 1.455860000000000127e+02 2.051775000000000091e+03
1.150000000000000050e-01 1.481954999999999800e-01 3.010565000000000069e+01 1.448355000000000246e+02 2.051590000000000146e+03
1.160000000000000059e-01 1.481744999999999868e-01 2.923944999999999794e+01 1.440869999999999891e+02 2.051400000000000091e+03
1.170000000000000068e-01 1.481530000000000069e-01 2.838940000000000197e+01 1.433550000000000182e+02 2.051199999999999818e+03
1.180000000000000077e-01 1.481314999999999993e-01 2.756165000000000020e+01 1.426479999999999961e+02 2.051000000000000000e+03
1.190000000000000085e-01 1.481100000000000194e-01 2.676035000000000252e+01 1.419735000000000014e+02 2.050795000000000073e+03
1.200000000000000094e-01 1.480894999999999850e-01 2.598795000000000144e+01 1.413305000000000007e+02 2.050605000000000018e+03
1.209999999999999964e-01 1.480690000000000062e-01 2.524500000000000099e+01 1.407189999999999941e+02 2.050409999999999854e+03
1.219999999999999973e-01 1.480495000000000005e-01 2.453045000000000186e+01 1.401299999999999955e+02 2.050224999999999909e+03
1.229999999999999982e-01 1.480299999999999949e-01 2.384189999999999898e+01 1.395570000000000164e+02 2.050050000000000182e+03
1.239999999999999991e-01 1.480115000000000181e-01 2.317560000000000286e+01 1.389884999999999877e+02 2.049865000000000236e+03
1.250000000000000000e-01 1.479924999999999990e-01 2.252689999999999770e+01 1.384110000000000014e+02 2.049690000000000055e+03
1.260000000000000009e-01 1.479729999999999934e-01 2.189055000000000106e+01 1.378114999999999952e+02 2.049505000000000109e+03
1.270000000000000018e-01 1.479530000000000012e-01 2.126084999999999781e+01 1.371765000000000043e+02 2.049315000000000055e+03
1.280000000000000027e-01 1.479314999999999936e-01 2.063210000000000122e+01 1.364925000000000068e+02 2.049119999999999891e+03
1.290000000000000036e-01 1.479090000000000127e-01 1.999905000000000044e+01 1.357479999999999905e+02 2.048900000000000091e+03
1.300000000000000044e-01 1.478845000000000021e-01 1.935685000000000144e+01 1.349339999999999975e+02 2.048675000000000182e+03
1.310000000000000053e-01 1.478575000000000028e-01 1.870155000000000101e+01 1.340424999999999898e+02 2.048425000000000182e+03
1.320000000000000062e-01 1.478285000000000016e-01 1.803034999999999854e+01 1.330690000000000168e+02 2.048154999999999745e+03
1.330000000000000071e-01 1.477970000000000117e-01 1.734145000000000181e+01 1.320135000000000218e+02 2.047859999999999900e+03
1.340000000000000080e-01 1.477630000000000055e-01 1.663470000000000226e+01 1.308770000000000095e+02 2.047545000000000073e+03
1.350000000000000089e-01 1.477264999999999828e-01 1.591120000000000090e+01 1.296664999999999850e+02 2.047204999999999927e+03
1.360000000000000098e-01 1.476874999999999993e-01 1.517350000000000065e+01 1.283894999999999982e+02 2.046849999999999909e+03
1.370000000000000107e-01 1.476474999999999871e-01 1.442555000000000121e+01 1.270600000000000023e+02 2.046470000000000027e+03
1.380000000000000115e-01 1.476044999999999996e-01 1.367229999999999990e+01 1.256915000000000049e+02 2.046075000000000045e+03
1.390000000000000124e-01 1.475609999999999977e-01 1.291990000000000016e+01 1.243015000000000043e+02 2.045670000000000073e+03
1.400000000000000133e-01 1.475164999999999949e-01 1.217511999999999972e+01 1.229074999999999989e+02 2.045255000000000109e+03
1.410000000000000142e-01 1.474714999999999776e-01 1.144514500000000012e+01 1.215289999999999964e+02 2.044839999999999918e+03
1.420000000000000151e-01 1.474274999999999891e-01 1.073742000000000019e+01 1.201844999999999999e+02 2.044430000000000064e+03
1.430000000000000160e-01 1.473839999999999872e-01 1.005908499999999961e+01 1.188915000000000077e+02 2.044025000000000091e+03
1.440000000000000169e-01 1.473415000000000141e-01 9.416780000000001039e+00 1.176659999999999968e+02 2.043634999999999991e+03
1.450000000000000178e-01 1.473014999999999741e-01 8.816504999999999370e+00 1.165219999999999914e+02 2.043255000000000109e+03
1.459999999999999909e-01 1.472634999999999916e-01 8.263234999999999886e+00 1.154710000000000036e+02 2.042905000000000200e+03
1.469999999999999918e-01 1.472284999999999844e-01 7.760759999999999437e+00 1.145204999999999984e+02 2.042575000000000045e+03
1.479999999999999927e-01 1.471959999999999935e-01 7.311740000000000350e+00 1.136760000000000019e+02 2.042275000000000091e+03
1.489999999999999936e-01 1.471669999999999923e-01 6.917474999999999596e+00 1.129380000000000024e+02 2.041994999999999891e+03
1.499999999999999944e-01 1.471415000000000084e-01 6.577999999999999403e+00 1.123070000000000022e+02 2.041754999999999882e+03
1.509999999999999953e-01 1.471184999999999854e-01 6.292139999999999844e+00 1.117779999999999916e+02 2.041539999999999964e+03
1.519999999999999962e-01 1.470990000000000075e-01 6.057620000000000005e+00 1.113449999999999989e+02 2.041355000000000018e+03
1.529999999999999971e-01 1.470825000000000049e-01 5.871169999999999334e+00 1.109985000000000070e+02 2.041199999999999818e+03
1.539999999999999980e-01 1.470690000000000053e-01 5.728749999999999787e+00 1.107295000000000016e+02 2.041070000000000164e+03
1.549999999999999989e-01 1.470575000000000077e-01 5.625659999999999883e+00 1.105270000000000010e+02 2.040960000000000036e+03
1.559999999999999998e-01 1.470489999999999853e-01 5.556779999999999831e+00 1.103789999999999907e+02 2.040869999999999891e+03
1.570000000000000007e-01 1.470414999999999917e-01 5.516734999999999722e+00 1.102745000000000033e+02 2.040800000000000182e+03
1.580000000000000016e-01 1.470354999999999857e-01 5.500065000000000204e+00 1.102019999999999982e+02 2.040744999999999891e+03
1.590000000000000024e-01 1.470314999999999817e-01 5.501425000000000232e+00 1.101500000000000057e+02 2.040695000000000164e+03
