# t [s], A [cm^2], U [cm/s], P [cPa], c [cm/s]
1.000000000000000021e-03 1.279129999999999989e-01 3.626705000000000068e-01 1.044509999999999934e+02 2.059664999999999964e+03
2.000000000000000042e-03 1.278815000000000091e-01 1.992531999999999748e+00 1.009065999999999974e+02 2.059204999999999927e+03
3.000000000000000062e-03 1.277900000000000147e-01 3.985087000000000046e+00 9.614849999999999852e+01 2.057909999999999854e+03
4.000000000000000083e-03 1.276614999999999833e-01 6.210139499999999479e+00 9.101420000000000243e+01 2.056125000000000000e+03
5.000000000000000104e-03 1.275199999999999945e-01 8.591509999999999536e+00 8.639590000000001169e+01 2.054184999999999945e+03
6.000000000000000125e-03 1.273815000000000086e-01 1.095824999999999960e+01 8.258674999999999500e+01 2.052295000000000073e+03
7.000000000000000146e-03 1.272494999999999876e-01 1.310502499999999948e+01 7.934969999999999857e+01 2.050529999999999745e+03
8.000000000000000167e-03 1.271269999999999900e-01 1.494503500000000074e+01 7.643994999999999607e+01 2.048925000000000182e+03
9.000000000000001055e-03 1.270169999999999910e-01 1.650764999999999816e+01 7.388280000000000314e+01 2.047505000000000109e+03
1.000000000000000194e-02 1.269224999999999937e-01 1.782744999999999891e+01 7.175190000000000623e+01 2.046284999999999854e+03
1.099999999999999936e-02 1.268430000000000113e-01 1.891915000000000191e+01 7.002920000000000300e+01 2.045280000000000200e+03
1.200000000000000025e-02 1.267774999999999874e-01 1.979299999999999926e+01 6.865040000000000475e+01 2.044454999999999927e+03
1.300000000000000114e-02 1.267240000000000033e-01 2.045185000000000031e+01 6.751800000000000068e+01 2.043795000000000073e+03
1.400000000000000203e-02 1.266784999999999994e-01 2.090364999999999895e+01 6.651949999999999363e+01 2.043244999999999891e+03
1.499999999999999944e-02 1.266404999999999892e-01 2.120145000000000124e+01 6.563734999999999786e+01 2.042789999999999964e+03
1.600000000000000033e-02 1.266114999999999879e-01 2.146065000000000111e+01 6.504840000000000089e+01 2.042445000000000164e+03
1.700000000000000122e-02 1.265965000000000007e-01 2.182085000000000008e+01 6.507250000000000512e+01 2.042275000000000091e+03
1.800000000000000211e-02 1.266009999999999913e-01 2.237675000000000125e+01 6.598340000000000316e+01 2.042349999999999909e+03
1.900000000000000300e-02 1.266285000000000049e-01 2.312814999999999799e+01 6.781850000000000023e+01 2.042695000000000164e+03
2.000000000000000042e-02 1.266749999999999821e-01 2.397794999999999987e+01 7.031119999999999948e+01 2.043299999999999955e+03
2.100000000000000130e-02 1.267334999999999989e-01 2.477344999999999686e+01 7.297265000000000157e+01 2.044050000000000182e+03
2.200000000000000219e-02 1.267920000000000158e-01 2.536574999999999847e+01 7.526564999999999372e+01 2.044819999999999936e+03
2.299999999999999961e-02 1.268424999999999969e-01 2.565950000000000131e+01 7.678364999999999441e+01 2.045485000000000127e+03
2.400000000000000050e-02 1.268759999999999888e-01 2.563710000000000022e+01 7.736350000000000193e+01 2.045954999999999927e+03
2.500000000000000139e-02 1.268920000000000048e-01 2.535195000000000221e+01 7.710054999999999836e+01 2.046184999999999945e+03
2.600000000000000228e-02 1.268924999999999914e-01 2.489905000000000257e+01 7.627455000000000496e+01 2.046219999999999800e+03
2.700000000000000316e-02 1.268819999999999948e-01 2.437675000000000125e+01 7.522639999999999816e+01 2.046110000000000127e+03
2.800000000000000058e-02 1.268674999999999942e-01 2.385515000000000185e+01 7.423734999999999218e+01 2.045929999999999836e+03
2.900000000000000147e-02 1.268525000000000069e-01 2.336019999999999897e+01 7.345130000000000337e+01 2.045734999999999900e+03
3.000000000000000236e-02 1.268380000000000063e-01 2.287624999999999886e+01 7.285904999999999632e+01 2.045554999999999836e+03
3.099999999999999978e-02 1.268249999999999933e-01 2.236309999999999931e+01 7.233780000000000143e+01 2.045390000000000100e+03
3.200000000000000067e-02 1.268104999999999927e-01 2.177879999999999683e+01 7.172319999999999141e+01 2.045204999999999927e+03
3.300000000000000155e-02 1.267920000000000158e-01 2.110115000000000052e+01 7.088710000000000377e+01 2.044970000000000027e+03
3.400000000000000244e-02 1.267679999999999918e-01 2.034159999999999968e+01 6.979579999999999984e+01 2.044670000000000073e+03
3.500000000000000333e-02 1.267389999999999906e-01 1.954729999999999990e+01 6.853380000000001360e+01 2.044309999999999945e+03
3.600000000000000422e-02 1.267085000000000017e-01 1.879155000000000086e+01 6.728614999999999213e+01 2.043920000000000073e+03
3.700000000000000511e-02 1.266799999999999871e-01 1.815554999999999808e+01 6.628910000000000480e+01 2.043550000000000182e+03
3.799999999999999906e-02 1.266589999999999938e-01 1.770790000000000219e+01 6.576304999999999268e+01 2.043269999999999982e+03
3.899999999999999994e-02 1.266484999999999972e-01 1.748704999999999998e+01 6.585130000000000905e+01 2.043130000000000109e+03
4.000000000000000083e-02 1.266529999999999878e-01 1.749244999999999806e+01 6.658050000000000068e+01 2.043164999999999964e+03
4.100000000000000172e-02 1.266700000000000048e-01 1.768440000000000012e+01 6.785235000000000127e+01 2.043369999999999891e+03
4.200000000000000261e-02 1.266990000000000061e-01 1.799340000000000117e+01 6.946530000000001337e+01 2.043724999999999909e+03
4.300000000000000350e-02 1.267344999999999999e-01 1.833364999999999867e+01 7.115670000000000073e+01 2.044175000000000182e+03
4.400000000000000439e-02 1.267715000000000092e-01 1.861824999999999974e+01 7.265364999999999895e+01 2.044644999999999982e+03
4.499999999999999833e-02 1.268035000000000134e-01 1.877224999999999966e+01 7.371889999999999077e+01 2.045059999999999945e+03
4.599999999999999922e-02 1.268265000000000087e-01 1.874155000000000015e+01 7.418415000000000248e+01 2.045355000000000018e+03
4.700000000000000011e-02 1.268360000000000043e-01 1.849670000000000059e+01 7.396549999999999159e+01 2.045480000000000018e+03
4.800000000000000100e-02 1.268294999999999839e-01 1.803180000000000049e+01 7.306159999999999854e+01 2.045414999999999964e+03
4.900000000000000189e-02 1.268084999999999907e-01 1.736054999999999993e+01 7.153870000000000573e+01 2.045150000000000091e+03
5.000000000000000278e-02 1.267719999999999958e-01 1.651004999999999967e+01 6.950765000000001237e+01 2.044694999999999936e+03
5.100000000000000366e-02 1.267234999999999889e-01 1.551515000000000022e+01 6.710070000000000334e+01 2.044079999999999927e+03
5.200000000000000455e-02 1.266649999999999998e-01 1.441365000000000052e+01 6.445189999999999486e+01 2.043335000000000036e+03
5.300000000000000544e-02 1.265994999999999759e-01 1.324335499999999932e+01 6.168444999999999823e+01 2.042500000000000000e+03
5.399999999999999939e-02 1.265300000000000036e-01 1.204140500000000102e+01 5.890639999999999787e+01 2.041609999999999900e+03
5.500000000000000028e-02 1.264585000000000015e-01 1.084411000000000058e+01 5.621124999999999972e+01 2.040694999999999936e+03
5.600000000000000117e-02 1.263885000000000147e-01 9.688069999999999737e+00 5.368319999999999936e+01 2.039789999999999964e+03
5.700000000000000205e-02 1.263215000000000032e-01 8.610804999999999154e+00 5.140240000000000009e+01 2.038925000000000182e+03
5.800000000000000294e-02 1.262594999999999967e-01 7.651009999999999422e+00 4.944915000000000305e+01 2.038134999999999991e+03
5.900000000000000383e-02 1.262064999999999992e-01 6.848000000000000753e+00 4.790564999999999429e+01 2.037440000000000055e+03
6.000000000000000472e-02 1.261629999999999974e-01 6.240124999999999922e+00 4.685370000000000346e+01 2.036875000000000000e+03
6.099999999999999867e-02 1.261319999999999941e-01 5.862785000000000579e+00 4.637049999999999983e+01 2.036470000000000027e+03
6.199999999999999956e-02 1.261160000000000059e-01 5.746014999999999873e+00 4.652259999999999707e+01 2.036240000000000009e+03
6.300000000000000044e-02 1.261160000000000059e-01 5.912255000000000038e+00 4.735949999999999704e+01 2.036224999999999909e+03
6.400000000000000133e-02 1.261339999999999961e-01 6.374589999999999534e+00 4.890805000000000291e+01 2.036430000000000064e+03
6.500000000000000222e-02 1.261700000000000044e-01 7.135699999999999932e+00 5.116939999999999600e+01 2.036869999999999891e+03
6.600000000000000311e-02 1.262244999999999895e-01 8.187654999999999461e+00 5.411780000000000257e+01 2.037550000000000182e+03
6.700000000000000400e-02 1.262975000000000070e-01 9.512489999999999668e+00 5.770219999999999771e+01 2.038460000000000036e+03
6.800000000000000488e-02 1.263869999999999993e-01 1.108357499999999973e+01 6.185004999999999598e+01 2.039595000000000027e+03
6.900000000000000577e-02 1.264915000000000067e-01 1.286747500000000066e+01 6.647265000000000157e+01 2.040920000000000073e+03
7.000000000000000666e-02 1.266095000000000137e-01 1.482584999999999908e+01 7.147135000000000105e+01 2.042424999999999955e+03
7.100000000000000755e-02 1.267385000000000039e-01 1.691805000000000092e+01 7.674405000000000143e+01 2.044075000000000045e+03
7.200000000000000844e-02 1.268759999999999888e-01 1.910310000000000130e+01 8.219159999999999400e+01 2.045839999999999918e+03
7.300000000000000933e-02 1.270189999999999930e-01 2.134210000000000207e+01 8.772299999999999898e+01 2.047690000000000055e+03
7.399999999999999634e-02 1.271660000000000013e-01 2.359955000000000069e+01 9.326044999999999163e+01 2.049590000000000146e+03
7.499999999999999722e-02 1.273144999999999971e-01 2.584525000000000006e+01 9.874230000000000018e+01 2.051519999999999982e+03
7.599999999999999811e-02 1.274629999999999930e-01 2.805489999999999640e+01 1.041252000000000066e+02 2.053460000000000036e+03
7.699999999999999900e-02 1.276100000000000012e-01 3.021079999999999899e+01 1.093834999999999980e+02 2.055389999999999873e+03
7.799999999999999989e-02 1.277554999999999941e-01 3.230154999999999887e+01 1.145090000000000003e+02 2.057295000000000073e+03
7.900000000000000078e-02 1.278984999999999983e-01 3.432150000000000034e+01 1.195084999999999980e+02 2.059180000000000291e+03
8.000000000000000167e-02 1.280390000000000139e-01 3.626985000000000525e+01 1.243984999999999843e+02 2.061034999999999854e+03
8.100000000000000255e-02 1.281780000000000141e-01 3.814945000000000164e+01 1.292035000000000196e+02 2.062864999999999782e+03
8.200000000000000344e-02 1.283140000000000114e-01 3.996520000000000294e+01 1.339495000000000005e+02 2.064680000000000291e+03
8.300000000000000433e-02 1.284494999999999942e-01 4.172299999999999898e+01 1.386605000000000132e+02 2.066474999999999909e+03
8.400000000000000522e-02 1.285844999999999905e-01 4.342820000000000391e+01 1.433574999999999875e+02 2.068269999999999982e+03
8.500000000000000611e-02 1.287179999999999991e-01 4.508489999999999753e+01 1.480515000000000043e+02 2.070055000000000291e+03
8.600000000000000699e-02 1.288519999999999943e-01 4.669509999999999650e+01 1.527460000000000093e+02 2.071845000000000255e+03
8.700000000000000788e-02 1.289859999999999896e-01 4.825820000000000221e+01 1.574339999999999975e+02 2.073630000000000109e+03
8.800000000000000877e-02 1.291189999999999838e-01 4.977100000000000080e+01 1.620994999999999777e+02 2.075414999999999964e+03
8.899999999999999578e-02 1.292514999999999914e-01 5.122769999999999868e+01 1.667189999999999941e+02 2.077190000000000055e+03
8.999999999999999667e-02 1.293819999999999970e-01 5.262040000000000362e+01 1.712624999999999886e+02 2.078944999999999709e+03
9.099999999999999756e-02 1.295109999999999872e-01 5.393930000000000291e+01 1.756940000000000168e+02 2.080680000000000291e+03
9.199999999999999845e-02 1.296370000000000022e-01 5.517329999999999757e+01 1.799764999999999873e+02 2.082375000000000000e+03
9.299999999999999933e-02 1.297590000000000132e-01 5.631074999999999875e+01 1.840715000000000146e+02 2.084019999999999982e+03
9.400000000000000022e-02 1.298755000000000048e-01 5.734000000000000341e+01 1.879420000000000073e+02 2.085600000000000364e+03
9.500000000000000111e-02 1.299865000000000048e-01 5.824970000000000425e+01 1.915534999999999854e+02 2.087109999999999673e+03
9.600000000000000200e-02 1.300904999999999978e-01 5.902989999999999782e+01 1.948754999999999882e+02 2.088519999999999982e+03
9.700000000000000289e-02 1.301875000000000115e-01 5.967184999999999917e+01 1.978820000000000050e+02 2.089840000000000146e+03
9.800000000000000377e-02 1.302754999999999885e-01 6.016904999999999859e+01 2.005545000000000186e+02 2.091045000000000073e+03
9.900000000000000466e-02 1.303549999999999986e-01 6.051735000000000042e+01 2.028789999999999907e+02 2.092135000000000218e+03
1.000000000000000056e-01 1.304250000000000131e-01 6.071524999999999750e+01 2.048514999999999873e+02 2.093100000000000364e+03
1.010000000000000064e-01 1.304859999999999909e-01 6.076415000000000077e+01 2.064714999999999918e+02 2.093944999999999709e+03
1.020000000000000073e-01 1.305375000000000008e-01 6.066849999999999454e+01 2.077500000000000000e+02 2.094659999999999854e+03
1.030000000000000082e-01 1.305800000000000016e-01 6.043550000000000466e+01 2.087030000000000030e+02 2.095250000000000000e+03
1.040000000000000091e-01 1.306134999999999935e-01 6.007524999999999693e+01 2.093539999999999850e+02 2.095725000000000364e+03
1.050000000000000100e-01 1.306390000000000051e-01 5.960000000000000142e+01 2.097309999999999945e+02 2.096079999999999927e+03
1.059999999999999970e-01 1.306569999999999954e-01 5.902409999999999712e+01 2.098679999999999950e+02 2.096335000000000036e+03
1.069999999999999979e-01 1.306680000000000064e-01 5.836315000000000452e+01 2.098000000000000114e+02 2.096500000000000000e+03
1.079999999999999988e-01 1.306729999999999836e-01 5.763349999999999795e+01 2.095649999999999977e+02 2.096574999999999818e+03
1.089999999999999997e-01 1.306730000000000114e-01 5.685150000000000148e+01 2.091984999999999957e+02 2.096590000000000146e+03
1.100000000000000006e-01 1.306684999999999930e-01 5.603300000000000125e+01 2.087369999999999948e+02 2.096539999999999964e+03
1.110000000000000014e-01 1.306614999999999860e-01 5.519284999999999997e+01 2.082115000000000009e+02 2.096449999999999818e+03
1.120000000000000023e-01 1.306515000000000037e-01 5.434400000000000119e+01 2.076479999999999961e+02 2.096324999999999818e+03
1.130000000000000032e-01 1.306404999999999927e-01 5.349784999999999968e+01 2.070710000000000264e+02 2.096170000000000073e+03
1.140000000000000041e-01 1.306279999999999941e-01 5.266304999999999836e+01 2.064945000000000164e+02 2.096000000000000000e+03
1.150000000000000050e-01 1.306145000000000223e-01 5.184624999999999773e+01 2.059314999999999998e+02 2.095824999999999818e+03
1.160000000000000059e-01 1.306014999999999815e-01 5.105129999999999768e+01 2.053855000000000075e+02 2.095639999999999873e+03
1.170000000000000068e-01 1.305880000000000096e-01 5.027994999999999948e+01 2.048555000000000064e+02 2.095460000000000036e+03
1.180000000000000077e-01 1.305744999999999822e-01 4.953130000000000166e+01 2.043365000000000009e+02 2.095275000000000091e+03
1.190000000000000085e-01 1.305610000000000104e-01 4.880284999999999940e+01 2.038190000000000168e+02 2.095085000000000036e+03
1.200000000000000094e-01 1.305469999999999964e-01 4.809015000000000128e+01 2.032889999999999873e+02 2.094900000000000091e+03
1.209999999999999964e-01 1.305324999999999958e-01 4.738739999999999952e+01 2.027305000000000064e+02 2.094694999999999709e+03
1.219999999999999973e-01 1.305165000000000075e-01 4.668810000000000571e+01 2.021279999999999859e+02 2.094485000000000127e+03
1.229999999999999982e-01 1.305000000000000049e-01 4.598505000000000109e+01 2.014639999999999986e+02 2.094260000000000218e+03
1.239999999999999991e-01 1.304819999999999869e-01 4.527120000000000033e+01 2.007205000000000155e+02 2.094000000000000000e+03
1.250000000000000000e-01 1.304609999999999936e-01 4.453990000000000293e+01 1.998834999999999980e+02 2.093724999999999909e+03
1.260000000000000009e-01 1.304385000000000128e-01 4.378515000000000157e+01 1.989414999999999907e+02 2.093409999999999854e+03
1.270000000000000018e-01 1.304124999999999868e-01 4.300225000000000364e+01 1.978840000000000146e+02 2.093065000000000055e+03
1.280000000000000027e-01 1.303839999999999999e-01 4.218795000000000073e+01 1.967074999999999818e+02 2.092675000000000182e+03
1.290000000000000036e-01 1.303524999999999823e-01 4.134074999999999989e+01 1.954105000000000132e+02 2.092250000000000000e+03
1.300000000000000044e-01 1.303170000000000162e-01 4.046094999999999686e+01 1.939979999999999905e+02 2.091779999999999745e+03
1.310000000000000053e-01 1.302794999999999925e-01 3.955079999999999529e+01 1.924784999999999968e+02 2.091265000000000327e+03
1.320000000000000062e-01 1.302389999999999937e-01 3.861435000000000173e+01 1.908659999999999854e+02 2.090720000000000255e+03
1.330000000000000071e-01 1.301955000000000195e-01 3.765764999999999674e+01 1.891775000000000091e+02 2.090135000000000218e+03
1.340000000000000080e-01 1.301505000000000023e-01 3.668810000000000571e+01 1.874339999999999975e+02 2.089524999999999636e+03
1.350000000000000089e-01 1.301034999999999831e-01 3.571435000000000315e+01 1.856605000000000132e+02 2.088899999999999636e+03
1.360000000000000098e-01 1.300554999999999906e-01 3.474615000000000009e+01 1.838815000000000168e+02 2.088255000000000109e+03
1.370000000000000107e-01 1.300074999999999981e-01 3.379350000000000165e+01 1.821240000000000236e+02 2.087605000000000018e+03
1.380000000000000115e-01 1.299595000000000056e-01 3.286659999999999826e+01 1.804124999999999943e+02 2.086965000000000146e+03
1.390000000000000124e-01 1.299130000000000007e-01 3.197520000000000095e+01 1.787725000000000080e+02 2.086329999999999927e+03
1.400000000000000133e-01 1.298679999999999835e-01 3.112819999999999965e+01 1.772255000000000109e+02 2.085720000000000255e+03
1.410000000000000142e-01 1.298249999999999960e-01 3.033335000000000292e+01 1.757889999999999873e+02 2.085139999999999873e+03
1.420000000000000151e-01 1.297844999999999971e-01 2.959705000000000297e+01 1.744774999999999920e+02 2.084595000000000255e+03
1.430000000000000160e-01 1.297470000000000012e-01 2.892379999999999995e+01 1.733009999999999877e+02 2.084090000000000146e+03
1.440000000000000169e-01 1.297129999999999950e-01 2.831649999999999778e+01 1.722644999999999982e+02 2.083625000000000000e+03
1.450000000000000178e-01 1.296829999999999927e-01 2.777615000000000123e+01 1.713689999999999998e+02 2.083210000000000036e+03
1.459999999999999909e-01 1.296559999999999935e-01 2.730194999999999794e+01 1.706105000000000018e+02 2.082845000000000255e+03
1.469999999999999918e-01 1.296324999999999839e-01 2.689139999999999731e+01 1.699819999999999993e+02 2.082525000000000091e+03
1.479999999999999927e-01 1.296125000000000194e-01 2.654084999999999894e+01 1.694720000000000084e+02 2.082244999999999891e+03
1.489999999999999936e-01 1.295959999999999890e-01 2.624520000000000053e+01 1.690690000000000168e+02 2.082015000000000327e+03
1.499999999999999944e-01 1.295820000000000027e-01 2.599864999999999782e+01 1.687580000000000098e+02 2.081819999999999709e+03
1.509999999999999953e-01 1.295709999999999917e-01 2.579485000000000028e+01 1.685235000000000127e+02 2.081664999999999964e+03
1.519999999999999962e-01 1.295614999999999961e-01 2.562709999999999866e+01 1.683499999999999943e+02 2.081529999999999745e+03
1.529999999999999971e-01 1.295540000000000025e-01 2.548859999999999815e+01 1.682235000000000014e+02 2.081429999999999836e+03
1.539999999999999980e-01 1.295479999999999965e-01 2.537304999999999922e+01 1.681305000000000121e+02 2.081345000000000255e+03
1.549999999999999989e-01 1.295435000000000059e-01 2.527439999999999998e+01 1.680579999999999927e+02 2.081275000000000091e+03
1.559999999999999998e-01 1.295395000000000019e-01 2.518735000000000213e+01 1.679959999999999809e+02 2.081224999999999909e+03
1.570000000000000007e-01 1.295359999999999845e-01 2.510715000000000074e+01 1.679370000000000118e+02 2.081170000000000073e+03
1.580000000000000016e-01 1.295330000000000092e-01 2.503000000000000114e+01 1.678735000000000070e+02 2.081130000000000109e+03
1.590000000000000024e-01 1.295300000000000062e-01 2.495304999999999751e+01 1.678025000000000091e+02 2.081090000000000146e+03
