# t [s], A [cm^2], U [cm/s], P [cPa], c [cm/s]
1.000000000000000021e-03 1.940844999999999931e-01 5.487767999999999535e-01 1.041734999999999900e+02 2.227809999999999945e+03
2.000000000000000042e-03 1.939985000000000182e-01 2.488920500000000313e+00 9.945619999999999550e+01 2.227090000000000146e+03
3.000000000000000062e-03 1.938099999999999823e-01 4.823361000000000232e+00 9.316755000000000564e+01 2.225565000000000055e+03
4.000000000000000083e-03 1.935800000000000021e-01 7.444855000000000445e+00 8.709640000000000271e+01 2.223730000000000018e+03
5.000000000000000104e-03 1.933564999999999867e-01 1.015152999999999928e+01 8.230904999999999916e+01 2.221949999999999818e+03
6.000000000000000125e-03 1.931510000000000171e-01 1.256273999999999980e+01 7.849379999999999313e+01 2.220355000000000018e+03
7.000000000000000146e-03 1.929659999999999986e-01 1.449357499999999987e+01 7.508754999999999313e+01 2.218954999999999927e+03
8.000000000000000167e-03 1.928079999999999794e-01 1.602834999999999965e+01 7.220260000000000389e+01 2.217769999999999982e+03
9.000000000000001055e-03 1.926805000000000045e-01 1.722850000000000037e+01 6.997520000000000095e+01 2.216829999999999927e+03
1.000000000000000194e-02 1.925815000000000166e-01 1.812434999999999974e+01 6.832890000000000441e+01 2.216110000000000127e+03
1.099999999999999936e-02 1.925085000000000268e-01 1.875625000000000142e+01 6.718080000000000496e+01 2.215585000000000036e+03
1.200000000000000025e-02 1.924549999999999872e-01 1.913105000000000189e+01 6.635115000000000407e+01 2.215215000000000146e+03
1.300000000000000114e-02 1.924135000000000151e-01 1.928940000000000055e+01 6.566935000000000855e+01 2.214934999999999945e+03
1.400000000000000203e-02 1.923874999999999891e-01 1.942060000000000031e+01 6.538185000000000002e+01 2.214774999999999636e+03
1.499999999999999944e-02 1.923930000000000085e-01 1.981009999999999849e+01 6.619259999999999877e+01 2.214829999999999927e+03
1.600000000000000033e-02 1.924480000000000079e-01 2.063530000000000086e+01 6.870550000000000068e+01 2.215234999999999673e+03
1.700000000000000122e-02 1.925545000000000173e-01 2.180979999999999919e+01 7.280055000000000121e+01 2.216025000000000091e+03
1.800000000000000211e-02 1.926940000000000042e-01 2.300434999999999874e+01 7.749885000000000446e+01 2.217070000000000164e+03
1.900000000000000300e-02 1.928300000000000014e-01 2.381159999999999854e+01 8.138679999999999382e+01 2.218105000000000018e+03
2.000000000000000042e-02 1.929275000000000018e-01 2.394190000000000040e+01 8.328334999999999866e+01 2.218864999999999782e+03
2.100000000000000130e-02 1.929624999999999813e-01 2.334680000000000177e+01 8.276685000000000514e+01 2.219175000000000182e+03
2.200000000000000219e-02 1.929350000000000231e-01 2.221669999999999945e+01 8.030424999999999613e+01 2.219005000000000109e+03
2.299999999999999961e-02 1.928650000000000087e-01 2.086965000000000003e+01 7.695465000000000089e+01 2.218505000000000109e+03
2.400000000000000050e-02 1.927805000000000213e-01 1.959880000000000067e+01 7.384055000000000746e+01 2.217880000000000109e+03
2.500000000000000139e-02 1.927059999999999884e-01 1.855965000000000131e+01 7.167705000000000837e+01 2.217315000000000055e+03
2.600000000000000228e-02 1.926539999999999919e-01 1.774080000000000013e+01 7.056680000000000064e+01 2.216909999999999854e+03
2.700000000000000316e-02 1.926209999999999867e-01 1.701164999999999949e+01 7.009610000000000696e+01 2.216655000000000200e+03
2.800000000000000058e-02 1.925955000000000028e-01 1.621164999999999878e+01 6.962899999999999068e+01 2.216460000000000036e+03
2.900000000000000147e-02 1.925620000000000109e-01 1.523829999999999885e+01 6.864439999999999031e+01 2.216215000000000146e+03
3.000000000000000236e-02 1.925135000000000041e-01 1.410314999999999941e+01 6.698385000000000389e+01 2.215860000000000127e+03
3.099999999999999978e-02 1.924514999999999976e-01 1.293625000000000114e+01 6.492855000000000132e+01 2.215399999999999636e+03
3.200000000000000067e-02 1.923874999999999891e-01 1.194069999999999965e+01 6.308704999999999785e+01 2.214920000000000073e+03
3.300000000000000155e-02 1.923420000000000130e-01 1.131677499999999981e+01 6.214910000000000423e+01 2.214559999999999945e+03
3.400000000000000244e-02 1.923294999999999866e-01 1.118684999999999974e+01 6.260979999999999279e+01 2.214454999999999927e+03
3.500000000000000333e-02 1.923614999999999908e-01 1.154945000000000022e+01 6.457425000000000637e+01 2.214659999999999854e+03
3.600000000000000422e-02 1.924339999999999939e-01 1.227659999999999840e+01 6.770785000000000764e+01 2.215180000000000291e+03
3.700000000000000511e-02 1.925339999999999829e-01 1.314815000000000111e+01 7.132974999999999000e+01 2.215914999999999964e+03
3.799999999999999906e-02 1.926394999999999913e-01 1.390705000000000169e+01 7.459970000000001278e+01 2.216694999999999709e+03
3.899999999999999994e-02 1.927270000000000094e-01 1.431639999999999979e+01 7.672585000000000832e+01 2.217360000000000127e+03
4.000000000000000083e-02 1.927740000000000009e-01 1.420289999999999964e+01 7.713294999999999391e+01 2.217729999999999563e+03
4.100000000000000172e-02 1.927665000000000073e-01 1.347954999999999970e+01 7.555359999999998877e+01 2.217694999999999709e+03
4.200000000000000261e-02 1.926984999999999948e-01 1.214606999999999992e+01 7.203544999999999732e+01 2.217210000000000036e+03
4.300000000000000350e-02 1.925725000000000076e-01 1.027317999999999998e+01 6.687899999999999068e+01 2.216279999999999745e+03
4.400000000000000439e-02 1.923969999999999847e-01 7.978030000000000399e+00 6.053759999999999764e+01 2.214980000000000018e+03
4.499999999999999833e-02 1.921845000000000081e-01 5.399112000000000577e+00 5.351409999999999911e+01 2.213404999999999745e+03
4.599999999999999922e-02 1.919520000000000115e-01 2.677360000000000184e+00 4.628099999999999881e+01 2.211664999999999964e+03
4.700000000000000011e-02 1.917105000000000059e-01 -5.480000000000018190e-02 3.923754999999999882e+01 2.209860000000000127e+03
4.800000000000000100e-02 1.914744999999999919e-01 -2.676690000000000236e+00 3.270109999999999673e+01 2.208090000000000146e+03
4.900000000000000189e-02 1.912535000000000207e-01 -5.078272000000000119e+00 2.692204999999999870e+01 2.206420000000000073e+03
5.000000000000000278e-02 1.910565000000000180e-01 -7.157894999999999897e+00 2.210674999999999812e+01 2.204934999999999945e+03
5.100000000000000366e-02 1.908914999999999917e-01 -8.821699999999999875e+00 1.843564999999999898e+01 2.203675000000000182e+03
5.200000000000000455e-02 1.907654999999999768e-01 -9.986295000000000144e+00 1.606899999999999906e+01 2.202710000000000036e+03
5.300000000000000544e-02 1.906840000000000201e-01 -1.058391999999999911e+01 1.513870000000000005e+01 2.202069999999999709e+03
5.399999999999999939e-02 1.906519999999999881e-01 -1.056964999999999932e+01 1.573079999999999856e+01 2.201795000000000073e+03
5.500000000000000028e-02 1.906720000000000081e-01 -9.927740000000000009e+00 1.786514999999999986e+01 2.201909999999999854e+03
5.600000000000000117e-02 1.907440000000000246e-01 -8.675629999999999953e+00 2.147990000000000066e+01 2.202404999999999745e+03
5.700000000000000205e-02 1.908659999999999801e-01 -6.864139999999999908e+00 2.642774999999999963e+01 2.203279999999999745e+03
5.800000000000000294e-02 1.910319999999999796e-01 -4.573166149999999597e+00 3.248489999999999611e+01 2.204489999999999782e+03
5.900000000000000383e-02 1.912349999999999883e-01 -1.904800000000000049e+00 3.937154999999999916e+01 2.205985000000000127e+03
6.000000000000000472e-02 1.914664999999999839e-01 1.025914999999999910e+00 4.677915000000000134e+01 2.207699999999999818e+03
6.099999999999999867e-02 1.917159999999999975e-01 4.099839999999999485e+00 5.439825000000000443e+01 2.209559999999999945e+03
6.199999999999999956e-02 1.919730000000000047e-01 7.201480000000000103e+00 6.194185000000000230e+01 2.211484999999999673e+03
6.300000000000000044e-02 1.922294999999999976e-01 1.022508000000000017e+01 6.916205000000000780e+01 2.213420000000000073e+03
6.400000000000000133e-02 1.924764999999999948e-01 1.307883999999999958e+01 7.585974999999999113e+01 2.215289999999999964e+03
6.500000000000000222e-02 1.927079999999999904e-01 1.568820000000000192e+01 8.188925000000000409e+01 2.217050000000000182e+03
6.600000000000000311e-02 1.929184999999999928e-01 1.799840000000000018e+01 8.716040000000000987e+01 2.218659999999999854e+03
6.700000000000000400e-02 1.931054999999999855e-01 1.997619999999999862e+01 9.163845000000000596e+01 2.220095000000000255e+03
6.800000000000000488e-02 1.932674999999999810e-01 2.161090000000000089e+01 9.534510000000000218e+01 2.221349999999999909e+03
6.900000000000000577e-02 1.934049999999999936e-01 2.291460000000000008e+01 9.835275000000000034e+01 2.222420000000000073e+03
7.000000000000000666e-02 1.935199999999999976e-01 2.392000000000000171e+01 1.007814999999999941e+02 2.223319999999999709e+03
7.100000000000000755e-02 1.936169999999999836e-01 2.467750000000000199e+01 1.027888499999999965e+02 2.224085000000000036e+03
7.200000000000000844e-02 1.937010000000000121e-01 2.524994999999999834e+01 1.045540000000000020e+02 2.224744999999999891e+03
7.300000000000000933e-02 1.937774999999999914e-01 2.570694999999999908e+01 1.062650000000000006e+02 2.225349999999999909e+03
7.399999999999999634e-02 1.938524999999999832e-01 2.611809999999999832e+01 1.080985000000000014e+02 2.225940000000000055e+03
7.499999999999999722e-02 1.939319999999999933e-01 2.654695000000000249e+01 1.102065000000000055e+02 2.226550000000000182e+03
7.599999999999999811e-02 1.940200000000000258e-01 2.704570000000000007e+01 1.126995000000000005e+02 2.227235000000000127e+03
7.699999999999999900e-02 1.941195000000000004e-01 2.765054999999999907e+01 1.156424999999999983e+02 2.228000000000000000e+03
7.799999999999999989e-02 1.942329999999999890e-01 2.837985000000000113e+01 1.190449999999999875e+02 2.228864999999999782e+03
7.900000000000000078e-02 1.943604999999999916e-01 2.923324999999999818e+01 1.228669999999999902e+02 2.229840000000000146e+03
8.000000000000000167e-02 1.945009999999999795e-01 3.019269999999999854e+01 1.270219999999999914e+02 2.230909999999999854e+03
8.100000000000000255e-02 1.946509999999999907e-01 3.122504999999999953e+01 1.313854999999999791e+02 2.232054999999999836e+03
8.200000000000000344e-02 1.948064999999999936e-01 3.228555000000000064e+01 1.358114999999999952e+02 2.233239999999999782e+03
8.300000000000000433e-02 1.949629999999999974e-01 3.332220000000000226e+01 1.401394999999999982e+02 2.234440000000000055e+03
8.400000000000000522e-02 1.951149999999999829e-01 3.427989999999999782e+01 1.442105000000000246e+02 2.235610000000000127e+03
8.500000000000000611e-02 1.952575000000000005e-01 3.510495000000000232e+01 1.478785000000000025e+02 2.236710000000000036e+03
8.600000000000000699e-02 1.953865000000000185e-01 3.574904999999999688e+01 1.510190000000000055e+02 2.237710000000000036e+03
8.700000000000000788e-02 1.954974999999999907e-01 3.617215000000000202e+01 1.535360000000000014e+02 2.238574999999999818e+03
8.800000000000000877e-02 1.955870000000000108e-01 3.634505000000000052e+01 1.553675000000000068e+02 2.239274999999999636e+03
8.899999999999999578e-02 1.956530000000000213e-01 3.625084999999999980e+01 1.564855000000000018e+02 2.239805000000000291e+03
8.999999999999999667e-02 1.956959999999999811e-01 3.588569999999999993e+01 1.568980000000000246e+02 2.240150000000000091e+03
9.099999999999999756e-02 1.957150000000000001e-01 3.525844999999999629e+01 1.566449999999999818e+02 2.240309999999999945e+03
9.199999999999999845e-02 1.957115000000000105e-01 3.438965000000000316e+01 1.557934999999999945e+02 2.240300000000000182e+03
9.299999999999999933e-02 1.956875000000000142e-01 3.330989999999999895e+01 1.544335000000000093e+02 2.240135000000000218e+03
9.400000000000000022e-02 1.956465000000000010e-01 3.205760000000000076e+01 1.526689999999999827e+02 2.239835000000000036e+03
9.500000000000000111e-02 1.955910000000000148e-01 3.067669999999999675e+01 1.506150000000000091e+02 2.239425000000000182e+03
9.600000000000000200e-02 1.955259999999999776e-01 2.921420000000000172e+01 1.483880000000000052e+02 2.238934999999999945e+03
9.700000000000000289e-02 1.954540000000000166e-01 2.771734999999999971e+01 1.461020000000000039e+02 2.238390000000000327e+03
9.800000000000000377e-02 1.953799999999999981e-01 2.623179999999999978e+01 1.438609999999999900e+02 2.237824999999999818e+03
9.900000000000000466e-02 1.953064999999999940e-01 2.479895000000000138e+01 1.417584999999999980e+02 2.237260000000000218e+03
1.000000000000000056e-01 1.952369999999999939e-01 2.345445000000000135e+01 1.398695000000000164e+02 2.236725000000000364e+03
1.010000000000000064e-01 1.951740000000000141e-01 2.222650000000000148e+01 1.382504999999999882e+02 2.236234999999999673e+03
1.020000000000000073e-01 1.951189999999999869e-01 2.113490000000000180e+01 1.369365000000000236e+02 2.235804999999999836e+03
1.030000000000000082e-01 1.950735000000000108e-01 2.019004999999999939e+01 1.359390000000000214e+02 2.235454999999999927e+03
1.040000000000000091e-01 1.950379999999999892e-01 1.939329999999999998e+01 1.352495000000000118e+02 2.235170000000000073e+03
1.050000000000000100e-01 1.950129999999999919e-01 1.873680000000000234e+01 1.348354999999999961e+02 2.234965000000000146e+03
1.059999999999999970e-01 1.949954999999999883e-01 1.820465000000000089e+01 1.346475000000000080e+02 2.234819999999999709e+03
1.069999999999999979e-01 1.949855000000000060e-01 1.777405000000000257e+01 1.346209999999999809e+02 2.234734999999999673e+03
1.079999999999999988e-01 1.949805000000000010e-01 1.741694999999999993e+01 1.346810000000000116e+02 2.234684999999999945e+03
1.089999999999999997e-01 1.949779999999999847e-01 1.710210000000000008e+01 1.347459999999999809e+02 2.234654999999999745e+03
1.100000000000000006e-01 1.949750000000000094e-01 1.679714999999999847e+01 1.347359999999999900e+02 2.234630000000000109e+03
1.110000000000000014e-01 1.949700000000000044e-01 1.647044999999999959e+01 1.345740000000000123e+02 2.234590000000000146e+03
1.120000000000000023e-01 1.949595000000000078e-01 1.609355000000000047e+01 1.341949999999999932e+02 2.234500000000000000e+03
1.130000000000000032e-01 1.949420000000000042e-01 1.564280000000000115e+01 1.335480000000000018e+02 2.234364999999999782e+03
1.140000000000000041e-01 1.949150000000000049e-01 1.510084999999999944e+01 1.325985000000000014e+02 2.234164999999999964e+03
1.150000000000000050e-01 1.948789999999999967e-01 1.445789999999999864e+01 1.313349999999999795e+02 2.233889999999999873e+03
1.160000000000000059e-01 1.948320000000000052e-01 1.371204999999999963e+01 1.297644999999999982e+02 2.233539999999999964e+03
1.170000000000000068e-01 1.947754999999999903e-01 1.286969999999999992e+01 1.279159999999999968e+02 2.233105000000000018e+03
1.180000000000000077e-01 1.947094999999999798e-01 1.194473999999999947e+01 1.258370000000000033e+02 2.232610000000000127e+03
1.190000000000000085e-01 1.946370000000000045e-01 1.095769999999999911e+01 1.235904999999999916e+02 2.232054999999999836e+03
1.200000000000000094e-01 1.945580000000000087e-01 9.934260000000000090e+00 1.212500000000000000e+02 2.231454999999999927e+03
1.209999999999999964e-01 1.944764999999999966e-01 8.903750000000000497e+00 1.188954999999999984e+02 2.230840000000000146e+03
1.219999999999999973e-01 1.943949999999999845e-01 7.896990000000000620e+00 1.166094999999999970e+02 2.230210000000000036e+03
1.229999999999999982e-01 1.943159999999999887e-01 6.944594999999999629e+00 1.144705000000000013e+02 2.229605000000000018e+03
1.239999999999999991e-01 1.942419999999999980e-01 6.075120000000000076e+00 1.125474999999999994e+02 2.229039999999999964e+03
1.250000000000000000e-01 1.941749999999999865e-01 5.313424999999999621e+00 1.109000000000000057e+02 2.228519999999999982e+03
1.260000000000000009e-01 1.941170000000000118e-01 4.679370000000000474e+00 1.095729999999999933e+02 2.228069999999999709e+03
1.270000000000000018e-01 1.940700000000000203e-01 4.186865000000000059e+00 1.085929999999999893e+02 2.227704999999999927e+03
1.280000000000000027e-01 1.940344999999999986e-01 3.843304999999999971e+00 1.079710000000000036e+02 2.227420000000000073e+03
1.290000000000000036e-01 1.940109999999999890e-01 3.649390000000000356e+00 1.077009999999999934e+02 2.227234999999999673e+03
1.300000000000000044e-01 1.939990000000000048e-01 3.599334999999999951e+00 1.077605000000000075e+02 2.227135000000000218e+03
1.310000000000000053e-01 1.939984999999999904e-01 3.681449999999999889e+00 1.081144999999999925e+02 2.227119999999999891e+03
1.320000000000000062e-01 1.940080000000000138e-01 3.878969999999999807e+00 1.087150000000000034e+02 2.227180000000000291e+03
1.330000000000000071e-01 1.940255000000000174e-01 4.171109999999999651e+00 1.095074999999999932e+02 2.227304999999999836e+03
1.340000000000000080e-01 1.940500000000000003e-01 4.534299999999999997e+00 1.104319999999999879e+02 2.227480000000000018e+03
1.350000000000000089e-01 1.940784999999999871e-01 4.943424999999999514e+00 1.114260000000000019e+02 2.227694999999999709e+03
1.360000000000000098e-01 1.941094999999999904e-01 5.373055000000000803e+00 1.124294999999999902e+02 2.227925000000000182e+03
1.370000000000000107e-01 1.941414999999999946e-01 5.798704999999999998e+00 1.133859999999999957e+02 2.228170000000000073e+03
1.380000000000000115e-01 1.941724999999999979e-01 6.197860000000000369e+00 1.142450000000000045e+02 2.228400000000000091e+03
1.390000000000000124e-01 1.941999999999999837e-01 6.550900000000000389e+00 1.149660000000000082e+02 2.228614999999999782e+03
1.400000000000000133e-01 1.942234999999999934e-01 6.841884999999999550e+00 1.155165000000000077e+02 2.228795000000000073e+03
1.410000000000000142e-01 1.942409999999999970e-01 7.059060000000000556e+00 1.158764999999999930e+02 2.228934999999999945e+03
1.420000000000000151e-01 1.942534999999999956e-01 7.195199999999999818e+00 1.160360000000000014e+02 2.229029999999999745e+03
1.430000000000000160e-01 1.942585000000000006e-01 7.247690000000000410e+00 1.159950000000000045e+02 2.229074999999999818e+03
1.440000000000000169e-01 1.942574999999999996e-01 7.218389999999999418e+00 1.157669999999999959e+02 2.229074999999999818e+03
1.450000000000000178e-01 1.942499999999999782e-01 7.113245000000000040e+00 1.153709999999999951e+02 2.229025000000000091e+03
1.459999999999999909e-01 1.942375000000000074e-01 6.941724999999999923e+00 1.148354999999999961e+02 2.228930000000000291e+03
1.469999999999999918e-01 1.942200000000000037e-01 6.716054999999999886e+00 1.141945000000000050e+02 2.228800000000000182e+03
1.479999999999999927e-01 1.941990000000000105e-01 6.450364999999999682e+00 1.134834999999999923e+02 2.228645000000000437e+03
1.489999999999999936e-01 1.941755000000000009e-01 6.159729999999999706e+00 1.127400000000000091e+02 2.228470000000000255e+03
1.499999999999999944e-01 1.941514999999999769e-01 5.859244999999999592e+00 1.119994999999999976e+02 2.228284999999999854e+03
1.509999999999999953e-01 1.941269999999999940e-01 5.563155000000000072e+00 1.112955000000000041e+02 2.228100000000000364e+03
1.519999999999999962e-01 1.941034999999999844e-01 5.284105000000000274e+00 1.106539999999999964e+02 2.227925000000000182e+03
1.529999999999999971e-01 1.940819999999999768e-01 5.032515000000000072e+00 1.100955000000000013e+02 2.227760000000000218e+03
1.539999999999999980e-01 1.940629999999999855e-01 4.816219999999999501e+00 1.096345000000000027e+02 2.227614999999999782e+03
1.549999999999999989e-01 1.940469999999999973e-01 4.640190000000000481e+00 1.092760000000000105e+02 2.227494999999999891e+03
1.559999999999999998e-01 1.940344999999999986e-01 4.506520000000000081e+00 1.090194999999999936e+02 2.227394999999999982e+03
1.570000000000000007e-01 1.940255000000000174e-01 4.414564999999999628e+00 1.088580000000000041e+02 2.227319999999999709e+03
1.580000000000000016e-01 1.940184999999999826e-01 4.361180000000000057e+00 1.087789999999999964e+02 2.227265000000000327e+03
1.590000000000000024e-01 1.940149999999999930e-01 4.341099999999999959e+00 1.087650000000000006e+02 2.227239999999999782e+03
