# t [s], A [cm^2], U [cm/s], P [cPa], c [cm/s]
1.000000000000000021e-03 7.307019999999999627e-01 5.206499999999995854e-03 1.096939999999999884e+02 1.769630000000000109e+03
2.000000000000000042e-03 7.307029999999999914e-01 2.233289999999999581e-02 1.096754999999999995e+02 1.769625000000000000e+03
3.000000000000000062e-03 7.308000000000000052e-01 1.987446500000000227e-01 1.098864999999999981e+02 1.769670000000000073e+03
4.000000000000000083e-03 7.308025000000000215e-01 2.383799999999999808e-01 1.099090000000000060e+02 1.769674999999999955e+03
5.000000000000000104e-03 7.306934999999999958e-01 8.765349999999999531e-02 1.095605000000000047e+02 1.769605000000000018e+03
6.000000000000000125e-03 7.305884999999999740e-01 -7.475500000000001588e-02 1.090610000000000070e+02 1.769505000000000109e+03
7.000000000000000146e-03 7.304174999999999418e-01 -3.704849999999999532e-01 1.082874999999999943e+02 1.769345000000000027e+03
8.000000000000000167e-03 7.301305000000000156e-01 -8.927099999999998925e-01 1.070550000000000068e+02 1.769089999999999918e+03
9.000000000000001055e-03 7.297344999999999526e-01 -1.615039999999999809e+00 1.053204999999999956e+02 1.768724999999999909e+03
1.000000000000000194e-02 7.291894999999999349e-01 -2.575849999999999973e+00 1.029610500000000002e+02 1.768230000000000018e+03
1.099999999999999936e-02 7.284939999999999749e-01 -3.742729999999999890e+00 9.993479999999999563e+01 1.767570000000000164e+03
1.200000000000000025e-02 7.277609999999999912e-01 -4.870775000000000077e+00 9.653399999999999181e+01 1.766809999999999945e+03
1.300000000000000114e-02 7.271495000000000042e-01 -5.621842850000000169e+00 9.329470000000000596e+01 1.766050000000000182e+03
1.400000000000000203e-02 7.267489999999999783e-01 -5.782874999999999766e+00 9.067425000000000068e+01 1.765389999999999873e+03
1.499999999999999944e-02 7.265375000000000583e-01 -5.363560000000000549e+00 8.882065000000000055e+01 1.764865000000000009e+03
1.600000000000000033e-02 7.264125000000000165e-01 -4.554344999999999644e+00 8.755164999999999509e+01 1.764454999999999927e+03
1.700000000000000122e-02 7.262509999999999799e-01 -3.615155000000000118e+00 8.648295000000000243e+01 1.764099999999999909e+03
1.800000000000000211e-02 7.259649999999999714e-01 -2.755358500000000266e+00 8.522400000000000375e+01 1.763720000000000027e+03
1.900000000000000300e-02 7.255389999999999340e-01 -2.053150000000000031e+00 8.355134999999999934e+01 1.763265000000000100e+03
2.000000000000000042e-02 7.250204999999999567e-01 -1.453474999999999850e+00 8.147594999999999743e+01 1.762735000000000127e+03
2.100000000000000130e-02 7.244815000000000005e-01 -8.396249999999998437e-01 7.917640000000000100e+01 1.762150000000000091e+03
2.200000000000000219e-02 7.239770000000000927e-01 -1.258050000000001667e-01 7.685885000000000389e+01 1.761554999999999836e+03
2.299999999999999961e-02 7.235114999999999741e-01 6.820599999999998886e-01 7.463020000000000209e+01 1.760965000000000146e+03
2.400000000000000050e-02 7.230449999999999378e-01 1.476210000000000022e+00 7.243699999999999761e+01 1.760380000000000109e+03
2.500000000000000139e-02 7.225059999999999816e-01 2.078945000000000043e+00 7.007744999999999891e+01 1.759764999999999873e+03
2.600000000000000228e-02 7.218184999999999185e-01 2.298944999999999794e+00 6.727094999999999914e+01 1.759065000000000055e+03
2.700000000000000316e-02 7.209295000000000009e-01 1.993809999999999860e+00 6.376009999999999422e+01 1.758224999999999909e+03
2.800000000000000058e-02 7.198324999999999863e-01 1.119415000000000049e+00 5.941165000000000163e+01 1.757210000000000036e+03
2.900000000000000147e-02 7.185699999999999310e-01 -2.520499999999996632e-01 5.428054999999999808e+01 1.756029999999999973e+03
3.000000000000000236e-02 7.172264999999999890e-01 -1.952099999999999724e+00 4.861189999999999856e+01 1.754724999999999909e+03
3.099999999999999978e-02 7.159029999999999561e-01 -3.761899999999999800e+00 4.278605000000000302e+01 1.753360000000000127e+03
3.200000000000000067e-02 7.146974999999999856e-01 -5.463719999999999466e+00 3.723534999999999684e+01 1.752029999999999973e+03
3.300000000000000155e-02 7.136894999999999767e-01 -6.879260000000000375e+00 3.236230000000000473e+01 1.750820000000000164e+03
3.400000000000000244e-02 7.129270000000000884e-01 -7.889165000000000205e+00 2.848010000000000019e+01 1.749809999999999945e+03
3.500000000000000333e-02 7.124330000000000940e-01 -8.434485000000000454e+00 2.578310000000000102e+01 1.749050000000000182e+03
3.600000000000000422e-02 7.122055000000000469e-01 -8.505209999999999937e+00 2.434560000000000102e+01 1.748569999999999936e+03
3.700000000000000511e-02 7.122284999999999311e-01 -8.122725000000000861e+00 2.414290000000000092e+01 1.748369999999999891e+03
3.799999999999999906e-02 7.124785000000000146e-01 -7.322320000000000384e+00 2.508360000000000056e+01 1.748454999999999927e+03
3.899999999999999994e-02 7.129280000000000062e-01 -6.140539500000000039e+00 2.704299999999999926e+01 1.748789999999999964e+03
4.000000000000000083e-02 7.135540000000000216e-01 -4.610710000000000086e+00 2.988730000000000331e+01 1.749345000000000027e+03
4.100000000000000172e-02 7.143325000000000369e-01 -2.765975000000000072e+00 3.348465000000000202e+01 1.750099999999999909e+03
4.200000000000000261e-02 7.152384999999999993e-01 -6.459399999999995146e-01 3.770405000000000229e+01 1.751025000000000091e+03
4.300000000000000350e-02 7.162429999999999630e-01 1.696649999999999991e+00 4.240894999999999726e+01 1.752075000000000045e+03
4.400000000000000439e-02 7.173134999999999373e-01 4.193390000000000839e+00 4.745154999999999745e+01 1.753230000000000018e+03
4.499999999999999833e-02 7.184120000000000505e-01 6.762485000000000746e+00 5.267194999999999538e+01 1.754444999999999936e+03
4.599999999999999922e-02 7.195025000000000448e-01 9.315477500000000077e+00 5.790449999999999875e+01 1.755690000000000055e+03
4.700000000000000011e-02 7.205485000000000362e-01 1.176611999999999902e+01 6.298914999999999509e+01 1.756920000000000073e+03
4.800000000000000100e-02 7.215234999999999843e-01 1.403914999999999935e+01 6.778475000000000250e+01 1.758105000000000018e+03
4.900000000000000189e-02 7.224059999999999926e-01 1.607714999999999961e+01 7.218195000000000050e+01 1.759215000000000146e+03
5.000000000000000278e-02 7.231874999999999831e-01 1.784410000000000096e+01 7.611129999999999995e+01 1.760230000000000018e+03
5.100000000000000366e-02 7.238664999999999683e-01 1.932580000000000098e+01 7.954654999999999632e+01 1.761144999999999982e+03
5.200000000000000455e-02 7.244504999999999972e-01 2.052775000000000105e+01 8.250225000000000364e+01 1.761950000000000045e+03
5.300000000000000544e-02 7.249544999999999462e-01 2.147075000000000244e+01 8.502715000000000600e+01 1.762650000000000091e+03
5.399999999999999939e-02 7.253944999999999421e-01 2.218730000000000047e+01 8.719579999999999131e+01 1.763269999999999982e+03
5.500000000000000028e-02 7.257905000000000051e-01 2.271705000000000041e+01 8.909880000000001132e+01 1.763819999999999936e+03
5.600000000000000117e-02 7.261634999999999618e-01 2.310435000000000016e+01 9.083530000000000371e+01 1.764320000000000164e+03
5.700000000000000205e-02 7.265329999999999844e-01 2.339560000000000173e+01 9.250540000000000873e+01 1.764795000000000073e+03
5.800000000000000294e-02 7.269190000000000929e-01 2.363690000000000069e+01 9.420459999999999923e+01 1.765264999999999873e+03
5.900000000000000383e-02 7.273374999999999702e-01 2.387185000000000201e+01 9.601824999999999477e+01 1.765755000000000109e+03
6.000000000000000472e-02 7.278025000000000189e-01 2.413860000000000028e+01 9.801630000000000109e+01 1.766275000000000091e+03
6.099999999999999867e-02 7.283215000000000661e-01 2.446675000000000111e+01 1.002480500000000063e+02 1.766845000000000027e+03
6.199999999999999956e-02 7.288989999999999636e-01 2.487449999999999761e+01 1.027369999999999948e+02 1.767470000000000027e+03
6.300000000000000044e-02 7.295294999999999419e-01 2.536715000000000231e+01 1.054780000000000086e+02 1.768150000000000091e+03
6.400000000000000133e-02 7.302044999999999231e-01 2.593605000000000160e+01 1.084394999999999953e+02 1.768880000000000109e+03
6.500000000000000222e-02 7.309075000000000433e-01 2.655995000000000061e+01 1.115579999999999927e+02 1.769650000000000091e+03
6.600000000000000311e-02 7.316199999999999370e-01 2.720734999999999815e+01 1.147520000000000095e+02 1.770440000000000055e+03
6.700000000000000400e-02 7.323190000000000532e-01 2.783955000000000268e+01 1.179234999999999900e+02 1.771234999999999900e+03
6.800000000000000488e-02 7.329809999999999937e-01 2.841489999999999938e+01 1.209660000000000082e+02 1.772005000000000109e+03
6.900000000000000577e-02 7.335860000000000714e-01 2.889240000000000208e+01 1.237779999999999916e+02 1.772730000000000018e+03
7.000000000000000666e-02 7.341145000000000032e-01 2.923485000000000156e+01 1.262655000000000030e+02 1.773384999999999991e+03
7.100000000000000755e-02 7.345515000000000239e-01 2.941215000000000046e+01 1.283515000000000157e+02 1.773949999999999818e+03
7.200000000000000844e-02 7.348885000000000556e-01 2.940269999999999939e+01 1.299809999999999945e+02 1.774414999999999964e+03
7.300000000000000933e-02 7.351190000000000779e-01 2.919489999999999696e+01 1.311234999999999786e+02 1.774759999999999991e+03
7.399999999999999634e-02 7.352454999999999963e-01 2.878699999999999903e+01 1.317724999999999795e+02 1.774994999999999891e+03
7.499999999999999722e-02 7.352724999999999955e-01 2.818730000000000047e+01 1.319459999999999980e+02 1.775105000000000018e+03
7.599999999999999811e-02 7.352104999999999890e-01 2.741284999999999883e+01 1.316835000000000093e+02 1.775115000000000009e+03
7.699999999999999900e-02 7.350719999999999477e-01 2.648839999999999861e+01 1.310420000000000016e+02 1.775019999999999982e+03
7.799999999999999989e-02 7.348725000000000396e-01 2.544460000000000122e+01 1.300935000000000059e+02 1.774849999999999909e+03
7.900000000000000078e-02 7.346295000000000464e-01 2.431620000000000203e+01 1.289165000000000134e+02 1.774605000000000018e+03
8.000000000000000167e-02 7.343604999999999716e-01 2.313985000000000269e+01 1.275949999999999989e+02 1.774325000000000045e+03
8.100000000000000255e-02 7.340834999999999999e-01 2.195239999999999725e+01 1.262120000000000033e+02 1.774009999999999991e+03
8.200000000000000344e-02 7.338130000000000486e-01 2.078865000000000052e+01 1.248455000000000013e+02 1.773690000000000055e+03
8.300000000000000433e-02 7.335635000000000350e-01 1.967934999999999945e+01 1.235620000000000118e+02 1.773384999999999991e+03
8.400000000000000522e-02 7.333445000000000658e-01 1.865019999999999811e+01 1.224190000000000111e+02 1.773099999999999909e+03
8.500000000000000611e-02 7.331655000000000255e-01 1.772009999999999863e+01 1.214555000000000007e+02 1.772849999999999909e+03
8.600000000000000699e-02 7.330290000000000417e-01 1.690109999999999957e+01 1.206980000000000075e+02 1.772639999999999873e+03
8.700000000000000788e-02 7.329360000000000319e-01 1.619749999999999801e+01 1.201535000000000082e+02 1.772480000000000018e+03
8.800000000000000877e-02 7.328845000000000498e-01 1.560644999999999882e+01 1.198160000000000025e+02 1.772369999999999891e+03
8.899999999999999578e-02 7.328684999999999228e-01 1.511849999999999916e+01 1.196640000000000015e+02 1.772300000000000182e+03
8.999999999999999667e-02 7.328809999999998936e-01 1.471839999999999904e+01 1.196645000000000039e+02 1.772269999999999982e+03
9.099999999999999756e-02 7.329114999999999380e-01 1.438625000000000043e+01 1.197734999999999985e+02 1.772264999999999873e+03
9.199999999999999845e-02 7.329499999999999904e-01 1.409890000000000043e+01 1.199440000000000026e+02 1.772284999999999854e+03
9.299999999999999933e-02 7.329849999999999977e-01 1.383155000000000001e+01 1.201220000000000141e+02 1.772315000000000055e+03
9.400000000000000022e-02 7.330065000000000053e-01 1.355914999999999893e+01 1.202570000000000050e+02 1.772329999999999927e+03
9.500000000000000111e-02 7.330034999999999190e-01 1.325830000000000020e+01 1.203004999999999995e+02 1.772339999999999918e+03
9.600000000000000200e-02 7.329695000000000515e-01 1.290840000000000032e+01 1.202104999999999961e+02 1.772320000000000164e+03
9.700000000000000289e-02 7.328970000000000207e-01 1.249306499999999964e+01 1.199555000000000007e+02 1.772259999999999991e+03
9.800000000000000377e-02 7.327839999999999909e-01 1.200121499999999841e+01 1.195140000000000100e+02 1.772164999999999964e+03
9.900000000000000466e-02 7.326289999999999747e-01 1.142768500000000031e+01 1.188770000000000095e+02 1.772019999999999982e+03
1.000000000000000056e-01 7.324340000000000295e-01 1.077354500000000037e+01 1.180494999999999948e+02 1.771835000000000036e+03
1.010000000000000064e-01 7.322039999999999660e-01 1.004598499999999994e+01 1.170494999999999948e+02 1.771610000000000127e+03
1.020000000000000073e-01 7.319465000000000554e-01 9.257894999999999541e+00 1.159055000000000035e+02 1.771345000000000027e+03
1.030000000000000082e-01 7.316705000000000014e-01 8.426999999999999602e+00 1.146570000000000107e+02 1.771049999999999955e+03
1.040000000000000091e-01 7.313859999999999806e-01 7.574864999999999959e+00 1.133504999999999967e+02 1.770744999999999891e+03
1.050000000000000100e-01 7.311045000000000460e-01 6.725369999999999848e+00 1.120380000000000109e+02 1.770429999999999836e+03
1.059999999999999970e-01 7.308379999999999876e-01 5.903570000000000206e+00 1.107720000000000056e+02 1.770115000000000009e+03
1.069999999999999979e-01 7.305960000000000232e-01 5.133725000000000094e+00 1.096045000000000016e+02 1.769819999999999936e+03
1.079999999999999988e-01 7.303889999999999549e-01 4.438195000000000334e+00 1.085809999999999889e+02 1.769559999999999945e+03
1.089999999999999997e-01 7.302239999999999842e-01 3.835925000000000029e+00 1.077415000000000020e+02 1.769335000000000036e+03
1.100000000000000006e-01 7.301059999999999217e-01 3.341445000000000221e+00 1.071144999999999925e+02 1.769155000000000200e+03
1.110000000000000014e-01 7.300385000000000346e-01 2.964115000000000055e+00 1.067185000000000059e+02 1.769029999999999973e+03
1.120000000000000023e-01 7.300210000000000310e-01 2.707729999999999748e+00 1.065589999999999975e+02 1.768960000000000036e+03
1.130000000000000032e-01 7.300520000000000342e-01 2.570535000000000014e+00 1.066299999999999955e+02 1.768940000000000055e+03
1.140000000000000041e-01 7.301269999999999705e-01 2.545535000000000103e+00 1.069145000000000039e+02 1.768980000000000018e+03
1.150000000000000050e-01 7.302390000000000825e-01 2.621094999999999953e+00 1.073859999999999957e+02 1.769065000000000055e+03
1.160000000000000059e-01 7.303804999999999881e-01 2.781819999999999737e+00 1.080109999999999957e+02 1.769190000000000055e+03
1.170000000000000068e-01 7.305429999999999424e-01 3.009474999999999678e+00 1.087495000000000118e+02 1.769345000000000027e+03
1.180000000000000077e-01 7.307170000000000609e-01 3.284089999999999954e+00 1.095584999999999951e+02 1.769519999999999982e+03
1.190000000000000085e-01 7.308939999999999326e-01 3.584995000000000154e+00 1.103960000000000008e+02 1.769710000000000036e+03
1.200000000000000094e-01 7.310650000000000759e-01 3.891859999999999875e+00 1.112214999999999918e+02 1.769904999999999973e+03
1.209999999999999964e-01 7.312229999999999563e-01 4.185610000000000497e+00 1.119960000000000093e+02 1.770090000000000146e+03
1.219999999999999973e-01 7.313610000000000388e-01 4.449244999999999450e+00 1.126875000000000000e+02 1.770264999999999873e+03
1.229999999999999982e-01 7.314745000000000275e-01 4.668504999999999683e+00 1.132704999999999984e+02 1.770409999999999854e+03
1.239999999999999991e-01 7.315599999999999881e-01 4.832304999999999851e+00 1.137249999999999943e+02 1.770529999999999973e+03
1.250000000000000000e-01 7.316154999999999742e-01 4.933080000000000354e+00 1.140409999999999968e+02 1.770625000000000000e+03
1.260000000000000009e-01 7.316409999999999858e-01 4.966874999999999929e+00 1.142139999999999986e+02 1.770684999999999945e+03
1.270000000000000018e-01 7.316374999999999407e-01 4.933310000000000528e+00 1.142469999999999999e+02 1.770710000000000036e+03
1.280000000000000027e-01 7.316084999999999949e-01 4.835364999999999469e+00 1.141495000000000033e+02 1.770704999999999927e+03
1.290000000000000036e-01 7.315559999999999841e-01 4.679034999999999833e+00 1.139375000000000000e+02 1.770670000000000073e+03
1.300000000000000044e-01 7.314855000000000107e-01 4.472834999999999894e+00 1.136299999999999955e+02 1.770615000000000009e+03
1.310000000000000053e-01 7.314015000000000377e-01 4.227235000000000298e+00 1.132494999999999976e+02 1.770539999999999964e+03
1.320000000000000062e-01 7.313100000000000156e-01 3.954010000000000247e+00 1.128199999999999932e+02 1.770450000000000045e+03
1.330000000000000071e-01 7.312149999999999483e-01 3.665529999999999955e+00 1.123665000000000020e+02 1.770345000000000027e+03
1.340000000000000080e-01 7.311225000000000085e-01 3.374074999999999935e+00 1.119124999999999943e+02 1.770244999999999891e+03
1.350000000000000089e-01 7.310360000000000191e-01 3.091145000000000032e+00 1.114800000000000040e+02 1.770144999999999982e+03
1.360000000000000098e-01 7.309594999999999843e-01 2.826859999999999928e+00 1.110865000000000009e+02 1.770045000000000073e+03
1.370000000000000107e-01 7.308950000000000724e-01 2.589489999999999625e+00 1.107450000000000045e+02 1.769960000000000036e+03
1.380000000000000115e-01 7.308440000000000492e-01 2.385064999999999991e+00 1.104650000000000034e+02 1.769884999999999991e+03
1.390000000000000124e-01 7.308069999999999844e-01 2.217210000000000125e+00 1.102504999999999882e+02 1.769829999999999927e+03
1.400000000000000133e-01 7.307835000000000303e-01 2.087110000000000021e+00 1.100999999999999943e+02 1.769784999999999854e+03
1.410000000000000142e-01 7.307715000000000183e-01 1.993615000000000137e+00 1.100080000000000098e+02 1.769750000000000000e+03
1.420000000000000151e-01 7.307684999999999320e-01 1.933545000000000069e+00 1.099650000000000034e+02 1.769735000000000127e+03
1.430000000000000160e-01 7.307725000000000470e-01 1.902025000000000077e+00 1.099579999999999984e+02 1.769720000000000027e+03
1.440000000000000169e-01 7.307790000000000674e-01 1.892954999999999943e+00 1.099724999999999966e+02 1.769720000000000027e+03
1.450000000000000178e-01 7.307850000000000179e-01 1.899450000000000083e+00 1.099929999999999950e+02 1.769714999999999918e+03
1.459999999999999909e-01 7.307874999999999233e-01 1.914330000000000087e+00 1.100044999999999931e+02 1.769710000000000036e+03
1.469999999999999918e-01 7.307839999999999892e-01 1.930579999999999963e+00 1.099925000000000068e+02 1.769710000000000036e+03
1.479999999999999927e-01 7.307715000000000183e-01 1.941734999999999989e+00 1.099445000000000050e+02 1.769694999999999936e+03
1.489999999999999936e-01 7.307479999999999531e-01 1.942215000000000025e+00 1.098509999999999991e+02 1.769674999999999955e+03
1.499999999999999944e-01 7.307120000000000282e-01 1.927619999999999889e+00 1.097055000000000007e+02 1.769634999999999991e+03
1.509999999999999953e-01 7.306645000000000501e-01 1.894930000000000003e+00 1.095045000000000073e+02 1.769590000000000146e+03
1.519999999999999962e-01 7.306049999999999489e-01 1.842629000000000072e+00 1.092469999999999999e+02 1.769529999999999973e+03
1.529999999999999971e-01 7.305334999999999468e-01 1.770774500000000140e+00 1.089375000000000000e+02 1.769454999999999927e+03
1.539999999999999980e-01 7.304534999999999778e-01 1.680959499999999940e+00 1.085824999999999960e+02 1.769375000000000000e+03
1.549999999999999989e-01 7.303660000000000707e-01 1.576215499999999992e+00 1.081914999999999907e+02 1.769280000000000200e+03
1.559999999999999998e-01 7.302735000000000198e-01 1.460844500000000101e+00 1.077754999999999939e+02 1.769179999999999836e+03
1.570000000000000007e-01 7.301805000000000101e-01 1.340162999999999993e+00 1.073490000000000038e+02 1.769075000000000045e+03
1.580000000000000016e-01 7.300884999999999181e-01 1.220174899999999951e+00 1.069260000000000019e+02 1.768974999999999909e+03
1.590000000000000024e-01 7.300020000000000397e-01 1.107259150000000192e+00 1.065215000000000032e+02 1.768875000000000000e+03
