# t [s], A [cm^2], U [cm/s], P [cPa], c [cm/s]
1.000000000000000021e-03 1.690214999999999912e-01 3.059859000000000329e-01 9.581175000000000352e+01 2.217295000000000073e+03
2.000000000000000042e-03 1.689749999999999863e-01 1.779387499999999900e+00 9.238134999999999764e+01 2.216795000000000073e+03
3.000000000000000062e-03 1.688560000000000061e-01 3.610207500000000014e+00 8.758419999999999561e+01 2.215569999999999709e+03
4.000000000000000083e-03 1.686985000000000012e-01 5.683473499999999845e+00 8.245080000000000098e+01 2.213965000000000146e+03
5.000000000000000104e-03 1.685329999999999884e-01 7.912139999999999951e+00 7.796944999999999482e+01 2.212304999999999836e+03
6.000000000000000125e-03 1.683775000000000133e-01 1.007592999999999961e+01 7.435670000000000357e+01 2.210755000000000109e+03
7.000000000000000146e-03 1.682325000000000070e-01 1.194099000000000110e+01 7.123569999999999425e+01 2.209345000000000255e+03
8.000000000000000167e-03 1.681010000000000004e-01 1.346541500000000013e+01 6.842810000000000059e+01 2.208094999999999800e+03
9.000000000000001055e-03 1.679889999999999994e-01 1.470785000000000053e+01 6.606759999999999877e+01 2.207045000000000073e+03
1.000000000000000194e-02 1.678975000000000051e-01 1.569890000000000185e+01 6.421129999999999427e+01 2.206189999999999600e+03
1.099999999999999936e-02 1.678250000000000020e-01 1.645674999999999955e+01 6.280939999999999657e+01 2.205524999999999636e+03
1.200000000000000025e-02 1.677695000000000158e-01 1.699044999999999916e+01 6.176194999999999879e+01 2.205025000000000091e+03
1.300000000000000114e-02 1.677250000000000130e-01 1.729589999999999961e+01 6.090039999999999765e+01 2.204635000000000218e+03
1.400000000000000203e-02 1.676885000000000181e-01 1.741404999999999959e+01 6.012480000000000047e+01 2.204324999999999818e+03
1.499999999999999944e-02 1.676620000000000055e-01 1.748445000000000249e+01 5.962345000000000539e+01 2.204105000000000018e+03
1.600000000000000033e-02 1.676549999999999985e-01 1.770335000000000036e+01 5.986015000000000441e+01 2.204055000000000291e+03
1.700000000000000122e-02 1.676785000000000081e-01 1.820994999999999919e+01 6.126930000000000121e+01 2.204275000000000091e+03
1.800000000000000211e-02 1.677355000000000096e-01 1.899589999999999890e+01 6.390954999999999586e+01 2.204805000000000291e+03
1.900000000000000300e-02 1.678195000000000103e-01 1.990214999999999890e+01 6.733939999999999770e+01 2.205595000000000255e+03
2.000000000000000042e-02 1.679145000000000221e-01 2.069355000000000189e+01 7.077655000000000030e+01 2.206494999999999891e+03
2.100000000000000130e-02 1.679999999999999827e-01 2.116174999999999784e+01 7.342079999999999984e+01 2.207329999999999927e+03
2.200000000000000219e-02 1.680610000000000159e-01 2.120360000000000156e+01 7.476120000000000232e+01 2.207934999999999945e+03
2.299999999999999961e-02 1.680895000000000028e-01 2.084590000000000032e+01 7.473224999999999341e+01 2.208239999999999782e+03
2.400000000000000050e-02 1.680880000000000152e-01 2.021499999999999986e+01 7.367404999999999404e+01 2.208260000000000218e+03
2.500000000000000139e-02 1.680670000000000219e-01 1.947140000000000271e+01 7.213939999999999486e+01 2.208074999999999818e+03
2.600000000000000228e-02 1.680369999999999919e-01 1.874385000000000190e+01 7.065125000000000455e+01 2.207805000000000291e+03
2.700000000000000316e-02 1.680085000000000051e-01 1.808794999999999931e+01 6.951539999999999964e+01 2.207530000000000200e+03
2.800000000000000058e-02 1.679849999999999954e-01 1.748160000000000025e+01 6.875225000000000364e+01 2.207305000000000291e+03
2.900000000000000147e-02 1.679645000000000166e-01 1.685180000000000078e+01 6.815099999999999625e+01 2.207109999999999673e+03
3.000000000000000236e-02 1.679424999999999946e-01 1.611814999999999998e+01 6.740489999999999782e+01 2.206899999999999636e+03
3.099999999999999978e-02 1.679120000000000057e-01 1.523535000000000039e+01 6.626839999999999975e+01 2.206619999999999891e+03
3.200000000000000067e-02 1.678709999999999924e-01 1.422080000000000055e+01 6.467955000000000609e+01 2.206239999999999782e+03
3.300000000000000155e-02 1.678205000000000113e-01 1.315840000000000032e+01 6.280655000000000143e+01 2.205769999999999982e+03
3.400000000000000244e-02 1.677680000000000005e-01 1.217705000000000126e+01 6.100615000000000521e+01 2.205279999999999745e+03
3.500000000000000333e-02 1.677230000000000110e-01 1.141232499999999916e+01 5.970955000000000013e+01 2.204845000000000255e+03
3.600000000000000422e-02 1.676964999999999983e-01 1.096564499999999853e+01 5.928144999999999953e+01 2.204574999999999818e+03
3.700000000000000511e-02 1.676944999999999963e-01 1.087480000000000047e+01 5.990279999999999916e+01 2.204539999999999964e+03
3.799999999999999906e-02 1.677200000000000080e-01 1.110440000000000005e+01 6.151449999999999818e+01 2.204755000000000109e+03
3.899999999999999994e-02 1.677684999999999871e-01 1.155594999999999928e+01 6.383234999999999815e+01 2.205190000000000055e+03
4.000000000000000083e-02 1.678319999999999812e-01 1.209270000000000067e+01 6.642074999999999818e+01 2.205775000000000091e+03
4.100000000000000172e-02 1.678985000000000061e-01 1.256930000000000014e+01 6.879435000000000855e+01 2.206394999999999982e+03
4.200000000000000261e-02 1.679559999999999942e-01 1.285880000000000045e+01 7.051935000000000286e+01 2.206944999999999709e+03
4.300000000000000350e-02 1.679944999999999911e-01 1.287124999999999986e+01 7.128810000000000002e+01 2.207319999999999709e+03
4.400000000000000439e-02 1.680070000000000174e-01 1.256179999999999986e+01 7.095564999999999145e+01 2.207460000000000036e+03
4.499999999999999833e-02 1.679904999999999871e-01 1.192810000000000059e+01 6.953649999999998954e+01 2.207315000000000055e+03
4.599999999999999922e-02 1.679450000000000109e-01 1.100089000000000006e+01 6.717059999999999320e+01 2.206904999999999745e+03
4.700000000000000011e-02 1.678744999999999821e-01 9.831220000000000070e+00 6.407255000000000678e+01 2.206250000000000000e+03
4.800000000000000100e-02 1.677845000000000031e-01 8.478559999999999874e+00 6.048105000000000331e+01 2.205409999999999854e+03
4.900000000000000189e-02 1.676805000000000101e-01 7.002035000000000231e+00 5.661995000000000289e+01 2.204429999999999836e+03
5.000000000000000278e-02 1.675669999999999937e-01 5.456174999999999997e+00 5.267685000000000173e+01 2.203360000000000127e+03
5.100000000000000366e-02 1.674510000000000165e-01 3.890936500000000020e+00 4.879975000000000307e+01 2.202260000000000218e+03
5.200000000000000455e-02 1.673350000000000115e-01 2.353429999999999911e+00 4.510569999999999879e+01 2.201164999999999964e+03
5.300000000000000544e-02 1.672235000000000249e-01 8.908099999999998797e-01 4.169565000000000055e+01 2.200105000000000018e+03
5.399999999999999939e-02 1.671205000000000052e-01 -4.478699999999999903e-01 3.866729999999999734e+01 2.199119999999999891e+03
5.500000000000000028e-02 1.670284999999999964e-01 -1.611494000000000204e+00 3.612349999999999994e+01 2.198234999999999673e+03
5.600000000000000117e-02 1.669505000000000017e-01 -2.548637500000000333e+00 3.417244999999999777e+01 2.197489999999999782e+03
5.700000000000000205e-02 1.668914999999999982e-01 -3.210954999999999782e+00 3.292114999999999725e+01 2.196914999999999964e+03
5.800000000000000294e-02 1.668544999999999889e-01 -3.557294999999999874e+00 3.246420000000000528e+01 2.196539999999999964e+03
5.900000000000000383e-02 1.668410000000000171e-01 -3.557799999999999851e+00 3.287140000000000128e+01 2.196390000000000327e+03
6.000000000000000472e-02 1.668534999999999879e-01 -3.196979999999999933e+00 3.417694999999999794e+01 2.196474999999999909e+03
6.099999999999999867e-02 1.668930000000000136e-01 -2.475469499999999989e+00 3.637310000000000088e+01 2.196820000000000164e+03
6.199999999999999956e-02 1.669579999999999953e-01 -1.410019000000000133e+00 3.940865000000000151e+01 2.197414999999999964e+03
6.300000000000000044e-02 1.670490000000000030e-01 -3.214500000000009017e-02 4.319284999999999997e+01 2.198244999999999891e+03
6.400000000000000133e-02 1.671614999999999907e-01 1.614459999999999784e+00 4.760325000000000273e+01 2.199295000000000073e+03
6.500000000000000222e-02 1.672929999999999973e-01 3.477184500000000344e+00 5.249540000000000362e+01 2.200519999999999982e+03
6.600000000000000311e-02 1.674390000000000045e-01 5.498100000000000875e+00 5.771459999999999724e+01 2.201894999999999982e+03
6.700000000000000400e-02 1.675955000000000084e-01 7.617715000000000458e+00 6.310684999999999434e+01 2.203364999999999782e+03
6.800000000000000488e-02 1.677575000000000038e-01 9.778499999999999304e+00 6.852889999999999304e+01 2.204900000000000091e+03
6.900000000000000577e-02 1.679219999999999879e-01 1.192807499999999976e+01 7.385765000000000668e+01 2.206465000000000146e+03
7.000000000000000666e-02 1.680840000000000112e-01 1.402205000000000013e+01 7.899615000000000009e+01 2.208014999999999873e+03
7.100000000000000755e-02 1.682414999999999883e-01 1.602594999999999814e+01 8.387864999999999327e+01 2.209534999999999854e+03
7.200000000000000844e-02 1.683935000000000015e-01 1.791604999999999848e+01 8.847204999999999586e+01 2.210989999999999782e+03
7.300000000000000933e-02 1.685380000000000211e-01 1.967989999999999995e+01 9.277449999999998909e+01 2.212385000000000218e+03
7.399999999999999634e-02 1.686750000000000194e-01 2.131524999999999892e+01 9.681155000000001110e+01 2.213715000000000146e+03
7.499999999999999722e-02 1.688050000000000106e-01 2.282824999999999704e+01 1.006287999999999982e+02 2.214980000000000018e+03
7.599999999999999811e-02 1.689295000000000102e-01 2.423134999999999906e+01 1.042844499999999925e+02 2.216194999999999709e+03
7.699999999999999900e-02 1.690499999999999781e-01 2.554064999999999941e+01 1.078419999999999987e+02 2.217364999999999782e+03
7.799999999999999989e-02 1.691679999999999851e-01 2.677329999999999899e+01 1.113599999999999994e+02 2.218519999999999982e+03
7.900000000000000078e-02 1.692850000000000188e-01 2.794554999999999723e+01 1.148875000000000028e+02 2.219659999999999854e+03
8.000000000000000167e-02 1.694019999999999970e-01 2.907049999999999912e+01 1.184575000000000102e+02 2.220795000000000073e+03
8.100000000000000255e-02 1.695194999999999896e-01 3.015735000000000099e+01 1.220875000000000057e+02 2.221949999999999818e+03
8.200000000000000344e-02 1.696384999999999976e-01 3.121045000000000158e+01 1.257759999999999962e+02 2.223110000000000127e+03
8.300000000000000433e-02 1.697595000000000076e-01 3.222930000000000206e+01 1.295055000000000121e+02 2.224284999999999854e+03
8.400000000000000522e-02 1.698804999999999898e-01 3.320879999999999654e+01 1.332445000000000164e+02 2.225470000000000255e+03
8.500000000000000611e-02 1.700010000000000132e-01 3.413989999999999725e+01 1.369495000000000005e+02 2.226649999999999636e+03
8.600000000000000699e-02 1.701199999999999934e-01 3.501044999999999874e+01 1.405709999999999980e+02 2.227815000000000055e+03
8.700000000000000788e-02 1.702369999999999994e-01 3.580604999999999905e+01 1.440559999999999832e+02 2.228954999999999927e+03
8.800000000000000877e-02 1.703485000000000138e-01 3.651115000000000066e+01 1.473495000000000061e+02 2.230050000000000182e+03
8.899999999999999578e-02 1.704539999999999944e-01 3.711025000000000063e+01 1.504004999999999939e+02 2.231090000000000146e+03
8.999999999999999667e-02 1.705520000000000092e-01 3.758854999999999791e+01 1.531625000000000227e+02 2.232055000000000291e+03
9.099999999999999756e-02 1.706409999999999871e-01 3.793309999999999604e+01 1.555955000000000155e+02 2.232935000000000400e+03
9.199999999999999845e-02 1.707199999999999829e-01 3.813370000000000459e+01 1.576705000000000041e+02 2.233720000000000255e+03
9.299999999999999933e-02 1.707885000000000097e-01 3.818330000000000268e+01 1.593670000000000186e+02 2.234394999999999982e+03
9.400000000000000022e-02 1.708445000000000102e-01 3.807914999999999850e+01 1.606765000000000043e+02 2.234965000000000146e+03
9.500000000000000111e-02 1.708890000000000131e-01 3.782245000000000346e+01 1.616030000000000086e+02 2.235414999999999964e+03
9.600000000000000200e-02 1.709225000000000050e-01 3.741899999999999693e+01 1.621620000000000061e+02 2.235755000000000109e+03
9.700000000000000289e-02 1.709444999999999992e-01 3.687890000000000157e+01 1.623799999999999955e+02 2.235980000000000018e+03
9.800000000000000377e-02 1.709559999999999969e-01 3.621600000000000108e+01 1.622934999999999945e+02 2.236109999999999673e+03
9.900000000000000466e-02 1.709579999999999989e-01 3.544735000000000014e+01 1.619449999999999932e+02 2.236144999999999982e+03
1.000000000000000056e-01 1.709525000000000072e-01 3.459239999999999782e+01 1.613829999999999814e+02 2.236099999999999909e+03
1.010000000000000064e-01 1.709399999999999809e-01 3.367184999999999917e+01 1.606599999999999966e+02 2.235984999999999673e+03
1.020000000000000073e-01 1.709220000000000184e-01 3.270700000000000074e+01 1.598254999999999768e+02 2.235819999999999709e+03
1.030000000000000082e-01 1.709005000000000107e-01 3.171855000000000047e+01 1.589284999999999854e+02 2.235614999999999782e+03
1.040000000000000091e-01 1.708764999999999867e-01 3.072585000000000122e+01 1.580124999999999886e+02 2.235385000000000218e+03
1.050000000000000100e-01 1.708514999999999895e-01 2.974615000000000009e+01 1.571150000000000091e+02 2.235139999999999873e+03
1.059999999999999970e-01 1.708270000000000066e-01 2.879384999999999906e+01 1.562640000000000100e+02 2.234899999999999636e+03
1.069999999999999979e-01 1.708024999999999960e-01 2.788020000000000209e+01 1.554819999999999993e+02 2.234664999999999964e+03
1.079999999999999988e-01 1.707795000000000007e-01 2.701290000000000191e+01 1.547794999999999845e+02 2.234440000000000055e+03
1.089999999999999997e-01 1.707589999999999941e-01 2.619610000000000127e+01 1.541605000000000132e+02 2.234234999999999673e+03
1.100000000000000006e-01 1.707405000000000173e-01 2.543009999999999948e+01 1.536189999999999998e+02 2.234045000000000073e+03
1.110000000000000014e-01 1.707235000000000003e-01 2.471209999999999951e+01 1.531399999999999864e+02 2.233875000000000000e+03
1.120000000000000023e-01 1.707084999999999853e-01 2.403600000000000136e+01 1.527049999999999841e+02 2.233720000000000255e+03
1.130000000000000032e-01 1.706934999999999980e-01 2.339329999999999998e+01 1.522869999999999777e+02 2.233574999999999818e+03
1.140000000000000041e-01 1.706794999999999840e-01 2.277369999999999806e+01 1.518569999999999993e+02 2.233430000000000291e+03
1.150000000000000050e-01 1.706644999999999968e-01 2.216570000000000107e+01 1.513849999999999909e+02 2.233284999999999854e+03
1.160000000000000059e-01 1.706480000000000219e-01 2.155760000000000076e+01 1.508400000000000034e+02 2.233119999999999891e+03
1.170000000000000068e-01 1.706294999999999895e-01 2.093820000000000192e+01 1.501954999999999814e+02 2.232934999999999945e+03
1.180000000000000077e-01 1.706074999999999953e-01 2.029744999999999777e+01 1.494279999999999973e+02 2.232719999999999800e+03
1.190000000000000085e-01 1.705820000000000114e-01 1.962745000000000317e+01 1.485204999999999984e+02 2.232469999999999800e+03
1.200000000000000094e-01 1.705524999999999958e-01 1.892249999999999943e+01 1.474629999999999939e+02 2.232180000000000291e+03
1.209999999999999964e-01 1.705185000000000173e-01 1.818015000000000114e+01 1.462554999999999836e+02 2.231850000000000364e+03
1.219999999999999973e-01 1.704799999999999927e-01 1.740085000000000193e+01 1.449035000000000082e+02 2.231475000000000364e+03
1.229999999999999982e-01 1.704370000000000052e-01 1.658830000000000027e+01 1.434234999999999900e+02 2.231065000000000055e+03
1.239999999999999991e-01 1.703910000000000147e-01 1.574924999999999997e+01 1.418375000000000057e+02 2.230609999999999673e+03
1.250000000000000000e-01 1.703414999999999790e-01 1.489314999999999856e+01 1.401750000000000114e+02 2.230135000000000218e+03
1.260000000000000009e-01 1.702899999999999969e-01 1.403140000000000143e+01 1.384714999999999918e+02 2.229630000000000109e+03
1.270000000000000018e-01 1.702369999999999994e-01 1.317715000000000103e+01 1.367640000000000100e+02 2.229119999999999891e+03
1.280000000000000027e-01 1.701845000000000163e-01 1.234400000000000119e+01 1.350894999999999868e+02 2.228604999999999563e+03
1.290000000000000036e-01 1.701324999999999921e-01 1.154578500000000041e+01 1.334855000000000018e+02 2.228099999999999909e+03
1.300000000000000044e-01 1.700824999999999976e-01 1.079538499999999956e+01 1.319859999999999900e+02 2.227614999999999782e+03
1.310000000000000053e-01 1.700360000000000205e-01 1.010433499999999896e+01 1.306195000000000164e+02 2.227154999999999745e+03
1.320000000000000062e-01 1.699930000000000052e-01 9.482165000000000177e+00 1.294089999999999918e+02 2.226734999999999673e+03
1.330000000000000071e-01 1.699549999999999950e-01 8.935935000000000628e+00 1.283704999999999927e+02 2.226359999999999673e+03
1.340000000000000080e-01 1.699219999999999897e-01 8.470245000000000246e+00 1.275120000000000005e+02 2.226029999999999745e+03
1.350000000000000089e-01 1.698939999999999895e-01 8.086895000000000167e+00 1.268359999999999985e+02 2.225750000000000000e+03
1.360000000000000098e-01 1.698715000000000086e-01 7.785085000000000477e+00 1.263365000000000009e+02 2.225525000000000091e+03
1.370000000000000107e-01 1.698545000000000194e-01 7.561624999999999375e+00 1.260020000000000095e+02 2.225345000000000255e+03
1.380000000000000115e-01 1.698415000000000064e-01 7.411195000000000199e+00 1.258185000000000002e+02 2.225220000000000255e+03
1.390000000000000124e-01 1.698339999999999850e-01 7.326749999999999652e+00 1.257655000000000030e+02 2.225135000000000218e+03
1.400000000000000133e-01 1.698300000000000087e-01 7.299920000000000186e+00 1.258215000000000003e+02 2.225090000000000146e+03
1.410000000000000142e-01 1.698294999999999944e-01 7.321410000000000196e+00 1.259645000000000010e+02 2.225079999999999927e+03
1.420000000000000151e-01 1.698319999999999830e-01 7.381429999999999936e+00 1.261694999999999993e+02 2.225095000000000255e+03
1.430000000000000160e-01 1.698359999999999870e-01 7.470079999999999387e+00 1.264164999999999992e+02 2.225135000000000218e+03
1.440000000000000169e-01 1.698419999999999930e-01 7.577690000000000481e+00 1.266820000000000022e+02 2.225184999999999945e+03
1.450000000000000178e-01 1.698479999999999990e-01 7.695145000000000124e+00 1.269484999999999957e+02 2.225244999999999891e+03
1.459999999999999909e-01 1.698545000000000194e-01 7.814149999999999707e+00 1.271989999999999981e+02 2.225304999999999836e+03
1.469999999999999918e-01 1.698609999999999842e-01 7.927455000000000140e+00 1.274190000000000111e+02 2.225360000000000127e+03
1.479999999999999927e-01 1.698665000000000036e-01 8.029044999999999987e+00 1.275985000000000014e+02 2.225420000000000073e+03
1.489999999999999936e-01 1.698715000000000086e-01 8.114235000000000753e+00 1.277299999999999898e+02 2.225465000000000146e+03
1.499999999999999944e-01 1.698749999999999982e-01 8.179785000000000750e+00 1.278094999999999999e+02 2.225500000000000000e+03
1.509999999999999953e-01 1.698764999999999858e-01 8.223824999999999719e+00 1.278369999999999891e+02 2.225514999999999873e+03
1.519999999999999962e-01 1.698775000000000146e-01 8.245879999999999654e+00 1.278130000000000024e+02 2.225525000000000091e+03
1.529999999999999971e-01 1.698764999999999858e-01 8.246679999999999566e+00 1.277425000000000068e+02 2.225519999999999982e+03
1.539999999999999980e-01 1.698744999999999838e-01 8.227999999999999758e+00 1.276334999999999980e+02 2.225500000000000000e+03
1.549999999999999989e-01 1.698709999999999942e-01 8.192444999999999311e+00 1.274929999999999950e+02 2.225474999999999909e+03
1.559999999999999998e-01 1.698675000000000046e-01 8.143164999999999765e+00 1.273309999999999889e+02 2.225434999999999945e+03
1.570000000000000007e-01 1.698629999999999862e-01 8.083600000000000563e+00 1.271555000000000035e+02 2.225394999999999982e+03
1.580000000000000016e-01 1.698580000000000090e-01 8.017205000000000581e+00 1.269759999999999991e+02 2.225345000000000255e+03
1.590000000000000024e-01 1.698524999999999896e-01 7.947225000000000428e+00 1.267990000000000066e+02 2.225295000000000073e+03
