# t [s], A [cm^2], U [cm/s], P [cPa], c [cm/s]
1.000000000000000021e-03 4.666375000000000384e-01 4.543899999999996553e-03 1.037985000000000042e+02 1.525555000000000064e+03
2.000000000000000042e-03 4.666295000000000304e-01 -1.572464999999999887e-03 1.037764999999999986e+02 1.525550000000000182e+03
3.000000000000000062e-03 4.666624999999999801e-01 6.926309999999999412e-02 1.038464999999999918e+02 1.525569999999999936e+03
4.000000000000000083e-03 4.667025000000000201e-01 1.621978000000000031e-01 1.039604999999999961e+02 1.525599999999999909e+03
5.000000000000000104e-03 4.666989999999999750e-01 1.661805000000000088e-01 1.039585000000000008e+02 1.525599999999999909e+03
6.000000000000000125e-03 4.666584999999999761e-01 8.741000000000001546e-02 1.038089999999999975e+02 1.525574999999999818e+03
7.000000000000000146e-03 4.666190000000000060e-01 5.200999999999955659e-03 1.035930000000000035e+02 1.525525000000000091e+03
8.000000000000000167e-03 4.665715000000000279e-01 -1.015230000000000299e-01 1.033040000000000020e+02 1.525460000000000036e+03
9.000000000000001055e-03 4.664895000000000014e-01 -2.972550000000000470e-01 1.028615000000000066e+02 1.525360000000000127e+03
1.000000000000000194e-02 4.663660000000000028e-01 -5.957550000000000345e-01 1.022205000000000013e+02 1.525210000000000036e+03
1.099999999999999936e-02 4.661965000000000137e-01 -1.002185000000000104e+00 1.013437500000000000e+02 1.525009999999999991e+03
1.200000000000000025e-02 4.659685000000000077e-01 -1.531909999999999883e+00 1.001795000000000044e+02 1.524735000000000127e+03
1.300000000000000114e-02 4.656810000000000116e-01 -2.167679999999999829e+00 9.871074999999999022e+01 1.524384999999999991e+03
1.400000000000000203e-02 4.653605000000000103e-01 -2.829925000000000246e+00 9.700305000000000177e+01 1.523965000000000146e+03
1.499999999999999944e-02 4.650465000000000293e-01 -3.400170000000000137e+00 9.519575000000000387e+01 1.523505000000000109e+03
1.600000000000000033e-02 4.647709999999999897e-01 -3.772280999999999551e+00 9.344409999999999172e+01 1.523039999999999964e+03
1.700000000000000122e-02 4.645500000000000185e-01 -3.890728999999999438e+00 9.185945000000000960e+01 1.522595000000000027e+03
1.800000000000000211e-02 4.643749999999999822e-01 -3.759580499999999770e+00 9.048140000000000782e+01 1.522184999999999945e+03
1.900000000000000300e-02 4.642260000000000275e-01 -3.428586000000000134e+00 8.927969999999999118e+01 1.521805000000000064e+03
2.000000000000000042e-02 4.640760000000000440e-01 -2.968807700000000160e+00 8.817795000000000982e+01 1.521445000000000164e+03
2.100000000000000130e-02 4.639035000000000242e-01 -2.447684999999999889e+00 8.708584999999999354e+01 1.521085000000000036e+03
2.200000000000000219e-02 4.636979999999999991e-01 -1.910100000000000353e+00 8.593059999999999832e+01 1.520720000000000027e+03
2.299999999999999961e-02 4.634599999999999831e-01 -1.370055000000000023e+00 8.467709999999999582e+01 1.520325000000000045e+03
2.400000000000000050e-02 4.632000000000000006e-01 -8.147600000000001508e-01 8.333289999999999509e+01 1.519914999999999964e+03
2.500000000000000139e-02 4.629334999999999978e-01 -2.184949999999998838e-01 8.193645000000000778e+01 1.519485000000000127e+03
2.600000000000000228e-02 4.626715000000000133e-01 4.401349999999997209e-01 8.053570000000000562e+01 1.519059999999999945e+03
2.700000000000000316e-02 4.624205000000000121e-01 1.164344999999999741e+00 7.916620000000000346e+01 1.518634999999999991e+03
2.800000000000000058e-02 4.621775000000000189e-01 1.932655000000000012e+00 7.783565000000000111e+01 1.518210000000000036e+03
2.900000000000000147e-02 4.619300000000000628e-01 2.700515000000000221e+00 7.651890000000000214e+01 1.517799999999999955e+03
3.000000000000000236e-02 4.616629999999999345e-01 3.408339999999999925e+00 7.516229999999998768e+01 1.517375000000000000e+03
3.099999999999999978e-02 4.613599999999999923e-01 3.993584999999999496e+00 7.369684999999999775e+01 1.516925000000000182e+03
3.200000000000000067e-02 4.610079999999999734e-01 4.403830000000000133e+00 7.205564999999999998e+01 1.516444999999999936e+03
3.300000000000000155e-02 4.606025000000000258e-01 4.608240000000000336e+00 7.019214999999999804e+01 1.515914999999999964e+03
3.400000000000000244e-02 4.601465000000000138e-01 4.604169999999999874e+00 6.809475000000000477e+01 1.515329999999999927e+03
3.500000000000000333e-02 4.596534999999999926e-01 4.417954999999999188e+00 6.579359999999999786e+01 1.514700000000000045e+03
3.600000000000000422e-02 4.591449999999999698e-01 4.099420000000000286e+00 6.335890000000000555e+01 1.514034999999999854e+03
3.700000000000000511e-02 4.586430000000000229e-01 3.712104999999999766e+00 6.089029999999999632e+01 1.513360000000000127e+03
3.799999999999999906e-02 4.581730000000000524e-01 3.322575000000000056e+00 5.850320000000000675e+01 1.512695000000000164e+03
3.899999999999999994e-02 4.577550000000000230e-01 2.991425000000000001e+00 5.631309999999999860e+01 1.512075000000000045e+03
4.000000000000000083e-02 4.574064999999999936e-01 2.767144999999999744e+00 5.442329999999999757e+01 1.511514999999999873e+03
4.100000000000000172e-02 4.571374999999999744e-01 2.683845000000000258e+00 5.291620000000000346e+01 1.511054999999999836e+03
4.200000000000000261e-02 4.569550000000000001e-01 2.761800000000000033e+00 5.184975000000000023e+01 1.510694999999999936e+03
4.300000000000000350e-02 4.568615000000000315e-01 3.010293499999999955e+00 5.125745000000000573e+01 1.510464999999999918e+03
4.400000000000000439e-02 4.568550000000000111e-01 3.431359999999999744e+00 5.115229999999999677e+01 1.510349999999999909e+03
4.499999999999999833e-02 4.569349999999999801e-01 4.023554999999999993e+00 5.153180000000000405e+01 1.510380000000000109e+03
4.599999999999999922e-02 4.570985000000000187e-01 4.784885000000000055e+00 5.238344999999999629e+01 1.510529999999999973e+03
4.700000000000000011e-02 4.573424999999999851e-01 5.714235000000000397e+00 5.368970000000000198e+01 1.510815000000000055e+03
4.800000000000000100e-02 4.576644999999999741e-01 6.811399999999999899e+00 5.543064999999999998e+01 1.511224999999999909e+03
4.900000000000000189e-02 4.580625000000000391e-01 8.075794999999999391e+00 5.758495000000000630e+01 1.511750000000000000e+03
5.000000000000000278e-02 4.585314999999999808e-01 9.504490000000000549e+00 6.012930000000000064e+01 1.512384999999999991e+03
5.100000000000000366e-02 4.590674999999999617e-01 1.109031000000000056e+01 6.303640000000000043e+01 1.513130000000000109e+03
5.200000000000000455e-02 4.596645000000000314e-01 1.282047000000000025e+01 6.627374999999999261e+01 1.513974999999999909e+03
5.300000000000000544e-02 4.603140000000000009e-01 1.467597999999999914e+01 6.980205000000000837e+01 1.514904999999999973e+03
5.399999999999999939e-02 4.610070000000000001e-01 1.663241500000000173e+01 7.357550000000000523e+01 1.515904999999999973e+03
5.500000000000000028e-02 4.617324999999999902e-01 1.866085500000000152e+01 7.754264999999999475e+01 1.516980000000000018e+03
5.600000000000000117e-02 4.624800000000000022e-01 2.073004999999999853e+01 8.164884999999999593e+01 1.518099999999999909e+03
5.700000000000000205e-02 4.632390000000000119e-01 2.280829999999999913e+01 8.583779999999998722e+01 1.519259999999999991e+03
5.800000000000000294e-02 4.640005000000000379e-01 2.486539999999999750e+01 9.005545000000000755e+01 1.520434999999999945e+03
5.900000000000000383e-02 4.647550000000000292e-01 2.687444999999999951e+01 9.425374999999999659e+01 1.521625000000000000e+03
6.000000000000000472e-02 4.654960000000000209e-01 2.881264999999999787e+01 9.839000000000000057e+01 1.522804999999999836e+03
6.099999999999999867e-02 4.662190000000000500e-01 3.066229999999999833e+01 1.024303500000000042e+02 1.523970000000000027e+03
6.199999999999999956e-02 4.669205000000000161e-01 3.241060000000000230e+01 1.063506500000000017e+02 1.525110000000000127e+03
6.300000000000000044e-02 4.675989999999999869e-01 3.404935000000000400e+01 1.101358999999999924e+02 1.526230000000000018e+03
6.400000000000000133e-02 4.682534999999999892e-01 3.557475000000000165e+01 1.137800000000000011e+02 1.527309999999999945e+03
6.500000000000000222e-02 4.688860000000000250e-01 3.698644999999999783e+01 1.172824999999999989e+02 1.528364999999999782e+03
6.600000000000000311e-02 4.694969999999999422e-01 3.828679999999999950e+01 1.206504999999999939e+02 1.529380000000000109e+03
6.700000000000000400e-02 4.700894999999999935e-01 3.948035000000000139e+01 1.238965000000000032e+02 1.530365000000000009e+03
6.800000000000000488e-02 4.706654999999999589e-01 4.057285000000000252e+01 1.270324999999999989e+02 1.531319999999999936e+03
6.900000000000000577e-02 4.712284999999999946e-01 4.157095000000000340e+01 1.300740000000000123e+02 1.532244999999999891e+03
7.000000000000000666e-02 4.717795000000000183e-01 4.248134999999999906e+01 1.330364999999999895e+02 1.533154999999999973e+03
7.100000000000000755e-02 4.723215000000000052e-01 4.331029999999999802e+01 1.359320000000000164e+02 1.534039999999999964e+03
7.200000000000000844e-02 4.728555000000000397e-01 4.406289999999999907e+01 1.387715000000000032e+02 1.534909999999999854e+03
7.300000000000000933e-02 4.733819999999999695e-01 4.474314999999999998e+01 1.415609999999999786e+02 1.535759999999999991e+03
7.399999999999999634e-02 4.739005000000000578e-01 4.535325000000000273e+01 1.443015000000000043e+02 1.536599999999999909e+03
7.499999999999999722e-02 4.744099999999999984e-01 4.589374999999999716e+01 1.469904999999999973e+02 1.537424999999999955e+03
7.599999999999999811e-02 4.749085000000000112e-01 4.636350000000000193e+01 1.496204999999999927e+02 1.538230000000000018e+03
7.699999999999999900e-02 4.753939999999999833e-01 4.675990000000000180e+01 1.521804999999999950e+02 1.539019999999999982e+03
7.799999999999999989e-02 4.758629999999999804e-01 4.707930000000000348e+01 1.546550000000000011e+02 1.539785000000000082e+03
7.900000000000000078e-02 4.763129999999999864e-01 4.731750000000000256e+01 1.570280000000000200e+02 1.540514999999999873e+03
8.000000000000000167e-02 4.767394999999999827e-01 4.747005000000000052e+01 1.592805000000000177e+02 1.541224999999999909e+03
8.100000000000000255e-02 4.771389999999999798e-01 4.753300000000000125e+01 1.613950000000000102e+02 1.541889999999999873e+03
8.200000000000000344e-02 4.775099999999999900e-01 4.750280000000000058e+01 1.633549999999999898e+02 1.542509999999999991e+03
8.300000000000000433e-02 4.778495000000000381e-01 4.737720000000000198e+01 1.651454999999999984e+02 1.543085000000000036e+03
8.400000000000000522e-02 4.781549999999999967e-01 4.715514999999999901e+01 1.667554999999999836e+02 1.543610000000000127e+03
8.500000000000000611e-02 4.784260000000000179e-01 4.683689999999999998e+01 1.681759999999999877e+02 1.544079999999999927e+03
8.600000000000000699e-02 4.786610000000000031e-01 4.642425000000000068e+01 1.694025000000000034e+02 1.544500000000000000e+03
8.700000000000000788e-02 4.788604999999999667e-01 4.592054999999999865e+01 1.704345000000000141e+02 1.544855000000000018e+03
8.800000000000000877e-02 4.790250000000000341e-01 4.533055000000000234e+01 1.712735000000000127e+02 1.545159999999999854e+03
8.899999999999999578e-02 4.791564999999999852e-01 4.466035000000000110e+01 1.719270000000000209e+02 1.545409999999999854e+03
8.999999999999999667e-02 4.792560000000000153e-01 4.391745000000000232e+01 1.724039999999999964e+02 1.545605000000000018e+03
9.099999999999999756e-02 4.793260000000000298e-01 4.311050000000000182e+01 1.727169999999999845e+02 1.545755000000000109e+03
9.199999999999999845e-02 4.793699999999999628e-01 4.224899999999999523e+01 1.728820000000000050e+02 1.545849999999999909e+03
9.299999999999999933e-02 4.793899999999999828e-01 4.134329999999999927e+01 1.729145000000000039e+02 1.545909999999999854e+03
9.400000000000000022e-02 4.793899999999999828e-01 4.040415000000000134e+01 1.728349999999999795e+02 1.545929999999999836e+03
9.500000000000000111e-02 4.793729999999999380e-01 3.944249999999999545e+01 1.726614999999999895e+02 1.545920000000000073e+03
9.600000000000000200e-02 4.793434999999999779e-01 3.846920000000000073e+01 1.724134999999999991e+02 1.545880000000000109e+03
9.700000000000000289e-02 4.793039999999999523e-01 3.749465000000000003e+01 1.721109999999999900e+02 1.545819999999999936e+03
9.800000000000000377e-02 4.792579999999999618e-01 3.652830000000000155e+01 1.717724999999999795e+02 1.545740000000000009e+03
9.900000000000000466e-02 4.792080000000000228e-01 3.557854999999999990e+01 1.714134999999999991e+02 1.545654999999999973e+03
1.000000000000000056e-01 4.791569999999999996e-01 3.465229999999999677e+01 1.710484999999999900e+02 1.545559999999999945e+03
1.010000000000000064e-01 4.791064999999999907e-01 3.375480000000000302e+01 1.706899999999999977e+02 1.545465000000000146e+03
1.020000000000000073e-01 4.790570000000000106e-01 3.288945000000000363e+01 1.703449999999999989e+02 1.545369999999999891e+03
1.030000000000000082e-01 4.790109999999999646e-01 3.205789999999999651e+01 1.700194999999999936e+02 1.545275000000000091e+03
1.040000000000000091e-01 4.789670000000000316e-01 3.125974999999999682e+01 1.697155000000000200e+02 1.545180000000000064e+03
1.050000000000000100e-01 4.789249999999999896e-01 3.049309999999999832e+01 1.694314999999999998e+02 1.545099999999999909e+03
1.059999999999999970e-01 4.788845000000000462e-01 2.975430000000000064e+01 1.691639999999999873e+02 1.545009999999999991e+03
1.069999999999999979e-01 4.788439999999999919e-01 2.903869999999999862e+01 1.689064999999999941e+02 1.544929999999999836e+03
1.079999999999999988e-01 4.788020000000000054e-01 2.834055000000000035e+01 1.686500000000000057e+02 1.544849999999999909e+03
1.089999999999999997e-01 4.787560000000000149e-01 2.765354999999999919e+01 1.683865000000000123e+02 1.544764999999999873e+03
1.100000000000000006e-01 4.787055000000000060e-01 2.697124999999999773e+01 1.681045000000000016e+02 1.544680000000000064e+03
1.110000000000000014e-01 4.786479999999999624e-01 2.628705000000000069e+01 1.677934999999999945e+02 1.544585000000000036e+03
1.120000000000000023e-01 4.785814999999999930e-01 2.559489999999999910e+01 1.674454999999999814e+02 1.544485000000000127e+03
1.130000000000000032e-01 4.785055000000000280e-01 2.488940000000000197e+01 1.670504999999999995e+02 1.544369999999999891e+03
1.140000000000000041e-01 4.784189999999999832e-01 2.416590000000000060e+01 1.666020000000000039e+02 1.544244999999999891e+03
1.150000000000000050e-01 4.783200000000000229e-01 2.342094999999999771e+01 1.660945000000000107e+02 1.544099999999999909e+03
1.160000000000000059e-01 4.782100000000000239e-01 2.265225000000000222e+01 1.655250000000000057e+02 1.543940000000000055e+03
1.170000000000000068e-01 4.780874999999999986e-01 2.185880000000000223e+01 1.648934999999999889e+02 1.543759999999999991e+03
1.180000000000000077e-01 4.779545000000000043e-01 2.104090000000000060e+01 1.641999999999999886e+02 1.543570000000000164e+03
1.190000000000000085e-01 4.778115000000000001e-01 2.020025000000000048e+01 1.634495000000000005e+02 1.543365000000000009e+03
1.200000000000000094e-01 4.776590000000000003e-01 1.933984999999999843e+01 1.626475000000000080e+02 1.543139999999999873e+03
1.209999999999999964e-01 4.774990000000000068e-01 1.846375000000000099e+01 1.618025000000000091e+02 1.542900000000000091e+03
1.219999999999999973e-01 4.773344999999999949e-01 1.757695000000000007e+01 1.609234999999999900e+02 1.542654999999999973e+03
1.229999999999999982e-01 4.771659999999999791e-01 1.668554999999999922e+01 1.600215000000000032e+02 1.542394999999999982e+03
1.239999999999999991e-01 4.769965000000000455e-01 1.579604999999999926e+01 1.591084999999999923e+02 1.542139999999999873e+03
1.250000000000000000e-01 4.768284999999999885e-01 1.491532999999999909e+01 1.581965000000000146e+02 1.541880000000000109e+03
1.260000000000000009e-01 4.766645000000000465e-01 1.405056000000000083e+01 1.572990000000000066e+02 1.541619999999999891e+03
1.270000000000000018e-01 4.765064999999999995e-01 1.320869500000000052e+01 1.564270000000000209e+02 1.541365000000000009e+03
1.280000000000000027e-01 4.763554999999999873e-01 1.239635499999999979e+01 1.555925000000000011e+02 1.541115000000000009e+03
1.290000000000000036e-01 4.762144999999999850e-01 1.161971000000000132e+01 1.548050000000000068e+02 1.540884999999999991e+03
1.300000000000000044e-01 4.760839999999999517e-01 1.088399500000000053e+01 1.540740000000000123e+02 1.540659999999999854e+03
1.310000000000000053e-01 4.759660000000000002e-01 1.019370999999999938e+01 1.534050000000000011e+02 1.540454999999999927e+03
1.320000000000000062e-01 4.758615000000000483e-01 9.552189999999999515e+00 1.528040000000000020e+02 1.540264999999999873e+03
1.330000000000000071e-01 4.757689999999999975e-01 8.961660000000000181e+00 1.522740000000000009e+02 1.540099999999999909e+03
1.340000000000000080e-01 4.756900000000000017e-01 8.423140000000000072e+00 1.518145000000000095e+02 1.539945000000000164e+03
1.350000000000000089e-01 4.756235000000000324e-01 7.936530000000000307e+00 1.514254999999999995e+02 1.539815000000000055e+03
1.360000000000000098e-01 4.755690000000000195e-01 7.500564999999999927e+00 1.511025000000000205e+02 1.539700000000000045e+03
1.370000000000000107e-01 4.755249999999999755e-01 7.113060000000000827e+00 1.508404999999999916e+02 1.539605000000000018e+03
1.380000000000000115e-01 4.754909999999999970e-01 6.770864999999999689e+00 1.506340000000000146e+02 1.539525000000000091e+03
1.390000000000000124e-01 4.754645000000000121e-01 6.470139999999999780e+00 1.504739999999999895e+02 1.539464999999999918e+03
1.400000000000000133e-01 4.754439999999999777e-01 6.206504999999999939e+00 1.503520000000000039e+02 1.539410000000000082e+03
1.410000000000000142e-01 4.754285000000000316e-01 5.975210000000000576e+00 1.502599999999999909e+02 1.539365000000000009e+03
1.420000000000000151e-01 4.754160000000000053e-01 5.771354999999999791e+00 1.501879999999999882e+02 1.539335000000000036e+03
1.430000000000000160e-01 4.754045000000000076e-01 5.590025000000000688e+00 1.501274999999999977e+02 1.539299999999999955e+03
1.440000000000000169e-01 4.753930000000000100e-01 5.426465000000000316e+00 1.500704999999999814e+02 1.539275000000000091e+03
1.450000000000000178e-01 4.753804999999999836e-01 5.276189999999999714e+00 1.500090000000000146e+02 1.539250000000000000e+03
1.459999999999999909e-01 4.753654999999999964e-01 5.135149999999999437e+00 1.499364999999999952e+02 1.539215000000000146e+03
1.469999999999999918e-01 4.753469999999999640e-01 4.999744999999999884e+00 1.498489999999999895e+02 1.539190000000000055e+03
1.479999999999999927e-01 4.753249999999999975e-01 4.866925000000000168e+00 1.497409999999999854e+02 1.539150000000000091e+03
1.489999999999999936e-01 4.752984999999999571e-01 4.734214999999999840e+00 1.496095000000000255e+02 1.539110000000000127e+03
1.499999999999999944e-01 4.752669999999999950e-01 4.599730000000000096e+00 1.494540000000000077e+02 1.539065000000000055e+03
1.509999999999999953e-01 4.752314999999999734e-01 4.462159999999999904e+00 1.492724999999999795e+02 1.539014999999999873e+03
1.519999999999999962e-01 4.751914999999999889e-01 4.320780000000000065e+00 1.490664999999999907e+02 1.538950000000000045e+03
1.529999999999999971e-01 4.751469999999999860e-01 4.175374999999999837e+00 1.488369999999999891e+02 1.538889999999999873e+03
1.539999999999999980e-01 4.750989999999999935e-01 4.026225000000000165e+00 1.485865000000000009e+02 1.538815000000000055e+03
1.549999999999999989e-01 4.750480000000000258e-01 3.874055000000000248e+00 1.483174999999999955e+02 1.538740000000000009e+03
1.559999999999999998e-01 4.749950000000000006e-01 3.719940000000000246e+00 1.480335000000000036e+02 1.538660000000000082e+03
1.570000000000000007e-01 4.749400000000000288e-01 3.565255000000000063e+00 1.477384999999999877e+02 1.538574999999999818e+03
1.580000000000000016e-01 4.748840000000000283e-01 3.411569999999999769e+00 1.474359999999999786e+02 1.538494999999999891e+03
1.590000000000000024e-01 4.748279999999999723e-01 3.260594999999999910e+00 1.471299999999999955e+02 1.538405000000000200e+03
