# t [s], A [cm^2], U [cm/s], P [cPa], c [cm/s]
1.000000000000000021e-03 1.745820000000000149e-01 2.074989999999999890e-01 9.465084999999999127e+01 2.133974999999999909e+03
2.000000000000000042e-03 1.745460000000000067e-01 1.532944999999999780e+00 9.173535000000001105e+01 2.133609999999999673e+03
3.000000000000000062e-03 1.744384999999999963e-01 3.218430500000000194e+00 8.761279999999999291e+01 2.132569999999999709e+03
4.000000000000000083e-03 1.742865000000000109e-01 5.134500000000000064e+00 8.294065000000000509e+01 2.131119999999999891e+03
5.000000000000000104e-03 1.741185000000000094e-01 7.221924999999999706e+00 7.856470000000000198e+01 2.129534999999999854e+03
6.000000000000000125e-03 1.739545000000000119e-01 9.340215000000000600e+00 7.487880000000001246e+01 2.128000000000000000e+03
7.000000000000000146e-03 1.737989999999999813e-01 1.128461000000000070e+01 7.174020000000000152e+01 2.126574999999999818e+03
8.000000000000000167e-03 1.736544999999999894e-01 1.294240999999999886e+01 6.890309999999999491e+01 2.125279999999999745e+03
9.000000000000001055e-03 1.735254999999999992e-01 1.433090999999999937e+01 6.637845000000000084e+01 2.124135000000000218e+03
1.000000000000000194e-02 1.734149999999999858e-01 1.548760000000000048e+01 6.426234999999999786e+01 2.123159999999999854e+03
1.099999999999999936e-02 1.733230000000000048e-01 1.643080000000000140e+01 6.256654999999999944e+01 2.122364999999999782e+03
1.200000000000000025e-02 1.732489999999999863e-01 1.717229999999999990e+01 6.124360000000000070e+01 2.121734999999999673e+03
1.300000000000000114e-02 1.731894999999999962e-01 1.771255000000000024e+01 6.019630000000000791e+01 2.121230000000000018e+03
1.400000000000000203e-02 1.731405000000000027e-01 1.805075000000000074e+01 5.929110000000000014e+01 2.120829999999999927e+03
1.499999999999999944e-02 1.730995000000000172e-01 1.822974999999999923e+01 5.847520000000000095e+01 2.120494999999999891e+03
1.600000000000000033e-02 1.730685000000000140e-01 1.836164999999999736e+01 5.790084999999999837e+01 2.120244999999999891e+03
1.700000000000000122e-02 1.730545000000000000e-01 1.859319999999999951e+01 5.789459999999999695e+01 2.120135000000000218e+03
1.800000000000000211e-02 1.730659999999999976e-01 1.903235000000000099e+01 5.876539999999999964e+01 2.120244999999999891e+03
1.900000000000000300e-02 1.731070000000000109e-01 1.969069999999999965e+01 6.059404999999999575e+01 2.120600000000000364e+03
2.000000000000000042e-02 1.731729999999999936e-01 2.047610000000000241e+01 6.314280000000000115e+01 2.121185000000000400e+03
2.100000000000000130e-02 1.732545000000000057e-01 2.123404999999999987e+01 6.592699999999999250e+01 2.121894999999999982e+03
2.200000000000000219e-02 1.733355000000000035e-01 2.180964999999999776e+01 6.839185000000000514e+01 2.122630000000000109e+03
2.299999999999999961e-02 1.734030000000000016e-01 2.210135000000000005e+01 7.010335000000000605e+01 2.123244999999999891e+03
2.400000000000000050e-02 1.734485000000000054e-01 2.208739999999999881e+01 7.087264999999999304e+01 2.123679999999999836e+03
2.500000000000000139e-02 1.734700000000000131e-01 2.181984999999999886e+01 7.077899999999999636e+01 2.123899999999999636e+03
2.600000000000000228e-02 1.734715000000000007e-01 2.139369999999999905e+01 7.009709999999999752e+01 2.123934999999999945e+03
2.700000000000000316e-02 1.734600000000000031e-01 2.090670000000000073e+01 6.916995000000000005e+01 2.123845000000000255e+03
2.800000000000000058e-02 1.734424999999999994e-01 2.042580000000000240e+01 6.828085000000000093e+01 2.123699999999999818e+03
2.900000000000000147e-02 1.734249999999999958e-01 1.997070000000000078e+01 6.757034999999999059e+01 2.123539999999999964e+03
3.000000000000000236e-02 1.734080000000000066e-01 1.951699999999999946e+01 6.701749999999999829e+01 2.123390000000000327e+03
3.099999999999999978e-02 1.733915000000000040e-01 1.901500000000000057e+01 6.648140000000000782e+01 2.123244999999999891e+03
3.200000000000000067e-02 1.733699999999999963e-01 1.841579999999999728e+01 6.578034999999999854e+01 2.123059999999999945e+03
3.300000000000000155e-02 1.733414999999999817e-01 1.769569999999999865e+01 6.477795000000000414e+01 2.122815000000000055e+03
3.400000000000000244e-02 1.733030000000000126e-01 1.687115000000000009e+01 6.345004999999999740e+01 2.122489999999999782e+03
3.500000000000000333e-02 1.732575000000000087e-01 1.600079999999999814e+01 6.190989999999999327e+01 2.122090000000000146e+03
3.600000000000000422e-02 1.732084999999999875e-01 1.517279999999999873e+01 6.038644999999999641e+01 2.121659999999999854e+03
3.700000000000000511e-02 1.731644999999999990e-01 1.448249999999999815e+01 5.916329999999999956e+01 2.121264999999999873e+03
3.799999999999999906e-02 1.731325000000000225e-01 1.400765000000000171e+01 5.849864999999999782e+01 2.120974999999999909e+03
3.899999999999999994e-02 1.731194999999999817e-01 1.378930000000000078e+01 5.855389999999999873e+01 2.120840000000000146e+03
4.000000000000000083e-02 1.731270000000000031e-01 1.382215000000000060e+01 5.935079999999999956e+01 2.120890000000000327e+03
4.100000000000000172e-02 1.731555000000000177e-01 1.405780000000000030e+01 6.076699999999999591e+01 2.121119999999999891e+03
4.200000000000000261e-02 1.731995000000000062e-01 1.441624999999999979e+01 6.256579999999999586e+01 2.121494999999999891e+03
4.300000000000000350e-02 1.732524999999999760e-01 1.480294999999999916e+01 6.444880000000000564e+01 2.121954999999999927e+03
4.400000000000000439e-02 1.733055000000000012e-01 1.512599999999999945e+01 6.611520000000000152e+01 2.122414999999999964e+03
4.499999999999999833e-02 1.733509999999999773e-01 1.530999999999999872e+01 6.731324999999999648e+01 2.122824999999999818e+03
4.599999999999999922e-02 1.733814999999999940e-01 1.530434999999999945e+01 6.787430000000000518e+01 2.123105000000000018e+03
4.700000000000000011e-02 1.733934999999999782e-01 1.508549999999999969e+01 6.772554999999999836e+01 2.123225000000000364e+03
4.800000000000000100e-02 1.733850000000000113e-01 1.465395000000000003e+01 6.688264999999999816e+01 2.123155000000000200e+03
4.900000000000000189e-02 1.733560000000000101e-01 1.402790000000000070e+01 6.542820000000000391e+01 2.122914999999999964e+03
5.000000000000000278e-02 1.733085000000000042e-01 1.323625000000000007e+01 6.348340000000000316e+01 2.122505000000000109e+03
5.100000000000000366e-02 1.732460000000000111e-01 1.231142499999999984e+01 6.118110000000000070e+01 2.121960000000000036e+03
5.200000000000000455e-02 1.731715000000000060e-01 1.128561000000000014e+01 5.864555000000000007e+01 2.121315000000000055e+03
5.300000000000000544e-02 1.730895000000000072e-01 1.018846500000000077e+01 5.598185000000000144e+01 2.120585000000000036e+03
5.399999999999999939e-02 1.730019999999999891e-01 9.047599999999999199e+00 5.327474999999999739e+01 2.119814999999999600e+03
5.500000000000000028e-02 1.729114999999999958e-01 7.890015000000000001e+00 5.059359999999999502e+01 2.119019999999999982e+03
5.600000000000000117e-02 1.728210000000000024e-01 6.744324999999999903e+00 4.800175000000000125e+01 2.118215000000000146e+03
5.700000000000000205e-02 1.727330000000000254e-01 5.642235000000000333e+00 4.556425000000000125e+01 2.117434999999999945e+03
5.800000000000000294e-02 1.726504999999999845e-01 4.619025000000000603e+00 4.335405000000000086e+01 2.116699999999999818e+03
5.900000000000000383e-02 1.725750000000000062e-01 3.712880000000000180e+00 4.145309999999999917e+01 2.116029999999999745e+03
6.000000000000000472e-02 1.725105000000000111e-01 2.963049999999999962e+00 3.994964999999999833e+01 2.115444999999999709e+03
6.099999999999999867e-02 1.724600000000000022e-01 2.407179999999999875e+00 3.893170000000000641e+01 2.114985000000000127e+03
6.199999999999999956e-02 1.724255000000000093e-01 2.078430000000000000e+00 3.847910000000000252e+01 2.114664999999999964e+03
6.300000000000000044e-02 1.724104999999999943e-01 2.002665000000000362e+00 3.865479999999999450e+01 2.114510000000000218e+03
6.400000000000000133e-02 1.724160000000000137e-01 2.196400000000000130e+00 3.949844999999999828e+01 2.114539999999999964e+03
6.500000000000000222e-02 1.724439999999999862e-01 2.665510000000000268e+00 4.102154999999999774e+01 2.114765000000000327e+03
6.600000000000000311e-02 1.724944999999999951e-01 3.404935000000000045e+00 4.320655000000000001e+01 2.115189999999999600e+03
6.700000000000000400e-02 1.725665000000000115e-01 4.399295000000000400e+00 4.600799999999999557e+01 2.115805000000000291e+03
6.800000000000000488e-02 1.726595000000000213e-01 5.624195000000000277e+00 4.935665000000000191e+01 2.116605000000000018e+03
6.900000000000000577e-02 1.727704999999999935e-01 7.048144999999999882e+00 5.316545000000000698e+01 2.117569999999999709e+03
7.000000000000000666e-02 1.728969999999999951e-01 8.634665000000000035e+00 5.733589999999999520e+01 2.118685000000000400e+03
7.100000000000000755e-02 1.730365000000000097e-01 1.034480999999999895e+01 6.176550000000000296e+01 2.119904999999999745e+03
7.200000000000000844e-02 1.731844999999999912e-01 1.213954999999999984e+01 6.635429999999999495e+01 2.121215000000000146e+03
7.300000000000000933e-02 1.733395000000000075e-01 1.398164999999999836e+01 7.101154999999999973e+01 2.122585000000000036e+03
7.399999999999999634e-02 1.734979999999999856e-01 1.583784999999999954e+01 7.566015000000000157e+01 2.123994999999999891e+03
7.499999999999999722e-02 1.736564999999999914e-01 1.768019999999999925e+01 8.024045000000000982e+01 2.125409999999999854e+03
7.599999999999999811e-02 1.738144999999999829e-01 1.948665000000000092e+01 8.471179999999999666e+01 2.126829999999999927e+03
7.699999999999999900e-02 1.739705000000000001e-01 2.124170000000000158e+01 8.905230000000000246e+01 2.128230000000000018e+03
7.799999999999999989e-02 1.741225000000000134e-01 2.293560000000000088e+01 9.325700000000000500e+01 2.129600000000000364e+03
7.900000000000000078e-02 1.742719999999999825e-01 2.456380000000000052e+01 9.733504999999999541e+01 2.130945000000000164e+03
8.000000000000000167e-02 1.744175000000000031e-01 2.612590000000000146e+01 1.013033499999999947e+02 2.132260000000000218e+03
8.100000000000000255e-02 1.745605000000000073e-01 2.762404999999999688e+01 1.051848999999999990e+02 2.133555000000000291e+03
8.200000000000000344e-02 1.747004999999999808e-01 2.906170000000000186e+01 1.090019999999999953e+02 2.134835000000000036e+03
8.300000000000000433e-02 1.748389999999999944e-01 3.044274999999999665e+01 1.127754999999999939e+02 2.136090000000000146e+03
8.400000000000000522e-02 1.749764999999999793e-01 3.177044999999999675e+01 1.165169999999999959e+02 2.137340000000000146e+03
8.500000000000000611e-02 1.751125000000000043e-01 3.304659999999999798e+01 1.202340000000000089e+02 2.138579999999999927e+03
8.600000000000000699e-02 1.752475000000000005e-01 3.427164999999999395e+01 1.239249999999999972e+02 2.139805000000000291e+03
8.700000000000000788e-02 1.753815000000000235e-01 3.544424999999999670e+01 1.275800000000000125e+02 2.141029999999999745e+03
8.800000000000000877e-02 1.755134999999999890e-01 3.656154999999999688e+01 1.311854999999999905e+02 2.142239999999999782e+03
8.899999999999999578e-02 1.756439999999999946e-01 3.761915000000000475e+01 1.347199999999999989e+02 2.143429999999999836e+03
8.999999999999999667e-02 1.757719999999999838e-01 3.861155000000000115e+01 1.381614999999999895e+02 2.144599999999999909e+03
9.099999999999999756e-02 1.758965000000000112e-01 3.953229999999999933e+01 1.414840000000000089e+02 2.145739999999999782e+03
9.199999999999999845e-02 1.760164999999999924e-01 4.037420000000000186e+01 1.446605000000000132e+02 2.146845000000000255e+03
9.299999999999999933e-02 1.761314999999999964e-01 4.112975000000000136e+01 1.476645000000000039e+02 2.147900000000000091e+03
9.400000000000000022e-02 1.762404999999999944e-01 4.179124999999999801e+01 1.504699999999999989e+02 2.148909999999999854e+03
9.500000000000000111e-02 1.763419999999999987e-01 4.235119999999999862e+01 1.530520000000000209e+02 2.149845000000000255e+03
9.600000000000000200e-02 1.764364999999999961e-01 4.280275000000000318e+01 1.553884999999999934e+02 2.150720000000000255e+03
9.700000000000000289e-02 1.765220000000000122e-01 4.313989999999999725e+01 1.574590000000000032e+02 2.151510000000000218e+03
9.800000000000000377e-02 1.765990000000000060e-01 4.335814999999999486e+01 1.592495000000000118e+02 2.152224999999999909e+03
9.900000000000000466e-02 1.766655000000000031e-01 4.345479999999999876e+01 1.607500000000000000e+02 2.152850000000000364e+03
1.000000000000000056e-01 1.767219999999999902e-01 4.342929999999999779e+01 1.619549999999999841e+02 2.153380000000000109e+03
1.010000000000000064e-01 1.767695000000000238e-01 4.328369999999999607e+01 1.628684999999999832e+02 2.153819999999999709e+03
1.020000000000000073e-01 1.768060000000000187e-01 4.302244999999999919e+01 1.634995000000000118e+02 2.154175000000000182e+03
1.030000000000000082e-01 1.768325000000000036e-01 4.265279999999999916e+01 1.638639999999999759e+02 2.154430000000000291e+03
1.040000000000000091e-01 1.768509999999999804e-01 4.218404999999999916e+01 1.639844999999999970e+02 2.154605000000000018e+03
1.050000000000000100e-01 1.768605000000000038e-01 4.162770000000000437e+01 1.638884999999999934e+02 2.154699999999999818e+03
1.059999999999999970e-01 1.768620000000000192e-01 4.099674999999999869e+01 1.636075000000000159e+02 2.154725000000000364e+03
1.069999999999999979e-01 1.768569999999999864e-01 4.030519999999999925e+01 1.631744999999999948e+02 2.154695000000000164e+03
1.079999999999999988e-01 1.768469999999999764e-01 3.956719999999999970e+01 1.626234999999999786e+02 2.154605000000000018e+03
1.089999999999999997e-01 1.768319999999999892e-01 3.879715000000000202e+01 1.619879999999999995e+02 2.154480000000000018e+03
1.100000000000000006e-01 1.768139999999999989e-01 3.800835000000000008e+01 1.612975000000000136e+02 2.154319999999999709e+03
1.110000000000000014e-01 1.767940000000000067e-01 3.721304999999999552e+01 1.605794999999999959e+02 2.154140000000000327e+03
1.120000000000000023e-01 1.767719999999999847e-01 3.642179999999999751e+01 1.598575000000000159e+02 2.153940000000000055e+03
1.130000000000000032e-01 1.767500000000000182e-01 3.564355000000000473e+01 1.591474999999999795e+02 2.153734999999999673e+03
1.140000000000000041e-01 1.767269999999999952e-01 3.488479999999999848e+01 1.584625000000000057e+02 2.153529999999999745e+03
1.150000000000000050e-01 1.767050000000000010e-01 3.415005000000000024e+01 1.578084999999999809e+02 2.153324999999999818e+03
1.160000000000000059e-01 1.766829999999999790e-01 3.344144999999999612e+01 1.571875000000000000e+02 2.153119999999999891e+03
1.170000000000000068e-01 1.766614999999999991e-01 3.275909999999999656e+01 1.565960000000000036e+02 2.152925000000000182e+03
1.180000000000000077e-01 1.766415000000000068e-01 3.210094999999999743e+01 1.560244999999999891e+02 2.152739999999999782e+03
1.190000000000000085e-01 1.766214999999999868e-01 3.146334999999999837e+01 1.554610000000000127e+02 2.152550000000000182e+03
1.200000000000000094e-01 1.766010000000000080e-01 3.084104999999999919e+01 1.548915000000000077e+02 2.152359999999999673e+03
1.209999999999999964e-01 1.765805000000000013e-01 3.022780000000000200e+01 1.542980000000000018e+02 2.152170000000000073e+03
1.219999999999999973e-01 1.765585000000000071e-01 2.961679999999999779e+01 1.536625000000000227e+02 2.151965000000000146e+03
1.229999999999999982e-01 1.765349999999999975e-01 2.900084999999999980e+01 1.529680000000000177e+02 2.151750000000000000e+03
1.239999999999999991e-01 1.765100000000000002e-01 2.837324999999999875e+01 1.521980000000000075e+02 2.151519999999999982e+03
1.250000000000000000e-01 1.764815000000000134e-01 2.772794999999999987e+01 1.513380000000000223e+02 2.151255000000000109e+03
1.260000000000000009e-01 1.764505000000000101e-01 2.705975000000000108e+01 1.503785000000000025e+02 2.150974999999999909e+03
1.270000000000000018e-01 1.764155000000000029e-01 2.636529999999999774e+01 1.493114999999999952e+02 2.150659999999999854e+03
1.280000000000000027e-01 1.763780000000000070e-01 2.564260000000000161e+01 1.481365000000000123e+02 2.150315000000000055e+03
1.290000000000000036e-01 1.763359999999999927e-01 2.489175000000000182e+01 1.468564999999999827e+02 2.149934999999999945e+03
1.300000000000000044e-01 1.762910000000000033e-01 2.411479999999999890e+01 1.454795000000000016e+02 2.149525000000000091e+03
1.310000000000000053e-01 1.762429999999999830e-01 2.331555000000000177e+01 1.440185000000000173e+02 2.149090000000000146e+03
1.320000000000000062e-01 1.761920000000000153e-01 2.249980000000000047e+01 1.424915000000000020e+02 2.148625000000000000e+03
1.330000000000000071e-01 1.761389999999999900e-01 2.167475000000000307e+01 1.409189999999999827e+02 2.148140000000000327e+03
1.340000000000000080e-01 1.760844999999999771e-01 2.084879999999999711e+01 1.393249999999999886e+02 2.147644999999999982e+03
1.350000000000000089e-01 1.760289999999999910e-01 2.003119999999999834e+01 1.377355000000000018e+02 2.147140000000000327e+03
1.360000000000000098e-01 1.759740000000000193e-01 1.923160000000000025e+01 1.361750000000000114e+02 2.146635000000000218e+03
1.370000000000000107e-01 1.759195000000000064e-01 1.845925000000000082e+01 1.346684999999999945e+02 2.146140000000000327e+03
1.380000000000000115e-01 1.758665000000000089e-01 1.772325000000000017e+01 1.332384999999999877e+02 2.145654999999999745e+03
1.390000000000000124e-01 1.758164999999999867e-01 1.703134999999999977e+01 1.319055000000000177e+02 2.145194999999999709e+03
1.400000000000000133e-01 1.757694999999999952e-01 1.639029999999999987e+01 1.306839999999999975e+02 2.144765000000000327e+03
1.410000000000000142e-01 1.757259999999999933e-01 1.580509999999999948e+01 1.295859999999999843e+02 2.144369999999999891e+03
1.420000000000000151e-01 1.756864999999999954e-01 1.527930000000000099e+01 1.286184999999999832e+02 2.144005000000000109e+03
1.430000000000000160e-01 1.756515000000000160e-01 1.481465000000000032e+01 1.277839999999999918e+02 2.143679999999999836e+03
1.440000000000000169e-01 1.756205000000000127e-01 1.441114999999999924e+01 1.270809999999999889e+02 2.143394999999999982e+03
1.450000000000000178e-01 1.755940000000000001e-01 1.406749999999999901e+01 1.265035000000000025e+02 2.143144999999999982e+03
1.459999999999999909e-01 1.755720000000000058e-01 1.378089999999999904e+01 1.260434999999999945e+02 2.142935000000000400e+03
1.469999999999999918e-01 1.755539999999999878e-01 1.354735000000000156e+01 1.256905000000000001e+02 2.142765000000000327e+03
1.479999999999999927e-01 1.755390000000000006e-01 1.336214999999999975e+01 1.254319999999999879e+02 2.142630000000000109e+03
1.489999999999999936e-01 1.755280000000000173e-01 1.321995000000000076e+01 1.252535000000000025e+02 2.142519999999999982e+03
1.499999999999999944e-01 1.755194999999999950e-01 1.311485000000000056e+01 1.251430000000000007e+02 2.142434999999999945e+03
1.509999999999999953e-01 1.755130000000000023e-01 1.304084999999999894e+01 1.250859999999999985e+02 2.142375000000000000e+03
1.519999999999999962e-01 1.755089999999999983e-01 1.299200000000000088e+01 1.250695000000000050e+02 2.142329999999999927e+03
1.529999999999999971e-01 1.755059999999999953e-01 1.296250000000000036e+01 1.250815000000000055e+02 2.142304999999999836e+03
1.539999999999999980e-01 1.755050000000000221e-01 1.294695000000000107e+01 1.251109999999999900e+02 2.142284999999999854e+03
1.549999999999999989e-01 1.755039999999999933e-01 1.294034999999999869e+01 1.251475000000000080e+02 2.142274999999999636e+03
1.559999999999999998e-01 1.755039999999999933e-01 1.293820000000000014e+01 1.251839999999999975e+02 2.142274999999999636e+03
1.570000000000000007e-01 1.755039999999999933e-01 1.293684999999999974e+01 1.252135000000000105e+02 2.142275000000000091e+03
1.580000000000000016e-01 1.755039999999999933e-01 1.293309999999999960e+01 1.252309999999999945e+02 2.142269999999999982e+03
1.590000000000000024e-01 1.755035000000000067e-01 1.292459999999999987e+01 1.252324999999999875e+02 2.142269999999999982e+03
