# t [s], A [cm^2], U [cm/s], P [cPa], c [cm/s]
1.000000000000000021e-03 1.251460000000000072e-01 5.024771000000000098e-01 9.575454999999999472e+01 1.968130000000000109e+03
2.000000000000000042e-03 1.251099999999999990e-01 2.225340000000000096e+00 9.201370000000000005e+01 1.967695000000000164e+03
3.000000000000000062e-03 1.250130000000000130e-01 4.253268999999999522e+00 8.723069999999999879e+01 1.966550000000000182e+03
4.000000000000000083e-03 1.248815000000000064e-01 6.484709999999999752e+00 8.242525000000000546e+01 1.965025000000000091e+03
5.000000000000000104e-03 1.247419999999999918e-01 8.828514999999999446e+00 7.841534999999998945e+01 1.963410000000000082e+03
6.000000000000000125e-03 1.246069999999999955e-01 1.108077500000000093e+01 7.526830000000001064e+01 1.961869999999999891e+03
7.000000000000000146e-03 1.244800000000000073e-01 1.305175000000000018e+01 7.260880000000000223e+01 1.960454999999999927e+03
8.000000000000000167e-03 1.243645000000000028e-01 1.470820999999999934e+01 7.024184999999999945e+01 1.959170000000000073e+03
9.000000000000001055e-03 1.242624999999999980e-01 1.610095000000000098e+01 6.824045000000000982e+01 1.958059999999999945e+03
1.000000000000000194e-02 1.241754999999999942e-01 1.725515000000000043e+01 6.663334999999999297e+01 1.957130000000000109e+03
1.099999999999999936e-02 1.241035000000000055e-01 1.817940000000000111e+01 6.535394999999999754e+01 1.956360000000000127e+03
1.200000000000000025e-02 1.240445000000000020e-01 1.888759999999999906e+01 6.432970000000000255e+01 1.955744999999999891e+03
1.300000000000000114e-02 1.239969999999999961e-01 1.939049999999999940e+01 6.348059999999999548e+01 1.955244999999999891e+03
1.400000000000000203e-02 1.239570000000000116e-01 1.971225000000000094e+01 6.273924999999999841e+01 1.954840000000000146e+03
1.499999999999999944e-02 1.239239999999999925e-01 1.992855000000000132e+01 6.216259999999999764e+01 1.954514999999999873e+03
1.600000000000000033e-02 1.239029999999999992e-01 2.016980000000000217e+01 6.199504999999999910e+01 1.954305000000000064e+03
1.700000000000000122e-02 1.238974999999999937e-01 2.056799999999999784e+01 6.256395000000000550e+01 1.954269999999999982e+03
1.800000000000000211e-02 1.239149999999999974e-01 2.118529999999999802e+01 6.406579999999999586e+01 1.954470000000000027e+03
1.900000000000000300e-02 1.239549999999999957e-01 2.197565000000000168e+01 6.640229999999999677e+01 1.954904999999999973e+03
2.000000000000000042e-02 1.240134999999999987e-01 2.280010000000000048e+01 6.916925000000000523e+01 1.955535000000000082e+03
2.100000000000000130e-02 1.240794999999999954e-01 2.348165000000000191e+01 7.179330000000000211e+01 1.956255000000000109e+03
2.200000000000000219e-02 1.241410000000000013e-01 2.387010000000000076e+01 7.373404999999999632e+01 1.956934999999999945e+03
2.299999999999999961e-02 1.241869999999999918e-01 2.388929999999999865e+01 7.466009999999999991e+01 1.957460000000000036e+03
2.400000000000000050e-02 1.242125000000000035e-01 2.355294999999999916e+01 7.453249999999999886e+01 1.957764999999999873e+03
2.500000000000000139e-02 1.242175000000000085e-01 2.294664999999999822e+01 7.357820000000000960e+01 1.957840000000000146e+03
2.600000000000000228e-02 1.242049999999999960e-01 2.218939999999999912e+01 7.217624999999999602e+01 1.957730000000000018e+03
2.700000000000000316e-02 1.241825000000000012e-01 2.139039999999999964e+01 7.071174999999999500e+01 1.957500000000000000e+03
2.800000000000000058e-02 1.241569999999999896e-01 2.061860000000000070e+01 6.945529999999999404e+01 1.957230000000000018e+03
2.900000000000000147e-02 1.241329999999999933e-01 1.989285000000000281e+01 6.850579999999999359e+01 1.956974999999999909e+03
3.000000000000000236e-02 1.241120000000000001e-01 1.919125000000000014e+01 6.780279999999999063e+01 1.956750000000000000e+03
3.099999999999999978e-02 1.240934999999999955e-01 1.847305000000000064e+01 6.719129999999999825e+01 1.956545000000000073e+03
3.200000000000000067e-02 1.240739999999999899e-01 1.770339999999999847e+01 6.650605000000000189e+01 1.956340000000000146e+03
3.300000000000000155e-02 1.240524999999999961e-01 1.687340000000000018e+01 6.564750000000000796e+01 1.956110000000000127e+03
3.400000000000000244e-02 1.240274999999999850e-01 1.600914999999999822e+01 6.462604999999999222e+01 1.955839999999999918e+03
3.500000000000000333e-02 1.239995000000000125e-01 1.516904999999999859e+01 6.356600000000000250e+01 1.955545000000000073e+03
3.600000000000000422e-02 1.239724999999999994e-01 1.442964999999999876e+01 6.267050000000000409e+01 1.955255000000000109e+03
3.700000000000000511e-02 1.239510000000000056e-01 1.386560000000000059e+01 6.216060000000000230e+01 1.955019999999999982e+03
3.799999999999999906e-02 1.239395000000000080e-01 1.352904999999999980e+01 6.220810000000000173e+01 1.954884999999999991e+03
3.899999999999999994e-02 1.239409999999999956e-01 1.343520000000000003e+01 6.288219999999999743e+01 1.954894999999999982e+03
4.000000000000000083e-02 1.239574999999999982e-01 1.355655000000000143e+01 6.412484999999999502e+01 1.955054999999999836e+03
4.100000000000000172e-02 1.239869999999999861e-01 1.382764999999999844e+01 6.575730000000000075e+01 1.955359999999999900e+03
4.200000000000000261e-02 1.240244999999999959e-01 1.415664999999999907e+01 6.751539999999999964e+01 1.955759999999999991e+03
4.300000000000000350e-02 1.240649999999999947e-01 1.444190000000000040e+01 6.909954999999999359e+01 1.956184999999999945e+03
4.400000000000000439e-02 1.241015000000000035e-01 1.458725000000000094e+01 7.022785000000000366e+01 1.956585000000000036e+03
4.499999999999999833e-02 1.241280000000000161e-01 1.451549999999999940e+01 7.067900000000000205e+01 1.956865000000000009e+03
4.599999999999999922e-02 1.241389999999999993e-01 1.417600000000000016e+01 7.031915000000000759e+01 1.956984999999999900e+03
4.700000000000000011e-02 1.241305000000000047e-01 1.354710000000000036e+01 6.911025000000000773e+01 1.956905000000000200e+03
4.800000000000000100e-02 1.241015000000000035e-01 1.263445000000000107e+01 6.710060000000000002e+01 1.956605000000000018e+03
4.900000000000000189e-02 1.240519999999999956e-01 1.146572000000000102e+01 6.440534999999999854e+01 1.956085000000000036e+03
5.000000000000000278e-02 1.239854999999999985e-01 1.008405999999999914e+01 6.118090000000000117e+01 1.955365000000000009e+03
5.100000000000000366e-02 1.239039999999999864e-01 8.542075000000000529e+00 5.760115000000000407e+01 1.954490000000000009e+03
5.200000000000000455e-02 1.238115000000000049e-01 6.896690000000000431e+00 5.383890000000000242e+01 1.953500000000000000e+03
5.300000000000000544e-02 1.237120000000000025e-01 5.205875000000000696e+00 5.005414999999999992e+01 1.952429999999999836e+03
5.399999999999999939e-02 1.236094999999999972e-01 3.526771499999999726e+00 4.638944999999999652e+01 1.951324999999999818e+03
5.500000000000000028e-02 1.235084999999999933e-01 1.915024999999999977e+00 4.297055000000000291e+01 1.950230000000000018e+03
5.600000000000000117e-02 1.234114999999999934e-01 4.244449999999999612e-01 3.990935000000000343e+01 1.949184999999999945e+03
5.700000000000000205e-02 1.233225000000000016e-01 -8.933900000000001285e-01 3.730679999999999552e+01 1.948220000000000027e+03
5.800000000000000294e-02 1.232450000000000073e-01 -1.989877000000000118e+00 3.525500000000000256e+01 1.947375000000000000e+03
5.900000000000000383e-02 1.231810000000000127e-01 -2.820871499999999976e+00 3.383644999999999925e+01 1.946670000000000073e+03
6.000000000000000472e-02 1.231335000000000068e-01 -3.348510000000000097e+00 3.312080000000000268e+01 1.946139999999999873e+03
6.099999999999999867e-02 1.231040000000000051e-01 -3.543379999999999974e+00 3.316069999999999851e+01 1.945809999999999945e+03
6.199999999999999956e-02 1.230949999999999961e-01 -3.386529999999999596e+00 3.398669999999999902e+01 1.945694999999999936e+03
6.300000000000000044e-02 1.231075000000000086e-01 -2.870994999999999742e+00 3.560294999999999987e+01 1.945805000000000064e+03
6.400000000000000133e-02 1.231415000000000148e-01 -2.002638500000000210e+00 3.798465000000000202e+01 1.946154999999999973e+03
6.500000000000000222e-02 1.231970000000000010e-01 -7.999849999999999461e-01 4.107845000000000368e+01 1.946730000000000018e+03
6.600000000000000311e-02 1.232719999999999927e-01 7.067750000000001531e-01 4.480469999999999686e+01 1.947525000000000091e+03
6.700000000000000400e-02 1.233665000000000039e-01 2.477609999999999868e+00 4.906244999999999834e+01 1.948514999999999873e+03
6.800000000000000488e-02 1.234760000000000024e-01 4.464998999999999718e+00 5.373579999999999757e+01 1.949684999999999945e+03
6.900000000000000577e-02 1.235990000000000005e-01 6.616590000000000416e+00 5.870125000000000171e+01 1.951005000000000109e+03
7.000000000000000666e-02 1.237324999999999953e-01 8.877974999999999284e+00 6.383469999999999800e+01 1.952430000000000064e+03
7.100000000000000755e-02 1.238720000000000099e-01 1.119514999999999993e+01 6.901814999999999145e+01 1.953934999999999945e+03
7.200000000000000844e-02 1.240155000000000007e-01 1.351703000000000010e+01 7.414515000000000100e+01 1.955490000000000009e+03
7.300000000000000933e-02 1.241595000000000060e-01 1.579749999999999943e+01 7.912529999999999575e+01 1.957054999999999836e+03
7.399999999999999634e-02 1.243019999999999958e-01 1.799674999999999869e+01 8.388730000000001041e+01 1.958605000000000018e+03
7.499999999999999722e-02 1.244399999999999951e-01 2.008319999999999794e+01 8.838085000000000946e+01 1.960119999999999891e+03
7.599999999999999811e-02 1.245725000000000027e-01 2.203345000000000198e+01 9.257750000000000057e+01 1.961579999999999927e+03
7.699999999999999900e-02 1.246990000000000043e-01 2.383355000000000246e+01 9.647034999999999627e+01 1.962965000000000146e+03
7.799999999999999989e-02 1.248179999999999845e-01 2.547820000000000107e+01 1.000722499999999968e+02 1.964279999999999973e+03
7.900000000000000078e-02 1.249300000000000133e-01 2.697010000000000218e+01 1.034125500000000102e+02 1.965525000000000091e+03
8.000000000000000167e-02 1.250354999999999939e-01 2.831925000000000026e+01 1.065345000000000084e+02 1.966695000000000164e+03
8.100000000000000255e-02 1.251349999999999962e-01 2.954110000000000014e+01 1.094899999999999949e+02 1.967805000000000064e+03
8.200000000000000344e-02 1.252294999999999936e-01 3.065469999999999828e+01 1.123350000000000080e+02 1.968864999999999782e+03
8.300000000000000433e-02 1.253219999999999890e-01 3.168120000000000047e+01 1.151260000000000048e+02 1.969894999999999982e+03
8.400000000000000522e-02 1.254115000000000091e-01 3.264170000000000016e+01 1.179130000000000109e+02 1.970894999999999982e+03
8.500000000000000611e-02 1.255010000000000014e-01 3.355545000000000044e+01 1.207379999999999995e+02 1.971894999999999982e+03
8.600000000000000699e-02 1.255900000000000072e-01 3.443869999999999720e+01 1.236310000000000002e+02 1.972894999999999982e+03
8.700000000000000788e-02 1.256809999999999872e-01 3.530339999999999634e+01 1.266080000000000041e+02 1.973909999999999854e+03
8.800000000000000877e-02 1.257735000000000103e-01 3.615659999999999741e+01 1.296715000000000089e+02 1.974940000000000055e+03
8.899999999999999578e-02 1.258674999999999933e-01 3.700000000000000000e+01 1.328089999999999975e+02 1.975990000000000009e+03
8.999999999999999667e-02 1.259629999999999916e-01 3.783030000000000115e+01 1.359950000000000045e+02 1.977055000000000064e+03
9.099999999999999756e-02 1.260600000000000054e-01 3.863949999999999818e+01 1.391949999999999932e+02 1.978134999999999991e+03
9.199999999999999845e-02 1.261570000000000191e-01 3.941549999999999443e+01 1.423645000000000209e+02 1.979220000000000027e+03
9.299999999999999933e-02 1.262530000000000041e-01 4.014359999999999928e+01 1.454540000000000077e+02 1.980289999999999964e+03
9.400000000000000022e-02 1.263470000000000149e-01 4.080675000000000097e+01 1.484124999999999943e+02 1.981340000000000146e+03
9.500000000000000111e-02 1.264369999999999938e-01 4.138745000000000118e+01 1.511899999999999977e+02 1.982355000000000018e+03
9.600000000000000200e-02 1.265224999999999822e-01 4.186825000000000330e+01 1.537384999999999877e+02 1.983315000000000055e+03
9.700000000000000289e-02 1.266019999999999923e-01 4.223319999999999652e+01 1.560174999999999841e+02 1.984210000000000036e+03
9.800000000000000377e-02 1.266744999999999954e-01 4.246849999999999881e+01 1.579914999999999736e+02 1.985025000000000091e+03
9.900000000000000466e-02 1.267389999999999906e-01 4.256324999999999648e+01 1.596359999999999957e+02 1.985755000000000109e+03
1.000000000000000056e-01 1.267940000000000178e-01 4.251014999999999588e+01 1.609350000000000023e+02 1.986384999999999991e+03
1.010000000000000064e-01 1.268394999999999939e-01 4.230575000000000330e+01 1.618835000000000264e+02 1.986904999999999973e+03
1.020000000000000073e-01 1.268759999999999888e-01 4.195064999999999600e+01 1.624850000000000136e+02 1.987315000000000055e+03
1.030000000000000082e-01 1.269025000000000014e-01 4.144964999999999833e+01 1.627529999999999859e+02 1.987625000000000000e+03
1.040000000000000091e-01 1.269190000000000040e-01 4.081130000000000280e+01 1.627105000000000246e+02 1.987824999999999818e+03
1.050000000000000100e-01 1.269270000000000120e-01 4.004784999999999684e+01 1.623870000000000005e+02 1.987924999999999955e+03
1.059999999999999970e-01 1.269264999999999977e-01 3.917435000000000400e+01 1.618185000000000002e+02 1.987934999999999945e+03
1.069999999999999979e-01 1.269184999999999897e-01 3.820844999999999914e+01 1.610440000000000111e+02 1.987855000000000018e+03
1.079999999999999988e-01 1.269039999999999890e-01 3.716939999999999600e+01 1.601080000000000041e+02 1.987700000000000045e+03
1.089999999999999997e-01 1.268839999999999968e-01 3.607730000000000103e+01 1.590529999999999973e+02 1.987489999999999782e+03
1.100000000000000006e-01 1.268604999999999872e-01 3.495244999999999891e+01 1.579225000000000136e+02 1.987224999999999909e+03
1.110000000000000014e-01 1.268330000000000013e-01 3.381445000000000078e+01 1.567560000000000002e+02 1.986930000000000064e+03
1.120000000000000023e-01 1.268040000000000000e-01 3.268165000000000475e+01 1.555894999999999868e+02 1.986610000000000127e+03
1.130000000000000032e-01 1.267739999999999978e-01 3.157035000000000124e+01 1.544549999999999841e+02 1.986280000000000200e+03
1.140000000000000041e-01 1.267444999999999822e-01 3.049445000000000050e+01 1.533774999999999977e+02 1.985940000000000055e+03
1.150000000000000050e-01 1.267150000000000221e-01 2.946490000000000009e+01 1.523745000000000118e+02 1.985615000000000009e+03
1.160000000000000059e-01 1.266869999999999941e-01 2.848955000000000126e+01 1.514569999999999936e+02 1.985300000000000182e+03
1.170000000000000068e-01 1.266605000000000092e-01 2.757319999999999993e+01 1.506295000000000073e+02 1.985000000000000000e+03
1.180000000000000077e-01 1.266364999999999852e-01 2.671710000000000207e+01 1.498890000000000100e+02 1.984724999999999909e+03
1.190000000000000085e-01 1.266134999999999899e-01 2.591979999999999862e+01 1.492264999999999873e+02 1.984470000000000027e+03
1.200000000000000094e-01 1.265930000000000111e-01 2.517699999999999960e+01 1.486279999999999859e+02 1.984235000000000127e+03
1.209999999999999964e-01 1.265735000000000054e-01 2.448194999999999766e+01 1.480745000000000005e+02 1.984014999999999873e+03
1.219999999999999973e-01 1.265560000000000018e-01 2.382614999999999839e+01 1.475439999999999827e+02 1.983809999999999945e+03
1.229999999999999982e-01 1.265384999999999982e-01 2.319969999999999999e+01 1.470124999999999886e+02 1.983605000000000018e+03
1.239999999999999991e-01 1.265209999999999946e-01 2.259210000000000207e+01 1.464560000000000173e+02 1.983409999999999854e+03
1.250000000000000000e-01 1.265030000000000043e-01 2.199235000000000184e+01 1.458509999999999991e+02 1.983204999999999927e+03
1.260000000000000009e-01 1.264840000000000131e-01 2.139014999999999844e+01 1.451750000000000114e+02 1.982985000000000127e+03
1.270000000000000018e-01 1.264629999999999921e-01 2.077595000000000169e+01 1.444100000000000250e+02 1.982750000000000000e+03
1.280000000000000027e-01 1.264394999999999825e-01 2.014160000000000039e+01 1.435414999999999850e+02 1.982494999999999891e+03
1.290000000000000036e-01 1.264139999999999986e-01 1.948080000000000211e+01 1.425589999999999975e+02 1.982200000000000045e+03
1.300000000000000044e-01 1.263854999999999840e-01 1.878945000000000221e+01 1.414579999999999984e+02 1.981880000000000109e+03
1.310000000000000053e-01 1.263535000000000075e-01 1.806565000000000154e+01 1.402404999999999973e+02 1.981529999999999973e+03
1.320000000000000062e-01 1.263185000000000002e-01 1.731005000000000038e+01 1.389114999999999895e+02 1.981134999999999991e+03
1.330000000000000071e-01 1.262805000000000177e-01 1.652580000000000027e+01 1.374850000000000136e+02 1.980715000000000146e+03
1.340000000000000080e-01 1.262395000000000045e-01 1.571804999999999986e+01 1.359764999999999873e+02 1.980259999999999991e+03
1.350000000000000089e-01 1.261970000000000036e-01 1.489434999999999931e+01 1.344085000000000036e+02 1.979779999999999973e+03
1.360000000000000098e-01 1.261514999999999997e-01 1.406370000000000076e+01 1.328045000000000186e+02 1.979284999999999854e+03
1.370000000000000107e-01 1.261059999999999959e-01 1.323644999999999960e+01 1.311914999999999907e+02 1.978769999999999982e+03
1.380000000000000115e-01 1.260590000000000044e-01 1.242380500000000154e+01 1.295980000000000132e+02 1.978250000000000000e+03
1.390000000000000124e-01 1.260124999999999995e-01 1.163709499999999863e+01 1.280504999999999995e+02 1.977735000000000127e+03
1.400000000000000133e-01 1.259669999999999956e-01 1.088757999999999981e+01 1.265755000000000052e+02 1.977230000000000018e+03
1.410000000000000142e-01 1.259230000000000071e-01 1.018570000000000064e+01 1.251965000000000146e+02 1.976740000000000009e+03
1.420000000000000151e-01 1.258815000000000073e-01 9.540684999999999860e+00 1.239334999999999951e+02 1.976275000000000091e+03
1.430000000000000160e-01 1.258429999999999827e-01 8.960345000000000226e+00 1.228025000000000091e+02 1.975840000000000146e+03
1.440000000000000169e-01 1.258075000000000165e-01 8.450480000000000658e+00 1.218149999999999977e+02 1.975444999999999936e+03
1.450000000000000178e-01 1.257759999999999989e-01 8.015000000000000568e+00 1.209770000000000039e+02 1.975090000000000146e+03
1.459999999999999909e-01 1.257484999999999853e-01 7.655585000000000306e+00 1.202905000000000086e+02 1.974779999999999973e+03
1.469999999999999918e-01 1.257250000000000034e-01 7.371794999999999654e+00 1.197510000000000048e+02 1.974509999999999991e+03
1.479999999999999927e-01 1.257054999999999978e-01 7.161170000000000258e+00 1.193509999999999991e+02 1.974289999999999964e+03
1.489999999999999936e-01 1.256895000000000095e-01 7.019359999999999822e+00 1.190799999999999983e+02 1.974114999999999782e+03
1.499999999999999944e-01 1.256780000000000119e-01 6.940385000000000026e+00 1.189209999999999923e+02 1.973974999999999909e+03
1.509999999999999953e-01 1.256694999999999895e-01 6.916954999999999742e+00 1.188575000000000017e+02 1.973869999999999891e+03
1.519999999999999962e-01 1.256634999999999835e-01 6.940770000000000550e+00 1.188714999999999975e+02 1.973804999999999836e+03
1.529999999999999971e-01 1.256605000000000083e-01 7.002879999999999328e+00 1.189430000000000121e+02 1.973759999999999991e+03
1.539999999999999980e-01 1.256595000000000073e-01 7.094045000000000378e+00 1.190515000000000043e+02 1.973740000000000009e+03
1.549999999999999989e-01 1.256589999999999929e-01 7.205059999999999576e+00 1.191795000000000044e+02 1.973740000000000009e+03
1.559999999999999998e-01 1.256605000000000083e-01 7.327069999999999972e+00 1.193089999999999975e+02 1.973750000000000000e+03
1.570000000000000007e-01 1.256614999999999815e-01 7.451850000000000307e+00 1.194254999999999995e+02 1.973764999999999873e+03
1.580000000000000016e-01 1.256634999999999835e-01 7.572045000000000137e+00 1.195144999999999982e+02 1.973779999999999973e+03
1.590000000000000024e-01 1.256645000000000123e-01 7.681334999999999802e+00 1.195655000000000001e+02 1.973789999999999964e+03
