# t [s], A [cm^2], U [cm/s], P [cPa], c [cm/s]
1.000000000000000021e-03 4.711315000000000364e-01 2.512399999999997968e-03 1.014200000000000017e+02 1.563264999999999873e+03
2.000000000000000042e-03 4.711285000000000056e-01 7.983099999999999918e-03 1.014030000000000058e+02 1.563259999999999991e+03
3.000000000000000062e-03 4.711790000000000145e-01 1.263448000000000071e-01 1.015254999999999939e+02 1.563289999999999964e+03
4.000000000000000083e-03 4.712084999999999746e-01 2.017319999999999947e-01 1.016210000000000093e+02 1.563315000000000055e+03
5.000000000000000104e-03 4.711800000000000432e-01 1.458375000000000088e-01 1.015219999999999914e+02 1.563299999999999955e+03
6.000000000000000125e-03 4.711310000000000220e-01 3.627500000000000169e-02 1.012745000000000033e+02 1.563244999999999891e+03
7.000000000000000146e-03 4.710770000000000235e-01 -9.349649999999998240e-02 1.009254999999999995e+02 1.563170000000000073e+03
8.000000000000000167e-03 4.709834999999999994e-01 -3.275449999999999751e-01 1.003770499999999970e+02 1.563050000000000182e+03
9.000000000000001055e-03 4.708335000000000159e-01 -7.018149999999999666e-01 9.954699999999999704e+01 1.562865000000000009e+03
1.000000000000000194e-02 4.706240000000000423e-01 -1.214949999999999974e+00 9.839054999999999040e+01 1.562605000000000018e+03
1.099999999999999936e-02 4.703410000000000091e-01 -1.880355000000000221e+00 9.684969999999999857e+01 1.562244999999999891e+03
1.200000000000000025e-02 4.699834999999999985e-01 -2.679390000000000160e+00 9.490264999999999418e+01 1.561779999999999973e+03
1.300000000000000114e-02 4.695825000000000138e-01 -3.510774999999999757e+00 9.264330000000001064e+01 1.561224999999999909e+03
1.400000000000000203e-02 4.691910000000000247e-01 -4.215195000000000469e+00 9.027729999999999677e+01 1.560625000000000000e+03
1.499999999999999944e-02 4.688554999999999806e-01 -4.648638499999999674e+00 8.804104999999999848e+01 1.560025000000000091e+03
1.600000000000000033e-02 4.685969999999999858e-01 -4.740416999999999881e+00 8.610579999999998790e+01 1.559474999999999909e+03
1.700000000000000122e-02 4.684059999999999890e-01 -4.507098499999999675e+00 8.452824999999999989e+01 1.558990000000000009e+03
1.800000000000000211e-02 4.682530000000000303e-01 -4.030837500000000517e+00 8.325305000000000177e+01 1.558565000000000055e+03
1.900000000000000300e-02 4.681024999999999769e-01 -3.420941000000000010e+00 8.215084999999999127e+01 1.558179999999999836e+03
2.000000000000000042e-02 4.679250000000000353e-01 -2.774672999999999945e+00 8.107425000000000637e+01 1.557804999999999836e+03
2.100000000000000130e-02 4.677080000000000126e-01 -2.149595000000000145e+00 7.990905000000000769e+01 1.557420000000000073e+03
2.200000000000000219e-02 4.674540000000000362e-01 -1.556030000000000024e+00 7.860450000000000159e+01 1.557009999999999991e+03
2.299999999999999961e-02 4.671769999999999534e-01 -9.704500000000002569e-01 7.717255000000000109e+01 1.556569999999999936e+03
2.400000000000000050e-02 4.668924999999999881e-01 -3.611499999999998600e-01 7.566165000000000873e+01 1.556115000000000009e+03
2.500000000000000139e-02 4.666109999999999980e-01 2.867000000000001769e-01 7.412064999999999770e+01 1.555644999999999982e+03
2.600000000000000228e-02 4.663304999999999811e-01 9.562100000000000044e-01 7.256819999999999027e+01 1.555170000000000073e+03
2.700000000000000316e-02 4.660389999999999810e-01 1.597359999999999891e+00 7.097835000000000605e+01 1.554684999999999945e+03
2.800000000000000058e-02 4.657169999999999921e-01 2.136959999999999305e+00 6.928274999999999295e+01 1.554174999999999955e+03
2.900000000000000147e-02 4.653439999999999799e-01 2.495705000000000062e+00 6.738800000000000523e+01 1.553619999999999891e+03
3.000000000000000236e-02 4.649029999999999552e-01 2.607330000000000148e+00 6.520150000000001000e+01 1.553000000000000000e+03
3.099999999999999978e-02 4.643864999999999799e-01 2.435029999999999806e+00 6.265925000000000011e+01 1.552299999999999955e+03
3.200000000000000067e-02 4.637995000000000312e-01 1.981374999999999886e+00 5.974814999999999543e+01 1.551514999999999873e+03
3.300000000000000155e-02 4.631594999999999462e-01 1.288754999999999207e+00 5.651704999999999757e+01 1.550654999999999973e+03
3.400000000000000244e-02 4.624935000000000018e-01 4.314499999999998892e-01 5.307354999999999734e+01 1.549735000000000127e+03
3.500000000000000333e-02 4.618330000000000490e-01 -4.981749999999998124e-01 4.956879999999999598e+01 1.548789999999999964e+03
3.600000000000000422e-02 4.612110000000000376e-01 -1.404790000000000205e+00 4.617579999999999529e+01 1.547859999999999900e+03
3.700000000000000511e-02 4.606559999999999544e-01 -2.202764999999999862e+00 4.306595000000000084e+01 1.546985000000000127e+03
3.799999999999999906e-02 4.601905000000000023e-01 -2.824559999999999960e+00 4.038994999999999891e+01 1.546200000000000045e+03
3.899999999999999994e-02 4.598299999999999610e-01 -3.223760000000000403e+00 3.826429999999999865e+01 1.545545000000000073e+03
4.000000000000000083e-02 4.595830000000000193e-01 -3.374054500000000179e+00 3.676604999999999990e+01 1.545039999999999964e+03
4.100000000000000172e-02 4.594515000000000127e-01 -3.265480000000000160e+00 3.593325000000000102e+01 1.544704999999999927e+03
4.200000000000000261e-02 4.594340000000000090e-01 -2.899239999999999817e+00 3.577044999999999675e+01 1.544545000000000073e+03
4.300000000000000350e-02 4.595259999999999900e-01 -2.282955999999999985e+00 3.625724999999999909e+01 1.544554999999999836e+03
4.400000000000000439e-02 4.597204999999999764e-01 -1.427305000000000046e+00 3.735640000000000072e+01 1.544734999999999900e+03
4.499999999999999833e-02 4.600100000000000300e-01 -3.445449999999996571e-01 3.902060000000000173e+01 1.545074999999999818e+03
4.599999999999999922e-02 4.603864999999999763e-01 9.512350000000000527e-01 4.119665000000000532e+01 1.545565000000000055e+03
4.700000000000000011e-02 4.608415000000000150e-01 2.442695000000000061e+00 4.382730000000000103e+01 1.546184999999999945e+03
4.800000000000000100e-02 4.613645000000000107e-01 4.107639999999999958e+00 4.685134999999999650e+01 1.546930000000000064e+03
4.900000000000000189e-02 4.619429999999999925e-01 5.917900000000000382e+00 5.020264999999999844e+01 1.547769999999999982e+03
5.000000000000000278e-02 4.625655000000000183e-01 7.839430000000000121e+00 5.381024999999999636e+01 1.548694999999999936e+03
5.100000000000000366e-02 4.632174999999999487e-01 9.833178000000000196e+00 5.759914999999999452e+01 1.549684999999999945e+03
5.200000000000000455e-02 4.638849999999999918e-01 1.185745499999999986e+01 6.149250000000000682e+01 1.550724999999999909e+03
5.300000000000000544e-02 4.645555000000000101e-01 1.387030000000000030e+01 6.541469999999999629e+01 1.551784999999999854e+03
5.399999999999999939e-02 4.652165000000000328e-01 1.583230499999999985e+01 6.929510000000000502e+01 1.552849999999999909e+03
5.500000000000000028e-02 4.658575000000000355e-01 1.770919500000000113e+01 7.307205000000000439e+01 1.553904999999999973e+03
5.600000000000000117e-02 4.664709999999999690e-01 1.947330000000000183e+01 7.669570000000000221e+01 1.554934999999999945e+03
5.700000000000000205e-02 4.670524999999999816e-01 2.110460000000000136e+01 8.013024999999998954e+01 1.555930000000000064e+03
5.800000000000000294e-02 4.675979999999999581e-01 2.259140000000000015e+01 8.335509999999999309e+01 1.556875000000000000e+03
5.900000000000000383e-02 4.681100000000000261e-01 2.392920000000000158e+01 8.636424999999999841e+01 1.557775000000000091e+03
6.000000000000000472e-02 4.685894999999999921e-01 2.512049999999999983e+01 8.916519999999999868e+01 1.558625000000000000e+03
6.099999999999999867e-02 4.690400000000000125e-01 2.617340000000000089e+01 9.177674999999999272e+01 1.559424999999999955e+03
6.199999999999999956e-02 4.694675000000000376e-01 2.710014999999999930e+01 9.422630000000000905e+01 1.560180000000000064e+03
6.300000000000000044e-02 4.698769999999999891e-01 2.791615000000000180e+01 9.654749999999999943e+01 1.560904999999999973e+03
6.400000000000000133e-02 4.702755000000000130e-01 2.863840000000000074e+01 9.877664999999998940e+01 1.561595000000000027e+03
6.500000000000000222e-02 4.706685000000000452e-01 2.928490000000000038e+01 1.009505000000000052e+02 1.562269999999999982e+03
6.600000000000000311e-02 4.710615000000000219e-01 2.987299999999999756e+01 1.031038000000000068e+02 1.562934999999999945e+03
6.700000000000000400e-02 4.714595000000000313e-01 3.041859999999999786e+01 1.052665000000000077e+02 1.563599999999999909e+03
6.800000000000000488e-02 4.718650000000000344e-01 3.093524999999999991e+01 1.074615000000000009e+02 1.564265000000000100e+03
6.900000000000000577e-02 4.722809999999999508e-01 3.143305000000000149e+01 1.097059999999999889e+02 1.564940000000000055e+03
7.000000000000000666e-02 4.727075000000000027e-01 3.191855000000000331e+01 1.120049999999999955e+02 1.565630000000000109e+03
7.100000000000000755e-02 4.731440000000000090e-01 3.239385000000000048e+01 1.143569999999999993e+02 1.566324999999999818e+03
7.200000000000000844e-02 4.735860000000000070e-01 3.285699999999999932e+01 1.167485000000000070e+02 1.567034999999999854e+03
7.300000000000000933e-02 4.740309999999999802e-01 3.330214999999999748e+01 1.191589999999999918e+02 1.567744999999999891e+03
7.399999999999999634e-02 4.744730000000000336e-01 3.371999999999999886e+01 1.215610000000000070e+02 1.568460000000000036e+03
7.499999999999999722e-02 4.749054999999999804e-01 3.409895000000000209e+01 1.239200000000000017e+02 1.569159999999999854e+03
7.599999999999999811e-02 4.753220000000000223e-01 3.442555000000000121e+01 1.261990000000000123e+02 1.569845000000000027e+03
7.699999999999999900e-02 4.757164999999999866e-01 3.468614999999999782e+01 1.283605000000000018e+02 1.570500000000000000e+03
7.799999999999999989e-02 4.760815000000000463e-01 3.486754999999999427e+01 1.303679999999999950e+02 1.571119999999999891e+03
7.900000000000000078e-02 4.764119999999999466e-01 3.495770000000000266e+01 1.321879999999999882e+02 1.571684999999999945e+03
8.000000000000000167e-02 4.767040000000000166e-01 3.494674999999999443e+01 1.337920000000000016e+02 1.572194999999999936e+03
8.100000000000000255e-02 4.769535000000000302e-01 3.482770000000000010e+01 1.351589999999999918e+02 1.572644999999999982e+03
8.200000000000000344e-02 4.771589999999999998e-01 3.459644999999999726e+01 1.362750000000000057e+02 1.573025000000000091e+03
8.300000000000000433e-02 4.773184999999999789e-01 3.425230000000000530e+01 1.371330000000000098e+02 1.573340000000000146e+03
8.400000000000000522e-02 4.774340000000000250e-01 3.379784999999999684e+01 1.377345000000000255e+02 1.573575000000000045e+03
8.500000000000000611e-02 4.775059999999999860e-01 3.323890000000000100e+01 1.380894999999999868e+02 1.573750000000000000e+03
8.600000000000000699e-02 4.775389999999999358e-01 3.258415000000000106e+01 1.382129999999999939e+02 1.573849999999999909e+03
8.700000000000000788e-02 4.775355000000000016e-01 3.184495000000000076e+01 1.381274999999999977e+02 1.573884999999999991e+03
8.800000000000000877e-02 4.775010000000000643e-01 3.103470000000000084e+01 1.378594999999999970e+02 1.573869999999999891e+03
8.899999999999999578e-02 4.774410000000000043e-01 3.016834999999999667e+01 1.374384999999999764e+02 1.573809999999999945e+03
8.999999999999999667e-02 4.773605000000000209e-01 2.926180000000000092e+01 1.368979999999999961e+02 1.573699999999999818e+03
9.099999999999999756e-02 4.772644999999999804e-01 2.833124999999999716e+01 1.362704999999999984e+02 1.573565000000000055e+03
9.199999999999999845e-02 4.771600000000000286e-01 2.739269999999999783e+01 1.355885000000000105e+02 1.573405000000000200e+03
9.299999999999999933e-02 4.770510000000000028e-01 2.646110000000000184e+01 1.348824999999999932e+02 1.573230000000000018e+03
9.400000000000000022e-02 4.769430000000000058e-01 2.554999999999999716e+01 1.341804999999999950e+02 1.573049999999999955e+03
9.500000000000000111e-02 4.768394999999999717e-01 2.467085000000000150e+01 1.335064999999999884e+02 1.572865000000000009e+03
9.600000000000000200e-02 4.767430000000000279e-01 2.383290000000000219e+01 1.328799999999999955e+02 1.572690000000000055e+03
9.700000000000000289e-02 4.766565000000000385e-01 2.304260000000000019e+01 1.323135000000000048e+02 1.572525000000000091e+03
9.800000000000000377e-02 4.765804999999999625e-01 2.230369999999999919e+01 1.318170000000000073e+02 1.572375000000000000e+03
9.900000000000000466e-02 4.765165000000000095e-01 2.161704999999999899e+01 1.313925000000000125e+02 1.572244999999999891e+03
1.000000000000000056e-01 4.764630000000000254e-01 2.098089999999999833e+01 1.310380000000000109e+02 1.572130000000000109e+03
1.010000000000000064e-01 4.764180000000000081e-01 2.039110000000000156e+01 1.307464999999999975e+02 1.572029999999999973e+03
1.020000000000000073e-01 4.763810000000000544e-01 1.984134999999999849e+01 1.305064999999999884e+02 1.571940000000000055e+03
1.030000000000000082e-01 4.763479999999999936e-01 1.932375000000000043e+01 1.303045000000000186e+02 1.571869999999999891e+03
1.040000000000000091e-01 4.763165000000000315e-01 1.882929999999999993e+01 1.301229999999999905e+02 1.571799999999999955e+03
1.050000000000000100e-01 4.762844999999999995e-01 1.834825000000000017e+01 1.299445000000000050e+02 1.571735000000000127e+03
1.059999999999999970e-01 4.762480000000000047e-01 1.787079999999999913e+01 1.297514999999999930e+02 1.571670000000000073e+03
1.069999999999999979e-01 4.762045000000000305e-01 1.738759999999999906e+01 1.295264999999999986e+02 1.571599999999999909e+03
1.079999999999999988e-01 4.761515000000000608e-01 1.689014999999999844e+01 1.292540000000000191e+02 1.571515000000000100e+03
1.089999999999999997e-01 4.760870000000000379e-01 1.637109999999999843e+01 1.289214999999999804e+02 1.571424999999999955e+03
1.100000000000000006e-01 4.760094999999999743e-01 1.582484999999999964e+01 1.285190000000000055e+02 1.571309999999999945e+03
1.110000000000000014e-01 4.759185000000000221e-01 1.524770000000000181e+01 1.280414999999999850e+02 1.571174999999999955e+03
1.120000000000000023e-01 4.758135000000000003e-01 1.463779999999999859e+01 1.274850000000000136e+02 1.571030000000000200e+03
1.130000000000000032e-01 4.756960000000000077e-01 1.399568499999999993e+01 1.268525000000000063e+02 1.570860000000000127e+03
1.140000000000000041e-01 4.755665000000000031e-01 1.332370500000000035e+01 1.261500000000000057e+02 1.570664999999999964e+03
1.150000000000000050e-01 4.754270000000000440e-01 1.262641499999999795e+01 1.253859999999999957e+02 1.570460000000000036e+03
1.160000000000000059e-01 4.752800000000000358e-01 1.191001500000000135e+01 1.245745000000000005e+02 1.570240000000000009e+03
1.170000000000000068e-01 4.751279999999999948e-01 1.118226500000000101e+01 1.237299999999999898e+02 1.570005000000000109e+03
1.180000000000000077e-01 4.749749999999999805e-01 1.045212000000000074e+01 1.228700000000000045e+02 1.569769999999999982e+03
1.190000000000000085e-01 4.748229999999999951e-01 9.729224999999999568e+00 1.220134999999999934e+02 1.569525000000000091e+03
1.200000000000000094e-01 4.746765000000000012e-01 9.023709999999999454e+00 1.211790000000000020e+02 1.569289999999999964e+03
1.209999999999999964e-01 4.745384999999999742e-01 8.345430000000000348e+00 1.203864999999999981e+02 1.569059999999999945e+03
1.219999999999999973e-01 4.744114999999999860e-01 7.703915000000000290e+00 1.196514999999999986e+02 1.568845000000000027e+03
1.229999999999999982e-01 4.742984999999999562e-01 7.107609999999999317e+00 1.189904999999999973e+02 1.568650000000000091e+03
1.239999999999999991e-01 4.742014999999999425e-01 6.563855000000000217e+00 1.184164999999999992e+02 1.568470000000000027e+03
1.250000000000000000e-01 4.741215000000000290e-01 6.078260000000000218e+00 1.179389999999999930e+02 1.568320000000000164e+03
1.260000000000000009e-01 4.740599999999999814e-01 5.654720000000000191e+00 1.175644999999999953e+02 1.568190000000000055e+03
1.270000000000000018e-01 4.740170000000000217e-01 5.295234999999999914e+00 1.172955000000000041e+02 1.568090000000000146e+03
1.280000000000000027e-01 4.739915000000000100e-01 4.999859999999999971e+00 1.171310000000000002e+02 1.568014999999999873e+03
1.290000000000000036e-01 4.739840000000000164e-01 4.766779999999999795e+00 1.170655000000000001e+02 1.567974999999999909e+03
1.300000000000000044e-01 4.739915000000000100e-01 4.592489999999999739e+00 1.170919999999999987e+02 1.567954999999999927e+03
1.310000000000000053e-01 4.740125000000000033e-01 4.471964999999999968e+00 1.171995000000000005e+02 1.567965000000000146e+03
1.320000000000000062e-01 4.740450000000000497e-01 4.398950000000000138e+00 1.173754999999999882e+02 1.567985000000000127e+03
1.330000000000000071e-01 4.740860000000000074e-01 4.366295000000000037e+00 1.176055000000000064e+02 1.568034999999999854e+03
1.340000000000000080e-01 4.741330000000000267e-01 4.366215000000000401e+00 1.178739999999999952e+02 1.568090000000000146e+03
1.350000000000000089e-01 4.741830000000000211e-01 4.390684999999999505e+00 1.181659999999999968e+02 1.568150000000000091e+03
1.360000000000000098e-01 4.742340000000000444e-01 4.431680000000000064e+00 1.184664999999999964e+02 1.568224999999999909e+03
1.370000000000000107e-01 4.742835000000000245e-01 4.481539999999999857e+00 1.187614999999999981e+02 1.568299999999999955e+03
1.380000000000000115e-01 4.743295000000000150e-01 4.533139999999999503e+00 1.190384999999999991e+02 1.568369999999999891e+03
1.390000000000000124e-01 4.743694999999999995e-01 4.580144999999999911e+00 1.192864999999999895e+02 1.568434999999999945e+03
1.400000000000000133e-01 4.744034999999999780e-01 4.617144999999999833e+00 1.194969999999999999e+02 1.568494999999999891e+03
1.410000000000000142e-01 4.744294999999999485e-01 4.639764999999999695e+00 1.196634999999999991e+02 1.568545000000000073e+03
1.420000000000000151e-01 4.744469999999999521e-01 4.644734999999999836e+00 1.197820000000000107e+02 1.568579999999999927e+03
1.430000000000000160e-01 4.744559999999999889e-01 4.629894999999999428e+00 1.198504999999999967e+02 1.568605000000000018e+03
1.440000000000000169e-01 4.744564999999999477e-01 4.594149999999999956e+00 1.198689999999999998e+02 1.568619999999999891e+03
1.450000000000000178e-01 4.744494999999999685e-01 4.537455000000000460e+00 1.198389999999999986e+02 1.568619999999999891e+03
1.459999999999999909e-01 4.744350000000000511e-01 4.460650000000000226e+00 1.197650000000000006e+02 1.568605000000000018e+03
1.469999999999999918e-01 4.744134999999999880e-01 4.365380000000000038e+00 1.196504999999999939e+02 1.568579999999999927e+03
1.479999999999999927e-01 4.743870000000000031e-01 4.253929999999999545e+00 1.195010000000000048e+02 1.568550000000000182e+03
1.489999999999999936e-01 4.743559999999999999e-01 4.129084999999999894e+00 1.193234999999999957e+02 1.568509999999999991e+03
1.499999999999999944e-01 4.743214999999999515e-01 3.993934999999999569e+00 1.191244999999999976e+02 1.568460000000000036e+03
1.509999999999999953e-01 4.742849999999999566e-01 3.851745000000000196e+00 1.189099999999999966e+02 1.568405000000000200e+03
1.519999999999999962e-01 4.742469999999999741e-01 3.705759999999999721e+00 1.186854999999999905e+02 1.568349999999999909e+03
1.529999999999999971e-01 4.742089999999999916e-01 3.559089999999999865e+00 1.184579999999999984e+02 1.568289999999999964e+03
1.539999999999999980e-01 4.741714999999999680e-01 3.414564999999999628e+00 1.182309999999999945e+02 1.568224999999999909e+03
1.549999999999999989e-01 4.741345000000000143e-01 3.274630000000000152e+00 1.180090000000000003e+02 1.568164999999999964e+03
1.559999999999999998e-01 4.740990000000000482e-01 3.141284999999999883e+00 1.177934999999999945e+02 1.568109999999999900e+03
1.570000000000000007e-01 4.740649999999999586e-01 3.016040000000000276e+00 1.175870000000000033e+02 1.568049999999999955e+03
1.580000000000000016e-01 4.740330000000000377e-01 2.899865000000000137e+00 1.173900000000000006e+02 1.567994999999999891e+03
1.590000000000000024e-01 4.740019999999999789e-01 2.793270000000000142e+00 1.172009999999999934e+02 1.567934999999999945e+03
