# t [s], A [cm^2], U [cm/s], P [cPa], c [cm/s]
1.000000000000000021e-03 1.203439999999999926e-01 2.488785000000000025e-01 9.573635000000000161e+01 1.844990000000000009e+03
2.000000000000000042e-03 1.203260000000000024e-01 1.659628000000000103e+00 9.297095000000000198e+01 1.844755000000000109e+03
3.000000000000000062e-03 1.202539999999999998e-01 3.409391000000000282e+00 8.933769999999999811e+01 1.843875000000000000e+03
4.000000000000000083e-03 1.201440000000000008e-01 5.357174900000000406e+00 8.521414999999998940e+01 1.842554999999999836e+03
5.000000000000000104e-03 1.200149999999999967e-01 7.455015000000000391e+00 8.124635000000000673e+01 1.841025000000000091e+03
6.000000000000000125e-03 1.198815000000000019e-01 9.613855000000000928e+00 7.780844999999999345e+01 1.839454999999999927e+03
7.000000000000000146e-03 1.197525000000000117e-01 1.169249999999999901e+01 7.491190000000000282e+01 1.837954999999999927e+03
8.000000000000000167e-03 1.196294999999999997e-01 1.356862999999999886e+01 7.237199999999999989e+01 1.836545000000000073e+03
9.000000000000001055e-03 1.195144999999999957e-01 1.520592500000000058e+01 7.007484999999999786e+01 1.835250000000000000e+03
1.000000000000000194e-02 1.194100000000000023e-01 1.662654999999999816e+01 6.804425000000000523e+01 1.834090000000000146e+03
1.099999999999999936e-02 1.193184999999999940e-01 1.785269999999999868e+01 6.631880000000001019e+01 1.833074999999999818e+03
1.200000000000000025e-02 1.192394999999999983e-01 1.889470000000000027e+01 6.488809999999999434e+01 1.832215000000000146e+03
1.300000000000000114e-02 1.191730000000000012e-01 1.976010000000000133e+01 6.371354999999999791e+01 1.831490000000000009e+03
1.400000000000000203e-02 1.191170000000000007e-01 2.045385000000000275e+01 6.274195000000000277e+01 1.830894999999999982e+03
1.499999999999999944e-02 1.190699999999999953e-01 2.097979999999999734e+01 6.190725000000000477e+01 1.830394999999999982e+03
1.600000000000000033e-02 1.190294999999999964e-01 2.135679999999999978e+01 6.116365000000000407e+01 1.829974999999999909e+03
1.700000000000000122e-02 1.189960000000000045e-01 2.163564999999999827e+01 6.054075000000000273e+01 1.829630000000000109e+03
1.800000000000000211e-02 1.189700000000000063e-01 2.189649999999999963e+01 6.016344999999999743e+01 1.829375000000000000e+03
1.900000000000000300e-02 1.189560000000000062e-01 2.222370000000000090e+01 6.020739999999999981e+01 1.829235000000000127e+03
2.000000000000000042e-02 1.189574999999999938e-01 2.267264999999999731e+01 6.081220000000000425e+01 1.829259999999999991e+03
2.100000000000000130e-02 1.189749999999999974e-01 2.324815000000000254e+01 6.200234999999999985e+01 1.829465000000000146e+03
2.200000000000000219e-02 1.190085000000000170e-01 2.390295000000000059e+01 6.365774999999999295e+01 1.829829999999999927e+03
2.299999999999999961e-02 1.190530000000000060e-01 2.455450000000000088e+01 6.554045000000000698e+01 1.830324999999999818e+03
2.400000000000000050e-02 1.191019999999999995e-01 2.511214999999999975e+01 6.736230000000000473e+01 1.830884999999999991e+03
2.500000000000000139e-02 1.191500000000000059e-01 2.550270000000000081e+01 6.886279999999999291e+01 1.831424999999999955e+03
2.600000000000000228e-02 1.191905000000000048e-01 2.568759999999999977e+01 6.987115000000000009e+01 1.831889999999999873e+03
2.700000000000000316e-02 1.192209999999999936e-01 2.566835000000000022e+01 7.033719999999999573e+01 1.832240000000000009e+03
2.800000000000000058e-02 1.192384999999999973e-01 2.547935000000000016e+01 7.032470000000000709e+01 1.832460000000000036e+03
2.900000000000000147e-02 1.192460000000000048e-01 2.517364999999999853e+01 6.997550000000001091e+01 1.832565000000000055e+03
3.000000000000000236e-02 1.192455000000000043e-01 2.480534999999999712e+01 6.945765000000000100e+01 1.832569999999999936e+03
3.099999999999999978e-02 1.192404999999999993e-01 2.441525000000000034e+01 6.891634999999999422e+01 1.832529999999999973e+03
3.200000000000000067e-02 1.192334999999999923e-01 2.402315000000000111e+01 6.843954999999999700e+01 1.832454999999999927e+03
3.300000000000000155e-02 1.192259999999999986e-01 2.362729999999999819e+01 6.804654999999999632e+01 1.832375000000000000e+03
3.400000000000000244e-02 1.192185000000000050e-01 2.321095000000000041e+01 6.769835000000000491e+01 1.832289999999999964e+03
3.500000000000000333e-02 1.192090000000000094e-01 2.275175000000000125e+01 6.732310000000001082e+01 1.832194999999999936e+03
3.600000000000000422e-02 1.191979999999999984e-01 2.223245000000000005e+01 6.684820000000000562e+01 1.832075000000000045e+03
3.700000000000000511e-02 1.191829999999999973e-01 2.164939999999999998e+01 6.622944999999999993e+01 1.831914999999999964e+03
3.799999999999999906e-02 1.191644999999999927e-01 2.101699999999999946e+01 6.547074999999999534e+01 1.831715000000000146e+03
3.899999999999999994e-02 1.191424999999999845e-01 2.036719999999999686e+01 6.462919999999999732e+01 1.831480000000000018e+03
4.000000000000000083e-02 1.191195000000000032e-01 1.974449999999999861e+01 6.380610000000000070e+01 1.831224999999999909e+03
4.100000000000000172e-02 1.190975000000000089e-01 1.919744999999999990e+01 6.312575000000000358e+01 1.830985000000000127e+03
4.200000000000000261e-02 1.190795000000000048e-01 1.876899999999999835e+01 6.270805000000000007e+01 1.830784999999999854e+03
4.300000000000000350e-02 1.190689999999999943e-01 1.848785000000000167e+01 6.264215000000000089e+01 1.830664999999999964e+03
4.400000000000000439e-02 1.190674999999999928e-01 1.836349999999999838e+01 6.296674999999999756e+01 1.830639999999999873e+03
4.499999999999999833e-02 1.190759999999999874e-01 1.838394999999999868e+01 6.366140000000000043e+01 1.830720000000000027e+03
4.599999999999999922e-02 1.190940000000000054e-01 1.851839999999999975e+01 6.464959999999999241e+01 1.830910000000000082e+03
4.700000000000000011e-02 1.191190000000000027e-01 1.872230000000000061e+01 6.581199999999999761e+01 1.831174999999999955e+03
4.800000000000000100e-02 1.191490000000000049e-01 1.894425000000000026e+01 6.700560000000000116e+01 1.831500000000000000e+03
4.900000000000000189e-02 1.191799999999999943e-01 1.913279999999999959e+01 6.808539999999999281e+01 1.831835000000000036e+03
5.000000000000000278e-02 1.192084999999999950e-01 1.924269999999999925e+01 6.892289999999999850e+01 1.832144999999999982e+03
5.100000000000000366e-02 1.192304999999999893e-01 1.923894999999999911e+01 6.942079999999999984e+01 1.832400000000000091e+03
5.200000000000000455e-02 1.192445000000000033e-01 1.909895000000000209e+01 6.952009999999999934e+01 1.832555000000000064e+03
5.300000000000000544e-02 1.192485000000000073e-01 1.881260000000000332e+01 6.920135000000000502e+01 1.832605000000000018e+03
5.399999999999999939e-02 1.192415000000000003e-01 1.838094999999999857e+01 6.848005000000000564e+01 1.832534999999999854e+03
5.500000000000000028e-02 1.192235000000000100e-01 1.781370000000000076e+01 6.739830000000000609e+01 1.832349999999999909e+03
5.600000000000000117e-02 1.191954999999999959e-01 1.712665000000000148e+01 6.601539999999999964e+01 1.832039999999999964e+03
5.700000000000000205e-02 1.191580000000000000e-01 1.633915000000000006e+01 6.439834999999999354e+01 1.831639999999999873e+03
5.800000000000000294e-02 1.191134999999999972e-01 1.547204999999999941e+01 6.261489999999999867e+01 1.831150000000000091e+03
5.900000000000000383e-02 1.190630000000000022e-01 1.454690000000000083e+01 6.072874999999999801e+01 1.830595000000000027e+03
6.000000000000000472e-02 1.190090000000000037e-01 1.358524999999999849e+01 5.879775000000000063e+01 1.830000000000000000e+03
6.099999999999999867e-02 1.189515000000000156e-01 1.260888500000000079e+01 5.687395000000000067e+01 1.829375000000000000e+03
6.199999999999999956e-02 1.188939999999999997e-01 1.164000500000000038e+01 5.500560000000000116e+01 1.828735000000000127e+03
6.300000000000000044e-02 1.188364999999999838e-01 1.070166000000000039e+01 5.323924999999999841e+01 1.828094999999999800e+03
6.400000000000000133e-02 1.187809999999999977e-01 9.817985000000000184e+00 5.162144999999999584e+01 1.827485000000000127e+03
6.500000000000000222e-02 1.187300000000000022e-01 9.013954999999999274e+00 5.020020000000000238e+01 1.826914999999999964e+03
6.600000000000000311e-02 1.186834999999999973e-01 8.314885000000000304e+00 4.902420000000000044e+01 1.826400000000000091e+03
6.700000000000000400e-02 1.186439999999999995e-01 7.745694999999999553e+00 4.814235000000000042e+01 1.825960000000000036e+03
6.800000000000000488e-02 1.186135000000000106e-01 7.329625000000000057e+00 4.760094999999999743e+01 1.825610000000000127e+03
6.900000000000000577e-02 1.185914999999999886e-01 7.087245000000000239e+00 4.744119999999999493e+01 1.825364999999999782e+03
7.000000000000000666e-02 1.185819999999999930e-01 7.035194999999999865e+00 4.769630000000000081e+01 1.825240000000000009e+03
7.100000000000000755e-02 1.185839999999999950e-01 7.185234999999999594e+00 4.838904999999999745e+01 1.825255000000000109e+03
7.200000000000000844e-02 1.185994999999999966e-01 7.543574999999999697e+00 4.952949999999999875e+01 1.825405000000000200e+03
7.300000000000000933e-02 1.186279999999999973e-01 8.110500000000000043e+00 5.111469999999999914e+01 1.825710000000000036e+03
7.399999999999999634e-02 1.186705000000000121e-01 8.880404999999999660e+00 5.312785000000000224e+01 1.826154999999999973e+03
7.499999999999999722e-02 1.187254999999999977e-01 9.842220000000001079e+00 5.553995000000000459e+01 1.826755000000000109e+03
7.599999999999999811e-02 1.187934999999999963e-01 1.098000000000000043e+01 5.831114999999999782e+01 1.827485000000000127e+03
7.699999999999999900e-02 1.188730000000000064e-01 1.227374000000000009e+01 6.139350000000000307e+01 1.828349999999999909e+03
7.799999999999999989e-02 1.189624999999999988e-01 1.370064999999999955e+01 6.473314999999999486e+01 1.829329999999999927e+03
7.900000000000000078e-02 1.190610000000000002e-01 1.523610000000000042e+01 6.827384999999999593e+01 1.830414999999999964e+03
8.000000000000000167e-02 1.191669999999999952e-01 1.685480000000000089e+01 7.195945000000000391e+01 1.831575000000000045e+03
8.100000000000000255e-02 1.192779999999999951e-01 1.853180000000000049e+01 7.573644999999999072e+01 1.832804999999999836e+03
8.200000000000000344e-02 1.193935000000000135e-01 2.024349999999999739e+01 7.955670000000000641e+01 1.834085000000000036e+03
8.300000000000000433e-02 1.195115000000000066e-01 2.196869999999999834e+01 8.337890000000000157e+01 1.835400000000000091e+03
8.400000000000000522e-02 1.196310000000000012e-01 2.368894999999999840e+01 8.716989999999999839e+01 1.836730000000000018e+03
8.500000000000000611e-02 1.197509999999999963e-01 2.538889999999999958e+01 9.090549999999998931e+01 1.838070000000000164e+03
8.600000000000000699e-02 1.198704999999999909e-01 2.705700000000000216e+01 9.457054999999999723e+01 1.839409999999999854e+03
8.700000000000000788e-02 1.199890000000000123e-01 2.868475000000000108e+01 9.815725000000000477e+01 1.840740000000000009e+03
8.800000000000000877e-02 1.201055000000000039e-01 3.026709999999999923e+01 1.016671000000000049e+02 1.842059999999999945e+03
8.899999999999999578e-02 1.202209999999999945e-01 3.180160000000000053e+01 1.051054499999999905e+02 1.843360000000000127e+03
8.999999999999999667e-02 1.203345000000000109e-01 3.328804999999999836e+01 1.084825000000000017e+02 1.844644999999999982e+03
9.099999999999999756e-02 1.204469999999999985e-01 3.472769999999999868e+01 1.118110000000000070e+02 1.845920000000000073e+03
9.199999999999999845e-02 1.205584999999999990e-01 3.612290000000000134e+01 1.151024999999999920e+02 1.847179999999999836e+03
9.299999999999999933e-02 1.206679999999999975e-01 3.747615000000000407e+01 1.183689999999999998e+02 1.848430000000000064e+03
9.400000000000000022e-02 1.207779999999999965e-01 3.878974999999999795e+01 1.216200000000000045e+02 1.849675000000000182e+03
9.500000000000000111e-02 1.208864999999999940e-01 4.006534999999999513e+01 1.248594999999999970e+02 1.850920000000000073e+03
9.600000000000000200e-02 1.209955000000000058e-01 4.130370000000000630e+01 1.280885000000000105e+02 1.852154999999999973e+03
9.700000000000000289e-02 1.211029999999999884e-01 4.250414999999999566e+01 1.313050000000000068e+02 1.853389999999999873e+03
9.800000000000000377e-02 1.212109999999999854e-01 4.366499999999999915e+01 1.345000000000000000e+02 1.854615000000000009e+03
9.900000000000000466e-02 1.213174999999999948e-01 4.478310000000000457e+01 1.376630000000000109e+02 1.855845000000000027e+03
1.000000000000000056e-01 1.214235000000000037e-01 4.585434999999999661e+01 1.407789999999999964e+02 1.857054999999999836e+03
1.010000000000000064e-01 1.215275000000000105e-01 4.687355000000000160e+01 1.438304999999999723e+02 1.858255000000000109e+03
1.020000000000000073e-01 1.216300000000000020e-01 4.783490000000000464e+01 1.467994999999999948e+02 1.859429999999999836e+03
1.030000000000000082e-01 1.217299999999999910e-01 4.873184999999999434e+01 1.496664999999999850e+02 1.860579999999999927e+03
1.040000000000000091e-01 1.218265000000000042e-01 4.955790000000000362e+01 1.524120000000000061e+02 1.861694999999999936e+03
1.050000000000000100e-01 1.219195000000000140e-01 5.030630000000000024e+01 1.550155000000000030e+02 1.862764999999999873e+03
1.059999999999999970e-01 1.220085000000000058e-01 5.097079999999999700e+01 1.574594999999999914e+02 1.863795000000000073e+03
1.069999999999999979e-01 1.220925000000000066e-01 5.154540000000000077e+01 1.597280000000000086e+02 1.864769999999999982e+03
1.079999999999999988e-01 1.221715000000000023e-01 5.202505000000000024e+01 1.618064999999999998e+02 1.865680000000000064e+03
1.089999999999999997e-01 1.222445000000000059e-01 5.240550000000000352e+01 1.636839999999999975e+02 1.866534999999999854e+03
1.100000000000000006e-01 1.223114999999999897e-01 5.268375000000000341e+01 1.653509999999999991e+02 1.867309999999999945e+03
1.110000000000000014e-01 1.223719999999999947e-01 5.285800000000000409e+01 1.668025000000000091e+02 1.868014999999999873e+03
1.120000000000000023e-01 1.224255000000000065e-01 5.292790000000000106e+01 1.680364999999999895e+02 1.868650000000000091e+03
1.130000000000000032e-01 1.224719999999999975e-01 5.289475000000000193e+01 1.690540000000000020e+02 1.869200000000000045e+03
1.140000000000000041e-01 1.225124999999999964e-01 5.276120000000000232e+01 1.698600000000000136e+02 1.869674999999999955e+03
1.150000000000000050e-01 1.225459999999999883e-01 5.253170000000000073e+01 1.704635000000000105e+02 1.870069999999999936e+03
1.160000000000000059e-01 1.225725000000000009e-01 5.221200000000000330e+01 1.708754999999999882e+02 1.870389999999999873e+03
1.170000000000000068e-01 1.225934999999999941e-01 5.180924999999999869e+01 1.711109999999999900e+02 1.870644999999999982e+03
1.180000000000000077e-01 1.226084999999999953e-01 5.133174999999999955e+01 1.711875000000000000e+02 1.870820000000000164e+03
1.190000000000000085e-01 1.226180000000000048e-01 5.078860000000000241e+01 1.711225000000000023e+02 1.870945000000000164e+03
1.200000000000000094e-01 1.226229999999999959e-01 5.018965000000000032e+01 1.709364999999999952e+02 1.871005000000000109e+03
1.209999999999999964e-01 1.226230000000000098e-01 4.954495000000000005e+01 1.706499999999999773e+02 1.871019999999999982e+03
1.219999999999999973e-01 1.226200000000000068e-01 4.886449999999999960e+01 1.702830000000000155e+02 1.870990000000000009e+03
1.229999999999999982e-01 1.226134999999999864e-01 4.815800000000000125e+01 1.698539999999999850e+02 1.870924999999999955e+03
1.239999999999999991e-01 1.226045000000000051e-01 4.743455000000000155e+01 1.693810000000000002e+02 1.870825000000000045e+03
1.250000000000000000e-01 1.225940000000000085e-01 4.670250000000000057e+01 1.688785000000000025e+02 1.870704999999999927e+03
1.260000000000000009e-01 1.225814999999999960e-01 4.596900000000000119e+01 1.683594999999999970e+02 1.870565000000000055e+03
1.270000000000000018e-01 1.225680000000000103e-01 4.524009999999999820e+01 1.678350000000000080e+02 1.870414999999999964e+03
1.280000000000000027e-01 1.225539999999999963e-01 4.452060000000000173e+01 1.673114999999999952e+02 1.870255000000000109e+03
1.290000000000000036e-01 1.225394999999999956e-01 4.381390000000000384e+01 1.667934999999999945e+02 1.870079999999999927e+03
1.300000000000000044e-01 1.225244999999999945e-01 4.312194999999999823e+01 1.662835000000000036e+02 1.869904999999999973e+03
1.310000000000000053e-01 1.225090000000000068e-01 4.244565000000000055e+01 1.657785000000000082e+02 1.869730000000000018e+03
1.320000000000000062e-01 1.224935000000000052e-01 4.178459999999999752e+01 1.652775000000000034e+02 1.869554999999999836e+03
1.330000000000000071e-01 1.224780000000000035e-01 4.113729999999999620e+01 1.647744999999999891e+02 1.869375000000000000e+03
1.340000000000000080e-01 1.224620000000000153e-01 4.050140000000000384e+01 1.642624999999999886e+02 1.869190000000000055e+03
1.350000000000000089e-01 1.224454999999999988e-01 3.987394999999999357e+01 1.637334999999999923e+02 1.868994999999999891e+03
1.360000000000000098e-01 1.224290000000000100e-01 3.925130000000000052e+01 1.631795000000000186e+02 1.868795000000000073e+03
1.370000000000000107e-01 1.224114999999999925e-01 3.862955000000000183e+01 1.625919999999999845e+02 1.868590000000000146e+03
1.380000000000000115e-01 1.223925000000000013e-01 3.800475000000000136e+01 1.619619999999999891e+02 1.868375000000000000e+03
1.390000000000000124e-01 1.223720000000000085e-01 3.737300000000000466e+01 1.612814999999999941e+02 1.868139999999999873e+03
1.400000000000000133e-01 1.223505000000000009e-01 3.673069999999999879e+01 1.605440000000000111e+02 1.867884999999999991e+03
1.410000000000000142e-01 1.223265000000000047e-01 3.607469999999999999e+01 1.597429999999999950e+02 1.867615000000000009e+03
1.420000000000000151e-01 1.223014999999999936e-01 3.540245000000000175e+01 1.588760000000000048e+02 1.867325000000000045e+03
1.430000000000000160e-01 1.222740000000000077e-01 3.471219999999999573e+01 1.579395000000000095e+02 1.867005000000000109e+03
1.440000000000000169e-01 1.222445000000000059e-01 3.400300000000000011e+01 1.569339999999999975e+02 1.866664999999999964e+03
1.450000000000000178e-01 1.222125000000000017e-01 3.327479999999999905e+01 1.558609999999999900e+02 1.866305000000000064e+03
1.459999999999999909e-01 1.221789999999999959e-01 3.252864999999999895e+01 1.547255000000000109e+02 1.865914999999999964e+03
1.469999999999999918e-01 1.221430000000000016e-01 3.176635000000000275e+01 1.535320000000000107e+02 1.865505000000000109e+03
1.479999999999999927e-01 1.221059999999999923e-01 3.099074999999999847e+01 1.522899999999999920e+02 1.865075000000000045e+03
1.489999999999999936e-01 1.220664999999999945e-01 3.020550000000000068e+01 1.510085000000000264e+02 1.864625000000000000e+03
1.499999999999999944e-01 1.220259999999999956e-01 2.941499999999999915e+01 1.496990000000000123e+02 1.864164999999999964e+03
1.509999999999999953e-01 1.219849999999999962e-01 2.862429999999999808e+01 1.483739999999999952e+02 1.863684999999999945e+03
1.519999999999999962e-01 1.219425000000000092e-01 2.783894999999999698e+01 1.470459999999999923e+02 1.863199999999999818e+03
1.529999999999999971e-01 1.218999999999999945e-01 2.706475000000000009e+01 1.457289999999999850e+02 1.862714999999999918e+03
1.539999999999999980e-01 1.218579999999999941e-01 2.630744999999999933e+01 1.444370000000000118e+02 1.862230000000000018e+03
1.549999999999999989e-01 1.218160000000000076e-01 2.557290000000000063e+01 1.431820000000000164e+02 1.861750000000000000e+03
1.559999999999999998e-01 1.217749999999999944e-01 2.486664999999999992e+01 1.419770000000000039e+02 1.861280000000000200e+03
1.570000000000000007e-01 1.217354999999999965e-01 2.419359999999999999e+01 1.408324999999999818e+02 1.860825000000000045e+03
1.580000000000000016e-01 1.216975000000000001e-01 2.355825000000000102e+01 1.397574999999999932e+02 1.860389999999999873e+03
1.590000000000000024e-01 1.216615000000000058e-01 2.296415000000000006e+01 1.387595000000000027e+02 1.859974999999999909e+03
