# t [s], A [cm^2], U [cm/s], P [cPa], c [cm/s]
1.000000000000000021e-03 1.432765000000000011e-01 2.463615000000000110e-01 9.043149999999999977e+01 1.979710000000000036e+03
2.000000000000000042e-03 1.432534999999999781e-01 1.550100000000000033e+00 8.768690000000000850e+01 1.979465000000000146e+03
3.000000000000000062e-03 1.431740000000000235e-01 3.163858499999999907e+00 8.402424999999999500e+01 1.978650000000000091e+03
4.000000000000000083e-03 1.430565000000000031e-01 4.967974250000000147e+00 7.992785000000000650e+01 1.977469999999999800e+03
5.000000000000000104e-03 1.429219999999999935e-01 6.915750000000000064e+00 7.607720000000000482e+01 1.976125000000000000e+03
6.000000000000000125e-03 1.427860000000000240e-01 8.904799999999999827e+00 7.281319999999999482e+01 1.974784999999999854e+03
7.000000000000000146e-03 1.426560000000000050e-01 1.078067000000000064e+01 7.006704999999999472e+01 1.973514999999999873e+03
8.000000000000000167e-03 1.425325000000000064e-01 1.243516499999999958e+01 6.762299999999999045e+01 1.972329999999999927e+03
9.000000000000001055e-03 1.424185000000000034e-01 1.385960999999999999e+01 6.541769999999999641e+01 1.971255000000000109e+03
1.000000000000000194e-02 1.423174999999999857e-01 1.508364999999999867e+01 6.351059999999999661e+01 1.970309999999999945e+03
1.099999999999999936e-02 1.422304999999999819e-01 1.612349999999999994e+01 6.192719999999999914e+01 1.969505000000000109e+03
1.200000000000000025e-02 1.421564999999999912e-01 1.698445000000000249e+01 6.063445000000000107e+01 1.968825000000000045e+03
1.300000000000000114e-02 1.420949999999999991e-01 1.766854999999999976e+01 5.957005000000000194e+01 1.968269999999999982e+03
1.400000000000000203e-02 1.420434999999999892e-01 1.817510000000000048e+01 5.865194999999999936e+01 1.967805000000000064e+03
1.499999999999999944e-02 1.419984999999999997e-01 1.851764999999999972e+01 5.781239999999999668e+01 1.967410000000000082e+03
1.600000000000000033e-02 1.419600000000000029e-01 1.874654999999999916e+01 5.707059999999999889e+01 1.967075000000000045e+03
1.700000000000000122e-02 1.419300000000000006e-01 1.895110000000000028e+01 5.657254999999999967e+01 1.966820000000000164e+03
1.800000000000000211e-02 1.419135000000000257e-01 1.923019999999999996e+01 5.654120000000000346e+01 1.966679999999999836e+03
1.900000000000000300e-02 1.419139999999999846e-01 1.965075000000000216e+01 5.716075000000000017e+01 1.966700000000000045e+03
2.000000000000000042e-02 1.419349999999999778e-01 2.021900000000000119e+01 5.846930000000000405e+01 1.966900000000000091e+03
2.100000000000000130e-02 1.419745000000000035e-01 2.087890000000000157e+01 6.031835000000000235e+01 1.967264999999999873e+03
2.200000000000000219e-02 1.420265000000000000e-01 2.153454999999999941e+01 6.241264999999999930e+01 1.967755000000000109e+03
2.299999999999999961e-02 1.420834999999999737e-01 2.208384999999999820e+01 6.440210000000000434e+01 1.968289999999999964e+03
2.400000000000000050e-02 1.421370000000000133e-01 2.244885000000000019e+01 6.598414999999999964e+01 1.968805000000000064e+03
2.500000000000000139e-02 1.421810000000000018e-01 2.259465000000000146e+01 6.697925000000000750e+01 1.969230000000000018e+03
2.600000000000000228e-02 1.422114999999999907e-01 2.253139999999999787e+01 6.735900000000000887e+01 1.969534999999999854e+03
2.700000000000000316e-02 1.422279999999999933e-01 2.230295000000000272e+01 6.722620000000000573e+01 1.969704999999999927e+03
2.800000000000000058e-02 1.422324999999999839e-01 2.196705000000000041e+01 6.675884999999999536e+01 1.969764999999999873e+03
2.900000000000000147e-02 1.422289999999999943e-01 2.157560000000000144e+01 6.614305000000000234e+01 1.969740000000000009e+03
3.000000000000000236e-02 1.422204999999999997e-01 2.116075000000000017e+01 6.551670000000000016e+01 1.969670000000000073e+03
3.099999999999999978e-02 1.422100000000000031e-01 2.073015000000000185e+01 6.493975000000000364e+01 1.969569999999999936e+03
3.200000000000000067e-02 1.421970000000000178e-01 2.027185000000000059e+01 6.439594999999999914e+01 1.969465000000000146e+03
3.300000000000000155e-02 1.421830000000000038e-01 1.976445000000000007e+01 6.381910000000000593e+01 1.969329999999999927e+03
3.400000000000000244e-02 1.421649999999999858e-01 1.919040000000000035e+01 6.313250000000000739e+01 1.969174999999999955e+03
3.500000000000000333e-02 1.421435000000000060e-01 1.854639999999999844e+01 6.228820000000000334e+01 1.968970000000000027e+03
3.600000000000000422e-02 1.421164999999999790e-01 1.784955000000000069e+01 6.129375000000000284e+01 1.968730000000000018e+03
3.700000000000000511e-02 1.420865000000000045e-01 1.713739999999999952e+01 6.022114999999999441e+01 1.968454999999999927e+03
3.799999999999999906e-02 1.420555000000000012e-01 1.646099999999999852e+01 5.919474999999999909e+01 1.968164999999999964e+03
3.899999999999999994e-02 1.420265000000000000e-01 1.587470000000000070e+01 5.836359999999999815e+01 1.967900000000000091e+03
4.000000000000000083e-02 1.420035000000000047e-01 1.542474999999999952e+01 5.786570000000000391e+01 1.967680000000000064e+03
4.100000000000000172e-02 1.419904999999999917e-01 1.513885000000000147e+01 5.779460000000000264e+01 1.967549999999999955e+03
4.200000000000000261e-02 1.419890000000000041e-01 1.502115000000000045e+01 5.817735000000000412e+01 1.967529999999999973e+03
4.300000000000000350e-02 1.419995000000000007e-01 1.505140000000000100e+01 5.896675000000000466e+01 1.967610000000000127e+03
4.400000000000000439e-02 1.420200000000000073e-01 1.518934999999999924e+01 6.005100000000000193e+01 1.967795000000000073e+03
4.499999999999999833e-02 1.420485000000000220e-01 1.538204999999999956e+01 6.127434999999999832e+01 1.968055000000000064e+03
4.599999999999999922e-02 1.420804999999999985e-01 1.557235000000000014e+01 6.246385000000000076e+01 1.968344999999999800e+03
4.700000000000000011e-02 1.421120000000000161e-01 1.570694999999999908e+01 6.345664999999999623e+01 1.968634999999999991e+03
4.800000000000000100e-02 1.421385000000000010e-01 1.574269999999999925e+01 6.412104999999999677e+01 1.968875000000000000e+03
4.900000000000000189e-02 1.421560000000000046e-01 1.564959999999999951e+01 6.436969999999999459e+01 1.969045000000000073e+03
5.000000000000000278e-02 1.421629999999999838e-01 1.541179999999999950e+01 6.416339999999999577e+01 1.969115000000000009e+03
5.100000000000000366e-02 1.421570000000000056e-01 1.502629999999999910e+01 6.350699999999999790e+01 1.969070000000000164e+03
5.200000000000000455e-02 1.421390000000000153e-01 1.450015000000000143e+01 6.243944999999999368e+01 1.968904999999999973e+03
5.300000000000000544e-02 1.421094999999999997e-01 1.384720000000000084e+01 6.102174999999999727e+01 1.968639999999999873e+03
5.399999999999999939e-02 1.420695000000000152e-01 1.308539999999999992e+01 5.932495000000000118e+01 1.968269999999999982e+03
5.500000000000000028e-02 1.420200000000000073e-01 1.223456000000000010e+01 5.742154999999999632e+01 1.967815000000000055e+03
5.600000000000000117e-02 1.419634999999999925e-01 1.131525500000000051e+01 5.537959999999999638e+01 1.967295000000000073e+03
5.700000000000000205e-02 1.419020000000000004e-01 1.034850499999999940e+01 5.326075000000000159e+01 1.966720000000000027e+03
5.800000000000000294e-02 1.418360000000000176e-01 9.356180000000000163e+00 5.112165000000000248e+01 1.966110000000000127e+03
5.900000000000000383e-02 1.417694999999999927e-01 8.361345000000000027e+00 4.901624999999999943e+01 1.965490000000000009e+03
6.000000000000000472e-02 1.417025000000000090e-01 7.389054999999999929e+00 4.699880000000000280e+01 1.964869999999999891e+03
6.099999999999999867e-02 1.416374999999999995e-01 6.466180000000000483e+00 4.512599999999999767e+01 1.964259999999999991e+03
6.199999999999999956e-02 1.415764999999999940e-01 5.621154999999999902e+00 4.345785000000000053e+01 1.963684999999999945e+03
6.300000000000000044e-02 1.415215000000000223e-01 4.883189999999999920e+00 4.205669999999999931e+01 1.963164999999999964e+03
6.400000000000000133e-02 1.414739999999999887e-01 4.280969999999999942e+00 4.098460000000000036e+01 1.962720000000000027e+03
6.500000000000000222e-02 1.414364999999999928e-01 3.841140000000000221e+00 4.030015000000000214e+01 1.962365000000000009e+03
6.600000000000000311e-02 1.414104999999999945e-01 3.586755000000000138e+00 4.005395000000000039e+01 1.962110000000000127e+03
6.700000000000000400e-02 1.413979999999999959e-01 3.535895000000000010e+00 4.028515000000000157e+01 1.961980000000000018e+03
6.800000000000000488e-02 1.413999999999999979e-01 3.700555000000000039e+00 4.101824999999999477e+01 1.961989999999999782e+03
6.900000000000000577e-02 1.414179999999999882e-01 4.085944999999999716e+00 4.226094999999999402e+01 1.962134999999999991e+03
7.000000000000000666e-02 1.414509999999999934e-01 4.690310000000000201e+00 4.400379999999999825e+01 1.962434999999999945e+03
7.100000000000000755e-02 1.415005000000000013e-01 5.505129999999999413e+00 4.622050000000000125e+01 1.962875000000000000e+03
7.200000000000000844e-02 1.415644999999999820e-01 6.515800000000000480e+00 4.887030000000000030e+01 1.963460000000000036e+03
7.300000000000000933e-02 1.416429999999999911e-01 7.702640000000000597e+00 5.190054999999999552e+01 1.964175000000000182e+03
7.399999999999999634e-02 1.417335000000000123e-01 9.041995000000000005e+00 5.525029999999999575e+01 1.965009999999999991e+03
7.499999999999999722e-02 1.418355000000000032e-01 1.050774000000000008e+01 5.885410000000000252e+01 1.965949999999999818e+03
7.599999999999999811e-02 1.419469999999999898e-01 1.207269499999999951e+01 6.264594999999999914e+01 1.966980000000000018e+03
7.699999999999999900e-02 1.420649999999999968e-01 1.370974999999999966e+01 6.656274999999999409e+01 1.968079999999999927e+03
7.799999999999999989e-02 1.421880000000000088e-01 1.539329999999999998e+01 7.054760000000000275e+01 1.969224999999999909e+03
7.900000000000000078e-02 1.423154999999999837e-01 1.710030000000000072e+01 7.455215000000001169e+01 1.970414999999999964e+03
8.000000000000000167e-02 1.424445000000000017e-01 1.881070000000000064e+01 7.853804999999999836e+01 1.971630000000000109e+03
8.100000000000000255e-02 1.425744999999999929e-01 2.050820000000000221e+01 8.247785000000000366e+01 1.972849999999999909e+03
8.200000000000000344e-02 1.427045000000000119e-01 2.218025000000000091e+01 8.635470000000000823e+01 1.974075000000000045e+03
8.300000000000000433e-02 1.428335000000000021e-01 2.381790000000000163e+01 9.016145000000000209e+01 1.975289999999999964e+03
8.400000000000000522e-02 1.429615000000000191e-01 2.541539999999999822e+01 9.389850000000001273e+01 1.976505000000000109e+03
8.500000000000000611e-02 1.430879999999999930e-01 2.696959999999999980e+01 9.757249999999999091e+01 1.977704999999999927e+03
8.600000000000000699e-02 1.432124999999999926e-01 2.847944999999999993e+01 1.011928499999999929e+02 1.978894999999999982e+03
8.700000000000000788e-02 1.433369999999999922e-01 2.994484999999999886e+01 1.047708499999999958e+02 1.980074999999999818e+03
8.800000000000000877e-02 1.434600000000000042e-01 3.136664999999999992e+01 1.083160000000000025e+02 1.981250000000000000e+03
8.899999999999999578e-02 1.435819999999999874e-01 3.274560000000000315e+01 1.118365000000000009e+02 1.982414999999999964e+03
8.999999999999999667e-02 1.437034999999999840e-01 3.408200000000000074e+01 1.153354999999999961e+02 1.983575000000000045e+03
9.099999999999999756e-02 1.438240000000000074e-01 3.537550000000000239e+01 1.188145000000000095e+02 1.984735000000000127e+03
9.199999999999999845e-02 1.439444999999999752e-01 3.662485000000000213e+01 1.222684999999999889e+02 1.985880000000000109e+03
9.299999999999999933e-02 1.440639999999999976e-01 3.782789999999999964e+01 1.256890000000000072e+02 1.987025000000000091e+03
9.400000000000000022e-02 1.441815000000000180e-01 3.898140000000000072e+01 1.290645000000000095e+02 1.988159999999999854e+03
9.500000000000000111e-02 1.442984999999999962e-01 4.008160000000000167e+01 1.323810000000000002e+02 1.989279999999999973e+03
9.600000000000000200e-02 1.444135000000000002e-01 4.112359999999999616e+01 1.356210000000000093e+02 1.990389999999999873e+03
9.700000000000000289e-02 1.445255000000000012e-01 4.210215000000000174e+01 1.387665000000000077e+02 1.991470000000000027e+03
9.800000000000000377e-02 1.446350000000000136e-01 4.301170000000000471e+01 1.417990000000000066e+02 1.992525000000000091e+03
9.900000000000000466e-02 1.447410000000000085e-01 4.384614999999999441e+01 1.446990000000000123e+02 1.993550000000000182e+03
1.000000000000000056e-01 1.448429999999999995e-01 4.459975000000000023e+01 1.474474999999999909e+02 1.994534999999999854e+03
1.010000000000000064e-01 1.449400000000000133e-01 4.526659999999999684e+01 1.500264999999999986e+02 1.995470000000000027e+03
1.020000000000000073e-01 1.450309999999999933e-01 4.584134999999999849e+01 1.524200000000000159e+02 1.996360000000000127e+03
1.030000000000000082e-01 1.451169999999999960e-01 4.631924999999999670e+01 1.546129999999999995e+02 1.997195000000000164e+03
1.040000000000000091e-01 1.451959999999999917e-01 4.669639999999999702e+01 1.565930000000000177e+02 1.997970000000000027e+03
1.050000000000000100e-01 1.452685000000000226e-01 4.696999999999999886e+01 1.583509999999999991e+02 1.998675000000000182e+03
1.059999999999999970e-01 1.453335000000000043e-01 4.713859999999999673e+01 1.598810000000000002e+02 1.999315000000000055e+03
1.069999999999999979e-01 1.453920000000000212e-01 4.720224999999999937e+01 1.611804999999999950e+02 1.999884999999999991e+03
1.079999999999999988e-01 1.454425000000000023e-01 4.716264999999999930e+01 1.622520000000000095e+02 2.000375000000000000e+03
1.089999999999999997e-01 1.454854999999999898e-01 4.702320000000000277e+01 1.631020000000000039e+02 2.000804999999999836e+03
1.100000000000000006e-01 1.455210000000000115e-01 4.678900000000000148e+01 1.637395000000000209e+02 2.001159999999999854e+03
1.110000000000000014e-01 1.455494999999999983e-01 4.646670000000000300e+01 1.641795000000000186e+02 2.001445000000000164e+03
1.120000000000000023e-01 1.455715000000000203e-01 4.606439999999999912e+01 1.644399999999999977e+02 2.001664999999999964e+03
1.130000000000000032e-01 1.455870000000000219e-01 4.559109999999999729e+01 1.645399999999999920e+02 2.001829999999999927e+03
1.140000000000000041e-01 1.455980000000000052e-01 4.505679999999999552e+01 1.645014999999999930e+02 2.001934999999999945e+03
1.150000000000000050e-01 1.456029999999999824e-01 4.447185000000000343e+01 1.643460000000000036e+02 2.001994999999999891e+03
1.160000000000000059e-01 1.456044999999999978e-01 4.384669999999999845e+01 1.640970000000000084e+02 2.002009999999999991e+03
1.170000000000000068e-01 1.456020000000000092e-01 4.319145000000000323e+01 1.637750000000000057e+02 2.001990000000000009e+03
1.180000000000000077e-01 1.455960000000000032e-01 4.251585000000000036e+01 1.634004999999999939e+02 2.001950000000000045e+03
1.190000000000000085e-01 1.455879999999999952e-01 4.182854999999999990e+01 1.629895000000000209e+02 2.001875000000000000e+03
1.200000000000000094e-01 1.455784999999999996e-01 4.113715000000000543e+01 1.625575000000000045e+02 2.001784999999999854e+03
1.209999999999999964e-01 1.455679999999999752e-01 4.044800000000000040e+01 1.621150000000000091e+02 2.001679999999999836e+03
1.219999999999999973e-01 1.455555000000000043e-01 3.976614999999999611e+01 1.616705000000000041e+02 2.001565000000000055e+03
1.229999999999999982e-01 1.455430000000000057e-01 3.909510000000000218e+01 1.612280000000000086e+02 2.001449999999999818e+03
1.239999999999999991e-01 1.455305000000000071e-01 3.843694999999999595e+01 1.607899999999999920e+02 2.001325000000000045e+03
1.250000000000000000e-01 1.455170000000000075e-01 3.779234999999999900e+01 1.603534999999999968e+02 2.001195000000000164e+03
1.260000000000000009e-01 1.455035000000000078e-01 3.716084999999999638e+01 1.599159999999999968e+02 2.001065000000000055e+03
1.270000000000000018e-01 1.454900000000000082e-01 3.654075000000000273e+01 1.594694999999999823e+02 2.000925000000000182e+03
1.280000000000000027e-01 1.454754999999999798e-01 3.592940000000000111e+01 1.590070000000000050e+02 2.000789999999999964e+03
1.290000000000000036e-01 1.454604999999999926e-01 3.532349999999999568e+01 1.585194999999999936e+02 2.000640000000000100e+03
1.300000000000000044e-01 1.454440000000000177e-01 3.471920000000000073e+01 1.579970000000000141e+02 2.000480000000000018e+03
1.310000000000000053e-01 1.454270000000000007e-01 3.411240000000000094e+01 1.574290000000000020e+02 2.000309999999999945e+03
1.320000000000000062e-01 1.454079999999999817e-01 3.349909999999999854e+01 1.568064999999999998e+02 2.000125000000000000e+03
1.330000000000000071e-01 1.453869999999999885e-01 3.287529999999999575e+01 1.561214999999999975e+02 1.999930000000000064e+03
1.340000000000000080e-01 1.453649999999999942e-01 3.223770000000000380e+01 1.553670000000000186e+02 1.999710000000000036e+03
1.350000000000000089e-01 1.453399999999999970e-01 3.158355000000000246e+01 1.545369999999999777e+02 1.999470000000000027e+03
1.360000000000000098e-01 1.453125000000000111e-01 3.091089999999999804e+01 1.536299999999999955e+02 1.999210000000000036e+03
1.370000000000000107e-01 1.452829999999999955e-01 3.021884999999999621e+01 1.526454999999999984e+02 1.998924999999999955e+03
1.380000000000000115e-01 1.452509999999999912e-01 2.950760000000000005e+01 1.515860000000000127e+02 1.998615000000000009e+03
1.390000000000000124e-01 1.452164999999999984e-01 2.877830000000000155e+01 1.504565000000000055e+02 1.998284999999999854e+03
1.400000000000000133e-01 1.451794999999999891e-01 2.803340000000000032e+01 1.492649999999999864e+02 1.997930000000000064e+03
1.410000000000000142e-01 1.451405000000000056e-01 2.727640000000000242e+01 1.480219999999999914e+02 1.997554999999999836e+03
1.420000000000000151e-01 1.451000000000000068e-01 2.651164999999999949e+01 1.467390000000000043e+02 1.997164999999999964e+03
1.430000000000000160e-01 1.450579999999999925e-01 2.574445000000000050e+01 1.454314999999999998e+02 1.996764999999999873e+03
1.440000000000000169e-01 1.450150000000000050e-01 2.498059999999999903e+01 1.441134999999999877e+02 1.996349999999999909e+03
1.450000000000000178e-01 1.449719999999999898e-01 2.422630000000000194e+01 1.428020000000000209e+02 1.995930000000000064e+03
1.459999999999999909e-01 1.449285000000000156e-01 2.348805000000000121e+01 1.415130000000000052e+02 1.995514999999999873e+03
1.469999999999999918e-01 1.448855000000000004e-01 2.277199999999999847e+01 1.402604999999999791e+02 1.995099999999999909e+03
1.479999999999999927e-01 1.448435000000000139e-01 2.208429999999999893e+01 1.390600000000000023e+02 1.994700000000000045e+03
1.489999999999999936e-01 1.448030000000000150e-01 2.143019999999999925e+01 1.379244999999999948e+02 1.994304999999999836e+03
1.499999999999999944e-01 1.447644999999999904e-01 2.081449999999999889e+01 1.368634999999999877e+02 1.993929999999999836e+03
1.509999999999999953e-01 1.447275000000000089e-01 2.024094999999999800e+01 1.358849999999999909e+02 1.993575000000000045e+03
1.519999999999999962e-01 1.446935000000000027e-01 1.971240000000000236e+01 1.349959999999999809e+02 1.993250000000000000e+03
1.529999999999999971e-01 1.446620000000000128e-01 1.923055000000000092e+01 1.341984999999999957e+02 1.992940000000000055e+03
1.539999999999999980e-01 1.446330000000000116e-01 1.879630000000000223e+01 1.334934999999999832e+02 1.992660000000000082e+03
1.549999999999999989e-01 1.446069999999999856e-01 1.840930000000000177e+01 1.328795000000000073e+02 1.992409999999999854e+03
1.559999999999999998e-01 1.445839999999999903e-01 1.806840000000000046e+01 1.323530000000000086e+02 1.992184999999999945e+03
1.570000000000000007e-01 1.445639999999999981e-01 1.777179999999999893e+01 1.319085000000000036e+02 1.991985000000000127e+03
1.580000000000000016e-01 1.445464999999999944e-01 1.751670000000000016e+01 1.315389999999999873e+02 1.991815000000000055e+03
1.590000000000000024e-01 1.445310000000000206e-01 1.730010000000000048e+01 1.312379999999999995e+02 1.991659999999999854e+03
