# t [s], A [cm^2], U [cm/s], P [cPa], c [cm/s]
1.000000000000000021e-03 5.393955000000000277e-01 3.705050000000001398e-03 9.480119999999999436e+01 1.572494999999999891e+03
2.000000000000000042e-03 5.393879999999999786e-01 -1.248237000000000131e-03 9.478085000000000093e+01 1.572490000000000009e+03
3.000000000000000062e-03 5.394225000000000270e-01 6.626954999999999651e-02 9.484940000000000282e+01 1.572505000000000109e+03
4.000000000000000083e-03 5.394654999999999312e-01 1.550622499999999848e-01 9.496154999999998836e+01 1.572539999999999964e+03
5.000000000000000104e-03 5.394634999999999847e-01 1.614895000000000080e-01 9.496639999999999304e+01 1.572539999999999964e+03
6.000000000000000125e-03 5.394244999999999735e-01 9.384049999999999336e-02 9.483634999999999593e+01 1.572514999999999873e+03
7.000000000000000146e-03 5.393864999999999910e-01 2.246300000000001074e-02 9.464535000000000764e+01 1.572474999999999909e+03
8.000000000000000167e-03 5.393410000000000704e-01 -6.954300000000002147e-02 9.438779999999999859e+01 1.572414999999999964e+03
9.000000000000001055e-03 5.392620000000000191e-01 -2.404135000000000022e-01 9.399065000000000225e+01 1.572329999999999927e+03
1.000000000000000194e-02 5.391380000000000061e-01 -5.105450000000000266e-01 9.340424999999999045e+01 1.572200000000000045e+03
1.099999999999999936e-02 5.389619999999999411e-01 -8.919499999999999096e-01 9.258440000000000225e+01 1.572014999999999873e+03
1.200000000000000025e-02 5.387224999999999930e-01 -1.397764999999999924e+00 9.148255000000000337e+01 1.571759999999999991e+03
1.300000000000000114e-02 5.384240000000000137e-01 -2.005140000000000366e+00 9.009184999999999377e+01 1.571434999999999945e+03
1.400000000000000203e-02 5.380945000000000311e-01 -2.636714999999999698e+00 8.848354999999999393e+01 1.571045000000000073e+03
1.499999999999999944e-02 5.377724999999999866e-01 -3.187274999999999636e+00 8.678800000000001091e+01 1.570630000000000109e+03
1.600000000000000033e-02 5.374904999999999822e-01 -3.568080000000000140e+00 8.514154999999999518e+01 1.570200000000000045e+03
1.700000000000000122e-02 5.372595000000000010e-01 -3.735641999999999907e+00 8.363824999999999932e+01 1.569795000000000073e+03
1.800000000000000211e-02 5.370705000000000062e-01 -3.695510999999999768e+00 8.230924999999999159e+01 1.569409999999999854e+03
1.900000000000000300e-02 5.369045000000000067e-01 -3.488330999999999626e+00 8.112884999999999991e+01 1.569054999999999836e+03
2.000000000000000042e-02 5.367385000000000073e-01 -3.169259999999999966e+00 8.003575000000000728e+01 1.568710000000000036e+03
2.100000000000000130e-02 5.365550000000000042e-01 -2.788594999999999935e+00 7.896004999999999541e+01 1.568375000000000000e+03
2.200000000000000219e-02 5.363445000000000018e-01 -2.378467999999999805e+00 7.784659999999999513e+01 1.568025000000000091e+03
2.299999999999999961e-02 5.361090000000000577e-01 -1.948249999999999815e+00 7.666919999999998936e+01 1.567664999999999964e+03
2.400000000000000050e-02 5.358564999999999579e-01 -1.489044999999999952e+00 7.543229999999999791e+01 1.567295000000000073e+03
2.500000000000000139e-02 5.355984999999999774e-01 -9.847299999999998832e-01 7.416084999999999638e+01 1.566909999999999854e+03
2.600000000000000228e-02 5.353430000000000133e-01 -4.245149999999999757e-01 7.288384999999999536e+01 1.566525000000000091e+03
2.700000000000000316e-02 5.350920000000000121e-01 1.874549999999999272e-01 7.161854999999999905e+01 1.566134999999999991e+03
2.800000000000000058e-02 5.348405000000000520e-01 8.283699999999998287e-01 7.036034999999999684e+01 1.565755000000000109e+03
2.900000000000000147e-02 5.345769999999999689e-01 1.459115000000000162e+00 6.908020000000000493e+01 1.565360000000000127e+03
3.000000000000000236e-02 5.342875000000000263e-01 2.031290000000000262e+00 6.773035000000000139e+01 1.564954999999999927e+03
3.099999999999999978e-02 5.339580000000000437e-01 2.496774999999999523e+00 6.625509999999999877e+01 1.564519999999999982e+03
3.200000000000000067e-02 5.335794999999999844e-01 2.817555000000000032e+00 6.460509999999999309e+01 1.564049999999999955e+03
3.300000000000000155e-02 5.331489999999999840e-01 2.973349999999999937e+00 6.275045000000000073e+01 1.563530000000000200e+03
3.400000000000000244e-02 5.326720000000000343e-01 2.965625000000000622e+00 6.069034999999999513e+01 1.562964999999999918e+03
3.500000000000000333e-02 5.321624999999999828e-01 2.816529999999999756e+00 5.845600000000000307e+01 1.562360000000000127e+03
3.600000000000000422e-02 5.316370000000000262e-01 2.564214999999999911e+00 5.610795000000000243e+01 1.561730000000000018e+03
3.700000000000000511e-02 5.311169999999999503e-01 2.255314999999999959e+00 5.372690000000000055e+01 1.561079999999999927e+03
3.799999999999999906e-02 5.306224999999999969e-01 1.937234999999999818e+00 5.140279999999999916e+01 1.560444999999999936e+03
3.899999999999999994e-02 5.301690000000000014e-01 1.652124999999999844e+00 4.922364999999999924e+01 1.559835000000000036e+03
4.000000000000000083e-02 5.297720000000000207e-01 1.433149999999999924e+00 4.726664999999999850e+01 1.559275000000000091e+03
4.100000000000000172e-02 5.294380000000000752e-01 1.303355000000000263e+00 4.559314999999999429e+01 1.558779999999999973e+03
4.200000000000000261e-02 5.291734999999999634e-01 1.276759999999999895e+00 4.424630000000000507e+01 1.558365000000000009e+03
4.300000000000000350e-02 5.289810000000000345e-01 1.360724999999999962e+00 4.325249999999999773e+01 1.558034999999999854e+03
4.400000000000000439e-02 5.288599999999999968e-01 1.558790000000000120e+00 4.262425000000000352e+01 1.557805000000000064e+03
4.499999999999999833e-02 5.288104999999999611e-01 1.873197499999999849e+00 4.236419999999999675e+01 1.557670000000000073e+03
4.599999999999999922e-02 5.288319999999999688e-01 2.306549999999999656e+00 4.246909999999999741e+01 1.557630000000000109e+03
4.700000000000000011e-02 5.289239999999999498e-01 2.862409999999999677e+00 4.293219999999999459e+01 1.557695000000000164e+03
4.800000000000000100e-02 5.290850000000000275e-01 3.544734999999999747e+00 4.374514999999999532e+01 1.557849999999999909e+03
4.900000000000000189e-02 5.293140000000000622e-01 4.356695000000000206e+00 4.489759999999999707e+01 1.558099999999999909e+03
5.000000000000000278e-02 5.296094999999999553e-01 5.299050000000000260e+00 4.637654999999999461e+01 1.558440000000000055e+03
5.100000000000000366e-02 5.299670000000000769e-01 6.368815000000000559e+00 4.816499999999999915e+01 1.558869999999999891e+03
5.200000000000000455e-02 5.303824999999999790e-01 7.558279999999999887e+00 5.024044999999999561e+01 1.559384999999999991e+03
5.300000000000000544e-02 5.308494999999999742e-01 8.854900000000000659e+00 5.257464999999999833e+01 1.559964999999999918e+03
5.399999999999999939e-02 5.313594999999999846e-01 1.024189499999999953e+01 5.513340000000000174e+01 1.560619999999999891e+03
5.500000000000000028e-02 5.319039999999999324e-01 1.169899999999999984e+01 5.787810000000000343e+01 1.561329999999999927e+03
5.600000000000000117e-02 5.324750000000000316e-01 1.320420000000000016e+01 6.076689999999999969e+01 1.562085000000000036e+03
5.700000000000000205e-02 5.330630000000000646e-01 1.473517999999999972e+01 6.375749999999999318e+01 1.562884999999999991e+03
5.800000000000000294e-02 5.336594999999999533e-01 1.627067999999999870e+01 6.680899999999999750e+01 1.563699999999999818e+03
5.900000000000000383e-02 5.342590000000000394e-01 1.779179999999999851e+01 6.988429999999999609e+01 1.564539999999999964e+03
6.000000000000000472e-02 5.348550000000000804e-01 1.928265000000000029e+01 7.295179999999999154e+01 1.565380000000000109e+03
6.099999999999999867e-02 5.354440000000000310e-01 2.073089999999999833e+01 7.598644999999999072e+01 1.566224999999999909e+03
6.199999999999999956e-02 5.360230000000000272e-01 2.212784999999999869e+01 7.897030000000000882e+01 1.567065000000000055e+03
6.300000000000000044e-02 5.365919999999999579e-01 2.346799999999999997e+01 8.189249999999999829e+01 1.567894999999999982e+03
6.400000000000000133e-02 5.371489999999999876e-01 2.474869999999999948e+01 8.474850000000000705e+01 1.568710000000000036e+03
6.500000000000000222e-02 5.376965000000000217e-01 2.596954999999999814e+01 8.753919999999999391e+01 1.569514999999999873e+03
6.600000000000000311e-02 5.382344999999999491e-01 2.713179999999999836e+01 9.026930000000000121e+01 1.570304999999999836e+03
6.700000000000000400e-02 5.387655000000000083e-01 2.823760000000000048e+01 9.294704999999999018e+01 1.571079999999999927e+03
6.800000000000000488e-02 5.392909999999999648e-01 2.928960000000000008e+01 9.558084999999999809e+01 1.571845000000000027e+03
6.900000000000000577e-02 5.398119999999999585e-01 3.029025000000000034e+01 9.817985000000000184e+01 1.572605000000000018e+03
7.000000000000000666e-02 5.403305000000000469e-01 3.124160000000000181e+01 1.007515499999999946e+02 1.573355000000000018e+03
7.100000000000000755e-02 5.408465000000000078e-01 3.214484999999999815e+01 1.033012999999999977e+02 1.574099999999999909e+03
7.200000000000000844e-02 5.413604999999999112e-01 3.300005000000000166e+01 1.058317000000000121e+02 1.574844999999999800e+03
7.300000000000000933e-02 5.418709999999999916e-01 3.380619999999999692e+01 1.083425000000000011e+02 1.575579999999999927e+03
7.399999999999999634e-02 5.423769999999999980e-01 3.456119999999999948e+01 1.108280000000000030e+02 1.576309999999999945e+03
7.499999999999999722e-02 5.428775000000000128e-01 3.526205000000000211e+01 1.132829999999999870e+02 1.577030000000000200e+03
7.599999999999999811e-02 5.433684999999999210e-01 3.590505000000000280e+01 1.156949999999999932e+02 1.577744999999999891e+03
7.699999999999999900e-02 5.438484999999999570e-01 3.648584999999999923e+01 1.180529999999999973e+02 1.578444999999999936e+03
7.799999999999999989e-02 5.443139999999999645e-01 3.700039999999999907e+01 1.203425000000000011e+02 1.579119999999999891e+03
7.900000000000000078e-02 5.447629999999999972e-01 3.744440000000000168e+01 1.225494999999999948e+02 1.579784999999999854e+03
8.000000000000000167e-02 5.451920000000000099e-01 3.781430000000000291e+01 1.246599999999999966e+02 1.580420000000000073e+03
8.100000000000000255e-02 5.455984999999999863e-01 3.810694999999999766e+01 1.266605000000000132e+02 1.581025000000000091e+03
8.200000000000000344e-02 5.459809999999999386e-01 3.832004999999999484e+01 1.285399999999999920e+02 1.581599999999999909e+03
8.300000000000000433e-02 5.463370000000000726e-01 3.845224999999999937e+01 1.302874999999999943e+02 1.582139999999999873e+03
8.400000000000000522e-02 5.466655000000000264e-01 3.850300000000000011e+01 1.318960000000000150e+02 1.582639999999999873e+03
8.500000000000000611e-02 5.469649999999999235e-01 3.847265000000000157e+01 1.333600000000000136e+02 1.583105000000000018e+03
8.600000000000000699e-02 5.472359999999999447e-01 3.836269999999999669e+01 1.346759999999999877e+02 1.583525000000000091e+03
8.700000000000000788e-02 5.474774999999999503e-01 3.817535000000000167e+01 1.358424999999999727e+02 1.583910000000000082e+03
8.800000000000000877e-02 5.476904999999999690e-01 3.791389999999999816e+01 1.368614999999999782e+02 1.584250000000000000e+03
8.899999999999999578e-02 5.478750000000000009e-01 3.758254999999999768e+01 1.377379999999999995e+02 1.584545000000000073e+03
8.999999999999999667e-02 5.480329999999999924e-01 3.718635000000000446e+01 1.384755000000000109e+02 1.584804999999999836e+03
9.099999999999999756e-02 5.481654999999999722e-01 3.673140000000000072e+01 1.390835000000000150e+02 1.585019999999999982e+03
9.199999999999999845e-02 5.482749999999999568e-01 3.622429999999999950e+01 1.395704999999999814e+02 1.585204999999999927e+03
9.299999999999999933e-02 5.483630000000000448e-01 3.567244999999999777e+01 1.399474999999999909e+02 1.585355000000000018e+03
9.400000000000000022e-02 5.484324999999999894e-01 3.508370000000000033e+01 1.402280000000000086e+02 1.585469999999999800e+03
9.500000000000000111e-02 5.484854999999999592e-01 3.446609999999999729e+01 1.404234999999999900e+02 1.585565000000000055e+03
9.600000000000000200e-02 5.485250000000000403e-01 3.382775000000000176e+01 1.405475000000000136e+02 1.585634999999999991e+03
9.700000000000000289e-02 5.485535000000000272e-01 3.317650000000000432e+01 1.406140000000000043e+02 1.585684999999999945e+03
9.800000000000000377e-02 5.485740000000000061e-01 3.251950000000000074e+01 1.406349999999999909e+02 1.585714999999999918e+03
9.900000000000000466e-02 5.485870000000000468e-01 3.186335000000000051e+01 1.406225000000000023e+02 1.585730000000000018e+03
1.000000000000000056e-01 5.485955000000000137e-01 3.121344999999999814e+01 1.405860000000000127e+02 1.585740000000000009e+03
1.010000000000000064e-01 5.486005000000000464e-01 3.057420000000000115e+01 1.405335000000000036e+02 1.585740000000000009e+03
1.020000000000000073e-01 5.486029999999999518e-01 2.994850000000000279e+01 1.404710000000000036e+02 1.585730000000000018e+03
1.030000000000000082e-01 5.486030000000000628e-01 2.933820000000000050e+01 1.404030000000000200e+02 1.585720000000000027e+03
1.040000000000000091e-01 5.486020000000000341e-01 2.874380000000000024e+01 1.403299999999999841e+02 1.585710000000000036e+03
1.050000000000000100e-01 5.485980000000000301e-01 2.816460000000000008e+01 1.402520000000000095e+02 1.585690000000000055e+03
1.059999999999999970e-01 5.485910000000000508e-01 2.759890000000000043e+01 1.401670000000000016e+02 1.585670000000000073e+03
1.069999999999999979e-01 5.485809999999999853e-01 2.704424999999999812e+01 1.400699999999999932e+02 1.585644999999999982e+03
1.079999999999999988e-01 5.485649999999999693e-01 2.649755000000000038e+01 1.399565000000000055e+02 1.585610000000000127e+03
1.089999999999999997e-01 5.485440000000000316e-01 2.595540000000000092e+01 1.398204999999999814e+02 1.585575000000000045e+03
1.100000000000000006e-01 5.485154999999999337e-01 2.541404999999999959e+01 1.396554999999999893e+02 1.585535000000000082e+03
1.110000000000000014e-01 5.484780000000000211e-01 2.486999999999999744e+01 1.394560000000000173e+02 1.585474999999999909e+03
1.120000000000000023e-01 5.484320000000000306e-01 2.431990000000000052e+01 1.392160000000000082e+02 1.585414999999999964e+03
1.130000000000000032e-01 5.483750000000000568e-01 2.376089999999999947e+01 1.389314999999999998e+02 1.585340000000000146e+03
1.140000000000000041e-01 5.483080000000000176e-01 2.319059999999999988e+01 1.385974999999999966e+02 1.585244999999999891e+03
1.150000000000000050e-01 5.482299999999999951e-01 2.260739999999999839e+01 1.382135000000000105e+02 1.585144999999999982e+03
1.160000000000000059e-01 5.481409999999999894e-01 2.201040000000000063e+01 1.377780000000000200e+02 1.585029999999999973e+03
1.170000000000000068e-01 5.480420000000000291e-01 2.139965000000000117e+01 1.372925000000000182e+02 1.584894999999999982e+03
1.180000000000000077e-01 5.479335000000000733e-01 2.077599999999999980e+01 1.367590000000000146e+02 1.584755000000000109e+03
1.190000000000000085e-01 5.478164999999999285e-01 2.014120000000000132e+01 1.361829999999999927e+02 1.584595000000000027e+03
1.200000000000000094e-01 5.476919999999999566e-01 1.949780000000000157e+01 1.355690000000000168e+02 1.584429999999999836e+03
1.209999999999999964e-01 5.475615000000000343e-01 1.884915000000000163e+01 1.349254999999999995e+02 1.584255000000000109e+03
1.219999999999999973e-01 5.474280000000000257e-01 1.819919999999999760e+01 1.342605000000000075e+02 1.584070000000000164e+03
1.229999999999999982e-01 5.472920000000000007e-01 1.755245000000000033e+01 1.335835000000000150e+02 1.583884999999999991e+03
1.239999999999999991e-01 5.471570000000000045e-01 1.691375000000000028e+01 1.329039999999999964e+02 1.583690000000000055e+03
1.250000000000000000e-01 5.470239999999999547e-01 1.628819999999999979e+01 1.322324999999999875e+02 1.583500000000000000e+03
1.260000000000000009e-01 5.468950000000000200e-01 1.568074999999999974e+01 1.315785000000000196e+02 1.583315000000000055e+03
1.270000000000000018e-01 5.467724999999999946e-01 1.509635000000000105e+01 1.309530000000000030e+02 1.583134999999999991e+03
1.280000000000000027e-01 5.466585000000000472e-01 1.453955000000000020e+01 1.303634999999999877e+02 1.582965000000000146e+03
1.290000000000000036e-01 5.465530000000000665e-01 1.401425000000000054e+01 1.298190000000000168e+02 1.582800000000000182e+03
1.300000000000000044e-01 5.464584999999999582e-01 1.352402499999999819e+01 1.293249999999999886e+02 1.582654999999999973e+03
1.310000000000000053e-01 5.463750000000000551e-01 1.307131000000000043e+01 1.288874999999999886e+02 1.582514999999999873e+03
1.320000000000000062e-01 5.463044999999999707e-01 1.265797500000000042e+01 1.285090000000000146e+02 1.582394999999999982e+03
1.330000000000000071e-01 5.462454999999999394e-01 1.228491000000000000e+01 1.281920000000000073e+02 1.582295000000000073e+03
1.340000000000000080e-01 5.461979999999999613e-01 1.195210499999999954e+01 1.279364999999999952e+02 1.582204999999999927e+03
1.350000000000000089e-01 5.461620000000000363e-01 1.165878499999999995e+01 1.277389999999999901e+02 1.582130000000000109e+03
1.360000000000000098e-01 5.461374999999999424e-01 1.140344499999999961e+01 1.275979999999999990e+02 1.582075000000000045e+03
1.370000000000000107e-01 5.461225000000000662e-01 1.118385999999999925e+01 1.275095000000000027e+02 1.582039999999999964e+03
1.380000000000000115e-01 5.461160000000000458e-01 1.099728499999999976e+01 1.274664999999999964e+02 1.582005000000000109e+03
1.390000000000000124e-01 5.461165000000000047e-01 1.084053499999999914e+01 1.274635000000000105e+02 1.581990000000000009e+03
1.400000000000000133e-01 5.461234999999999840e-01 1.071035000000000004e+01 1.274945000000000022e+02 1.581990000000000009e+03
1.410000000000000142e-01 5.461350000000000371e-01 1.060320000000000107e+01 1.275519999999999925e+02 1.581985000000000127e+03
1.420000000000000151e-01 5.461500000000000243e-01 1.051556000000000068e+01 1.276299999999999955e+02 1.582000000000000000e+03
1.430000000000000160e-01 5.461674999999999169e-01 1.044408999999999921e+01 1.277224999999999966e+02 1.582014999999999873e+03
1.440000000000000169e-01 5.461865000000000192e-01 1.038568000000000069e+01 1.278239999999999981e+02 1.582030000000000200e+03
1.450000000000000178e-01 5.462059999999999693e-01 1.033735000000000070e+01 1.279284999999999997e+02 1.582055000000000064e+03
1.459999999999999909e-01 5.462249999999999606e-01 1.029662499999999881e+01 1.280330000000000155e+02 1.582079999999999927e+03
1.469999999999999918e-01 5.462430000000000341e-01 1.026129999999999853e+01 1.281345000000000027e+02 1.582105000000000018e+03
1.479999999999999927e-01 5.462599999999999678e-01 1.022941499999999948e+01 1.282300000000000182e+02 1.582125000000000000e+03
1.489999999999999936e-01 5.462755000000000249e-01 1.019953999999999894e+01 1.283179999999999836e+02 1.582144999999999982e+03
1.499999999999999944e-01 5.462900000000000533e-01 1.017043500000000122e+01 1.283974999999999795e+02 1.582170000000000073e+03
1.509999999999999953e-01 5.463024999999999132e-01 1.014125999999999905e+01 1.284685000000000059e+02 1.582184999999999945e+03
1.519999999999999962e-01 5.463129999999999376e-01 1.011144999999999960e+01 1.285314999999999941e+02 1.582204999999999927e+03
1.529999999999999971e-01 5.463230000000000031e-01 1.008058499999999924e+01 1.285865000000000009e+02 1.582220000000000027e+03
1.539999999999999980e-01 5.463314999999999699e-01 1.004861000000000004e+01 1.286354999999999791e+02 1.582235000000000127e+03
1.549999999999999989e-01 5.463400000000000478e-01 1.001557000000000031e+01 1.286790000000000020e+02 1.582250000000000000e+03
1.559999999999999998e-01 5.463470000000000271e-01 9.981700000000000017e+00 1.287180000000000177e+02 1.582260000000000218e+03
1.570000000000000007e-01 5.463545000000000762e-01 9.947279999999999234e+00 1.287549999999999955e+02 1.582269999999999982e+03
1.580000000000000016e-01 5.463614999999999444e-01 9.912739999999999441e+00 1.287905000000000086e+02 1.582280000000000200e+03
1.590000000000000024e-01 5.463685000000000347e-01 9.878510000000000346e+00 1.288265000000000100e+02 1.582295000000000073e+03
