# t [s], A [cm^2], U [cm/s], P [cPa], c [cm/s]
1.000000000000000021e-03 4.835070000000000201e-01 3.744700000000003581e-03 1.100219999999999914e+02 1.449450000000000045e+03
2.000000000000000042e-03 4.834999999999999853e-01 8.671059999999998665e-04 1.100035000000000025e+02 1.449445000000000164e+03
3.000000000000000062e-03 4.835384999999999822e-01 7.670054999999999235e-02 1.100745000000000005e+02 1.449470000000000027e+03
4.000000000000000083e-03 4.835819999999999563e-01 1.649043500000000051e-01 1.101804999999999950e+02 1.449494999999999891e+03
5.000000000000000104e-03 4.835770000000000346e-01 1.609845000000000026e-01 1.101719999999999970e+02 1.449500000000000000e+03
6.000000000000000125e-03 4.835360000000000213e-01 8.158599999999999186e-02 1.100275000000000034e+02 1.449474999999999909e+03
7.000000000000000146e-03 4.834930000000000061e-01 -6.242999999999998550e-03 1.098100000000000023e+02 1.449420000000000073e+03
8.000000000000000167e-03 4.834379999999999789e-01 -1.257409999999999917e-01 1.095049999999999955e+02 1.449349999999999909e+03
9.000000000000001055e-03 4.833425000000000082e-01 -3.365550000000000486e-01 1.090389999999999873e+02 1.449240000000000009e+03
1.000000000000000194e-02 4.831995000000000040e-01 -6.508100000000001106e-01 1.083659999999999997e+02 1.449079999999999927e+03
1.099999999999999936e-02 4.830044999999999478e-01 -1.068564999999999987e+00 1.074534999999999911e+02 1.448860000000000127e+03
1.200000000000000025e-02 4.827460000000000084e-01 -1.599870000000000125e+00 1.062580000000000098e+02 1.448559999999999945e+03
1.300000000000000114e-02 4.824209999999999887e-01 -2.230825000000000280e+00 1.047594500000000011e+02 1.448184999999999945e+03
1.400000000000000203e-02 4.820515000000000216e-01 -2.892870000000000275e+00 1.030088999999999970e+02 1.447720000000000027e+03
1.499999999999999944e-02 4.816765000000000074e-01 -3.475520000000000387e+00 1.011261999999999972e+02 1.447215000000000146e+03
1.600000000000000033e-02 4.813349999999999573e-01 -3.869544999999999568e+00 9.926210000000000377e+01 1.446690000000000055e+03
1.700000000000000122e-02 4.810484999999999900e-01 -4.006123500000000170e+00 9.754030000000000200e+01 1.446179999999999836e+03
1.800000000000000211e-02 4.808175000000000088e-01 -3.872658500000000448e+00 9.602510000000000900e+01 1.445704999999999927e+03
1.900000000000000300e-02 4.806250000000000244e-01 -3.506227500000000052e+00 9.471274999999999977e+01 1.445264999999999873e+03
2.000000000000000042e-02 4.804450000000000109e-01 -2.974041499999999782e+00 9.354495000000000005e+01 1.444855000000000018e+03
2.100000000000000130e-02 4.802509999999999835e-01 -2.349890000000000256e+00 9.243534999999999968e+01 1.444460000000000036e+03
2.200000000000000219e-02 4.800260000000000082e-01 -1.693274999999999864e+00 9.129935000000000400e+01 1.444059999999999945e+03
2.299999999999999961e-02 4.797629999999999950e-01 -1.036474999999999813e+00 9.007864999999999611e+01 1.443639999999999873e+03
2.400000000000000050e-02 4.794669999999999765e-01 -3.829949999999997523e-01 8.875319999999999254e+01 1.443195000000000164e+03
2.500000000000000139e-02 4.791509999999999936e-01 2.834300000000000708e-01 8.733865000000000123e+01 1.442730000000000018e+03
2.600000000000000228e-02 4.788280000000000314e-01 9.836649999999997895e-01 8.587080000000000268e+01 1.442244999999999891e+03
2.700000000000000316e-02 4.785065000000000013e-01 1.728435000000000166e+00 8.438665000000000305e+01 1.441759999999999991e+03
2.800000000000000058e-02 4.781894999999999896e-01 2.508785000000000487e+00 8.290655000000000996e+01 1.441269999999999982e+03
2.900000000000000147e-02 4.778685000000000294e-01 3.293710000000000360e+00 8.142484999999999218e+01 1.440779999999999973e+03
3.000000000000000236e-02 4.775320000000000120e-01 4.034399999999999764e+00 7.990869999999999607e+01 1.440275000000000091e+03
3.099999999999999978e-02 4.771630000000000038e-01 4.673099999999999810e+00 7.830485000000000184e+01 1.439750000000000000e+03
3.200000000000000067e-02 4.767464999999999620e-01 5.154395000000000060e+00 7.655209999999999582e+01 1.439195000000000164e+03
3.300000000000000155e-02 4.762735000000000163e-01 5.436225000000000307e+00 7.459669999999999845e+01 1.438590000000000146e+03
3.400000000000000244e-02 4.757399999999999962e-01 5.498350000000000293e+00 7.240675000000000239e+01 1.437930000000000064e+03
3.500000000000000333e-02 4.751535000000000064e-01 5.346980000000000288e+00 6.998294999999998822e+01 1.437210000000000036e+03
3.600000000000000422e-02 4.745289999999999786e-01 5.013614999999999711e+00 6.736265000000000214e+01 1.436440000000000055e+03
3.700000000000000511e-02 4.738864999999999883e-01 4.549704999999999444e+00 6.461724999999999852e+01 1.435639999999999873e+03
3.799999999999999906e-02 4.732530000000000348e-01 4.018284999999999663e+00 6.184310000000000684e+01 1.434819999999999936e+03
3.899999999999999994e-02 4.726524999999999754e-01 3.484744999999999759e+00 5.914974999999999739e+01 1.434014999999999873e+03
4.000000000000000083e-02 4.721079999999999721e-01 3.009199999999999875e+00 5.664709999999999468e+01 1.433255000000000109e+03
4.100000000000000172e-02 4.716370000000000284e-01 2.641249999999999876e+00 5.443449999999999989e+01 1.432559999999999945e+03
4.200000000000000261e-02 4.712534999999999918e-01 2.417294999999999749e+00 5.259300000000000352e+01 1.431960000000000036e+03
4.300000000000000350e-02 4.709649999999999670e-01 2.360675000000000523e+00 5.118124999999999858e+01 1.431469999999999800e+03
4.400000000000000439e-02 4.707755000000000134e-01 2.483525000000000205e+00 5.023479999999999990e+01 1.431105000000000018e+03
4.499999999999999833e-02 4.706859999999999933e-01 2.789626000000000161e+00 4.976824999999999477e+01 1.430875000000000000e+03
4.599999999999999922e-02 4.706930000000000280e-01 3.277509999999999923e+00 4.977915000000000134e+01 1.430785000000000082e+03
4.700000000000000011e-02 4.707935000000000314e-01 3.943064999999999820e+00 5.025274999999999892e+01 1.430825000000000045e+03
4.800000000000000100e-02 4.709830000000000405e-01 4.781175000000000175e+00 5.116649999999999920e+01 1.430994999999999891e+03
4.900000000000000189e-02 4.712570000000000370e-01 5.786270000000000024e+00 5.249295000000000044e+01 1.431295000000000073e+03
5.000000000000000278e-02 4.716095000000000148e-01 6.951859999999999928e+00 5.420204999999999984e+01 1.431715000000000146e+03
5.100000000000000366e-02 4.720345000000000235e-01 8.269555000000000433e+00 5.626144999999999641e+01 1.432240000000000009e+03
5.200000000000000455e-02 4.725254999999999872e-01 9.727750000000000341e+00 5.863635000000000019e+01 1.432875000000000000e+03
5.300000000000000544e-02 4.730744999999999534e-01 1.131090499999999999e+01 6.128880000000000194e+01 1.433590000000000146e+03
5.399999999999999939e-02 4.736719999999999819e-01 1.299906500000000165e+01 6.417730000000000246e+01 1.434389999999999873e+03
5.500000000000000028e-02 4.743079999999999519e-01 1.476822499999999927e+01 6.725685000000000002e+01 1.435255000000000109e+03
5.600000000000000117e-02 4.749725000000000197e-01 1.659147499999999908e+01 7.047974999999999568e+01 1.436174999999999955e+03
5.700000000000000205e-02 4.756555000000000089e-01 1.844026000000000209e+01 7.379704999999999870e+01 1.437134999999999991e+03
5.800000000000000294e-02 4.763444999999999485e-01 2.028610000000000113e+01 7.716055000000000064e+01 1.438125000000000000e+03
5.900000000000000383e-02 4.770330000000000403e-01 2.210229999999999961e+01 8.052490000000000236e+01 1.439119999999999891e+03
6.000000000000000472e-02 4.777109999999999967e-01 2.386524999999999963e+01 8.384985000000000355e+01 1.440119999999999891e+03
6.099999999999999867e-02 4.783724999999999783e-01 2.555539999999999878e+01 8.710184999999999889e+01 1.441115000000000009e+03
6.199999999999999956e-02 4.790145000000000097e-01 2.715790000000000148e+01 9.025495000000000800e+01 1.442090000000000146e+03
6.300000000000000044e-02 4.796334999999999904e-01 2.866290000000000049e+01 9.329319999999999879e+01 1.443039999999999964e+03
6.400000000000000133e-02 4.802284999999999471e-01 3.006510000000000105e+01 9.620635000000000048e+01 1.443965000000000146e+03
6.500000000000000222e-02 4.808009999999999784e-01 3.136339999999999861e+01 9.899514999999999532e+01 1.444849999999999909e+03
6.600000000000000311e-02 4.813520000000000021e-01 3.256034999999999968e+01 1.016650500000000079e+02 1.445715000000000146e+03
6.700000000000000400e-02 4.818844999999999934e-01 3.366120000000000090e+01 1.042286000000000001e+02 1.446545000000000073e+03
6.800000000000000488e-02 4.824019999999999975e-01 3.467334999999999923e+01 1.067005499999999927e+02 1.447349999999999909e+03
6.900000000000000577e-02 4.829090000000000327e-01 3.560549999999999926e+01 1.090995000000000061e+02 1.448139999999999873e+03
7.000000000000000666e-02 4.834079999999999488e-01 3.646710000000000207e+01 1.114449999999999932e+02 1.448909999999999854e+03
7.100000000000000755e-02 4.839035000000000419e-01 3.726765000000000327e+01 1.137565000000000026e+02 1.449664999999999964e+03
7.200000000000000844e-02 4.843985000000000096e-01 3.801614999999999611e+01 1.160500000000000114e+02 1.450420000000000073e+03
7.300000000000000933e-02 4.848950000000000204e-01 3.872055000000000291e+01 1.183410000000000082e+02 1.451164999999999964e+03
7.399999999999999634e-02 4.853954999999999798e-01 3.938729999999999620e+01 1.206394999999999982e+02 1.451909999999999854e+03
7.499999999999999722e-02 4.859005000000000130e-01 4.002089999999999748e+01 1.229519999999999982e+02 1.452659999999999854e+03
7.599999999999999811e-02 4.864094999999999391e-01 4.062364999999999782e+01 1.252800000000000011e+02 1.453414999999999964e+03
7.699999999999999900e-02 4.869204999999999783e-01 4.119554999999999723e+01 1.276185000000000116e+02 1.454164999999999964e+03
7.799999999999999989e-02 4.874315000000000175e-01 4.173425000000000296e+01 1.299590000000000032e+02 1.454924999999999955e+03
7.900000000000000078e-02 4.879399999999999848e-01 4.223529999999999518e+01 1.322880000000000109e+02 1.455670000000000073e+03
8.000000000000000167e-02 4.884410000000000140e-01 4.269254999999999711e+01 1.345874999999999773e+02 1.456414999999999964e+03
8.100000000000000255e-02 4.889299999999999757e-01 4.309839999999999804e+01 1.368360000000000127e+02 1.457150000000000091e+03
8.200000000000000344e-02 4.894025000000000181e-01 4.344454999999999956e+01 1.390124999999999886e+02 1.457855000000000018e+03
8.300000000000000433e-02 4.898540000000000116e-01 4.372240000000000038e+01 1.410925000000000011e+02 1.458545000000000073e+03
8.400000000000000522e-02 4.902785000000000060e-01 4.392369999999999663e+01 1.430534999999999854e+02 1.459194999999999936e+03
8.500000000000000611e-02 4.906730000000000258e-01 4.404099999999999682e+01 1.448750000000000000e+02 1.459804999999999836e+03
8.600000000000000699e-02 4.910329999999999417e-01 4.406815000000000282e+01 1.465384999999999991e+02 1.460375000000000000e+03
8.700000000000000788e-02 4.913564999999999738e-01 4.400045000000000073e+01 1.480275000000000034e+02 1.460894999999999982e+03
8.800000000000000877e-02 4.916404999999999803e-01 4.383505000000000251e+01 1.493324999999999818e+02 1.461359999999999900e+03
8.899999999999999578e-02 4.918845000000000023e-01 4.357130000000000081e+01 1.504454999999999814e+02 1.461769999999999982e+03
8.999999999999999667e-02 4.920880000000000254e-01 4.321030000000000371e+01 1.513650000000000091e+02 1.462115000000000009e+03
9.099999999999999756e-02 4.922524999999999817e-01 4.275529999999999831e+01 1.520919999999999845e+02 1.462404999999999973e+03
9.199999999999999845e-02 4.923775000000000235e-01 4.221144999999999925e+01 1.526329999999999814e+02 1.462639999999999873e+03
9.299999999999999933e-02 4.924669999999999881e-01 4.158570000000000277e+01 1.529984999999999786e+02 1.462815000000000055e+03
9.400000000000000022e-02 4.925235000000000030e-01 4.088654999999999973e+01 1.532009999999999934e+02 1.462940000000000055e+03
9.500000000000000111e-02 4.925495000000000290e-01 4.012375000000000114e+01 1.532565000000000168e+02 1.463014999999999873e+03
9.600000000000000200e-02 4.925494999999999735e-01 3.930805000000000149e+01 1.531839999999999975e+02 1.463045000000000073e+03
9.700000000000000289e-02 4.925270000000000481e-01 3.845080000000000098e+01 1.530024999999999977e+02 1.463039999999999964e+03
9.800000000000000377e-02 4.924874999999999670e-01 3.756380000000000052e+01 1.527330000000000041e+02 1.463005000000000109e+03
9.900000000000000466e-02 4.924334999999999685e-01 3.665865000000000151e+01 1.523954999999999984e+02 1.462940000000000055e+03
1.000000000000000056e-01 4.923700000000000299e-01 3.574665000000000248e+01 1.520099999999999909e+02 1.462849999999999909e+03
1.010000000000000064e-01 4.923005000000000297e-01 3.483830000000000382e+01 1.515955000000000155e+02 1.462744999999999891e+03
1.020000000000000073e-01 4.922279999999999989e-01 3.394295000000000329e+01 1.511675000000000182e+02 1.462634999999999991e+03
1.030000000000000082e-01 4.921560000000000379e-01 3.306865000000000521e+01 1.507419999999999902e+02 1.462519999999999982e+03
1.040000000000000091e-01 4.920860000000000234e-01 3.222190000000000509e+01 1.503294999999999959e+02 1.462405000000000200e+03
1.050000000000000100e-01 4.920195000000000540e-01 3.140729999999999933e+01 1.499389999999999930e+02 1.462289999999999964e+03
1.059999999999999970e-01 4.919580000000000064e-01 3.062770000000000081e+01 1.495760000000000218e+02 1.462175000000000182e+03
1.069999999999999979e-01 4.919010000000000327e-01 2.988404999999999845e+01 1.492425000000000068e+02 1.462070000000000164e+03
1.079999999999999988e-01 4.918489999999999807e-01 2.917555000000000121e+01 1.489375000000000000e+02 1.461974999999999909e+03
1.089999999999999997e-01 4.918000000000000149e-01 2.849974999999999881e+01 1.486560000000000059e+02 1.461880000000000109e+03
1.100000000000000006e-01 4.917529999999999957e-01 2.785275000000000034e+01 1.483940000000000055e+02 1.461789999999999964e+03
1.110000000000000014e-01 4.917070000000000052e-01 2.722960000000000136e+01 1.481409999999999911e+02 1.461704999999999927e+03
1.120000000000000023e-01 4.916584999999999983e-01 2.662434999999999974e+01 1.478879999999999768e+02 1.461615000000000009e+03
1.130000000000000032e-01 4.916059999999999874e-01 2.603075000000000117e+01 1.476240000000000236e+02 1.461525000000000091e+03
1.140000000000000041e-01 4.915470000000000117e-01 2.544214999999999804e+01 1.473380000000000223e+02 1.461434999999999945e+03
1.150000000000000050e-01 4.914794999999999581e-01 2.485215000000000174e+01 1.470190000000000055e+02 1.461329999999999927e+03
1.160000000000000059e-01 4.914020000000000055e-01 2.425464999999999804e+01 1.466564999999999941e+02 1.461220000000000027e+03
1.170000000000000068e-01 4.913125000000000409e-01 2.364444999999999908e+01 1.462425000000000068e+02 1.461090000000000146e+03
1.180000000000000077e-01 4.912094999999999656e-01 2.301709999999999923e+01 1.457690000000000055e+02 1.460949999999999818e+03
1.190000000000000085e-01 4.910920000000000285e-01 2.236929999999999907e+01 1.452319999999999993e+02 1.460785000000000082e+03
1.200000000000000094e-01 4.909604999999999664e-01 2.169910000000000139e+01 1.446279999999999859e+02 1.460605000000000018e+03
1.209999999999999964e-01 4.908150000000000013e-01 2.100569999999999737e+01 1.439574999999999818e+02 1.460410000000000082e+03
1.219999999999999973e-01 4.906555000000000222e-01 2.028990000000000293e+01 1.432220000000000084e+02 1.460190000000000055e+03
1.229999999999999982e-01 4.904839999999999756e-01 1.955369999999999919e+01 1.424264999999999759e+02 1.459954999999999927e+03
1.239999999999999991e-01 4.903015000000000012e-01 1.880044999999999789e+01 1.415765000000000100e+02 1.459700000000000045e+03
1.250000000000000000e-01 4.901099999999999901e-01 1.803470000000000084e+01 1.406825000000000045e+02 1.459434999999999945e+03
1.260000000000000009e-01 4.899124999999999730e-01 1.726205000000000211e+01 1.397545000000000073e+02 1.459154999999999973e+03
1.270000000000000018e-01 4.897115000000000218e-01 1.648874999999999957e+01 1.388039999999999736e+02 1.458869999999999891e+03
1.280000000000000027e-01 4.895090000000000274e-01 1.572191499999999920e+01 1.378444999999999823e+02 1.458575000000000045e+03
1.290000000000000036e-01 4.893085000000000351e-01 1.496885999999999939e+01 1.368890000000000100e+02 1.458275000000000091e+03
1.300000000000000044e-01 4.891119999999999912e-01 1.423706500000000119e+01 1.359509999999999934e+02 1.457990000000000009e+03
1.310000000000000053e-01 4.889229999999999965e-01 1.353380499999999920e+01 1.350439999999999827e+02 1.457704999999999927e+03
1.320000000000000062e-01 4.887440000000000118e-01 1.286606500000000075e+01 1.341794999999999902e+02 1.457429999999999836e+03
1.330000000000000071e-01 4.885770000000000390e-01 1.224003500000000066e+01 1.333689999999999998e+02 1.457164999999999964e+03
1.340000000000000080e-01 4.884239999999999693e-01 1.166110000000000113e+01 1.326214999999999975e+02 1.456920000000000073e+03
1.350000000000000089e-01 4.882855000000000389e-01 1.113378499999999960e+01 1.319454999999999814e+02 1.456694999999999936e+03
1.360000000000000098e-01 4.881640000000000423e-01 1.066122000000000014e+01 1.313460000000000036e+02 1.456490000000000009e+03
1.370000000000000107e-01 4.880579999999999918e-01 1.024540000000000006e+01 1.308260000000000218e+02 1.456304999999999836e+03
1.380000000000000115e-01 4.879700000000000149e-01 9.887100000000000222e+00 1.303870000000000005e+02 1.456150000000000091e+03
1.390000000000000124e-01 4.878974999999999840e-01 9.585770000000000124e+00 1.300279999999999916e+02 1.456014999999999873e+03
1.400000000000000133e-01 4.878409999999999691e-01 9.339660000000000295e+00 1.297454999999999927e+02 1.455900000000000091e+03
1.410000000000000142e-01 4.877985000000000237e-01 9.145939999999999515e+00 1.295345000000000084e+02 1.455809999999999945e+03
1.420000000000000151e-01 4.877695000000000225e-01 9.000890000000000057e+00 1.293894999999999982e+02 1.455735000000000127e+03
1.430000000000000160e-01 4.877510000000000456e-01 8.899964999999999904e+00 1.293004999999999995e+02 1.455684999999999945e+03
1.440000000000000169e-01 4.877420000000000089e-01 8.837994999999999379e+00 1.292604999999999791e+02 1.455650000000000091e+03
1.450000000000000178e-01 4.877404999999999657e-01 8.809585000000000221e+00 1.292605000000000075e+02 1.455625000000000000e+03
1.459999999999999909e-01 4.877445000000000253e-01 8.808984999999999843e+00 1.292899999999999920e+02 1.455615000000000009e+03
1.469999999999999918e-01 4.877520000000000189e-01 8.830500000000000682e+00 1.293400000000000034e+02 1.455615000000000009e+03
1.479999999999999927e-01 4.877615000000000145e-01 8.868650000000000588e+00 1.294029999999999916e+02 1.455615000000000009e+03
1.489999999999999936e-01 4.877715000000000245e-01 8.918150000000000688e+00 1.294694999999999823e+02 1.455625000000000000e+03
1.499999999999999944e-01 4.877804999999999502e-01 8.974325000000000330e+00 1.295335000000000036e+02 1.455634999999999991e+03
1.509999999999999953e-01 4.877874999999999850e-01 9.032949999999999591e+00 1.295894999999999868e+02 1.455644999999999982e+03
1.519999999999999962e-01 4.877914999999999890e-01 9.090305000000000746e+00 1.296324999999999932e+02 1.455650000000000091e+03
1.529999999999999971e-01 4.877920000000000034e-01 9.143530000000000157e+00 1.296585000000000036e+02 1.455650000000000091e+03
1.539999999999999980e-01 4.877890000000000281e-01 9.190345000000000653e+00 1.296664999999999850e+02 1.455650000000000091e+03
1.549999999999999989e-01 4.877814999999999790e-01 9.228995000000001170e+00 1.296550000000000011e+02 1.455644999999999982e+03
1.559999999999999998e-01 4.877710000000000101e-01 9.258555000000001201e+00 1.296245000000000118e+02 1.455640000000000100e+03
1.570000000000000007e-01 4.877569999999999961e-01 9.278620000000000090e+00 1.295755000000000052e+02 1.455619999999999891e+03
1.580000000000000016e-01 4.877394999999999925e-01 9.289279999999999760e+00 1.295110000000000241e+02 1.455605000000000018e+03
1.590000000000000024e-01 4.877199999999999869e-01 9.291074999999999307e+00 1.294320000000000164e+02 1.455579999999999927e+03
