# t [s], A [cm^2], U [cm/s], P [cPa], c [cm/s]
1.000000000000000021e-03 1.202944999999999987e-01 2.840570000000000039e-01 1.002660000000000053e+02 1.987434999999999945e+03
2.000000000000000042e-03 1.202685000000000004e-01 1.798478000000000021e+00 9.714215000000000089e+01 1.987090000000000146e+03
3.000000000000000062e-03 1.201865000000000017e-01 3.675184500000000298e+00 9.289109999999999445e+01 1.986059999999999945e+03
4.000000000000000083e-03 1.200679999999999942e-01 5.774348999999999954e+00 8.815475000000000705e+01 1.984605000000000018e+03
5.000000000000000104e-03 1.199350000000000138e-01 8.033424999999999372e+00 8.375509999999999877e+01 1.982985000000000127e+03
6.000000000000000125e-03 1.198034999999999933e-01 1.031589999999999918e+01 8.006889999999999930e+01 1.981400000000000091e+03
7.000000000000000146e-03 1.196790000000000076e-01 1.242865999999999893e+01 7.697759999999999536e+01 1.979920000000000073e+03
8.000000000000000167e-03 1.195625000000000021e-01 1.425226499999999952e+01 7.422745000000000459e+01 1.978559999999999945e+03
9.000000000000001055e-03 1.194570000000000076e-01 1.579265000000000008e+01 7.178095000000000425e+01 1.977355000000000018e+03
1.000000000000000194e-02 1.193659999999999999e-01 1.708889999999999887e+01 6.971864999999999668e+01 1.976315000000000055e+03
1.099999999999999936e-02 1.192890000000000061e-01 1.816100000000000136e+01 6.805655000000000143e+01 1.975454999999999927e+03
1.200000000000000025e-02 1.192259999999999986e-01 1.902254999999999896e+01 6.675405000000000655e+01 1.974750000000000000e+03
1.300000000000000114e-02 1.191760000000000042e-01 1.968345000000000056e+01 6.574569999999999936e+01 1.974199999999999818e+03
1.400000000000000203e-02 1.191349999999999909e-01 2.014645000000000152e+01 6.493389999999999418e+01 1.973764999999999873e+03
1.499999999999999944e-02 1.191019999999999995e-01 2.043175000000000097e+01 6.423685000000000400e+01 1.973414999999999964e+03
1.600000000000000033e-02 1.190755000000000008e-01 2.060904999999999987e+01 6.369214999999999804e+01 1.973144999999999982e+03
1.700000000000000122e-02 1.190584999999999977e-01 2.079464999999999719e+01 6.349884999999999735e+01 1.972980000000000018e+03
1.800000000000000211e-02 1.190565000000000095e-01 2.110594999999999999e+01 6.392964999999999520e+01 1.972970000000000027e+03
1.900000000000000300e-02 1.190729999999999983e-01 2.160475000000000279e+01 6.516644999999999754e+01 1.973164999999999964e+03
2.000000000000000042e-02 1.191095000000000070e-01 2.226640000000000086e+01 6.717040000000000077e+01 1.973575000000000045e+03
2.100000000000000130e-02 1.191609999999999892e-01 2.298935000000000173e+01 6.966065000000000396e+01 1.974164999999999964e+03
2.200000000000000219e-02 1.192209999999999936e-01 2.363514999999999944e+01 7.220120000000000005e+01 1.974849999999999909e+03
2.299999999999999961e-02 1.192789999999999961e-01 2.407760000000000034e+01 7.434555000000000291e+01 1.975525000000000091e+03
2.400000000000000050e-02 1.193275000000000030e-01 2.424210000000000065e+01 7.577309999999999945e+01 1.976105000000000018e+03
2.500000000000000139e-02 1.193604999999999944e-01 2.412185000000000201e+01 7.637080000000000268e+01 1.976505000000000109e+03
2.600000000000000228e-02 1.193780000000000119e-01 2.377009999999999934e+01 7.623785000000000878e+01 1.976724999999999909e+03
2.700000000000000316e-02 1.193809999999999871e-01 2.327380000000000138e+01 7.562144999999999584e+01 1.976785000000000082e+03
2.800000000000000058e-02 1.193754999999999955e-01 2.272100000000000009e+01 7.481589999999999918e+01 1.976735000000000127e+03
2.900000000000000147e-02 1.193659999999999999e-01 2.217314999999999969e+01 7.406264999999999077e+01 1.976630000000000109e+03
3.000000000000000236e-02 1.193555000000000033e-01 2.165184999999999960e+01 7.348579999999999757e+01 1.976519999999999982e+03
3.099999999999999978e-02 1.193464999999999943e-01 2.114075000000000060e+01 7.307730000000000814e+01 1.976420000000000073e+03
3.200000000000000067e-02 1.193385000000000001e-01 2.060014999999999930e+01 7.272764999999999702e+01 1.976319999999999936e+03
3.300000000000000155e-02 1.193285000000000040e-01 1.998754999999999882e+01 7.228549999999999898e+01 1.976210000000000036e+03
3.400000000000000244e-02 1.193144999999999900e-01 1.927734999999999843e+01 7.162494999999999834e+01 1.976059999999999945e+03
3.500000000000000333e-02 1.192944999999999978e-01 1.847504999999999953e+01 7.069934999999999548e+01 1.975844999999999800e+03
3.600000000000000422e-02 1.192695000000000005e-01 1.762055000000000149e+01 6.956765000000000043e+01 1.975570000000000164e+03
3.700000000000000511e-02 1.192419999999999869e-01 1.678174999999999883e+01 6.838729999999999620e+01 1.975250000000000000e+03
3.799999999999999906e-02 1.192145000000000010e-01 1.603930000000000078e+01 6.737595000000000312e+01 1.974945000000000164e+03
3.899999999999999994e-02 1.191929999999999934e-01 1.546715000000000018e+01 6.675490000000000634e+01 1.974690000000000055e+03
4.000000000000000083e-02 1.191814999999999958e-01 1.511485000000000056e+01 6.669079999999999586e+01 1.974550000000000182e+03
4.100000000000000172e-02 1.191834999999999978e-01 1.499660000000000082e+01 6.725300000000000011e+01 1.974554999999999836e+03
4.200000000000000261e-02 1.191984999999999850e-01 1.508835000000000015e+01 6.839544999999999675e+01 1.974715000000000146e+03
4.300000000000000350e-02 1.192265000000000130e-01 1.533309999999999995e+01 6.996625000000000227e+01 1.975019999999999982e+03
4.400000000000000439e-02 1.192630000000000079e-01 1.565249999999999986e+01 7.173914999999999509e+01 1.975424999999999955e+03
4.499999999999999833e-02 1.193035000000000068e-01 1.596105000000000018e+01 7.345650000000000546e+01 1.975875000000000000e+03
4.599999999999999922e-02 1.193420000000000036e-01 1.617869999999999919e+01 7.487379999999998859e+01 1.976315000000000055e+03
4.700000000000000011e-02 1.193735000000000074e-01 1.624174999999999969e+01 7.579540000000000077e+01 1.976674999999999955e+03
4.800000000000000100e-02 1.193934999999999996e-01 1.610835000000000150e+01 7.609694999999999254e+01 1.976914999999999964e+03
4.900000000000000189e-02 1.193994999999999918e-01 1.575990000000000002e+01 7.573224999999999341e+01 1.976990000000000009e+03
5.000000000000000278e-02 1.193904999999999966e-01 1.519865000000000066e+01 7.472614999999998986e+01 1.976900000000000091e+03
5.100000000000000366e-02 1.193659999999999999e-01 1.444284999999999997e+01 7.315709999999999980e+01 1.976634999999999991e+03
5.200000000000000455e-02 1.193285000000000040e-01 1.352084999999999937e+01 7.113634999999999309e+01 1.976215000000000146e+03
5.300000000000000544e-02 1.192794999999999966e-01 1.246597500000000025e+01 6.878690000000000282e+01 1.975659999999999854e+03
5.399999999999999939e-02 1.192215000000000080e-01 1.131267499999999870e+01 6.622759999999999536e+01 1.975005000000000109e+03
5.500000000000000028e-02 1.191564999999999985e-01 1.009438000000000102e+01 6.356374999999999886e+01 1.974269999999999982e+03
5.600000000000000117e-02 1.190885000000000138e-01 8.842790000000000816e+00 6.088454999999999728e+01 1.973494999999999891e+03
5.700000000000000205e-02 1.190190000000000137e-01 7.589014999999999844e+00 5.826500000000000057e+01 1.972704999999999927e+03
5.800000000000000294e-02 1.189500000000000002e-01 6.364029999999999632e+00 5.577145000000000152e+01 1.971914999999999964e+03
5.900000000000000383e-02 1.188829999999999887e-01 5.200270000000000614e+00 5.346739999999999782e+01 1.971150000000000091e+03
6.000000000000000472e-02 1.188204999999999956e-01 4.131610000000000227e+00 5.141740000000000066e+01 1.970434999999999945e+03
6.099999999999999867e-02 1.187644999999999951e-01 3.193159499999999706e+00 4.968945000000000078e+01 1.969784999999999854e+03
6.199999999999999956e-02 1.187165000000000026e-01 2.420050999999999952e+00 4.835349999999999682e+01 1.969230000000000018e+03
6.300000000000000044e-02 1.186785000000000062e-01 1.845611499999999960e+00 4.747825000000000273e+01 1.968784999999999854e+03
6.400000000000000133e-02 1.186524999999999941e-01 1.499222999999999972e+00 4.712569999999999482e+01 1.968480000000000018e+03
6.500000000000000222e-02 1.186399999999999955e-01 1.404204999999999925e+00 4.734544999999999959e+01 1.968319999999999936e+03
6.600000000000000311e-02 1.186424999999999980e-01 1.576035000000000075e+00 4.816949999999999932e+01 1.968329999999999927e+03
6.700000000000000400e-02 1.186610000000000165e-01 2.021144999999999747e+00 4.960849999999999937e+01 1.968519999999999982e+03
6.800000000000000488e-02 1.186954999999999955e-01 2.736425000000000107e+00 5.165024999999999977e+01 1.968894999999999982e+03
6.900000000000000577e-02 1.187455000000000038e-01 3.709474999999999856e+00 5.425969999999999516e+01 1.969444999999999936e+03
7.000000000000000666e-02 1.188109999999999999e-01 4.919425000000000381e+00 5.738155000000000427e+01 1.970170000000000073e+03
7.100000000000000755e-02 1.188899999999999957e-01 6.338325000000000209e+00 6.094420000000000215e+01 1.971054999999999836e+03
7.200000000000000844e-02 1.189815000000000039e-01 7.932819999999999538e+00 6.486424999999999841e+01 1.972079999999999927e+03
7.300000000000000933e-02 1.190819999999999934e-01 9.665895000000000792e+00 6.905174999999999841e+01 1.973224999999999909e+03
7.399999999999999634e-02 1.191909999999999914e-01 1.149899500000000074e+01 7.341585000000000605e+01 1.974460000000000036e+03
7.499999999999999722e-02 1.193059999999999954e-01 1.339378999999999920e+01 7.786914999999999054e+01 1.975769999999999982e+03
7.599999999999999811e-02 1.194245000000000029e-01 1.531380000000000052e+01 8.233249999999999602e+01 1.977119999999999891e+03
7.699999999999999900e-02 1.195439999999999975e-01 1.722609999999999886e+01 8.673820000000000618e+01 1.978494999999999891e+03
7.799999999999999989e-02 1.196629999999999916e-01 1.910244999999999749e+01 9.103280000000000882e+01 1.979865000000000009e+03
7.900000000000000078e-02 1.197805000000000120e-01 2.092014999999999958e+01 9.517840000000001055e+01 1.981224999999999909e+03
8.000000000000000167e-02 1.198954999999999882e-01 2.266244999999999976e+01 9.915420000000000300e+01 1.982555000000000064e+03
8.100000000000000255e-02 1.200065000000000021e-01 2.431859999999999999e+01 1.029533500000000004e+02 1.983845000000000027e+03
8.200000000000000344e-02 1.201139999999999985e-01 2.588340000000000174e+01 1.065823499999999910e+02 1.985099999999999909e+03
8.300000000000000433e-02 1.202175000000000049e-01 2.735640000000000072e+01 1.100589999999999975e+02 1.986309999999999945e+03
8.400000000000000522e-02 1.203180000000000083e-01 2.874085000000000178e+01 1.134080000000000013e+02 1.987485000000000127e+03
8.500000000000000611e-02 1.204149999999999943e-01 3.004250000000000043e+01 1.166564999999999941e+02 1.988625000000000000e+03
8.600000000000000699e-02 1.205100000000000060e-01 3.126849999999999952e+01 1.198319999999999936e+02 1.989740000000000009e+03
8.700000000000000788e-02 1.206025000000000014e-01 3.242624999999999602e+01 1.229579999999999984e+02 1.990829999999999927e+03
8.800000000000000877e-02 1.206939999999999957e-01 3.352239999999999753e+01 1.260544999999999902e+02 1.991904999999999973e+03
8.899999999999999578e-02 1.207844999999999891e-01 3.456215000000000259e+01 1.291314999999999884e+02 1.992970000000000027e+03
8.999999999999999667e-02 1.208739999999999953e-01 3.554885000000000161e+01 1.321940000000000168e+02 1.994030000000000200e+03
9.099999999999999756e-02 1.209635000000000016e-01 3.648364999999999725e+01 1.352369999999999948e+02 1.995079999999999927e+03
9.199999999999999845e-02 1.210519999999999929e-01 3.736565000000000225e+01 1.382500000000000000e+02 1.996119999999999891e+03
9.299999999999999933e-02 1.211389999999999967e-01 3.819169999999999732e+01 1.412144999999999868e+02 1.997150000000000091e+03
9.400000000000000022e-02 1.212245000000000128e-01 3.895704999999999529e+01 1.441090000000000089e+02 1.998160000000000082e+03
9.500000000000000111e-02 1.213084999999999997e-01 3.965554999999999808e+01 1.469085000000000036e+02 1.999154999999999973e+03
9.600000000000000200e-02 1.213894999999999974e-01 4.027984999999999616e+01 1.495854999999999961e+02 2.000115000000000009e+03
9.700000000000000289e-02 1.214675000000000060e-01 4.082210000000000605e+01 1.521119999999999948e+02 2.001034999999999854e+03
9.800000000000000377e-02 1.215410000000000101e-01 4.127434999999999832e+01 1.544624999999999773e+02 2.001909999999999854e+03
9.900000000000000466e-02 1.216099999999999959e-01 4.162884999999999991e+01 1.566109999999999900e+02 2.002730000000000018e+03
1.000000000000000056e-01 1.216730000000000034e-01 4.187850000000000250e+01 1.585364999999999895e+02 2.003489999999999782e+03
1.010000000000000064e-01 1.217309999999999920e-01 4.201739999999999498e+01 1.602189999999999941e+02 2.004175000000000182e+03
1.020000000000000073e-01 1.217820000000000014e-01 4.204099999999999682e+01 1.616455000000000268e+02 2.004785000000000082e+03
1.030000000000000082e-01 1.218260000000000037e-01 4.194635000000000247e+01 1.628075000000000045e+02 2.005319999999999936e+03
1.040000000000000091e-01 1.218629999999999991e-01 4.173290000000000077e+01 1.636990000000000123e+02 2.005764999999999873e+03
1.050000000000000100e-01 1.218925000000000008e-01 4.140194999999999936e+01 1.643224999999999909e+02 2.006125000000000000e+03
1.059999999999999970e-01 1.219149999999999956e-01 4.095734999999999815e+01 1.646864999999999952e+02 2.006404999999999973e+03
1.069999999999999979e-01 1.219304999999999972e-01 4.040524999999999523e+01 1.648020000000000209e+02 2.006595000000000027e+03
1.079999999999999988e-01 1.219385000000000052e-01 3.975395000000000323e+01 1.646895000000000095e+02 2.006704999999999927e+03
1.089999999999999997e-01 1.219410000000000077e-01 3.901380000000000337e+01 1.643704999999999927e+02 2.006744999999999891e+03
1.100000000000000006e-01 1.219375000000000042e-01 3.819675000000000153e+01 1.638709999999999809e+02 2.006704999999999927e+03
1.110000000000000014e-01 1.219284999999999952e-01 3.731600000000000250e+01 1.632214999999999918e+02 2.006615000000000009e+03
1.120000000000000023e-01 1.219149999999999956e-01 3.638545000000000584e+01 1.624510000000000218e+02 2.006465000000000146e+03
1.130000000000000032e-01 1.218980000000000063e-01 3.541924999999999812e+01 1.615904999999999916e+02 2.006275000000000091e+03
1.140000000000000041e-01 1.218785000000000007e-01 3.443135000000000190e+01 1.606684999999999945e+02 2.006045000000000073e+03
1.150000000000000050e-01 1.218565000000000065e-01 3.343484999999999729e+01 1.597129999999999939e+02 2.005789999999999964e+03
1.160000000000000059e-01 1.218329999999999969e-01 3.244190000000000396e+01 1.587475000000000023e+02 2.005519999999999982e+03
1.170000000000000068e-01 1.218094999999999872e-01 3.146305000000000263e+01 1.577914999999999850e+02 2.005235000000000127e+03
1.180000000000000077e-01 1.217849999999999905e-01 3.050704999999999956e+01 1.568619999999999948e+02 2.004950000000000045e+03
1.190000000000000085e-01 1.217609999999999942e-01 2.958074999999999832e+01 1.559694999999999823e+02 2.004659999999999854e+03
1.200000000000000094e-01 1.217369999999999980e-01 2.868900000000000006e+01 1.551209999999999809e+02 2.004380000000000109e+03
1.209999999999999964e-01 1.217140000000000027e-01 2.783440000000000225e+01 1.543180000000000121e+02 2.004110000000000127e+03
1.219999999999999973e-01 1.216925000000000090e-01 2.701754999999999995e+01 1.535575000000000045e+02 2.003845000000000027e+03
1.229999999999999982e-01 1.216710000000000014e-01 2.623729999999999762e+01 1.528344999999999914e+02 2.003590000000000146e+03
1.239999999999999991e-01 1.216500000000000081e-01 2.549054999999999893e+01 1.521370000000000005e+02 2.003349999999999909e+03
1.250000000000000000e-01 1.216305000000000025e-01 2.477295000000000158e+01 1.514544999999999959e+02 2.003105000000000018e+03
1.260000000000000009e-01 1.216109999999999969e-01 2.407874999999999943e+01 1.507715000000000032e+02 2.002875000000000000e+03
1.270000000000000018e-01 1.215904999999999903e-01 2.340169999999999817e+01 1.500724999999999909e+02 2.002630000000000109e+03
1.280000000000000027e-01 1.215700000000000114e-01 2.273474999999999824e+01 1.493410000000000082e+02 2.002389999999999873e+03
1.290000000000000036e-01 1.215489999999999904e-01 2.207110000000000127e+01 1.485620000000000118e+02 2.002134999999999991e+03
1.300000000000000044e-01 1.215264999999999956e-01 2.140399999999999991e+01 1.477210000000000036e+02 2.001864999999999782e+03
1.310000000000000053e-01 1.215024999999999994e-01 2.072744999999999749e+01 1.468064999999999998e+02 2.001579999999999927e+03
1.320000000000000062e-01 1.214765000000000011e-01 2.003650000000000020e+01 1.458095000000000141e+02 2.001275000000000091e+03
1.330000000000000071e-01 1.214480000000000004e-01 1.932710000000000150e+01 1.447224999999999966e+02 2.000940000000000055e+03
1.340000000000000080e-01 1.214174999999999977e-01 1.859700000000000131e+01 1.435439999999999827e+02 2.000579999999999927e+03
1.350000000000000089e-01 1.213845000000000063e-01 1.784539999999999793e+01 1.422754999999999939e+02 2.000200000000000045e+03
1.360000000000000098e-01 1.213494999999999990e-01 1.707319999999999993e+01 1.409225000000000136e+02 1.999779999999999973e+03
1.370000000000000107e-01 1.213120000000000032e-01 1.628300000000000125e+01 1.394945000000000164e+02 1.999345000000000027e+03
1.380000000000000115e-01 1.212725000000000053e-01 1.547899999999999920e+01 1.380049999999999955e+02 1.998884999999999991e+03
1.390000000000000124e-01 1.212315000000000059e-01 1.466685000000000016e+01 1.364695000000000107e+02 1.998405000000000200e+03
1.400000000000000133e-01 1.211895000000000056e-01 1.385350000000000037e+01 1.349069999999999823e+02 1.997910000000000082e+03
1.410000000000000142e-01 1.211460000000000037e-01 1.304674999999999940e+01 1.333389999999999986e+02 1.997400000000000091e+03
1.420000000000000151e-01 1.211030000000000023e-01 1.225506999999999991e+01 1.317860000000000014e+02 1.996894999999999982e+03
1.430000000000000160e-01 1.210600000000000009e-01 1.148724499999999971e+01 1.302700000000000102e+02 1.996384999999999991e+03
1.440000000000000169e-01 1.210175000000000001e-01 1.075176000000000087e+01 1.288120000000000118e+02 1.995889999999999873e+03
1.450000000000000178e-01 1.209764999999999868e-01 1.005671500000000052e+01 1.274304999999999950e+02 1.995409999999999854e+03
1.459999999999999909e-01 1.209380000000000038e-01 9.409359999999999502e+00 1.261419999999999959e+02 1.994949999999999818e+03
1.469999999999999918e-01 1.209010000000000085e-01 8.815875000000000128e+00 1.249604999999999961e+02 1.994519999999999982e+03
1.479999999999999927e-01 1.208670000000000022e-01 8.281119999999999592e+00 1.238965000000000032e+02 1.994115000000000009e+03
1.489999999999999936e-01 1.208359999999999990e-01 7.808339999999999392e+00 1.229555000000000007e+02 1.993750000000000000e+03
1.499999999999999944e-01 1.208079999999999987e-01 7.399420000000000108e+00 1.221400000000000006e+02 1.993420000000000073e+03
1.509999999999999953e-01 1.207835000000000020e-01 7.054605000000000459e+00 1.214495000000000005e+02 1.993125000000000000e+03
1.519999999999999962e-01 1.207619999999999943e-01 6.772690000000000765e+00 1.208795000000000073e+02 1.992869999999999891e+03
1.529999999999999971e-01 1.207440000000000041e-01 6.551104999999999734e+00 1.204230000000000018e+02 1.992650000000000091e+03
1.539999999999999980e-01 1.207290000000000030e-01 6.386115000000000208e+00 1.200699999999999932e+02 1.992470000000000027e+03
1.549999999999999989e-01 1.207164999999999905e-01 6.273005000000000386e+00 1.198089999999999975e+02 1.992315000000000055e+03
1.559999999999999998e-01 1.207070000000000087e-01 6.206299999999999706e+00 1.196280000000000001e+02 1.992200000000000045e+03
1.570000000000000007e-01 1.206995000000000151e-01 6.180015000000000036e+00 1.195130000000000052e+02 1.992099999999999909e+03
1.580000000000000016e-01 1.206935000000000091e-01 6.187860000000000582e+00 1.194505000000000052e+02 1.992034999999999854e+03
1.590000000000000024e-01 1.206900000000000056e-01 6.223469999999999835e+00 1.194284999999999997e+02 1.991980000000000018e+03
