# t [s], A [cm^2], U [cm/s], P [cPa], c [cm/s]
1.000000000000000021e-03 1.189800000000000024e-01 2.995929999999999982e-01 8.790975000000000250e+01 1.995545000000000073e+03
2.000000000000000042e-03 1.189544999999999908e-01 1.682389000000000134e+00 8.497114999999999441e+01 1.995210000000000036e+03
3.000000000000000062e-03 1.188789999999999986e-01 3.372981500000000299e+00 8.101415000000000077e+01 1.994244999999999891e+03
4.000000000000000083e-03 1.187735000000000041e-01 5.261119500000000393e+00 7.671829999999999927e+01 1.992909999999999854e+03
5.000000000000000104e-03 1.186564999999999981e-01 7.292109999999999204e+00 7.284794999999999732e+01 1.991450000000000045e+03
6.000000000000000125e-03 1.185420000000000085e-01 9.326980000000000715e+00 6.968554999999999211e+01 1.990030000000000200e+03
7.000000000000000146e-03 1.184344999999999981e-01 1.117902499999999932e+01 6.703239999999999554e+01 1.988720000000000027e+03
8.000000000000000167e-03 1.183334999999999942e-01 1.275712500000000027e+01 6.464099999999999113e+01 1.987514999999999873e+03
9.000000000000001055e-03 1.182430000000000009e-01 1.408712999999999838e+01 6.251890000000000214e+01 1.986449999999999818e+03
1.000000000000000194e-02 1.181645000000000056e-01 1.520584999999999987e+01 6.074880000000000280e+01 1.985539999999999964e+03
1.099999999999999936e-02 1.180994999999999961e-01 1.612635000000000218e+01 5.932590000000000430e+01 1.984780000000000200e+03
1.200000000000000025e-02 1.180454999999999977e-01 1.685810000000000031e+01 5.819879999999999853e+01 1.984164999999999964e+03
1.300000000000000114e-02 1.180019999999999958e-01 1.740609999999999857e+01 5.729489999999999839e+01 1.983680000000000064e+03
1.400000000000000203e-02 1.179655000000000009e-01 1.777254999999999896e+01 5.651670000000000016e+01 1.983279999999999973e+03
1.499999999999999944e-02 1.179354999999999987e-01 1.798904999999999887e+01 5.581439999999999912e+01 1.982950000000000045e+03
1.600000000000000033e-02 1.179110000000000019e-01 1.814444999999999908e+01 5.529260000000000019e+01 1.982695000000000164e+03
1.700000000000000122e-02 1.178970000000000018e-01 1.836630000000000251e+01 5.521490000000000009e+01 1.982549999999999955e+03
1.800000000000000211e-02 1.178985000000000033e-01 1.876265000000000072e+01 5.586755000000000138e+01 1.982579999999999927e+03
1.900000000000000300e-02 1.179199999999999970e-01 1.936540000000000106e+01 5.737574999999999648e+01 1.982835000000000036e+03
2.000000000000000042e-02 1.179604999999999959e-01 2.011140000000000327e+01 5.959604999999999819e+01 1.983305000000000064e+03
2.100000000000000130e-02 1.180140000000000078e-01 2.086739999999999995e+01 6.214124999999999943e+01 1.983920000000000073e+03
2.200000000000000219e-02 1.180710000000000093e-01 2.148094999999999999e+01 6.451154999999999973e+01 1.984605000000000018e+03
2.299999999999999961e-02 1.181224999999999914e-01 2.183285000000000053e+01 6.626210000000000377e+01 1.985220000000000027e+03
2.400000000000000050e-02 1.181605000000000016e-01 2.187164999999999893e+01 6.713675000000000637e+01 1.985684999999999945e+03
2.500000000000000139e-02 1.181814999999999949e-01 2.162059999999999960e+01 6.712420000000000186e+01 1.985954999999999927e+03
2.600000000000000228e-02 1.181854999999999989e-01 2.115885000000000105e+01 6.642609999999999104e+01 1.986025000000000091e+03
2.700000000000000316e-02 1.181764999999999899e-01 2.058709999999999951e+01 6.536010000000000275e+01 1.985945000000000164e+03
2.800000000000000058e-02 1.181609999999999883e-01 1.999220000000000041e+01 6.424040000000000816e+01 1.985769999999999982e+03
2.900000000000000147e-02 1.181429999999999980e-01 1.942329999999999757e+01 6.328049999999999642e+01 1.985565000000000055e+03
3.000000000000000236e-02 1.181264999999999954e-01 1.888504999999999967e+01 6.254765000000000441e+01 1.985369999999999891e+03
3.099999999999999978e-02 1.181114999999999943e-01 1.834714999999999918e+01 6.197379999999999711e+01 1.985195000000000164e+03
3.200000000000000067e-02 1.180970000000000075e-01 1.776490000000000080e+01 6.141004999999999825e+01 1.985025000000000091e+03
3.300000000000000155e-02 1.180799999999999905e-01 1.710130000000000194e+01 6.070049999999999812e+01 1.984835000000000036e+03
3.400000000000000244e-02 1.180589999999999973e-01 1.634625000000000128e+01 5.975060000000000571e+01 1.984590000000000146e+03
3.500000000000000333e-02 1.180325000000000124e-01 1.552540000000000120e+01 5.857110000000000127e+01 1.984289999999999964e+03
3.600000000000000422e-02 1.180024999999999963e-01 1.469804999999999851e+01 5.728540000000000276e+01 1.983940000000000055e+03
3.700000000000000511e-02 1.179719999999999935e-01 1.394369999999999976e+01 5.610070000000000334e+01 1.983585000000000036e+03
3.799999999999999906e-02 1.179455000000000087e-01 1.334319999999999951e+01 5.525234999999999985e+01 1.983275000000000091e+03
3.899999999999999994e-02 1.179280000000000050e-01 1.295785000000000053e+01 5.493930000000000291e+01 1.983059999999999945e+03
4.000000000000000083e-02 1.179230000000000000e-01 1.281484999999999985e+01 5.526950000000000074e+01 1.982990000000000009e+03
4.100000000000000172e-02 1.179324999999999957e-01 1.290054999999999907e+01 5.623040000000000305e+01 1.983079999999999927e+03
4.200000000000000261e-02 1.179544999999999899e-01 1.316355000000000075e+01 5.768965000000000032e+01 1.983329999999999927e+03
4.300000000000000350e-02 1.179874999999999952e-01 1.352520000000000167e+01 5.942255000000000109e+01 1.983694999999999936e+03
4.400000000000000439e-02 1.180255000000000054e-01 1.389429999999999943e+01 6.115644999999999953e+01 1.984130000000000109e+03
4.499999999999999833e-02 1.180625000000000008e-01 1.418185000000000073e+01 6.262009999999999366e+01 1.984570000000000164e+03
4.599999999999999922e-02 1.180940000000000045e-01 1.431360000000000099e+01 6.358655000000000257e+01 1.984934999999999945e+03
4.700000000000000011e-02 1.181139999999999968e-01 1.423809999999999931e+01 6.390234999999999843e+01 1.985179999999999836e+03
4.800000000000000100e-02 1.181200000000000028e-01 1.392905000000000015e+01 6.349930000000000518e+01 1.985250000000000000e+03
4.900000000000000189e-02 1.181100000000000066e-01 1.338465000000000060e+01 6.239019999999999300e+01 1.985144999999999982e+03
5.000000000000000278e-02 1.180834999999999940e-01 1.262204999999999977e+01 6.065259999999999962e+01 1.984849999999999909e+03
5.100000000000000366e-02 1.180424999999999947e-01 1.167187999999999981e+01 5.840574999999999761e+01 1.984380000000000109e+03
5.200000000000000455e-02 1.179889999999999967e-01 1.057176499999999919e+01 5.578744999999999976e+01 1.983764999999999873e+03
5.300000000000000544e-02 1.179260000000000030e-01 9.362004999999999910e+00 5.293495000000000061e+01 1.983030000000000200e+03
5.399999999999999939e-02 1.178559999999999885e-01 8.082454999999999501e+00 4.997289999999999566e+01 1.982215000000000146e+03
5.500000000000000028e-02 1.177819999999999978e-01 6.771370000000000111e+00 4.700874999999999915e+01 1.981349999999999909e+03
5.600000000000000117e-02 1.177064999999999917e-01 5.465849999999999653e+00 4.413370000000000459e+01 1.980474999999999909e+03
5.700000000000000205e-02 1.176319999999999866e-01 4.202355999999999980e+00 4.142735000000000412e+01 1.979599999999999909e+03
5.800000000000000294e-02 1.175609999999999988e-01 3.017774999999999874e+00 3.896365000000000123e+01 1.978764999999999873e+03
5.900000000000000383e-02 1.174949999999999883e-01 1.949652000000000163e+00 3.681504999999999939e+01 1.977990000000000009e+03
6.000000000000000472e-02 1.174364999999999992e-01 1.035775000000000112e+00 3.505485000000000184e+01 1.977299999999999955e+03
6.099999999999999867e-02 1.173879999999999924e-01 3.129499999999999504e-01 3.375590000000000401e+01 1.976720000000000027e+03
6.199999999999999956e-02 1.173504999999999965e-01 -1.848800000000000443e-01 3.298720000000000141e+01 1.976275000000000091e+03
6.300000000000000044e-02 1.173270000000000007e-01 -4.287879999999999470e-01 3.280865000000000009e+01 1.975980000000000018e+03
6.400000000000000133e-02 1.173180000000000056e-01 -3.969945000000000279e-01 3.326520000000000010e+01 1.975860000000000127e+03
6.500000000000000222e-02 1.173254999999999992e-01 -7.657800000000003493e-02 3.438170000000000215e+01 1.975929999999999836e+03
6.600000000000000311e-02 1.173499999999999960e-01 5.354520000000000390e-01 3.615959999999999752e+01 1.976190000000000055e+03
6.700000000000000400e-02 1.173909999999999954e-01 1.431850500000000137e+00 3.857574999999999932e+01 1.976650000000000091e+03
6.800000000000000488e-02 1.174484999999999973e-01 2.595597249999999967e+00 4.158330000000000126e+01 1.977304999999999836e+03
6.900000000000000577e-02 1.175219999999999876e-01 4.000994000000000383e+00 4.511485000000000412e+01 1.978139999999999873e+03
7.000000000000000666e-02 1.176095000000000057e-01 5.615295000000000591e+00 4.908689999999999998e+01 1.979144999999999982e+03
7.100000000000000755e-02 1.177084999999999937e-01 7.400559999999999583e+00 5.340529999999999688e+01 1.980295000000000073e+03
7.200000000000000844e-02 1.178175000000000056e-01 9.315870000000000317e+00 5.797109999999999275e+01 1.981559999999999945e+03
7.300000000000000933e-02 1.179339999999999972e-01 1.131915500000000030e+01 6.268599999999999994e+01 1.982920000000000073e+03
7.399999999999999634e-02 1.180554999999999938e-01 1.336950500000000019e+01 6.745759999999999934e+01 1.984345000000000027e+03
7.499999999999999722e-02 1.181800000000000073e-01 1.542869999999999919e+01 7.220390000000000441e+01 1.985805000000000064e+03
7.599999999999999811e-02 1.183055000000000079e-01 1.746314999999999884e+01 7.685684999999999434e+01 1.987284999999999854e+03
7.699999999999999900e-02 1.184294999999999931e-01 1.944474999999999909e+01 8.136510000000001241e+01 1.988750000000000000e+03
7.799999999999999989e-02 1.185509999999999897e-01 2.135215000000000174e+01 8.569519999999999982e+01 1.990195000000000164e+03
7.900000000000000078e-02 1.186689999999999967e-01 2.317069999999999652e+01 8.983164999999999623e+01 1.991605000000000018e+03
8.000000000000000167e-02 1.187835000000000141e-01 2.489269999999999783e+01 9.377609999999999957e+01 1.992969999999999800e+03
8.100000000000000255e-02 1.188939999999999997e-01 2.651634999999999920e+01 9.754385000000000616e+01 1.994284999999999854e+03
8.200000000000000344e-02 1.189999999999999947e-01 2.804540000000000077e+01 1.011621499999999969e+02 1.995565000000000055e+03
8.300000000000000433e-02 1.191035000000000010e-01 2.948709999999999809e+01 1.046641500000000065e+02 1.996804999999999836e+03
8.400000000000000522e-02 1.192035000000000039e-01 3.085144999999999982e+01 1.080869999999999891e+02 1.998009999999999991e+03
8.500000000000000611e-02 1.193019999999999914e-01 3.214939999999999998e+01 1.114645000000000010e+02 1.999200000000000045e+03
8.600000000000000699e-02 1.193995000000000056e-01 3.339180000000000348e+01 1.148290000000000077e+02 2.000369999999999891e+03
8.700000000000000788e-02 1.194955000000000045e-01 3.458780000000000143e+01 1.182019999999999982e+02 2.001539999999999964e+03
8.800000000000000877e-02 1.195925000000000044e-01 3.574479999999999791e+01 1.215985000000000014e+02 2.002700000000000045e+03
8.899999999999999578e-02 1.196895000000000042e-01 3.686690000000000111e+01 1.250215000000000032e+02 2.003875000000000000e+03
8.999999999999999667e-02 1.197865000000000041e-01 3.795565000000000566e+01 1.284660000000000082e+02 2.005049999999999955e+03
9.099999999999999756e-02 1.198839999999999906e-01 3.900900000000000034e+01 1.319164999999999850e+02 2.006230000000000018e+03
9.199999999999999845e-02 1.199815000000000048e-01 4.002240000000000464e+01 1.353499999999999943e+02 2.007409999999999854e+03
9.299999999999999933e-02 1.200779999999999903e-01 4.098870000000000147e+01 1.387375000000000114e+02 2.008579999999999927e+03
9.400000000000000022e-02 1.201735000000000025e-01 4.189865000000000350e+01 1.420464999999999804e+02 2.009735000000000127e+03
9.500000000000000111e-02 1.202664999999999984e-01 4.274169999999999447e+01 1.452409999999999854e+02 2.010865000000000009e+03
9.600000000000000200e-02 1.203569999999999918e-01 4.350639999999999930e+01 1.482844999999999800e+02 2.011965000000000146e+03
9.700000000000000289e-02 1.204429999999999945e-01 4.418120000000000402e+01 1.511430000000000007e+02 2.013014999999999873e+03
9.800000000000000377e-02 1.205249999999999932e-01 4.475495000000000090e+01 1.537839999999999918e+02 2.014005000000000109e+03
9.900000000000000466e-02 1.206004999999999994e-01 4.521755000000000280e+01 1.561784999999999854e+02 2.014934999999999945e+03
1.000000000000000056e-01 1.206699999999999995e-01 4.556045000000000300e+01 1.583040000000000020e+02 2.015789999999999964e+03
1.010000000000000064e-01 1.207324999999999926e-01 4.577705000000000268e+01 1.601424999999999841e+02 2.016554999999999836e+03
1.020000000000000073e-01 1.207874999999999921e-01 4.586339999999999861e+01 1.616835000000000093e+02 2.017234999999999900e+03
1.030000000000000082e-01 1.208349999999999980e-01 4.581804999999999950e+01 1.629225000000000136e+02 2.017819999999999936e+03
1.040000000000000091e-01 1.208740000000000092e-01 4.564254999999999995e+01 1.638644999999999925e+02 2.018309999999999945e+03
1.050000000000000100e-01 1.209054999999999991e-01 4.534135000000000559e+01 1.645185000000000173e+02 2.018704999999999927e+03
1.059999999999999970e-01 1.209294999999999953e-01 4.492180000000000462e+01 1.649029999999999916e+02 2.019009999999999991e+03
1.069999999999999979e-01 1.209464999999999846e-01 4.439379999999999882e+01 1.650405000000000086e+02 2.019219999999999800e+03
1.079999999999999988e-01 1.209559999999999941e-01 4.376954999999999529e+01 1.649594999999999914e+02 2.019355000000000018e+03
1.089999999999999997e-01 1.209600000000000120e-01 4.306295000000000073e+01 1.646920000000000073e+02 2.019409999999999854e+03
1.100000000000000006e-01 1.209584999999999966e-01 4.228920000000000101e+01 1.642715000000000032e+02 2.019405000000000200e+03
1.110000000000000014e-01 1.209530000000000050e-01 4.146399999999999864e+01 1.637325000000000159e+02 2.019340000000000146e+03
1.120000000000000023e-01 1.209429999999999950e-01 4.060309999999999775e+01 1.631100000000000136e+02 2.019230000000000018e+03
1.130000000000000032e-01 1.209310000000000107e-01 3.972175000000000011e+01 1.624354999999999905e+02 2.019089999999999918e+03
1.140000000000000041e-01 1.209165000000000101e-01 3.883395000000000152e+01 1.617375000000000114e+02 2.018924999999999955e+03
1.150000000000000050e-01 1.209009999999999946e-01 3.795230000000000103e+01 1.610405000000000086e+02 2.018734999999999900e+03
1.160000000000000059e-01 1.208849999999999925e-01 3.708729999999999905e+01 1.603645000000000209e+02 2.018539999999999964e+03
1.170000000000000068e-01 1.208690000000000042e-01 3.624739999999999895e+01 1.597235000000000014e+02 2.018345000000000027e+03
1.180000000000000077e-01 1.208535000000000026e-01 3.543864999999999554e+01 1.591264999999999930e+02 2.018154999999999973e+03
1.190000000000000085e-01 1.208380000000000010e-01 3.466460000000000008e+01 1.585769999999999982e+02 2.017974999999999909e+03
1.200000000000000094e-01 1.208239999999999870e-01 3.392650000000000432e+01 1.580735000000000241e+02 2.017795000000000073e+03
1.209999999999999964e-01 1.208105000000000012e-01 3.322334999999999638e+01 1.576084999999999923e+02 2.017630000000000109e+03
1.219999999999999973e-01 1.207980000000000026e-01 3.255199999999999960e+01 1.571714999999999804e+02 2.017474999999999909e+03
1.229999999999999982e-01 1.207854999999999901e-01 3.190765000000000384e+01 1.567479999999999905e+02 2.017319999999999936e+03
1.239999999999999991e-01 1.207735000000000058e-01 3.128414999999999679e+01 1.563224999999999909e+02 2.017170000000000073e+03
1.250000000000000000e-01 1.207610000000000072e-01 3.067430000000000234e+01 1.558764999999999930e+02 2.017019999999999982e+03
1.260000000000000009e-01 1.207480000000000081e-01 3.007039999999999935e+01 1.553915000000000077e+02 2.016855000000000018e+03
1.270000000000000018e-01 1.207344999999999946e-01 2.946474999999999866e+01 1.548499999999999943e+02 2.016684999999999945e+03
1.280000000000000027e-01 1.207189999999999930e-01 2.884980000000000189e+01 1.542355000000000018e+02 2.016500000000000000e+03
1.290000000000000036e-01 1.207014999999999894e-01 2.821889999999999787e+01 1.535344999999999800e+02 2.016284999999999854e+03
1.300000000000000044e-01 1.206824999999999981e-01 2.756650000000000134e+01 1.527365000000000066e+02 2.016049999999999955e+03
1.310000000000000053e-01 1.206610000000000044e-01 2.688835000000000264e+01 1.518350000000000080e+02 2.015789999999999964e+03
1.320000000000000062e-01 1.206365000000000076e-01 2.618209999999999837e+01 1.508269999999999982e+02 2.015494999999999891e+03
1.330000000000000071e-01 1.206089999999999940e-01 2.544695000000000107e+01 1.497144999999999868e+02 2.015164999999999964e+03
1.340000000000000080e-01 1.205795000000000061e-01 2.468414999999999893e+01 1.485049999999999955e+02 2.014804999999999836e+03
1.350000000000000089e-01 1.205465000000000009e-01 2.389685000000000059e+01 1.472074999999999818e+02 2.014414999999999964e+03
1.360000000000000098e-01 1.205124999999999946e-01 2.308980000000000032e+01 1.458385000000000105e+02 2.013994999999999891e+03
1.370000000000000107e-01 1.204759999999999998e-01 2.226944999999999908e+01 1.444159999999999968e+02 2.013559999999999945e+03
1.380000000000000115e-01 1.204380000000000034e-01 2.144350000000000023e+01 1.429599999999999795e+02 2.013095000000000027e+03
1.390000000000000124e-01 1.203990000000000060e-01 2.062064999999999770e+01 1.414929999999999950e+02 2.012630000000000109e+03
1.400000000000000133e-01 1.203599999999999948e-01 1.981005000000000038e+01 1.400389999999999873e+02 2.012154999999999973e+03
1.410000000000000142e-01 1.203204999999999969e-01 1.902109999999999701e+01 1.386204999999999927e+02 2.011679999999999836e+03
1.420000000000000151e-01 1.202825000000000144e-01 1.826290000000000191e+01 1.372599999999999909e+02 2.011210000000000036e+03
1.430000000000000160e-01 1.202449999999999908e-01 1.754400000000000048e+01 1.359764999999999873e+02 2.010764999999999873e+03
1.440000000000000169e-01 1.202094999999999969e-01 1.687174999999999869e+01 1.347870000000000061e+02 2.010329999999999927e+03
1.450000000000000178e-01 1.201764999999999917e-01 1.625250000000000128e+01 1.337054999999999723e+02 2.009934999999999945e+03
1.459999999999999909e-01 1.201460000000000028e-01 1.569105000000000061e+01 1.327404999999999973e+02 2.009559999999999945e+03
1.469999999999999918e-01 1.201184999999999892e-01 1.519045000000000023e+01 1.318985000000000127e+02 2.009219999999999800e+03
1.479999999999999927e-01 1.200940000000000063e-01 1.475215000000000032e+01 1.311809999999999832e+02 2.008920000000000073e+03
1.489999999999999936e-01 1.200720000000000121e-01 1.437614999999999910e+01 1.305854999999999961e+02 2.008655000000000200e+03
1.499999999999999944e-01 1.200539999999999941e-01 1.406074999999999875e+01 1.301069999999999993e+02 2.008424999999999955e+03
1.509999999999999953e-01 1.200385000000000063e-01 1.380290000000000106e+01 1.297359999999999900e+02 2.008235000000000127e+03
1.519999999999999962e-01 1.200259999999999938e-01 1.359844999999999970e+01 1.294625000000000057e+02 2.008079999999999927e+03
1.529999999999999971e-01 1.200164999999999982e-01 1.344229999999999947e+01 1.292744999999999891e+02 2.007954999999999927e+03
1.539999999999999980e-01 1.200084999999999902e-01 1.332870000000000132e+01 1.291585000000000036e+02 2.007860000000000127e+03
1.549999999999999989e-01 1.200029999999999986e-01 1.325145000000000017e+01 1.290999999999999943e+02 2.007784999999999854e+03
1.559999999999999998e-01 1.199994999999999951e-01 1.320414999999999850e+01 1.290865000000000009e+02 2.007735000000000127e+03
1.570000000000000007e-01 1.199965000000000059e-01 1.318039999999999878e+01 1.291039999999999850e+02 2.007700000000000045e+03
1.580000000000000016e-01 1.199955000000000049e-01 1.317419999999999902e+01 1.291409999999999911e+02 2.007679999999999836e+03
1.590000000000000024e-01 1.199945000000000039e-01 1.317964999999999876e+01 1.291864999999999952e+02 2.007670000000000073e+03
