# t [s], A [cm^2], U [cm/s], P [cPa], c [cm/s]
1.000000000000000021e-03 1.332605000000000040e-01 3.919286999999999632e-01 9.389519999999998845e+01 2.070454999999999927e+03
2.000000000000000042e-03 1.332214999999999927e-01 1.986512999999999973e+00 9.036195000000000732e+01 2.069980000000000018e+03
3.000000000000000062e-03 1.331200000000000161e-01 3.918559000000000125e+00 8.559315000000000850e+01 2.068784999999999854e+03
4.000000000000000083e-03 1.329835000000000045e-01 6.080447500000000005e+00 8.062035000000000196e+01 2.067215000000000146e+03
5.000000000000000104e-03 1.328409999999999869e-01 8.384819999999999496e+00 7.636124999999999829e+01 2.065574999999999818e+03
6.000000000000000125e-03 1.327055000000000040e-01 1.061519499999999994e+01 7.296545000000000414e+01 2.064039999999999964e+03
7.000000000000000146e-03 1.325790000000000024e-01 1.255030999999999963e+01 7.004540000000000077e+01 2.062635000000000218e+03
8.000000000000000167e-03 1.324639999999999984e-01 1.415139500000000083e+01 6.740559999999999263e+01 2.061380000000000109e+03
9.000000000000001055e-03 1.323640000000000094e-01 1.547915000000000063e+01 6.516285000000000593e+01 2.060300000000000182e+03
1.000000000000000194e-02 1.322810000000000097e-01 1.656325000000000003e+01 6.336880000000000024e+01 2.059420000000000073e+03
1.099999999999999936e-02 1.322135000000000116e-01 1.741924999999999812e+01 6.197050000000000125e+01 2.058710000000000036e+03
1.200000000000000025e-02 1.321599999999999997e-01 1.806404999999999816e+01 6.089764999999999873e+01 2.058154999999999745e+03
1.300000000000000114e-02 1.321174999999999988e-01 1.850059999999999860e+01 6.003494999999999493e+01 2.057720000000000255e+03
1.400000000000000203e-02 1.320824999999999916e-01 1.875135000000000218e+01 5.927535000000000309e+01 2.057375000000000000e+03
1.499999999999999944e-02 1.320550000000000057e-01 1.891559999999999775e+01 5.870324999999999704e+01 2.057109999999999673e+03
1.600000000000000033e-02 1.320409999999999917e-01 1.916239999999999810e+01 5.866339999999999577e+01 2.056974999999999909e+03
1.700000000000000122e-02 1.320474999999999843e-01 1.964464999999999861e+01 5.957245000000000346e+01 2.057055000000000291e+03
1.800000000000000211e-02 1.320810000000000040e-01 2.040415000000000134e+01 6.161169999999999902e+01 2.057414999999999964e+03
1.900000000000000300e-02 1.321394999999999931e-01 2.133769999999999811e+01 6.453884999999999650e+01 2.058045000000000073e+03
2.000000000000000042e-02 1.322129999999999972e-01 2.223910000000000053e+01 6.773650000000000659e+01 2.058835000000000036e+03
2.100000000000000130e-02 1.322869999999999879e-01 2.288595000000000113e+01 7.044804999999999495e+01 2.059644999999999982e+03
2.200000000000000219e-02 1.323455000000000048e-01 2.312509999999999977e+01 7.206520000000000437e+01 2.060300000000000182e+03
2.299999999999999961e-02 1.323785000000000101e-01 2.292175000000000296e+01 7.233599999999999852e+01 2.060684999999999945e+03
2.400000000000000050e-02 1.323844999999999883e-01 2.235775000000000290e+01 7.141705000000000325e+01 2.060779999999999745e+03
2.500000000000000139e-02 1.323674999999999990e-01 2.158589999999999876e+01 6.976564999999999372e+01 2.060619999999999891e+03
2.600000000000000228e-02 1.323380000000000112e-01 2.076555000000000106e+01 6.793465000000000487e+01 2.060315000000000055e+03
2.700000000000000316e-02 1.323050000000000059e-01 2.000665000000000049e+01 6.636504999999999654e+01 2.059960000000000036e+03
2.800000000000000058e-02 1.322750000000000037e-01 1.934349999999999881e+01 6.525634999999999764e+01 2.059644999999999982e+03
2.900000000000000147e-02 1.322520000000000084e-01 1.874085000000000178e+01 6.454919999999999902e+01 2.059390000000000327e+03
3.000000000000000236e-02 1.322335000000000038e-01 1.812480000000000047e+01 6.400445000000000562e+01 2.059185000000000400e+03
3.099999999999999978e-02 1.322139999999999982e-01 1.742300000000000182e+01 6.333395000000000152e+01 2.058975000000000364e+03
3.200000000000000067e-02 1.321900000000000019e-01 1.660030000000000072e+01 6.233205000000000240e+01 2.058715000000000146e+03
3.300000000000000155e-02 1.321574999999999833e-01 1.567895000000000039e+01 6.096589999999999776e+01 2.058380000000000109e+03
3.400000000000000244e-02 1.321195000000000008e-01 1.473840000000000039e+01 5.939990000000000236e+01 2.057979999999999563e+03
3.500000000000000333e-02 1.320804999999999896e-01 1.389440000000000097e+01 5.794870000000000232e+01 2.057555000000000291e+03
3.600000000000000422e-02 1.320479999999999987e-01 1.326575000000000060e+01 5.697844999999999516e+01 2.057199999999999818e+03
3.700000000000000511e-02 1.320294999999999941e-01 1.293909999999999982e+01 5.679005000000000081e+01 2.056984999999999673e+03
3.799999999999999906e-02 1.320300000000000085e-01 1.294405000000000072e+01 5.752465000000000117e+01 2.056975000000000364e+03
3.899999999999999994e-02 1.320520000000000027e-01 1.324450000000000038e+01 5.911775000000000091e+01 2.057190000000000055e+03
4.000000000000000083e-02 1.320919999999999872e-01 1.374650000000000105e+01 6.131199999999999761e+01 2.057605000000000018e+03
4.100000000000000172e-02 1.321440000000000115e-01 1.431939999999999991e+01 6.371685000000000088e+01 2.058150000000000091e+03
4.200000000000000261e-02 1.321984999999999966e-01 1.482179999999999964e+01 6.589355000000000473e+01 2.058734999999999673e+03
4.300000000000000350e-02 1.322464999999999891e-01 1.512640000000000029e+01 6.744155000000000655e+01 2.059250000000000000e+03
4.400000000000000439e-02 1.322790000000000077e-01 1.513844999999999885e+01 6.806489999999999441e+01 2.059610000000000127e+03
4.499999999999999833e-02 1.322889999999999899e-01 1.480494999999999983e+01 6.760929999999999040e+01 2.059730000000000018e+03
4.599999999999999922e-02 1.322740000000000027e-01 1.411540000000000106e+01 6.606600000000000250e+01 2.059585000000000036e+03
4.700000000000000011e-02 1.322329999999999894e-01 1.309510000000000041e+01 6.354864999999999498e+01 2.059154999999999745e+03
4.800000000000000100e-02 1.321680000000000077e-01 1.179475500000000032e+01 6.025379999999999825e+01 2.058474999999999909e+03
4.900000000000000189e-02 1.320839999999999792e-01 1.027918999999999983e+01 5.641684999999999661e+01 2.057585000000000036e+03
5.000000000000000278e-02 1.319859999999999922e-01 8.618089999999998696e+00 5.227499999999999858e+01 2.056530000000000200e+03
5.100000000000000366e-02 1.318789999999999962e-01 6.879904999999999937e+00 4.804225000000000279e+01 2.055384999999999764e+03
5.200000000000000455e-02 1.317679999999999962e-01 5.129126000000000296e+00 4.389920000000000044e+01 2.054190000000000055e+03
5.300000000000000544e-02 1.316574999999999829e-01 3.426222500000000171e+00 3.999425000000000097e+01 2.053000000000000000e+03
5.399999999999999939e-02 1.315520000000000023e-01 1.828804999999999792e+00 3.645210000000000150e+01 2.051859999999999673e+03
5.500000000000000028e-02 1.314549999999999885e-01 3.928499999999999215e-01 3.338349999999999795e+01 2.050809999999999945e+03
5.600000000000000117e-02 1.313695000000000002e-01 -8.270149999999999446e-01 3.089290000000000092e+01 2.049875000000000000e+03
5.700000000000000205e-02 1.312989999999999990e-01 -1.778534999999999977e+00 2.908095000000000141e+01 2.049105000000000018e+03
5.800000000000000294e-02 1.312460000000000016e-01 -2.414221500000000020e+00 2.804129999999999967e+01 2.048525000000000091e+03
5.900000000000000383e-02 1.312144999999999839e-01 -2.694544999999999746e+00 2.785385000000000133e+01 2.048159999999999854e+03
6.000000000000000472e-02 1.312059999999999893e-01 -2.591359999999999886e+00 2.857529999999999859e+01 2.048034999999999854e+03
6.099999999999999867e-02 1.312210000000000043e-01 -2.090710000000000068e+00 3.023045000000000115e+01 2.048180000000000291e+03
6.199999999999999956e-02 1.312615000000000032e-01 -1.194533499999999915e+00 3.280630000000000024e+01 2.048585000000000036e+03
6.300000000000000044e-02 1.313265000000000127e-01 7.910499999999998089e-02 3.625039999999999907e+01 2.049260000000000218e+03
6.400000000000000133e-02 1.314150000000000040e-01 1.697194999999999787e+00 4.047310000000000230e+01 2.050184999999999945e+03
6.500000000000000222e-02 1.315250000000000030e-01 3.614180000000000170e+00 4.535450000000000159e+01 2.051349999999999909e+03
6.600000000000000311e-02 1.316529999999999923e-01 5.775064999999999671e+00 5.075315000000000509e+01 2.052710000000000036e+03
6.700000000000000400e-02 1.317959999999999965e-01 8.118835000000000690e+00 5.651614999999999611e+01 2.054235000000000127e+03
6.800000000000000488e-02 1.319494999999999973e-01 1.058201500000000017e+01 6.248895000000000266e+01 2.055889999999999873e+03
6.900000000000000577e-02 1.321105000000000196e-01 1.310167500000000018e+01 6.852405000000000257e+01 2.057625000000000000e+03
7.000000000000000666e-02 1.322745000000000171e-01 1.561855000000000082e+01 7.448824999999999363e+01 2.059394999999999982e+03
7.100000000000000755e-02 1.324380000000000002e-01 1.807949999999999946e+01 8.026859999999999218e+01 2.061175000000000182e+03
7.200000000000000844e-02 1.325985000000000080e-01 2.043949999999999889e+01 8.577680000000000859e+01 2.062920000000000073e+03
7.300000000000000933e-02 1.327530000000000099e-01 2.266385000000000005e+01 9.095210000000000150e+01 2.064614999999999782e+03
7.399999999999999634e-02 1.329000000000000181e-01 2.472865000000000180e+01 9.576349999999999341e+01 2.066234999999999673e+03
7.499999999999999722e-02 1.330385000000000040e-01 2.662185000000000201e+01 1.002076999999999884e+02 2.067765000000000327e+03
7.599999999999999811e-02 1.331684999999999952e-01 2.834250000000000114e+01 1.043101000000000056e+02 2.069204999999999927e+03
7.699999999999999900e-02 1.332900000000000196e-01 2.989954999999999785e+01 1.081165000000000020e+02 2.070560000000000400e+03
7.799999999999999989e-02 1.334044999999999814e-01 3.131019999999999825e+01 1.116899999999999977e+02 2.071829999999999927e+03
7.900000000000000078e-02 1.335135000000000072e-01 3.259725000000000250e+01 1.151039999999999992e+02 2.073039999999999964e+03
8.000000000000000167e-02 1.336180000000000145e-01 3.378659999999999997e+01 1.184325000000000045e+02 2.074210000000000036e+03
8.100000000000000255e-02 1.337205000000000199e-01 3.490440000000000254e+01 1.217454999999999927e+02 2.075349999999999909e+03
8.200000000000000344e-02 1.338214999999999821e-01 3.597469999999999857e+01 1.250994999999999919e+02 2.076485000000000127e+03
8.300000000000000433e-02 1.339239999999999875e-01 3.701720000000000255e+01 1.285364999999999895e+02 2.077614999999999782e+03
8.400000000000000522e-02 1.340275000000000216e-01 3.804599999999999937e+01 1.320785000000000196e+02 2.078774999999999636e+03
8.500000000000000611e-02 1.341335000000000166e-01 3.906864999999999810e+01 1.357284999999999968e+02 2.079954999999999927e+03
8.600000000000000699e-02 1.342415000000000136e-01 4.008590000000000231e+01 1.394685000000000059e+02 2.081154999999999745e+03
8.700000000000000788e-02 1.343509999999999982e-01 4.109179999999999922e+01 1.432640000000000100e+02 2.082375000000000000e+03
8.800000000000000877e-02 1.344615000000000116e-01 4.207460000000000377e+01 1.470665000000000191e+02 2.083614999999999782e+03
8.899999999999999578e-02 1.345725000000000116e-01 4.301829999999999643e+01 1.508170000000000073e+02 2.084845000000000255e+03
8.999999999999999667e-02 1.346809999999999952e-01 4.390309999999999491e+01 1.544515000000000100e+02 2.086055000000000291e+03
9.099999999999999756e-02 1.347865000000000035e-01 4.470770000000000266e+01 1.579044999999999845e+02 2.087230000000000018e+03
9.199999999999999845e-02 1.348869999999999791e-01 4.541025000000000489e+01 1.611120000000000232e+02 2.088359999999999673e+03
9.299999999999999933e-02 1.349799999999999889e-01 4.598999999999999488e+01 1.640160000000000196e+02 2.089409999999999854e+03
9.400000000000000022e-02 1.350655000000000050e-01 4.642860000000000298e+01 1.665685000000000002e+02 2.090369999999999891e+03
9.500000000000000111e-02 1.351414999999999977e-01 4.671085000000000065e+01 1.687325000000000159e+02 2.091225000000000364e+03
9.600000000000000200e-02 1.352069999999999939e-01 4.682595000000000596e+01 1.704814999999999827e+02 2.091970000000000255e+03
9.700000000000000289e-02 1.352610000000000201e-01 4.676784999999999570e+01 1.718039999999999736e+02 2.092590000000000146e+03
9.800000000000000377e-02 1.353040000000000076e-01 4.653584999999999638e+01 1.727015000000000100e+02 2.093085000000000036e+03
9.900000000000000466e-02 1.353349999999999831e-01 4.613429999999999609e+01 1.731879999999999882e+02 2.093445000000000164e+03
1.000000000000000056e-01 1.353544999999999887e-01 4.557285000000000252e+01 1.732914999999999850e+02 2.093684999999999945e+03
1.010000000000000064e-01 1.353644999999999987e-01 4.486544999999999561e+01 1.730484999999999900e+02 2.093800000000000182e+03
1.020000000000000073e-01 1.353639999999999843e-01 4.403024999999999523e+01 1.725039999999999907e+02 2.093815000000000055e+03
1.030000000000000082e-01 1.353554999999999897e-01 4.308820000000000050e+01 1.717104999999999961e+02 2.093730000000000018e+03
1.040000000000000091e-01 1.353389999999999871e-01 4.206250000000000000e+01 1.707224999999999966e+02 2.093559999999999945e+03
1.050000000000000100e-01 1.353175000000000072e-01 4.097714999999999463e+01 1.695960000000000036e+02 2.093324999999999818e+03
1.059999999999999970e-01 1.352909999999999946e-01 3.985625000000000284e+01 1.683854999999999791e+02 2.093034999999999854e+03
1.069999999999999979e-01 1.352614999999999790e-01 3.872294999999999732e+01 1.671415000000000077e+02 2.092715000000000146e+03
1.079999999999999988e-01 1.352309999999999901e-01 3.759834999999999638e+01 1.659085000000000036e+02 2.092375000000000000e+03
1.089999999999999997e-01 1.351999999999999869e-01 3.650100000000000477e+01 1.647259999999999991e+02 2.092025000000000091e+03
1.100000000000000006e-01 1.351689999999999836e-01 3.544624999999999915e+01 1.636214999999999975e+02 2.091684999999999945e+03
1.110000000000000014e-01 1.351399999999999824e-01 3.444554999999999723e+01 1.626165000000000020e+02 2.091355000000000018e+03
1.120000000000000023e-01 1.351124999999999965e-01 3.350654999999999717e+01 1.617224999999999966e+02 2.091055000000000291e+03
1.130000000000000032e-01 1.350879999999999859e-01 3.263264999999999816e+01 1.609399999999999977e+02 2.090775000000000091e+03
1.140000000000000041e-01 1.350660000000000194e-01 3.182345000000000113e+01 1.602624999999999886e+02 2.090514999999999873e+03
1.150000000000000050e-01 1.350459999999999994e-01 3.107464999999999833e+01 1.596740000000000066e+02 2.090295000000000073e+03
1.160000000000000059e-01 1.350280000000000091e-01 3.037884999999999991e+01 1.591535000000000082e+02 2.090085000000000036e+03
1.170000000000000068e-01 1.350120000000000209e-01 2.972575000000000145e+01 1.586725000000000136e+02 2.089894999999999982e+03
1.180000000000000077e-01 1.349964999999999915e-01 2.910309999999999775e+01 1.581995000000000005e+02 2.089720000000000255e+03
1.190000000000000085e-01 1.349815000000000043e-01 2.849750000000000227e+01 1.577019999999999982e+02 2.089545000000000073e+03
1.200000000000000094e-01 1.349650000000000016e-01 2.789489999999999981e+01 1.571474999999999795e+02 2.089364999999999782e+03
1.209999999999999964e-01 1.349474999999999980e-01 2.728184999999999860e+01 1.565039999999999907e+02 2.089164999999999964e+03
1.219999999999999973e-01 1.349279999999999924e-01 2.664590000000000103e+01 1.557454999999999927e+02 2.088940000000000055e+03
1.229999999999999982e-01 1.349049999999999971e-01 2.597664999999999935e+01 1.548499999999999943e+02 2.088690000000000055e+03
1.239999999999999991e-01 1.348785000000000123e-01 2.526595000000000013e+01 1.538034999999999854e+02 2.088394999999999982e+03
1.250000000000000000e-01 1.348485000000000100e-01 2.450880000000000081e+01 1.525985000000000014e+02 2.088060000000000400e+03
1.260000000000000009e-01 1.348145000000000038e-01 2.370325000000000060e+01 1.512359999999999900e+02 2.087675000000000182e+03
1.270000000000000018e-01 1.347754999999999925e-01 2.285094999999999743e+01 1.497259999999999991e+02 2.087255000000000109e+03
1.280000000000000027e-01 1.347335000000000060e-01 2.195669999999999789e+01 1.480855000000000246e+02 2.086779999999999745e+03
1.290000000000000036e-01 1.346875000000000155e-01 2.102839999999999776e+01 1.463385000000000105e+02 2.086274999999999636e+03
1.300000000000000044e-01 1.346390000000000087e-01 2.007669999999999888e+01 1.445165000000000077e+02 2.085735000000000127e+03
1.310000000000000053e-01 1.345884999999999998e-01 1.911415000000000219e+01 1.426519999999999868e+02 2.085175000000000182e+03
1.320000000000000062e-01 1.345359999999999889e-01 1.815480000000000160e+01 1.407839999999999918e+02 2.084599999999999909e+03
1.330000000000000071e-01 1.344845000000000068e-01 1.721349999999999980e+01 1.389484999999999957e+02 2.084019999999999982e+03
1.340000000000000080e-01 1.344329999999999969e-01 1.630494999999999806e+01 1.371829999999999927e+02 2.083449999999999818e+03
1.350000000000000089e-01 1.343829999999999747e-01 1.544315000000000104e+01 1.355204999999999984e+02 2.082894999999999982e+03
1.360000000000000098e-01 1.343360000000000110e-01 1.464065000000000083e+01 1.339895000000000209e+02 2.082369999999999891e+03
1.370000000000000107e-01 1.342920000000000225e-01 1.390794999999999959e+01 1.326144999999999925e+02 2.081880000000000109e+03
1.380000000000000115e-01 1.342524999999999968e-01 1.325325000000000131e+01 1.314114999999999895e+02 2.081434999999999945e+03
1.390000000000000124e-01 1.342165000000000163e-01 1.268205000000000027e+01 1.303909999999999911e+02 2.081034999999999854e+03
1.400000000000000133e-01 1.341859999999999997e-01 1.219709999999999894e+01 1.295560000000000116e+02 2.080690000000000055e+03
1.410000000000000142e-01 1.341600000000000015e-01 1.179829999999999934e+01 1.289035000000000082e+02 2.080394999999999982e+03
1.420000000000000151e-01 1.341394999999999949e-01 1.148305000000000042e+01 1.284234999999999900e+02 2.080155000000000200e+03
1.430000000000000160e-01 1.341229999999999922e-01 1.124640000000000128e+01 1.281020000000000039e+02 2.079970000000000255e+03
1.440000000000000169e-01 1.341110000000000080e-01 1.108135000000000048e+01 1.279205000000000041e+02 2.079824999999999818e+03
1.450000000000000178e-01 1.341030000000000000e-01 1.097940000000000005e+01 1.278569999999999993e+02 2.079730000000000018e+03
1.459999999999999909e-01 1.340979999999999950e-01 1.093104999999999905e+01 1.278894999999999982e+02 2.079670000000000073e+03
1.469999999999999918e-01 1.340965000000000074e-01 1.092595000000000027e+01 1.279939999999999998e+02 2.079639999999999873e+03
1.479999999999999927e-01 1.340965000000000074e-01 1.095364999999999966e+01 1.281469999999999914e+02 2.079639999999999873e+03
1.489999999999999936e-01 1.340985000000000094e-01 1.100389999999999979e+01 1.283259999999999934e+02 2.079654999999999745e+03
1.499999999999999944e-01 1.341009999999999980e-01 1.106684999999999874e+01 1.285120000000000005e+02 2.079684999999999945e+03
1.509999999999999953e-01 1.341045000000000154e-01 1.113364999999999938e+01 1.286860000000000070e+02 2.079715000000000146e+03
1.519999999999999962e-01 1.341074999999999906e-01 1.119624999999999915e+01 1.288340000000000032e+02 2.079750000000000000e+03
1.529999999999999971e-01 1.341100000000000070e-01 1.124820000000000064e+01 1.289440000000000168e+02 2.079779999999999745e+03
1.539999999999999980e-01 1.341124999999999956e-01 1.128425000000000011e+01 1.290074999999999932e+02 2.079800000000000182e+03
1.549999999999999989e-01 1.341134999999999966e-01 1.130054999999999943e+01 1.290200000000000102e+02 2.079810000000000400e+03
1.559999999999999998e-01 1.341134999999999966e-01 1.129490000000000016e+01 1.289794999999999732e+02 2.079809999999999945e+03
1.570000000000000007e-01 1.341120000000000090e-01 1.126640000000000086e+01 1.288865000000000123e+02 2.079795000000000073e+03
1.580000000000000016e-01 1.341094999999999926e-01 1.121545000000000059e+01 1.287464999999999975e+02 2.079770000000000437e+03
1.590000000000000024e-01 1.341054999999999886e-01 1.114354999999999940e+01 1.285629999999999882e+02 2.079730000000000018e+03
