# t [s], A [cm^2], U [cm/s], P [cPa], c [cm/s]
1.000000000000000021e-03 1.258124999999999938e-01 3.117544999999999900e-01 9.590909999999999513e+01 1.904965000000000146e+03
2.000000000000000042e-03 1.257844999999999935e-01 1.846613000000000060e+00 9.283455000000000723e+01 1.904605000000000018e+03
3.000000000000000062e-03 1.256960000000000022e-01 3.731379499999999627e+00 8.870009999999999195e+01 1.903494999999999891e+03
4.000000000000000083e-03 1.255674999999999986e-01 5.832829499999999889e+00 8.413104999999998768e+01 1.901920000000000073e+03
5.000000000000000104e-03 1.254240000000000077e-01 8.093045000000000044e+00 7.991105000000000302e+01 1.900170000000000073e+03
6.000000000000000125e-03 1.252814999999999901e-01 1.037963500000000039e+01 7.638595000000000823e+01 1.898444999999999936e+03
7.000000000000000146e-03 1.251454999999999929e-01 1.250534500000000016e+01 7.342990000000000350e+01 1.896829999999999927e+03
8.000000000000000167e-03 1.250175000000000036e-01 1.435323500000000152e+01 7.078915000000000646e+01 1.895345000000000027e+03
9.000000000000001055e-03 1.249019999999999991e-01 1.592855000000000132e+01 6.841679999999999495e+01 1.894009999999999991e+03
1.000000000000000194e-02 1.247999999999999943e-01 1.727084999999999937e+01 6.638830000000000098e+01 1.892849999999999909e+03
1.099999999999999936e-02 1.247129999999999905e-01 1.839945000000000164e+01 6.472020000000000550e+01 1.891869999999999891e+03
1.200000000000000025e-02 1.246405000000000013e-01 1.932744999999999891e+01 6.337514999999999787e+01 1.891065000000000055e+03
1.300000000000000114e-02 1.245809999999999973e-01 2.006739999999999924e+01 6.230204999999999416e+01 1.890409999999999854e+03
1.400000000000000203e-02 1.245324999999999904e-01 2.062335000000000207e+01 6.142314999999999969e+01 1.889880000000000109e+03
1.499999999999999944e-02 1.244925000000000059e-01 2.100779999999999959e+01 6.065680000000000405e+01 1.889450000000000045e+03
1.600000000000000033e-02 1.244584999999999997e-01 2.127469999999999928e+01 6.000950000000000273e+01 1.889099999999999909e+03
1.700000000000000122e-02 1.244335000000000024e-01 2.152839999999999776e+01 5.963889999999999958e+01 1.888845000000000027e+03
1.800000000000000211e-02 1.244234999999999924e-01 2.188775000000000048e+01 5.980199999999999960e+01 1.888744999999999891e+03
1.900000000000000300e-02 1.244320000000000009e-01 2.243050000000000210e+01 6.070955000000000013e+01 1.888855000000000018e+03
2.000000000000000042e-02 1.244620000000000032e-01 2.315360000000000085e+01 6.238599999999999568e+01 1.889200000000000045e+03
2.100000000000000130e-02 1.245110000000000106e-01 2.397074999999999889e+01 6.461629999999999541e+01 1.889750000000000000e+03
2.200000000000000219e-02 1.245715000000000017e-01 2.474470000000000169e+01 6.700284999999999513e+01 1.890444999999999936e+03
2.299999999999999961e-02 1.246335000000000082e-01 2.533545000000000158e+01 6.909280000000001110e+01 1.891154999999999973e+03
2.400000000000000050e-02 1.246854999999999908e-01 2.564475000000000193e+01 7.051874999999999716e+01 1.891769999999999982e+03
2.500000000000000139e-02 1.247225000000000000e-01 2.564139999999999731e+01 7.110020000000000095e+01 1.892215000000000146e+03
2.600000000000000228e-02 1.247395000000000032e-01 2.536265000000000214e+01 7.087494999999999834e+01 1.892440000000000055e+03
2.700000000000000316e-02 1.247399999999999898e-01 2.489375000000000071e+01 7.005989999999999895e+01 1.892465000000000146e+03
2.800000000000000058e-02 1.247269999999999907e-01 2.433565000000000111e+01 6.896059999999999945e+01 1.892335000000000036e+03
2.900000000000000147e-02 1.247074999999999989e-01 2.377345000000000041e+01 6.786835000000000662e+01 1.892130000000000109e+03
3.000000000000000236e-02 1.246869999999999923e-01 2.325520000000000209e+01 6.697825000000000273e+01 1.891900000000000091e+03
3.099999999999999978e-02 1.246695000000000025e-01 2.278620000000000090e+01 6.635114999999998986e+01 1.891699999999999818e+03
3.200000000000000067e-02 1.246549999999999880e-01 2.233740000000000236e+01 6.592369999999999663e+01 1.891535000000000082e+03
3.300000000000000155e-02 1.246425000000000033e-01 2.186325000000000074e+01 6.555405000000000371e+01 1.891389999999999873e+03
3.400000000000000244e-02 1.246285000000000032e-01 2.132209999999999894e+01 6.508464999999999634e+01 1.891235000000000127e+03
3.500000000000000333e-02 1.246104999999999852e-01 2.069379999999999953e+01 6.440304999999999325e+01 1.891039999999999964e+03
3.600000000000000422e-02 1.245880000000000043e-01 1.999024999999999963e+01 6.348420000000000130e+01 1.890785000000000082e+03
3.700000000000000511e-02 1.245594999999999897e-01 1.925554999999999950e+01 6.240449999999999875e+01 1.890470000000000027e+03
3.799999999999999906e-02 1.245290000000000008e-01 1.855770000000000053e+01 6.132559999999999434e+01 1.890130000000000109e+03
3.899999999999999994e-02 1.245010000000000006e-01 1.797240000000000038e+01 6.045345000000000368e+01 1.889805000000000064e+03
4.000000000000000083e-02 1.244794999999999929e-01 1.756550000000000011e+01 5.998505000000000109e+01 1.889554999999999836e+03
4.100000000000000172e-02 1.244689999999999963e-01 1.737705000000000055e+01 6.005729999999999791e+01 1.889429999999999836e+03
4.200000000000000261e-02 1.244730000000000003e-01 1.741219999999999857e+01 6.071224999999999739e+01 1.889454999999999927e+03
4.300000000000000350e-02 1.244915000000000049e-01 1.763984999999999914e+01 6.188580000000000325e+01 1.889650000000000091e+03
4.400000000000000439e-02 1.245229999999999948e-01 1.799879999999999924e+01 6.341920000000000357e+01 1.889990000000000009e+03
4.499999999999999833e-02 1.245620000000000061e-01 1.840870000000000317e+01 6.509020000000001005e+01 1.890430000000000064e+03
4.599999999999999922e-02 1.246045000000000069e-01 1.878334999999999866e+01 6.665209999999999013e+01 1.890900000000000091e+03
4.700000000000000011e-02 1.246440000000000048e-01 1.904310000000000258e+01 6.787409999999999854e+01 1.891349999999999909e+03
4.800000000000000100e-02 1.246744999999999937e-01 1.912474999999999881e+01 6.857359999999999900e+01 1.891699999999999818e+03
4.900000000000000189e-02 1.246919999999999973e-01 1.898720000000000141e+01 6.863625000000000398e+01 1.891904999999999973e+03
5.000000000000000278e-02 1.246924999999999978e-01 1.861274999999999835e+01 6.802219999999999800e+01 1.891924999999999955e+03
5.100000000000000366e-02 1.246759999999999952e-01 1.800549999999999784e+01 6.676030000000000086e+01 1.891750000000000000e+03
5.200000000000000455e-02 1.246420000000000028e-01 1.718665000000000020e+01 6.493234999999999957e+01 1.891369999999999891e+03
5.300000000000000544e-02 1.245920000000000083e-01 1.618890000000000029e+01 6.265415000000000134e+01 1.890815000000000055e+03
5.399999999999999939e-02 1.245295000000000013e-01 1.505130000000000123e+01 6.005570000000000164e+01 1.890110000000000127e+03
5.500000000000000028e-02 1.244564999999999977e-01 1.381494999999999962e+01 5.726555000000000462e+01 1.889289999999999964e+03
5.600000000000000117e-02 1.243770000000000014e-01 1.252031500000000008e+01 5.440050000000000097e+01 1.888394999999999982e+03
5.700000000000000205e-02 1.242935000000000012e-01 1.120590500000000134e+01 5.156154999999999688e+01 1.887449999999999818e+03
5.800000000000000294e-02 1.242095000000000005e-01 9.908509999999999707e+00 4.883409999999999940e+01 1.886500000000000000e+03
5.900000000000000383e-02 1.241275000000000017e-01 8.663499999999999091e+00 4.629184999999999661e+01 1.885565000000000055e+03
6.000000000000000472e-02 1.240495000000000070e-01 7.505634999999999835e+00 4.400124999999999886e+01 1.884674999999999955e+03
6.099999999999999867e-02 1.239779999999999910e-01 6.469384999999999941e+00 4.202519999999999811e+01 1.883855000000000018e+03
6.199999999999999956e-02 1.239149999999999974e-01 5.588664999999999772e+00 4.042549999999999955e+01 1.883130000000000109e+03
6.300000000000000044e-02 1.238624999999999865e-01 4.895984999999999587e+00 3.926229999999999620e+01 1.882530000000000200e+03
6.400000000000000133e-02 1.238230000000000164e-01 4.420965000000000700e+00 3.859185000000000088e+01 1.882069999999999936e+03
6.500000000000000222e-02 1.237975000000000048e-01 4.188609999999999722e+00 3.846260000000000190e+01 1.881764999999999873e+03
6.600000000000000311e-02 1.237884999999999958e-01 4.217544999999999433e+00 3.891055000000000064e+01 1.881639999999999873e+03
6.700000000000000400e-02 1.237959999999999894e-01 4.518520000000000536e+00 3.995524999999999949e+01 1.881704999999999927e+03
6.800000000000000488e-02 1.238215000000000010e-01 5.093469999999999942e+00 4.159664999999999679e+01 1.881980000000000018e+03
6.900000000000000577e-02 1.238650000000000029e-01 5.935190000000000410e+00 4.381369999999999720e+01 1.882445000000000164e+03
7.000000000000000666e-02 1.239260000000000084e-01 7.027709999999999901e+00 4.656530000000000058e+01 1.883115000000000009e+03
7.100000000000000755e-02 1.240025000000000155e-01 8.347260000000000346e+00 4.979234999999999900e+01 1.883969999999999800e+03
7.200000000000000844e-02 1.240949999999999970e-01 9.863730000000000331e+00 5.342164999999999964e+01 1.884994999999999891e+03
7.300000000000000933e-02 1.241994999999999905e-01 1.154224499999999942e+01 5.737024999999999864e+01 1.886170000000000073e+03
7.399999999999999634e-02 1.243150000000000088e-01 1.334513000000000105e+01 6.155060000000000286e+01 1.887470000000000027e+03
7.499999999999999722e-02 1.244384999999999936e-01 1.523375000000000057e+01 6.587515000000000498e+01 1.888869999999999891e+03
7.599999999999999811e-02 1.245680000000000121e-01 1.717004999999999981e+01 7.026054999999999495e+01 1.890340000000000146e+03
7.699999999999999900e-02 1.247004999999999919e-01 1.911824999999999974e+01 7.463139999999999930e+01 1.891849999999999909e+03
7.799999999999999989e-02 1.248340000000000005e-01 2.104625000000000057e+01 7.892334999999999923e+01 1.893380000000000109e+03
7.900000000000000078e-02 1.249664999999999943e-01 2.292660000000000053e+01 8.308535000000000537e+01 1.894909999999999854e+03
8.000000000000000167e-02 1.250969999999999860e-01 2.473760000000000048e+01 8.708089999999999975e+01 1.896409999999999854e+03
8.100000000000000255e-02 1.252235000000000154e-01 2.646354999999999791e+01 9.088910000000001332e+01 1.897869999999999891e+03
8.200000000000000344e-02 1.253454999999999986e-01 2.809530000000000172e+01 9.450400000000000489e+01 1.899289999999999964e+03
8.300000000000000433e-02 1.254629999999999912e-01 2.962944999999999851e+01 9.793314999999999770e+01 1.900660000000000082e+03
8.400000000000000522e-02 1.255760000000000209e-01 3.106850000000000023e+01 1.011976499999999959e+02 1.901974999999999909e+03
8.500000000000000611e-02 1.256840000000000179e-01 3.241935000000000144e+01 1.043252999999999986e+02 1.903240000000000009e+03
8.600000000000000699e-02 1.257889999999999842e-01 3.369249999999999545e+01 1.073524999999999920e+02 1.904464999999999918e+03
8.700000000000000788e-02 1.258910000000000029e-01 3.490059999999999718e+01 1.103155000000000001e+02 1.905660000000000082e+03
8.800000000000000877e-02 1.259905000000000053e-01 3.605705000000000382e+01 1.132519999999999953e+02 1.906829999999999927e+03
8.899999999999999578e-02 1.260895000000000210e-01 3.717520000000000380e+01 1.161940000000000026e+02 1.907990000000000009e+03
8.999999999999999667e-02 1.261879999999999946e-01 3.826640000000000441e+01 1.191670000000000016e+02 1.909154999999999973e+03
9.099999999999999756e-02 1.262874999999999970e-01 3.933979999999999677e+01 1.221894999999999953e+02 1.910320000000000164e+03
9.199999999999999845e-02 1.263880000000000003e-01 4.040149999999999864e+01 1.252680000000000007e+02 1.911500000000000000e+03
9.299999999999999933e-02 1.264895000000000047e-01 4.145389999999999731e+01 1.284010000000000105e+02 1.912695000000000164e+03
9.400000000000000022e-02 1.265924999999999967e-01 4.249615000000000009e+01 1.315759999999999934e+02 1.913904999999999973e+03
9.500000000000000111e-02 1.266960000000000031e-01 4.352370000000000516e+01 1.347735000000000127e+02 1.915125000000000000e+03
9.600000000000000200e-02 1.267999999999999960e-01 4.452920000000000300e+01 1.379650000000000034e+02 1.916349999999999909e+03
9.700000000000000289e-02 1.269040000000000168e-01 4.550254999999999939e+01 1.411184999999999832e+02 1.917574999999999818e+03
9.800000000000000377e-02 1.270060000000000078e-01 4.643209999999999837e+01 1.441974999999999909e+02 1.918779999999999973e+03
9.900000000000000466e-02 1.271059999999999968e-01 4.730474999999999852e+01 1.471649999999999920e+02 1.919964999999999918e+03
1.000000000000000056e-01 1.272024999999999961e-01 4.810714999999999719e+01 1.499830000000000041e+02 1.921115000000000009e+03
1.010000000000000064e-01 1.272949999999999915e-01 4.882600000000000051e+01 1.526175000000000068e+02 1.922210000000000036e+03
1.020000000000000073e-01 1.273825000000000096e-01 4.944915000000000305e+01 1.550370000000000061e+02 1.923244999999999891e+03
1.030000000000000082e-01 1.274629999999999930e-01 4.996580000000000155e+01 1.572154999999999916e+02 1.924204999999999927e+03
1.040000000000000091e-01 1.275364999999999971e-01 5.036704999999999899e+01 1.591315000000000168e+02 1.925079999999999927e+03
1.050000000000000100e-01 1.276019999999999932e-01 5.064650000000000318e+01 1.607710000000000150e+02 1.925869999999999891e+03
1.059999999999999970e-01 1.276595000000000091e-01 5.080039999999999623e+01 1.621264999999999930e+02 1.926559999999999945e+03
1.069999999999999979e-01 1.277079999999999882e-01 5.082774999999999466e+01 1.631974999999999909e+02 1.927150000000000091e+03
1.079999999999999988e-01 1.277480000000000004e-01 5.073064999999999714e+01 1.639894999999999925e+02 1.927644999999999982e+03
1.089999999999999997e-01 1.277794999999999903e-01 5.051389999999999958e+01 1.645155000000000030e+02 1.928029999999999973e+03
1.100000000000000006e-01 1.278035000000000143e-01 5.018519999999999470e+01 1.647950000000000159e+02 1.928324999999999818e+03
1.110000000000000014e-01 1.278190000000000159e-01 4.975445000000000562e+01 1.648500000000000227e+02 1.928519999999999982e+03
1.120000000000000023e-01 1.278274999999999828e-01 4.923369999999999891e+01 1.647085000000000150e+02 1.928634999999999991e+03
1.130000000000000032e-01 1.278304999999999858e-01 4.863644999999999641e+01 1.644010000000000105e+02 1.928674999999999955e+03
1.140000000000000041e-01 1.278269999999999962e-01 4.797724999999999795e+01 1.639594999999999914e+02 1.928650000000000091e+03
1.150000000000000050e-01 1.278195000000000026e-01 4.727100000000000080e+01 1.634159999999999968e+02 1.928565000000000055e+03
1.160000000000000059e-01 1.278074999999999906e-01 4.653265000000000384e+01 1.628015000000000043e+02 1.928434999999999945e+03
1.170000000000000068e-01 1.277929999999999899e-01 4.577629999999999910e+01 1.621449999999999818e+02 1.928269999999999982e+03
1.180000000000000077e-01 1.277770000000000017e-01 4.501505000000000223e+01 1.614730000000000132e+02 1.928079999999999927e+03
1.190000000000000085e-01 1.277594999999999981e-01 4.426040000000000418e+01 1.608079999999999927e+02 1.927875000000000000e+03
1.200000000000000094e-01 1.277415000000000078e-01 4.352214999999999634e+01 1.601664999999999850e+02 1.927664999999999964e+03
1.209999999999999964e-01 1.277234999999999898e-01 4.280769999999999698e+01 1.595629999999999882e+02 1.927454999999999927e+03
1.219999999999999973e-01 1.277065000000000006e-01 4.212250000000000227e+01 1.590029999999999859e+02 1.927244999999999891e+03
1.229999999999999982e-01 1.276895000000000113e-01 4.146944999999999482e+01 1.584909999999999854e+02 1.927045000000000073e+03
1.239999999999999991e-01 1.276744999999999963e-01 4.084949999999999903e+01 1.580244999999999891e+02 1.926865000000000009e+03
1.250000000000000000e-01 1.276599999999999957e-01 4.026109999999999900e+01 1.575969999999999800e+02 1.926684999999999945e+03
1.260000000000000009e-01 1.276460000000000095e-01 3.970109999999999673e+01 1.571985000000000241e+02 1.926519999999999982e+03
1.270000000000000018e-01 1.276325000000000098e-01 3.916440000000000055e+01 1.568149999999999977e+02 1.926359999999999900e+03
1.280000000000000027e-01 1.276200000000000112e-01 3.864475000000000193e+01 1.564314999999999998e+02 1.926204999999999927e+03
1.290000000000000036e-01 1.276069999999999982e-01 3.813495000000000346e+01 1.560310000000000059e+02 1.926045000000000073e+03
1.300000000000000044e-01 1.275934999999999986e-01 3.762699999999999534e+01 1.555944999999999823e+02 1.925880000000000109e+03
1.310000000000000053e-01 1.275785000000000113e-01 3.711289999999999623e+01 1.551045000000000016e+02 1.925704999999999927e+03
1.320000000000000062e-01 1.275624999999999953e-01 3.658490000000000464e+01 1.545455000000000041e+02 1.925514999999999873e+03
1.330000000000000071e-01 1.275445000000000051e-01 3.603580000000000183e+01 1.539019999999999868e+02 1.925295000000000073e+03
1.340000000000000080e-01 1.275235000000000118e-01 3.545935000000000059e+01 1.531624999999999943e+02 1.925055000000000064e+03
1.350000000000000089e-01 1.275000000000000022e-01 3.485060000000000002e+01 1.523185000000000002e+02 1.924775000000000091e+03
1.360000000000000098e-01 1.274735000000000174e-01 3.420629999999999882e+01 1.513640000000000043e+02 1.924464999999999918e+03
1.370000000000000107e-01 1.274440000000000017e-01 3.352465000000000117e+01 1.502994999999999948e+02 1.924110000000000127e+03
1.380000000000000115e-01 1.274109999999999965e-01 3.280584999999999951e+01 1.491279999999999859e+02 1.923724999999999909e+03
1.390000000000000124e-01 1.273750000000000160e-01 3.205199999999999960e+01 1.478569999999999993e+02 1.923304999999999836e+03
1.400000000000000133e-01 1.273360000000000047e-01 3.126695000000000135e+01 1.464975000000000023e+02 1.922839999999999918e+03
1.410000000000000142e-01 1.272939999999999905e-01 3.045625000000000071e+01 1.450659999999999741e+02 1.922349999999999909e+03
1.420000000000000151e-01 1.272500000000000020e-01 2.962700000000000244e+01 1.435799999999999841e+02 1.921829999999999927e+03
1.430000000000000160e-01 1.272040000000000115e-01 2.878739999999999810e+01 1.420604999999999905e+02 1.921295000000000073e+03
1.440000000000000169e-01 1.271570000000000200e-01 2.794669999999999987e+01 1.405289999999999964e+02 1.920740000000000009e+03
1.450000000000000178e-01 1.271095000000000141e-01 2.711459999999999937e+01 1.390095000000000027e+02 1.920179999999999836e+03
1.459999999999999909e-01 1.270624999999999949e-01 2.630095000000000027e+01 1.375244999999999891e+02 1.919619999999999891e+03
1.469999999999999918e-01 1.270155000000000034e-01 2.551545000000000130e+01 1.360955000000000155e+02 1.919070000000000164e+03
1.479999999999999927e-01 1.269699999999999995e-01 2.476705000000000112e+01 1.347429999999999950e+02 1.918539999999999964e+03
1.489999999999999936e-01 1.269270000000000120e-01 2.406390000000000029e+01 1.334840000000000089e+02 1.918025000000000091e+03
1.499999999999999944e-01 1.268865000000000132e-01 2.341290000000000049e+01 1.323324999999999818e+02 1.917545000000000073e+03
1.509999999999999953e-01 1.268489999999999895e-01 2.281960000000000122e+01 1.313004999999999995e+02 1.917095000000000027e+03
1.519999999999999962e-01 1.268144999999999967e-01 2.228780000000000072e+01 1.303944999999999936e+02 1.916690000000000055e+03
1.529999999999999971e-01 1.267834999999999934e-01 2.181974999999999909e+01 1.296169999999999902e+02 1.916319999999999936e+03
1.539999999999999980e-01 1.267570000000000086e-01 2.141610000000000014e+01 1.289689999999999941e+02 1.916000000000000000e+03
1.549999999999999989e-01 1.267334999999999989e-01 2.107589999999999719e+01 1.284449999999999932e+02 1.915719999999999800e+03
1.559999999999999998e-01 1.267139999999999933e-01 2.079670000000000130e+01 1.280399999999999920e+02 1.915485000000000127e+03
1.570000000000000007e-01 1.266980000000000051e-01 2.057479999999999976e+01 1.277429999999999950e+02 1.915295000000000073e+03
1.580000000000000016e-01 1.266855000000000064e-01 2.040549999999999997e+01 1.275439999999999969e+02 1.915139999999999873e+03
1.590000000000000024e-01 1.266764999999999974e-01 2.028330000000000055e+01 1.274295000000000044e+02 1.915025000000000091e+03
