# t [s], A [cm^2], U [cm/s], P [cPa], c [cm/s]
1.000000000000000021e-03 7.549460000000000059e-01 7.217749999999995003e-03 1.007980000000000018e+02 1.764019999999999982e+03
2.000000000000000042e-03 7.549315000000000886e-01 -6.553040999999999901e-03 1.007620000000000005e+02 1.764009999999999991e+03
3.000000000000000062e-03 7.549794999999999146e-01 6.921910000000000562e-02 1.008524999999999920e+02 1.764029999999999973e+03
4.000000000000000083e-03 7.550379999999999869e-01 1.729928000000000021e-01 1.009931500000000000e+02 1.764065000000000055e+03
5.000000000000000104e-03 7.550179999999999669e-01 1.679704999999999948e-01 1.009615000000000009e+02 1.764059999999999945e+03
6.000000000000000125e-03 7.549445000000000183e-01 7.607650000000001911e-02 1.007439999999999998e+02 1.764009999999999991e+03
7.000000000000000146e-03 7.548915000000000486e-01 1.038300000000003109e-02 1.005010000000000048e+02 1.763954999999999927e+03
8.000000000000000167e-03 7.548185000000000588e-01 -9.846050000000000635e-02 1.001691500000000019e+02 1.763880000000000109e+03
9.000000000000001055e-03 7.546874999999999556e-01 -3.194500000000000117e-01 9.964459999999999695e+01 1.763759999999999991e+03
1.000000000000000194e-02 7.544954999999999856e-01 -6.599900000000000766e-01 9.888554999999999495e+01 1.763595000000000027e+03
1.099999999999999936e-02 7.542195000000000427e-01 -1.150144999999999973e+00 9.781290000000001328e+01 1.763355000000000018e+03
1.200000000000000025e-02 7.538460000000000161e-01 -1.800700000000000189e+00 9.636275000000000546e+01 1.763029999999999973e+03
1.300000000000000114e-02 7.534155000000000157e-01 -2.526514999999999844e+00 9.460364999999998759e+01 1.762625000000000000e+03
1.400000000000000203e-02 7.530040000000000067e-01 -3.170071999999999779e+00 9.273744999999999550e+01 1.762179999999999836e+03
1.499999999999999944e-02 7.526740000000000652e-01 -3.592784500000000047e+00 9.098015000000000896e+01 1.761744999999999891e+03
1.600000000000000033e-02 7.524379999999999402e-01 -3.738566999999999751e+00 8.945474999999999000e+01 1.761344999999999800e+03
1.700000000000000122e-02 7.522645000000000026e-01 -3.637016000000000027e+00 8.815735000000000809e+01 1.760980000000000018e+03
1.800000000000000211e-02 7.521005000000000607e-01 -3.367981499999999961e+00 8.698964999999999748e+01 1.760639999999999873e+03
1.900000000000000300e-02 7.519009999999999305e-01 -3.017148499999999789e+00 8.581985000000000241e+01 1.760300000000000182e+03
2.000000000000000042e-02 7.516399999999999748e-01 -2.642263134999999874e+00 8.454159999999998831e+01 1.759934999999999945e+03
2.100000000000000130e-02 7.513199999999999878e-01 -2.258478000000000208e+00 8.310984999999999445e+01 1.759529999999999973e+03
2.200000000000000219e-02 7.509624999999999773e-01 -1.843384999999999829e+00 8.154749999999999943e+01 1.759105000000000018e+03
2.299999999999999961e-02 7.505990000000000162e-01 -1.356414999999999926e+00 7.992485000000000639e+01 1.758654999999999973e+03
2.400000000000000050e-02 7.502535000000000176e-01 -7.635600000000000165e-01 7.832330000000000325e+01 1.758204999999999927e+03
2.500000000000000139e-02 7.499365000000000059e-01 -5.751499999999998280e-02 7.679895000000000493e+01 1.757769999999999982e+03
2.600000000000000228e-02 7.496389999999999443e-01 7.330600000000000449e-01 7.535864999999999725e+01 1.757349999999999909e+03
2.700000000000000316e-02 7.493365000000000720e-01 1.546424999999999939e+00 7.395409999999999684e+01 1.756940000000000055e+03
2.800000000000000058e-02 7.489959999999999951e-01 2.300670000000000215e+00 7.249360000000000070e+01 1.756525000000000091e+03
2.900000000000000147e-02 7.485859999999999737e-01 2.912564999999999849e+00 7.086730000000000018e+01 1.756069999999999936e+03
3.000000000000000236e-02 7.480854999999999588e-01 3.317985000000000184e+00 6.897919999999999163e+01 1.755565000000000055e+03
3.099999999999999978e-02 7.474929999999999630e-01 3.487989999999999924e+00 6.677804999999999325e+01 1.754994999999999891e+03
3.200000000000000067e-02 7.468250000000000721e-01 3.435180000000000344e+00 6.427570000000000050e+01 1.754355000000000018e+03
3.300000000000000155e-02 7.461149999999999727e-01 3.208080000000000265e+00 6.154744999999999777e+01 1.753664999999999964e+03
3.400000000000000244e-02 7.454024999999999679e-01 2.876090000000000479e+00 5.871490000000000009e+01 1.752950000000000045e+03
3.500000000000000333e-02 7.447269999999999168e-01 2.511709999999999887e+00 5.591935000000000144e+01 1.752234999999999900e+03
3.600000000000000422e-02 7.441189999999999749e-01 2.176165000000000127e+00 5.329569999999999652e+01 1.751549999999999955e+03
3.700000000000000511e-02 7.435959999999999237e-01 1.911690000000000111e+00 5.095310000000000628e+01 1.750924999999999955e+03
3.799999999999999906e-02 7.431674999999999809e-01 1.740715000000000234e+00 4.896640000000000015e+01 1.750380000000000109e+03
3.899999999999999994e-02 7.428334999999999244e-01 1.669615000000000071e+00 4.737574999999999648e+01 1.749929999999999836e+03
4.000000000000000083e-02 7.425895000000000135e-01 1.695510000000000073e+00 4.619339999999999691e+01 1.749579999999999927e+03
4.100000000000000172e-02 7.424314999999999110e-01 1.813352000000000075e+00 4.541394999999999982e+01 1.749325000000000045e+03
4.200000000000000261e-02 7.423545000000000282e-01 2.021669999999999856e+00 4.502519999999999811e+01 1.749174999999999955e+03
4.300000000000000350e-02 7.423595000000000610e-01 2.325750000000000206e+00 4.501664999999999850e+01 1.749125000000000000e+03
4.400000000000000439e-02 7.424470000000000791e-01 2.737605000000000288e+00 4.538415000000000532e+01 1.749175000000000182e+03
4.499999999999999833e-02 7.426230000000000331e-01 3.273204999999999920e+00 4.612949999999999307e+01 1.749319999999999936e+03
4.599999999999999922e-02 7.428885000000000627e-01 3.948069999999999968e+00 4.725690000000000168e+01 1.749570000000000164e+03
4.700000000000000011e-02 7.432449999999999335e-01 4.772734500000000324e+00 4.876650000000000063e+01 1.749914999999999964e+03
4.800000000000000100e-02 7.436890000000000445e-01 5.749265000000000292e+00 5.064945000000000164e+01 1.750360000000000127e+03
4.900000000000000189e-02 7.442135000000000833e-01 6.869739999999999291e+00 5.288339999999999463e+01 1.750889999999999873e+03
5.000000000000000278e-02 7.448060000000000791e-01 8.116495000000000459e+00 5.543200000000000216e+01 1.751509999999999991e+03
5.100000000000000366e-02 7.454534999999999911e-01 9.464254999999999640e+00 5.824555000000000149e+01 1.752199999999999818e+03
5.200000000000000455e-02 7.461389999999999967e-01 1.088304999999999900e+01 6.126550000000000296e+01 1.752954999999999927e+03
5.300000000000000544e-02 7.468479999999999563e-01 1.234146499999999946e+01 6.442910000000000537e+01 1.753750000000000000e+03
5.399999999999999939e-02 7.475665000000000227e-01 1.381001499999999993e+01 6.767470000000000141e+01 1.754575000000000045e+03
5.500000000000000028e-02 7.482834999999999903e-01 1.526316500000000076e+01 7.094695000000000107e+01 1.755425000000000182e+03
5.600000000000000117e-02 7.489909999999999624e-01 1.668090000000000117e+01 7.420010000000000616e+01 1.756269999999999982e+03
5.700000000000000205e-02 7.496825000000000294e-01 1.804899999999999949e+01 7.740004999999999313e+01 1.757115000000000009e+03
5.800000000000000294e-02 7.503564999999999818e-01 1.935859999999999914e+01 8.052459999999999241e+01 1.757945000000000164e+03
5.900000000000000383e-02 7.510120000000000129e-01 2.060544999999999760e+01 8.356250000000000000e+01 1.758759999999999991e+03
6.000000000000000472e-02 7.516509999999999581e-01 2.178840000000000288e+01 8.651165000000000305e+01 1.759559999999999945e+03
6.099999999999999867e-02 7.522755000000000969e-01 2.290850000000000009e+01 8.937655000000000882e+01 1.760339999999999918e+03
6.199999999999999956e-02 7.528869999999999729e-01 2.396759999999999735e+01 9.216604999999999848e+01 1.761099999999999909e+03
6.300000000000000044e-02 7.534879999999999356e-01 2.496799999999999997e+01 9.488994999999999891e+01 1.761839999999999918e+03
6.400000000000000133e-02 7.540804999999999314e-01 2.591124999999999901e+01 9.755814999999999770e+01 1.762570000000000164e+03
6.500000000000000222e-02 7.546654999999999891e-01 2.679789999999999850e+01 1.001785500000000013e+02 1.763284999999999854e+03
6.600000000000000311e-02 7.552425000000000388e-01 2.762715000000000032e+01 1.027547500000000014e+02 1.763994999999999891e+03
6.700000000000000400e-02 7.558110000000000106e-01 2.839685000000000059e+01 1.052862999999999971e+02 1.764690000000000055e+03
6.800000000000000488e-02 7.563680000000000403e-01 2.910354999999999848e+01 1.077680000000000007e+02 1.765375000000000000e+03
6.900000000000000577e-02 7.569114999999999593e-01 2.974285000000000068e+01 1.101910000000000025e+02 1.766039999999999964e+03
7.000000000000000666e-02 7.574374999999999858e-01 3.030995000000000061e+01 1.125414999999999992e+02 1.766690000000000055e+03
7.100000000000000755e-02 7.579439999999999511e-01 3.080044999999999789e+01 1.148070000000000022e+02 1.767320000000000164e+03
7.200000000000000844e-02 7.584254999999999747e-01 3.121034999999999826e+01 1.169710000000000036e+02 1.767925000000000182e+03
7.300000000000000933e-02 7.588810000000000278e-01 3.153699999999999903e+01 1.190219999999999914e+02 1.768505000000000109e+03
7.399999999999999634e-02 7.593079999999999830e-01 3.177875000000000227e+01 1.209459999999999980e+02 1.769049999999999955e+03
7.499999999999999722e-02 7.597039999999999349e-01 3.193540000000000134e+01 1.227334999999999923e+02 1.769559999999999945e+03
7.599999999999999811e-02 7.600685000000000358e-01 3.200769999999999982e+01 1.243769999999999953e+02 1.770029999999999973e+03
7.699999999999999900e-02 7.603999999999999648e-01 3.199730000000000274e+01 1.258714999999999975e+02 1.770460000000000036e+03
7.799999999999999989e-02 7.606984999999999442e-01 3.190625000000000000e+01 1.272134999999999962e+02 1.770855000000000018e+03
7.900000000000000078e-02 7.609635000000000149e-01 3.173720000000000141e+01 1.284025000000000034e+02 1.771210000000000036e+03
8.000000000000000167e-02 7.611950000000000660e-01 3.149324999999999974e+01 1.294375000000000000e+02 1.771519999999999982e+03
8.100000000000000255e-02 7.613935000000000564e-01 3.117774999999999963e+01 1.303209999999999980e+02 1.771795000000000073e+03
8.200000000000000344e-02 7.615589999999999860e-01 3.079495000000000005e+01 1.310550000000000068e+02 1.772025000000000091e+03
8.300000000000000433e-02 7.616939999999999822e-01 3.034975000000000023e+01 1.316460000000000150e+02 1.772215000000000146e+03
8.400000000000000522e-02 7.617990000000000039e-01 2.984825000000000017e+01 1.321005000000000109e+02 1.772365000000000009e+03
8.500000000000000611e-02 7.618770000000000264e-01 2.929755000000000109e+01 1.324279999999999973e+02 1.772480000000000018e+03
8.600000000000000699e-02 7.619305000000000661e-01 2.870584999999999809e+01 1.326410000000000196e+02 1.772569999999999936e+03
8.700000000000000788e-02 7.619629999999999459e-01 2.808200000000000074e+01 1.327520000000000095e+02 1.772625000000000000e+03
8.800000000000000877e-02 7.619780000000000442e-01 2.743520000000000181e+01 1.327775000000000034e+02 1.772654999999999973e+03
8.899999999999999578e-02 7.619789999999999619e-01 2.677489999999999881e+01 1.327319999999999993e+02 1.772664999999999964e+03
8.999999999999999667e-02 7.619694999999999663e-01 2.610960000000000036e+01 1.326310000000000002e+02 1.772654999999999973e+03
9.099999999999999756e-02 7.619515000000000038e-01 2.544725000000000037e+01 1.324894999999999925e+02 1.772630000000000109e+03
9.199999999999999845e-02 7.619290000000000784e-01 2.479400000000000048e+01 1.323195000000000050e+02 1.772595000000000027e+03
9.299999999999999933e-02 7.619020000000000792e-01 2.415484999999999971e+01 1.321310000000000002e+02 1.772550000000000182e+03
9.400000000000000022e-02 7.618730000000000224e-01 2.353265000000000029e+01 1.319310000000000116e+02 1.772505000000000109e+03
9.500000000000000111e-02 7.618409999999999904e-01 2.292884999999999707e+01 1.317229999999999848e+02 1.772454999999999927e+03
9.600000000000000200e-02 7.618065000000000531e-01 2.234329999999999927e+01 1.315084999999999980e+02 1.772400000000000091e+03
9.700000000000000289e-02 7.617684999999999595e-01 2.177434999999999832e+01 1.312849999999999966e+02 1.772340000000000146e+03
9.800000000000000377e-02 7.617260000000000142e-01 2.121950000000000003e+01 1.310490000000000066e+02 1.772275000000000091e+03
9.900000000000000466e-02 7.616769999999999374e-01 2.067535000000000167e+01 1.307950000000000159e+02 1.772210000000000036e+03
1.000000000000000056e-01 7.616205000000000336e-01 2.013799999999999812e+01 1.305155000000000030e+02 1.772130000000000109e+03
1.010000000000000064e-01 7.615544999999999121e-01 1.960330000000000084e+01 1.302040000000000077e+02 1.772055000000000064e+03
1.020000000000000073e-01 7.614780000000000992e-01 1.906709999999999994e+01 1.298534999999999968e+02 1.771960000000000036e+03
1.030000000000000082e-01 7.613890000000000935e-01 1.852544999999999931e+01 1.294575000000000102e+02 1.771855000000000018e+03
1.040000000000000091e-01 7.612875000000000059e-01 1.797500000000000142e+01 1.290099999999999909e+02 1.771740000000000009e+03
1.050000000000000100e-01 7.611715000000000009e-01 1.741284999999999883e+01 1.285064999999999884e+02 1.771605000000000018e+03
1.059999999999999970e-01 7.610414999999999264e-01 1.683729999999999905e+01 1.279449999999999932e+02 1.771465000000000146e+03
1.069999999999999979e-01 7.608980000000000743e-01 1.624735000000000085e+01 1.273259999999999934e+02 1.771304999999999836e+03
1.079999999999999988e-01 7.607420000000000293e-01 1.564355000000000118e+01 1.266514999999999986e+02 1.771130000000000109e+03
1.089999999999999997e-01 7.605744999999999312e-01 1.502730000000000032e+01 1.259260000000000019e+02 1.770940000000000055e+03
1.100000000000000006e-01 7.603980000000000183e-01 1.440164500000000025e+01 1.251565000000000083e+02 1.770740000000000009e+03
1.110000000000000014e-01 7.602145000000000152e-01 1.377048000000000094e+01 1.243529999999999944e+02 1.770530000000000200e+03
1.120000000000000023e-01 7.600270000000000081e-01 1.313884499999999989e+01 1.235264999999999986e+02 1.770315000000000055e+03
1.130000000000000032e-01 7.598389999999999311e-01 1.251250000000000107e+01 1.226899999999999977e+02 1.770095000000000027e+03
1.140000000000000041e-01 7.596534999999999815e-01 1.189785499999999985e+01 1.218575000000000017e+02 1.769869999999999891e+03
1.150000000000000050e-01 7.594729999999999537e-01 1.130144999999999911e+01 1.210434999999999945e+02 1.769654999999999973e+03
1.160000000000000059e-01 7.593024999999999913e-01 1.072982000000000014e+01 1.202624999999999886e+02 1.769440000000000055e+03
1.170000000000000068e-01 7.591434999999999711e-01 1.018914000000000009e+01 1.195269999999999868e+02 1.769240000000000009e+03
1.180000000000000077e-01 7.589989999999999792e-01 9.684940000000000992e+00 1.188504999999999967e+02 1.769055000000000064e+03
1.190000000000000085e-01 7.588710000000000733e-01 9.221804999999999808e+00 1.182419999999999902e+02 1.768880000000000109e+03
1.200000000000000094e-01 7.587610000000000188e-01 8.803274999999999295e+00 1.177100000000000080e+02 1.768730000000000018e+03
1.209999999999999964e-01 7.586694999999999967e-01 8.431564999999999088e+00 1.172590000000000003e+02 1.768594999999999800e+03
1.219999999999999973e-01 7.585969999999999658e-01 8.107710000000000861e+00 1.168919999999999959e+02 1.768484999999999900e+03
1.229999999999999982e-01 7.585425000000000084e-01 7.831374999999999531e+00 1.166075000000000017e+02 1.768394999999999982e+03
1.239999999999999991e-01 7.585055000000000547e-01 7.601020000000000110e+00 1.164034999999999940e+02 1.768325000000000045e+03
1.250000000000000000e-01 7.584839999999999360e-01 7.414085000000000036e+00 1.162744999999999891e+02 1.768275000000000091e+03
1.260000000000000009e-01 7.584764999999999979e-01 7.267145000000000188e+00 1.162125000000000057e+02 1.768244999999999891e+03
1.270000000000000018e-01 7.584809999999999608e-01 7.156145000000000422e+00 1.162095000000000056e+02 1.768230000000000018e+03
1.280000000000000027e-01 7.584949999999999193e-01 7.076645000000000962e+00 1.162570000000000050e+02 1.768230000000000018e+03
1.290000000000000036e-01 7.585169999999999968e-01 7.024029999999999774e+00 1.163444999999999965e+02 1.768235000000000127e+03
1.300000000000000044e-01 7.585439999999999960e-01 6.993729999999999336e+00 1.164619999999999891e+02 1.768259999999999991e+03
1.310000000000000053e-01 7.585754999999999582e-01 6.981349999999999945e+00 1.166020000000000039e+02 1.768289999999999964e+03
1.320000000000000062e-01 7.586089999999999778e-01 6.982779999999999987e+00 1.167560000000000002e+02 1.768319999999999936e+03
1.330000000000000071e-01 7.586429999999999563e-01 6.994320000000000093e+00 1.169175000000000040e+02 1.768360000000000127e+03
1.340000000000000080e-01 7.586764999999999759e-01 7.012660000000000338e+00 1.170799999999999983e+02 1.768394999999999982e+03
1.350000000000000089e-01 7.587094999999999256e-01 7.034950000000000259e+00 1.172394999999999925e+02 1.768434999999999945e+03
1.360000000000000098e-01 7.587409999999999988e-01 7.058775000000000688e+00 1.173919999999999959e+02 1.768470000000000027e+03
1.370000000000000107e-01 7.587699999999999445e-01 7.082164999999999822e+00 1.175364999999999895e+02 1.768509999999999991e+03
1.380000000000000115e-01 7.587969999999999438e-01 7.103600000000000136e+00 1.176700000000000017e+02 1.768545000000000073e+03
1.390000000000000124e-01 7.588219999999999965e-01 7.121969999999999246e+00 1.177930000000000064e+02 1.768574999999999818e+03
1.400000000000000133e-01 7.588439999999999630e-01 7.136585000000000178e+00 1.179054999999999893e+02 1.768605000000000018e+03
1.410000000000000142e-01 7.588645000000000529e-01 7.147145000000000081e+00 1.180084999999999980e+02 1.768634999999999991e+03
1.420000000000000151e-01 7.588840000000000030e-01 7.153705000000000425e+00 1.181024999999999920e+02 1.768664999999999964e+03
1.430000000000000160e-01 7.589025000000000354e-01 7.156594999999999374e+00 1.181905000000000001e+02 1.768684999999999945e+03
1.440000000000000169e-01 7.589194999999999691e-01 7.156390000000000029e+00 1.182745000000000033e+02 1.768710000000000036e+03
1.450000000000000178e-01 7.589369999999999727e-01 7.153785000000000061e+00 1.183559999999999945e+02 1.768735000000000127e+03
1.459999999999999909e-01 7.589550000000000463e-01 7.149559999999999249e+00 1.184369999999999976e+02 1.768755000000000109e+03
1.469999999999999918e-01 7.589740000000000375e-01 7.144439999999999458e+00 1.185190000000000055e+02 1.768780000000000200e+03
1.479999999999999927e-01 7.589930000000000287e-01 7.139054999999999040e+00 1.186045000000000016e+02 1.768800000000000182e+03
1.489999999999999936e-01 7.590140000000000775e-01 7.133855000000000501e+00 1.186935000000000002e+02 1.768829999999999927e+03
1.499999999999999944e-01 7.590360000000000440e-01 7.129089999999999705e+00 1.187870000000000061e+02 1.768849999999999909e+03
1.509999999999999953e-01 7.590585000000000804e-01 7.124790000000000845e+00 1.188840000000000003e+02 1.768880000000000109e+03
1.519999999999999962e-01 7.590820000000000345e-01 7.120760000000000645e+00 1.189844999999999970e+02 1.768904999999999973e+03
1.529999999999999971e-01 7.591060000000000585e-01 7.116645000000000110e+00 1.190865000000000009e+02 1.768934999999999945e+03
1.539999999999999980e-01 7.591295000000000126e-01 7.111964999999999648e+00 1.191885000000000048e+02 1.768964999999999918e+03
1.549999999999999989e-01 7.591525000000000079e-01 7.106184999999999974e+00 1.192890000000000015e+02 1.768984999999999900e+03
1.559999999999999998e-01 7.591745000000000854e-01 7.098810000000000286e+00 1.193859999999999957e+02 1.769019999999999982e+03
1.570000000000000007e-01 7.591949999999999532e-01 7.089425000000000310e+00 1.194770000000000039e+02 1.769045000000000073e+03
1.580000000000000016e-01 7.592140000000000555e-01 7.077795000000000059e+00 1.195619999999999976e+02 1.769065000000000055e+03
1.590000000000000024e-01 7.592309999999999892e-01 7.063869999999999649e+00 1.196384999999999934e+02 1.769085000000000036e+03
