# t [s], A [cm^2], U [cm/s], P [cPa], c [cm/s]
1.000000000000000021e-03 2.005259999999999820e-01 1.162843000000000071e-01 9.735759999999999081e+01 2.220769999999999982e+03
2.000000000000000042e-03 2.004869999999999985e-01 1.344332000000000082e+00 9.459890000000000043e+01 2.220425000000000182e+03
3.000000000000000062e-03 2.003695000000000059e-01 2.971539500000000000e+00 9.053040000000000020e+01 2.219440000000000055e+03
4.000000000000000083e-03 2.002015000000000045e-01 4.853009000000000128e+00 8.574070000000000391e+01 2.218059999999999945e+03
5.000000000000000104e-03 2.000144999999999840e-01 6.926530000000000520e+00 8.109469999999998890e+01 2.216534999999999854e+03
6.000000000000000125e-03 1.998309999999999809e-01 9.061009999999999565e+00 7.708129999999999882e+01 2.215065000000000055e+03
7.000000000000000146e-03 1.996585000000000165e-01 1.104449999999999932e+01 7.363870000000000005e+01 2.213699999999999818e+03
8.000000000000000167e-03 1.994980000000000087e-01 1.273926000000000158e+01 7.052760000000000673e+01 2.212454999999999927e+03
9.000000000000001055e-03 1.993535000000000168e-01 1.414836000000000027e+01 6.774750000000000227e+01 2.211355000000000018e+03
1.000000000000000194e-02 1.992309999999999914e-01 1.530910000000000082e+01 6.540299999999999159e+01 2.210435000000000400e+03
1.099999999999999936e-02 1.991295000000000148e-01 1.624470000000000169e+01 6.352439999999999998e+01 2.209679999999999836e+03
1.200000000000000025e-02 1.990494999999999903e-01 1.697305000000000064e+01 6.207939999999999259e+01 2.209090000000000146e+03
1.300000000000000114e-02 1.989865000000000106e-01 1.749654999999999916e+01 6.097140000000000271e+01 2.208630000000000109e+03
1.400000000000000203e-02 1.989354999999999873e-01 1.781090000000000018e+01 6.004729999999999990e+01 2.208275000000000091e+03
1.499999999999999944e-02 1.988924999999999998e-01 1.795479999999999876e+01 5.922735000000000127e+01 2.207974999999999909e+03
1.600000000000000033e-02 1.988614999999999966e-01 1.804200000000000159e+01 5.865014999999999645e+01 2.207764999999999873e+03
1.700000000000000122e-02 1.988499999999999990e-01 1.822650000000000148e+01 5.864934999999999832e+01 2.207690000000000055e+03
1.800000000000000211e-02 1.988675000000000026e-01 1.862400000000000233e+01 5.955044999999999789e+01 2.207824999999999818e+03
1.900000000000000300e-02 1.989174999999999971e-01 1.924940000000000140e+01 6.144299999999999784e+01 2.208199999999999818e+03
2.000000000000000042e-02 1.989954999999999918e-01 2.000945000000000107e+01 6.408339999999999748e+01 2.208784999999999854e+03
2.100000000000000130e-02 1.990875000000000006e-01 2.074715000000000131e+01 6.697135000000000105e+01 2.209489999999999782e+03
2.200000000000000219e-02 1.991779999999999939e-01 2.130769999999999698e+01 6.954019999999999868e+01 2.210190000000000055e+03
2.299999999999999961e-02 1.992524999999999991e-01 2.159384999999999977e+01 7.135605000000001041e+01 2.210779999999999745e+03
2.400000000000000050e-02 1.993020000000000069e-01 2.159074999999999989e+01 7.224230000000000018e+01 2.211189999999999600e+03
2.500000000000000139e-02 1.993265000000000176e-01 2.135600000000000165e+01 7.229429999999999268e+01 2.211399999999999636e+03
2.600000000000000228e-02 1.993304999999999938e-01 2.098620000000000019e+01 7.179650000000000887e+01 2.211449999999999818e+03
2.700000000000000316e-02 1.993225000000000136e-01 2.057485000000000142e+01 7.108799999999999386e+01 2.211400000000000091e+03
2.800000000000000058e-02 1.993095000000000006e-01 2.017954999999999899e+01 7.043330000000000268e+01 2.211309999999999945e+03
2.900000000000000147e-02 1.992979999999999752e-01 1.980734999999999957e+01 6.994190000000000396e+01 2.211215000000000146e+03
3.000000000000000236e-02 1.992865000000000053e-01 1.942079999999999984e+01 6.955684999999999718e+01 2.211125000000000000e+03
3.099999999999999978e-02 1.992720000000000047e-01 1.896014999999999873e+01 6.910554999999999382e+01 2.211019999999999982e+03
3.200000000000000067e-02 1.992499999999999827e-01 1.837194999999999823e+01 6.838830000000000098e+01 2.210855000000000018e+03
3.300000000000000155e-02 1.992160000000000042e-01 1.763550000000000040e+01 6.727279999999998950e+01 2.210610000000000127e+03
3.400000000000000244e-02 1.991700000000000137e-01 1.677779999999999916e+01 6.576349999999999341e+01 2.210265000000000327e+03
3.500000000000000333e-02 1.991140000000000132e-01 1.587260000000000026e+01 6.402169999999999561e+01 2.209844999999999800e+03
3.600000000000000422e-02 1.990554999999999963e-01 1.502289999999999992e+01 6.233064999999999856e+01 2.209404999999999745e+03
3.700000000000000511e-02 1.990049999999999875e-01 1.433365000000000045e+01 6.101720000000000255e+01 2.209015000000000327e+03
3.799999999999999906e-02 1.989720000000000100e-01 1.388380000000000081e+01 6.035869999999999891e+01 2.208744999999999891e+03
3.899999999999999994e-02 1.989609999999999990e-01 1.370725000000000016e+01 6.050670000000000215e+01 2.208644999999999982e+03
4.000000000000000083e-02 1.989765000000000006e-01 1.378614999999999924e+01 6.144899999999999807e+01 2.208734999999999673e+03
4.100000000000000172e-02 1.990139999999999965e-01 1.405835000000000079e+01 6.301720000000000255e+01 2.209005000000000109e+03
4.200000000000000261e-02 1.990679999999999950e-01 1.443345000000000056e+01 6.493169999999999220e+01 2.209404999999999745e+03
4.300000000000000350e-02 1.991284999999999861e-01 1.481289999999999907e+01 6.686645000000000039e+01 2.209860000000000127e+03
4.400000000000000439e-02 1.991864999999999886e-01 1.510820000000000007e+01 6.851534999999999798e+01 2.210300000000000182e+03
4.499999999999999833e-02 1.992335000000000078e-01 1.525369999999999848e+01 6.964359999999999218e+01 2.210664999999999964e+03
4.599999999999999922e-02 1.992619999999999947e-01 1.521239999999999881e+01 7.011664999999999281e+01 2.210894999999999982e+03
4.700000000000000011e-02 1.992700000000000027e-01 1.497475000000000023e+01 6.990264999999999418e+01 2.210970000000000255e+03
4.800000000000000100e-02 1.992570000000000174e-01 1.455264999999999986e+01 6.905445000000000277e+01 2.210880000000000109e+03
4.900000000000000189e-02 1.992240000000000122e-01 1.397034999999999982e+01 6.767895000000000039e+01 2.210644999999999982e+03
5.000000000000000278e-02 1.991745000000000043e-01 1.325649999999999906e+01 6.590335000000000321e+01 2.210275000000000091e+03
5.100000000000000366e-02 1.991120000000000112e-01 1.243767499999999870e+01 6.384754999999999825e+01 2.209805000000000291e+03
5.200000000000000455e-02 1.990399999999999947e-01 1.153584000000000032e+01 6.160790000000000077e+01 2.209260000000000218e+03
5.300000000000000544e-02 1.989599999999999980e-01 1.056836999999999982e+01 5.925325000000000131e+01 2.208654999999999745e+03
5.399999999999999939e-02 1.988754999999999828e-01 9.550570000000000448e+00 5.683070000000000022e+01 2.208005000000000109e+03
5.500000000000000028e-02 1.987875000000000059e-01 8.499385000000000190e+00 5.437779999999999347e+01 2.207340000000000146e+03
5.600000000000000117e-02 1.986985000000000001e-01 7.436185000000000045e+00 5.193590000000000373e+01 2.206654999999999745e+03
5.700000000000000205e-02 1.986089999999999800e-01 6.388914999999999900e+00 4.956049999999999756e+01 2.205975000000000364e+03
5.800000000000000294e-02 1.985235000000000194e-01 5.392305000000000348e+00 4.732634999999999792e+01 2.205309999999999945e+03
5.900000000000000383e-02 1.984430000000000083e-01 4.486345000000000027e+00 4.532654999999999745e+01 2.204695000000000164e+03
6.000000000000000472e-02 1.983730000000000215e-01 3.713440000000000296e+00 4.366594999999999516e+01 2.204149999999999636e+03
6.099999999999999867e-02 1.983159999999999923e-01 3.114734999999999587e+00 4.245085000000000264e+01 2.203699999999999818e+03
6.199999999999999956e-02 1.982760000000000078e-01 2.726455000000000073e+00 4.177769999999999584e+01 2.203380000000000109e+03
6.300000000000000044e-02 1.982555000000000012e-01 2.576670000000000016e+00 4.172234999999999872e+01 2.203204999999999927e+03
6.400000000000000133e-02 1.982575000000000032e-01 2.683114999999999917e+00 4.233200000000000074e+01 2.203199999999999818e+03
6.500000000000000222e-02 1.982835000000000014e-01 3.052024999999999988e+00 4.362160000000000082e+01 2.203375000000000000e+03
6.600000000000000311e-02 1.983329999999999815e-01 3.678189999999999849e+00 4.557280000000000086e+01 2.203735000000000127e+03
6.700000000000000400e-02 1.984055000000000124e-01 4.545889999999999986e+00 4.813710000000000377e+01 2.204264999999999873e+03
6.800000000000000488e-02 1.985000000000000098e-01 5.630584999999999951e+00 5.124134999999999707e+01 2.204965000000000146e+03
6.900000000000000577e-02 1.986124999999999974e-01 6.901145000000000529e+00 5.479489999999999839e+01 2.205815000000000055e+03
7.000000000000000666e-02 1.987415000000000154e-01 8.322300000000000253e+00 5.869729999999999848e+01 2.206784999999999854e+03
7.100000000000000755e-02 1.988820000000000032e-01 9.857319999999999638e+00 6.284669999999999845e+01 2.207850000000000364e+03
7.200000000000000844e-02 1.990319999999999867e-01 1.147008999999999901e+01 6.714715000000001055e+01 2.208994999999999891e+03
7.300000000000000933e-02 1.991875000000000173e-01 1.312773500000000126e+01 7.151470000000000482e+01 2.210184999999999945e+03
7.399999999999999634e-02 1.993464999999999820e-01 1.480165000000000042e+01 7.588185000000000002e+01 2.211409999999999854e+03
7.499999999999999722e-02 1.995065000000000033e-01 1.646890000000000143e+01 8.020015000000000782e+01 2.212640000000000327e+03
7.599999999999999811e-02 1.996654999999999958e-01 1.811224999999999952e+01 8.443999999999999773e+01 2.213869999999999891e+03
7.699999999999999900e-02 1.998225000000000140e-01 1.971965000000000146e+01 8.858859999999999957e+01 2.215090000000000146e+03
7.799999999999999989e-02 1.999775000000000025e-01 2.128385000000000105e+01 9.264660000000000650e+01 2.216295000000000073e+03
7.900000000000000078e-02 2.001304999999999890e-01 2.280049999999999955e+01 9.662225000000000819e+01 2.217480000000000018e+03
8.000000000000000167e-02 2.002809999999999868e-01 2.426744999999999663e+01 1.005283499999999890e+02 2.218654999999999745e+03
8.100000000000000255e-02 2.004294999999999827e-01 2.568325000000000102e+01 1.043758499999999998e+02 2.219820000000000164e+03
8.200000000000000344e-02 2.005764999999999909e-01 2.704645000000000010e+01 1.081724999999999994e+02 2.220965000000000146e+03
8.300000000000000433e-02 2.007209999999999828e-01 2.835510000000000019e+01 1.119190000000000111e+02 2.222100000000000364e+03
8.400000000000000522e-02 2.008650000000000158e-01 2.960644999999999882e+01 1.156109999999999900e+02 2.223220000000000255e+03
8.500000000000000611e-02 2.010055000000000036e-01 3.079729999999999990e+01 1.192390000000000043e+02 2.224329999999999927e+03
8.600000000000000699e-02 2.011439999999999895e-01 3.192410000000000281e+01 1.227895000000000039e+02 2.225420000000000073e+03
8.700000000000000788e-02 2.012799999999999867e-01 3.298310000000000031e+01 1.262469999999999999e+02 2.226485000000000127e+03
8.800000000000000877e-02 2.014120000000000077e-01 3.397074999999999534e+01 1.295935000000000059e+02 2.227524999999999636e+03
8.899999999999999578e-02 2.015399999999999969e-01 3.488349999999999795e+01 1.328149999999999977e+02 2.228529999999999745e+03
8.999999999999999667e-02 2.016629999999999812e-01 3.571795000000000186e+01 1.358940000000000055e+02 2.229505000000000109e+03
9.099999999999999756e-02 2.017809999999999881e-01 3.647055000000000291e+01 1.388159999999999741e+02 2.230434999999999945e+03
9.199999999999999845e-02 2.018925000000000025e-01 3.713759999999999906e+01 1.415660000000000025e+02 2.231324999999999818e+03
9.299999999999999933e-02 2.019980000000000109e-01 3.771500000000000341e+01 1.441270000000000095e+02 2.232154999999999745e+03
9.400000000000000022e-02 2.020965000000000122e-01 3.819839999999999947e+01 1.464830000000000041e+02 2.232940000000000055e+03
9.500000000000000111e-02 2.021864999999999912e-01 3.858344999999999914e+01 1.486185000000000116e+02 2.233654999999999745e+03
9.600000000000000200e-02 2.022685000000000177e-01 3.886589999999999634e+01 1.505160000000000196e+02 2.234309999999999945e+03
9.700000000000000289e-02 2.023415000000000075e-01 3.904255000000000564e+01 1.521630000000000109e+02 2.234894999999999982e+03
9.800000000000000377e-02 2.024055000000000160e-01 3.911135000000000161e+01 1.535484999999999900e+02 2.235404999999999745e+03
9.900000000000000466e-02 2.024590000000000001e-01 3.907200000000000273e+01 1.546670000000000016e+02 2.235840000000000146e+03
1.000000000000000056e-01 2.025029999999999886e-01 3.892619999999999436e+01 1.555190000000000055e+02 2.236199999999999818e+03
1.010000000000000064e-01 2.025375000000000092e-01 3.867810000000000059e+01 1.561119999999999948e+02 2.236485000000000127e+03
1.020000000000000073e-01 2.025624999999999787e-01 3.833409999999999940e+01 1.564585000000000150e+02 2.236684999999999945e+03
1.030000000000000082e-01 2.025779999999999803e-01 3.790254999999999797e+01 1.565794999999999959e+02 2.236820000000000164e+03
1.040000000000000091e-01 2.025855000000000017e-01 3.739359999999999928e+01 1.564984999999999786e+02 2.236890000000000327e+03
1.050000000000000100e-01 2.025859999999999883e-01 3.681860000000000355e+01 1.562450000000000045e+02 2.236900000000000091e+03
1.059999999999999970e-01 2.025795000000000234e-01 3.618979999999999819e+01 1.558485000000000014e+02 2.236859999999999673e+03
1.069999999999999979e-01 2.025680000000000258e-01 3.551954999999999529e+01 1.553385000000000105e+02 2.236774999999999636e+03
1.079999999999999988e-01 2.025525000000000242e-01 3.482000000000000028e+01 1.547454999999999927e+02 2.236654999999999745e+03
1.089999999999999997e-01 2.025329999999999908e-01 3.410264999999999702e+01 1.540960000000000036e+02 2.236510000000000218e+03
1.100000000000000006e-01 2.025119999999999976e-01 3.337789999999999679e+01 1.534145000000000039e+02 2.236345000000000255e+03
1.110000000000000014e-01 2.024889999999999746e-01 3.265480000000000160e+01 1.527205000000000155e+02 2.236170000000000073e+03
1.120000000000000023e-01 2.024654999999999927e-01 3.194075000000000131e+01 1.520294999999999845e+02 2.235985000000000127e+03
1.130000000000000032e-01 2.024414999999999965e-01 3.124154999999999660e+01 1.513530000000000086e+02 2.235795000000000073e+03
1.140000000000000041e-01 2.024175000000000002e-01 3.056085000000000207e+01 1.506959999999999980e+02 2.235605000000000018e+03
1.150000000000000050e-01 2.023940000000000183e-01 2.990055000000000263e+01 1.500614999999999952e+02 2.235420000000000073e+03
1.160000000000000059e-01 2.023710000000000231e-01 2.926055000000000206e+01 1.494440000000000168e+02 2.235235000000000127e+03
1.170000000000000068e-01 2.023480000000000001e-01 2.863889999999999958e+01 1.488379999999999939e+02 2.235055000000000291e+03
1.180000000000000077e-01 2.023254999999999915e-01 2.803235000000000099e+01 1.482305000000000064e+02 2.234869999999999891e+03
1.190000000000000085e-01 2.023019999999999818e-01 2.743615000000000137e+01 1.476084999999999923e+02 2.234684999999999945e+03
1.200000000000000094e-01 2.022780000000000133e-01 2.684450000000000003e+01 1.469560000000000173e+02 2.234494999999999891e+03
1.209999999999999964e-01 2.022519999999999873e-01 2.625140000000000029e+01 1.462570000000000050e+02 2.234295000000000073e+03
1.219999999999999973e-01 2.022249999999999881e-01 2.565055000000000263e+01 1.454945000000000164e+02 2.234074999999999818e+03
1.229999999999999982e-01 2.021950000000000136e-01 2.503594999999999970e+01 1.446535000000000082e+02 2.233840000000000146e+03
1.239999999999999991e-01 2.021620000000000084e-01 2.440240000000000009e+01 1.437219999999999800e+02 2.233585000000000036e+03
1.250000000000000000e-01 2.021260000000000001e-01 2.374584999999999724e+01 1.426899999999999977e+02 2.233305000000000291e+03
1.260000000000000009e-01 2.020865000000000022e-01 2.306374999999999886e+01 1.415540000000000020e+02 2.232989999999999782e+03
1.270000000000000018e-01 2.020425000000000137e-01 2.235524999999999807e+01 1.403140000000000214e+02 2.232650000000000091e+03
1.280000000000000027e-01 2.019954999999999945e-01 2.162145000000000294e+01 1.389744999999999777e+02 2.232284999999999854e+03
1.290000000000000036e-01 2.019444999999999990e-01 2.086520000000000152e+01 1.375469999999999970e+02 2.231885000000000218e+03
1.300000000000000044e-01 2.018915000000000015e-01 2.009134999999999849e+01 1.360459999999999923e+02 2.231470000000000255e+03
1.310000000000000053e-01 2.018349999999999866e-01 1.930644999999999811e+01 1.344919999999999902e+02 2.231029999999999745e+03
1.320000000000000062e-01 2.017769999999999841e-01 1.851839999999999975e+01 1.329074999999999989e+02 2.230574999999999818e+03
1.330000000000000071e-01 2.017184999999999950e-01 1.773600000000000065e+01 1.313179999999999836e+02 2.230114999999999782e+03
1.340000000000000080e-01 2.016594999999999915e-01 1.696855000000000047e+01 1.297500000000000000e+02 2.229650000000000091e+03
1.350000000000000089e-01 2.016010000000000024e-01 1.622554999999999836e+01 1.282295000000000016e+02 2.229195000000000164e+03
1.360000000000000098e-01 2.015450000000000019e-01 1.551580000000000048e+01 1.267800000000000011e+02 2.228755000000000109e+03
1.370000000000000107e-01 2.014910000000000034e-01 1.484750000000000014e+01 1.254219999999999970e+02 2.228335000000000036e+03
1.380000000000000115e-01 2.014409999999999812e-01 1.422739999999999938e+01 1.241744999999999948e+02 2.227934999999999945e+03
1.390000000000000124e-01 2.013949999999999907e-01 1.366090000000000160e+01 1.230490000000000066e+02 2.227569999999999709e+03
1.400000000000000133e-01 2.013524999999999898e-01 1.315169999999999995e+01 1.220540000000000020e+02 2.227234999999999673e+03
1.410000000000000142e-01 2.013149999999999940e-01 1.270195000000000007e+01 1.211939999999999884e+02 2.226934999999999945e+03
1.420000000000000151e-01 2.012824999999999753e-01 1.231210000000000093e+01 1.204669999999999987e+02 2.226675000000000182e+03
1.430000000000000160e-01 2.012545000000000028e-01 1.198114999999999952e+01 1.198700000000000045e+02 2.226449999999999818e+03
1.440000000000000169e-01 2.012309999999999932e-01 1.170684999999999931e+01 1.193954999999999984e+02 2.226260000000000218e+03
1.450000000000000178e-01 2.012120000000000020e-01 1.148580000000000112e+01 1.190339999999999918e+02 2.226105000000000018e+03
1.459999999999999909e-01 2.011975000000000013e-01 1.131380000000000052e+01 1.187729999999999961e+02 2.225980000000000018e+03
1.469999999999999918e-01 2.011854999999999893e-01 1.118599999999999994e+01 1.186009999999999991e+02 2.225890000000000327e+03
1.479999999999999927e-01 2.011779999999999957e-01 1.109700000000000131e+01 1.185054999999999978e+02 2.225824999999999818e+03
1.489999999999999936e-01 2.011724999999999763e-01 1.104129999999999967e+01 1.184724999999999966e+02 2.225774999999999636e+03
1.499999999999999944e-01 2.011695000000000011e-01 1.101319999999999943e+01 1.184894999999999925e+02 2.225744999999999891e+03
1.509999999999999953e-01 2.011689999999999867e-01 1.100710000000000122e+01 1.185444999999999993e+02 2.225739999999999782e+03
1.519999999999999962e-01 2.011689999999999867e-01 1.101759999999999984e+01 1.186264999999999930e+02 2.225739999999999782e+03
1.529999999999999971e-01 2.011709999999999887e-01 1.103979999999999961e+01 1.187245000000000061e+02 2.225750000000000000e+03
1.539999999999999980e-01 2.011729999999999907e-01 1.106920000000000037e+01 1.188305000000000007e+02 2.225770000000000437e+03
1.549999999999999989e-01 2.011759999999999937e-01 1.110184999999999889e+01 1.189364999999999952e+02 2.225784999999999854e+03
1.559999999999999998e-01 2.011789999999999967e-01 1.113480000000000025e+01 1.190374999999999943e+02 2.225809999999999945e+03
1.570000000000000007e-01 2.011819999999999997e-01 1.116544999999999987e+01 1.191295000000000073e+02 2.225835000000000036e+03
1.580000000000000016e-01 2.011844999999999883e-01 1.119225000000000136e+01 1.192104999999999961e+02 2.225855000000000018e+03
1.590000000000000024e-01 2.011870000000000047e-01 1.121434999999999960e+01 1.192810000000000059e+02 2.225875000000000000e+03
