# t [s], A [cm^2], U [cm/s], P [cPa], c [cm/s]
1.000000000000000021e-03 7.662185000000000246e-01 6.133500000000000063e-03 1.051664999999999992e+02 1.827055000000000064e+03
2.000000000000000042e-03 7.662164999999999671e-01 1.735994999999999899e-02 1.051424999999999983e+02 1.827050000000000182e+03
3.000000000000000062e-03 7.663115000000000343e-01 1.885194499999999773e-01 1.053534999999999968e+02 1.827095000000000027e+03
4.000000000000000083e-03 7.663200000000000012e-01 2.378855000000000275e-01 1.053919999999999959e+02 1.827105000000000018e+03
5.000000000000000104e-03 7.662124999999999631e-01 9.627600000000002822e-02 1.050570000000000022e+02 1.827039999999999964e+03
6.000000000000000125e-03 7.661139999999999617e-01 -4.863000000000006207e-02 1.045884999999999962e+02 1.826945000000000164e+03
7.000000000000000146e-03 7.659580000000000277e-01 -3.103549999999999365e-01 1.038750000000000000e+02 1.826805000000000064e+03
8.000000000000000167e-03 7.656905000000000516e-01 -7.891749999999999599e-01 1.027265000000000015e+02 1.826579999999999927e+03
9.000000000000001055e-03 7.653149999999999675e-01 -1.469269999999999854e+00 1.010896999999999935e+02 1.826250000000000000e+03
1.000000000000000194e-02 7.647914999999999575e-01 -2.394735000000000280e+00 9.883150000000000546e+01 1.825799999999999955e+03
1.099999999999999936e-02 7.641225000000000378e-01 -3.526464999999999961e+00 9.591979999999999507e+01 1.825200000000000045e+03
1.200000000000000025e-02 7.634284999999999544e-01 -4.615920000000000911e+00 9.266419999999999391e+01 1.824514999999999873e+03
1.300000000000000114e-02 7.628620000000000401e-01 -5.341374499999999692e+00 8.959174999999999045e+01 1.823835000000000036e+03
1.400000000000000203e-02 7.624980000000000091e-01 -5.517464999999999620e+00 8.711769999999999925e+01 1.823240000000000009e+03
1.499999999999999944e-02 7.623014999999999652e-01 -5.172959999999999781e+00 8.534264999999999191e+01 1.822764999999999873e+03
1.600000000000000033e-02 7.621689999999999854e-01 -4.495549999999999713e+00 8.406055000000000632e+01 1.822394999999999982e+03
1.700000000000000122e-02 7.619845000000000645e-01 -3.719320000000000181e+00 8.290415000000000134e+01 1.822045000000000073e+03
1.800000000000000211e-02 7.616804999999999826e-01 -3.014713500000000046e+00 8.153575000000000728e+01 1.821670000000000073e+03
1.900000000000000300e-02 7.612555000000000849e-01 -2.425503500000000034e+00 7.979679999999999040e+01 1.821235000000000127e+03
2.000000000000000042e-02 7.607644999999999547e-01 -1.881510000000000238e+00 7.774459999999999127e+01 1.820735000000000127e+03
2.100000000000000130e-02 7.602774999999999395e-01 -1.273039999999999949e+00 7.556844999999999857e+01 1.820210000000000036e+03
2.200000000000000219e-02 7.598365000000000258e-01 -5.353049999999996977e-01 7.345085000000000264e+01 1.819679999999999836e+03
2.299999999999999961e-02 7.594355000000000411e-01 3.024399999999998201e-01 7.145570000000000732e+01 1.819180000000000064e+03
2.400000000000000050e-02 7.590225000000000444e-01 1.115950000000000220e+00 6.948470000000000368e+01 1.818675000000000182e+03
2.500000000000000139e-02 7.585230000000000583e-01 1.722994999999999610e+00 6.730459999999999354e+01 1.818134999999999991e+03
2.600000000000000228e-02 7.578635000000000232e-01 1.941354999999999720e+00 6.462754999999999939e+01 1.817505000000000109e+03
2.700000000000000316e-02 7.570004999999999651e-01 1.649459999999999926e+00 6.121685000000000088e+01 1.816740000000000009e+03
2.800000000000000058e-02 7.559394999999999865e-01 8.293950000000007705e-01 5.698284999999999911e+01 1.815809999999999945e+03
2.900000000000000147e-02 7.547375000000000611e-01 -4.248500000000001720e-01 5.203090000000000259e+01 1.814730000000000018e+03
3.000000000000000236e-02 7.534840000000000426e-01 -1.936920000000000641e+00 4.664415000000000333e+01 1.813550000000000182e+03
3.099999999999999978e-02 7.522790000000000310e-01 -3.498075000000000045e+00 4.121354999999999791e+01 1.812340000000000146e+03
3.200000000000000067e-02 7.512099999999999334e-01 -4.916104999999999947e+00 3.615024999999999977e+01 1.811179999999999836e+03
3.300000000000000155e-02 7.503400000000000070e-01 -6.047075000000000422e+00 3.180935000000000201e+01 1.810154999999999973e+03
3.400000000000000244e-02 7.497035000000000782e-01 -6.806799500000000336e+00 2.844279999999999831e+01 1.809309999999999945e+03
3.500000000000000333e-02 7.493080000000000851e-01 -7.165389999999999482e+00 2.618319999999999936e+01 1.808694999999999936e+03
3.600000000000000422e-02 7.491430000000000033e-01 -7.131504999999999761e+00 2.505550000000000210e+01 1.808325000000000045e+03
3.700000000000000511e-02 7.491894999999999527e-01 -6.732915000000000205e+00 2.500600000000000023e+01 1.808195000000000164e+03
3.799999999999999906e-02 7.494244999999999379e-01 -6.000110000000000277e+00 2.593795000000000073e+01 1.808285000000000082e+03
3.899999999999999994e-02 7.498289999999999678e-01 -4.956965000000000288e+00 2.774210000000000065e+01 1.808595000000000027e+03
4.000000000000000083e-02 7.503854999999999276e-01 -3.620604999999999407e+00 3.031385000000000218e+01 1.809079999999999927e+03
4.100000000000000172e-02 7.510795000000000110e-01 -2.007729999999999571e+00 3.355644999999999811e+01 1.809730000000000018e+03
4.200000000000000261e-02 7.518925000000000747e-01 -1.438750000000004192e-01 3.737294999999999590e+01 1.810529999999999973e+03
4.300000000000000350e-02 7.528010000000000534e-01 1.930005000000000415e+00 4.165659999999999741e+01 1.811440000000000055e+03
4.400000000000000439e-02 7.537760000000000016e-01 4.155669999999999753e+00 4.628374999999999773e+01 1.812440000000000055e+03
4.499999999999999833e-02 7.547840000000000105e-01 6.461355000000000182e+00 5.111475000000000080e+01 1.813509999999999991e+03
4.599999999999999922e-02 7.557920000000000194e-01 8.768713999999999231e+00 5.600124999999999886e+01 1.814610000000000127e+03
4.700000000000000011e-02 7.567694999999999839e-01 1.100211999999999968e+01 6.079894999999999783e+01 1.815704999999999927e+03
4.800000000000000100e-02 7.576899999999999746e-01 1.309656500000000001e+01 6.538105000000000189e+01 1.816769999999999982e+03
4.900000000000000189e-02 7.585379999999999345e-01 1.500343499999999963e+01 6.964985000000000070e+01 1.817785000000000082e+03
5.000000000000000278e-02 7.593054999999999666e-01 1.669315000000000282e+01 7.354425000000000523e+01 1.818730000000000018e+03
5.100000000000000366e-02 7.599920000000000009e-01 1.815455000000000041e+01 7.704144999999999754e+01 1.819594999999999800e+03
5.200000000000000455e-02 7.606045000000000167e-01 1.939260000000000161e+01 8.015399999999999636e+01 1.820375000000000000e+03
5.300000000000000544e-02 7.611544999999999561e-01 2.042460000000000164e+01 8.292374999999999829e+01 1.821085000000000036e+03
5.399999999999999939e-02 7.616564999999999586e-01 2.127705000000000268e+01 8.541394999999999982e+01 1.821730000000000018e+03
5.500000000000000028e-02 7.621284999999999865e-01 2.198195000000000121e+01 8.770154999999999745e+01 1.822324999999999818e+03
5.600000000000000117e-02 7.625859999999999861e-01 2.257495000000000118e+01 8.986990000000000123e+01 1.822884999999999991e+03
5.700000000000000205e-02 7.630464999999999609e-01 2.309244999999999948e+01 9.200230000000000530e+01 1.823434999999999945e+03
5.800000000000000294e-02 7.635244999999999393e-01 2.356964999999999932e+01 9.417570000000000618e+01 1.823985000000000127e+03
5.900000000000000383e-02 7.640325000000000033e-01 2.403750000000000142e+01 9.645474999999999000e+01 1.824545000000000073e+03
6.000000000000000472e-02 7.645774999999999100e-01 2.452045000000000030e+01 9.888665000000000305e+01 1.825134999999999991e+03
6.099999999999999867e-02 7.651634999999999964e-01 2.503354999999999819e+01 1.014954000000000036e+02 1.825764999999999873e+03
6.199999999999999956e-02 7.657864999999999256e-01 2.558145000000000024e+01 1.042800000000000011e+02 1.826424999999999955e+03
6.300000000000000044e-02 7.664385000000000225e-01 2.615790000000000148e+01 1.072145000000000010e+02 1.827119999999999891e+03
6.400000000000000133e-02 7.671075000000000532e-01 2.674674999999999869e+01 1.102485000000000070e+02 1.827840000000000146e+03
6.500000000000000222e-02 7.677769999999999317e-01 2.732430000000000092e+01 1.133135000000000048e+02 1.828570000000000164e+03
6.600000000000000311e-02 7.684284999999999588e-01 2.786195000000000022e+01 1.163280000000000030e+02 1.829289999999999964e+03
6.700000000000000400e-02 7.690445000000000197e-01 2.832945000000000135e+01 1.192074999999999960e+02 1.829985000000000127e+03
6.800000000000000488e-02 7.696074999999999999e-01 2.869769999999999754e+01 1.218689999999999998e+02 1.830639999999999873e+03
6.900000000000000577e-02 7.701040000000000108e-01 2.894144999999999968e+01 1.242390000000000043e+02 1.831234999999999900e+03
7.000000000000000666e-02 7.705229999999999579e-01 2.904084999999999894e+01 1.262590000000000003e+02 1.831755000000000109e+03
7.100000000000000755e-02 7.708574999999999733e-01 2.898294999999999888e+01 1.278874999999999886e+02 1.832184999999999945e+03
7.200000000000000844e-02 7.711040000000000116e-01 2.876219999999999999e+01 1.291039999999999850e+02 1.832525000000000091e+03
7.300000000000000933e-02 7.712654999999999372e-01 2.838054999999999950e+01 1.299060000000000059e+02 1.832775000000000091e+03
7.399999999999999634e-02 7.713449999999999473e-01 2.784720000000000084e+01 1.303114999999999952e+02 1.832925000000000182e+03
7.499999999999999722e-02 7.713510000000000089e-01 2.717780000000000129e+01 1.303539999999999850e+02 1.832990000000000009e+03
7.599999999999999811e-02 7.712955000000000227e-01 2.639339999999999975e+01 1.300819999999999936e+02 1.832984999999999900e+03
7.699999999999999900e-02 7.711900000000000421e-01 2.551930000000000121e+01 1.295535000000000139e+02 1.832909999999999854e+03
7.799999999999999989e-02 7.710485000000000255e-01 2.458340000000000103e+01 1.288329999999999984e+02 1.832779999999999973e+03
7.900000000000000078e-02 7.708855000000000013e-01 2.361469999999999914e+01 1.279879999999999995e+02 1.832615000000000009e+03
8.000000000000000167e-02 7.707135000000000513e-01 2.264175000000000182e+01 1.270840000000000032e+02 1.832429999999999836e+03
8.100000000000000255e-02 7.705450000000000355e-01 2.169085000000000107e+01 1.261819999999999879e+02 1.832235000000000127e+03
8.200000000000000344e-02 7.703900000000000192e-01 2.078484999999999872e+01 1.253354999999999961e+02 1.832045000000000073e+03
8.300000000000000433e-02 7.702569999999999695e-01 1.994170000000000087e+01 1.245860000000000127e+02 1.831869999999999891e+03
8.400000000000000522e-02 7.701500000000000012e-01 1.917409999999999926e+01 1.239639999999999986e+02 1.831714999999999918e+03
8.500000000000000611e-02 7.700719999999999787e-01 1.848860000000000170e+01 1.234860000000000042e+02 1.831590000000000146e+03
8.600000000000000699e-02 7.700234999999999719e-01 1.788609999999999900e+01 1.231545000000000130e+02 1.831494999999999891e+03
8.700000000000000788e-02 7.700005000000000877e-01 1.736155000000000115e+01 1.229609999999999985e+02 1.831434999999999945e+03
8.800000000000000877e-02 7.699985000000000301e-01 1.690520000000000067e+01 1.228849999999999909e+02 1.831394999999999982e+03
8.899999999999999578e-02 7.700110000000000010e-01 1.650309999999999988e+01 1.228975000000000080e+02 1.831380000000000109e+03
8.999999999999999667e-02 7.700290000000000745e-01 1.613830000000000098e+01 1.229619999999999891e+02 1.831380000000000109e+03
9.099999999999999756e-02 7.700454999999999384e-01 1.579190000000000005e+01 1.230395000000000039e+02 1.831380000000000109e+03
9.199999999999999845e-02 7.700519999999999587e-01 1.544454999999999956e+01 1.230884999999999962e+02 1.831384999999999991e+03
9.299999999999999933e-02 7.700400000000000578e-01 1.507740000000000080e+01 1.230695000000000050e+02 1.831380000000000109e+03
9.400000000000000022e-02 7.700025000000000341e-01 1.467389999999999972e+01 1.229474999999999909e+02 1.831345000000000027e+03
9.500000000000000111e-02 7.699350000000000360e-01 1.422029999999999816e+01 1.226935000000000002e+02 1.831295000000000073e+03
9.600000000000000200e-02 7.698340000000000183e-01 1.370720000000000027e+01 1.222884999999999991e+02 1.831204999999999927e+03
9.700000000000000289e-02 7.696985000000000632e-01 1.312985499999999917e+01 1.217235000000000014e+02 1.831085000000000036e+03
9.800000000000000377e-02 7.695305000000000062e-01 1.248872000000000071e+01 1.210000000000000000e+02 1.830929999999999836e+03
9.900000000000000466e-02 7.693330000000000446e-01 1.178947499999999948e+01 1.201315000000000026e+02 1.830744999999999891e+03
1.000000000000000056e-01 7.691129999999999356e-01 1.104255500000000012e+01 1.191415000000000077e+02 1.830525000000000091e+03
1.010000000000000064e-01 7.688770000000000326e-01 1.026265499999999875e+01 1.180625000000000000e+02 1.830289999999999964e+03
1.020000000000000073e-01 7.686349999999999572e-01 9.467695000000000860e+00 1.169339999999999975e+02 1.830034999999999854e+03
1.030000000000000082e-01 7.683955000000000091e-01 8.677579999999998961e+00 1.158000000000000114e+02 1.829775000000000091e+03
1.040000000000000091e-01 7.681685000000000318e-01 7.913065000000000460e+00 1.147069999999999936e+02 1.829519999999999982e+03
1.050000000000000100e-01 7.679640000000000910e-01 7.194460000000000299e+00 1.136980000000000075e+02 1.829279999999999973e+03
1.059999999999999970e-01 7.677884999999999849e-01 6.540200000000000458e+00 1.128145000000000095e+02 1.829065000000000055e+03
1.069999999999999979e-01 7.676490000000000258e-01 5.965920000000000556e+00 1.120889999999999986e+02 1.828880000000000109e+03
1.079999999999999988e-01 7.675505000000000244e-01 5.483455000000000190e+00 1.115480000000000018e+02 1.828735000000000127e+03
1.089999999999999997e-01 7.674944999999999684e-01 5.100304999999999644e+00 1.112060000000000031e+02 1.828630000000000109e+03
1.100000000000000006e-01 7.674819999999999975e-01 4.819309999999999761e+00 1.110679999999999978e+02 1.828579999999999927e+03
1.110000000000000014e-01 7.675100000000000255e-01 4.638754999999999740e+00 1.111290000000000049e+02 1.828565000000000055e+03
1.120000000000000023e-01 7.675745000000000484e-01 4.552649999999999864e+00 1.113750000000000000e+02 1.828595000000000027e+03
1.130000000000000032e-01 7.676709999999999923e-01 4.551334999999999908e+00 1.117824999999999989e+02 1.828664999999999964e+03
1.140000000000000041e-01 7.677929999999999477e-01 4.622230000000000061e+00 1.123224999999999909e+02 1.828769999999999982e+03
1.150000000000000050e-01 7.679325000000000179e-01 4.750684999999999825e+00 1.129625000000000057e+02 1.828894999999999982e+03
1.160000000000000059e-01 7.680829999999999602e-01 4.920840000000000103e+00 1.136675000000000040e+02 1.829045000000000073e+03
1.170000000000000068e-01 7.682370000000000587e-01 5.116505000000000081e+00 1.144025000000000034e+02 1.829200000000000045e+03
1.180000000000000077e-01 7.683875000000000011e-01 5.321954999999999991e+00 1.151340000000000003e+02 1.829364999999999782e+03
1.190000000000000085e-01 7.685290000000000177e-01 5.522585000000000299e+00 1.158325000000000102e+02 1.829519999999999982e+03
1.200000000000000094e-01 7.686560000000000059e-01 5.705519999999999925e+00 1.164720000000000084e+02 1.829670000000000073e+03
1.209999999999999964e-01 7.687659999999999494e-01 5.860015000000000640e+00 1.170330000000000013e+02 1.829800000000000182e+03
1.219999999999999973e-01 7.688554999999999140e-01 5.977775000000000283e+00 1.175014999999999930e+02 1.829920000000000073e+03
1.229999999999999982e-01 7.689234999999999820e-01 6.053110000000000213e+00 1.178679999999999950e+02 1.830014999999999873e+03
1.239999999999999991e-01 7.689705000000000013e-01 6.082995000000000374e+00 1.181304999999999978e+02 1.830085000000000036e+03
1.250000000000000000e-01 7.689970000000000416e-01 6.066964999999999719e+00 1.182914999999999992e+02 1.830134999999999991e+03
1.260000000000000009e-01 7.690040000000000209e-01 6.006944999999999979e+00 1.183580000000000041e+02 1.830170000000000073e+03
1.270000000000000018e-01 7.689960000000000129e-01 5.906970000000000276e+00 1.183414999999999964e+02 1.830180000000000064e+03
1.280000000000000027e-01 7.689745000000000053e-01 5.772795000000000343e+00 1.182555000000000121e+02 1.830170000000000073e+03
1.290000000000000036e-01 7.689435000000000020e-01 5.611470000000000624e+00 1.181165000000000020e+02 1.830150000000000091e+03
1.300000000000000044e-01 7.689074999999999660e-01 5.430849999999999511e+00 1.179424999999999955e+02 1.830119999999999891e+03
1.310000000000000053e-01 7.688690000000000246e-01 5.239065000000000083e+00 1.177485000000000070e+02 1.830079999999999927e+03
1.320000000000000062e-01 7.688310000000000421e-01 5.044055000000000177e+00 1.175509999999999877e+02 1.830039999999999964e+03
1.330000000000000071e-01 7.687964999999999938e-01 4.853044999999999831e+00 1.173644999999999925e+02 1.830000000000000000e+03
1.340000000000000080e-01 7.687680000000000069e-01 4.672209999999999752e+00 1.171989999999999981e+02 1.829970000000000027e+03
1.350000000000000089e-01 7.687454999999999705e-01 4.506330000000000169e+00 1.170625000000000000e+02 1.829934999999999945e+03
1.360000000000000098e-01 7.687304999999999833e-01 4.358649999999999913e+00 1.169595000000000056e+02 1.829909999999999854e+03
1.370000000000000107e-01 7.687230000000000452e-01 4.230780000000000207e+00 1.168894999999999982e+02 1.829889999999999873e+03
1.380000000000000115e-01 7.687205000000000288e-01 4.122805000000000497e+00 1.168504999999999967e+02 1.829880000000000109e+03
1.390000000000000124e-01 7.687235000000000040e-01 4.033440000000000580e+00 1.168365000000000009e+02 1.829875000000000000e+03
1.400000000000000133e-01 7.687289999999999957e-01 3.960280000000000022e+00 1.168394999999999868e+02 1.829869999999999891e+03
1.410000000000000142e-01 7.687344999999999873e-01 3.900129999999999875e+00 1.168499999999999943e+02 1.829869999999999891e+03
1.420000000000000151e-01 7.687390000000000612e-01 3.849305000000000199e+00 1.168584999999999923e+02 1.829869999999999891e+03
1.430000000000000160e-01 7.687399999999999789e-01 3.803995000000000015e+00 1.168555000000000064e+02 1.829865000000000009e+03
1.440000000000000169e-01 7.687349999999999461e-01 3.760530000000000150e+00 1.168319999999999936e+02 1.829860000000000127e+03
1.450000000000000178e-01 7.687239999999999629e-01 3.715660000000000185e+00 1.167810000000000059e+02 1.829849999999999909e+03
1.459999999999999909e-01 7.687055000000000415e-01 3.666749999999999954e+00 1.166974999999999909e+02 1.829829999999999927e+03
1.469999999999999918e-01 7.686785000000000423e-01 3.611925000000000274e+00 1.165780000000000030e+02 1.829800000000000182e+03
1.479999999999999927e-01 7.686444999999999528e-01 3.550180000000000113e+00 1.164224999999999994e+02 1.829769999999999982e+03
1.489999999999999936e-01 7.686024999999999663e-01 3.481399999999999828e+00 1.162325000000000017e+02 1.829724999999999909e+03
1.499999999999999944e-01 7.685545000000000293e-01 3.406365000000000087e+00 1.160125000000000028e+02 1.829674999999999955e+03
1.509999999999999953e-01 7.685014999999999485e-01 3.326680000000000081e+00 1.157690000000000055e+02 1.829619999999999891e+03
1.519999999999999962e-01 7.684455000000000036e-01 3.244689999999999852e+00 1.155084999999999980e+02 1.829559999999999945e+03
1.529999999999999971e-01 7.683885000000000298e-01 3.163330000000000197e+00 1.152415000000000020e+02 1.829500000000000000e+03
1.539999999999999980e-01 7.683324999999999738e-01 3.085970000000000102e+00 1.149770000000000039e+02 1.829440000000000055e+03
1.549999999999999989e-01 7.682800000000000740e-01 3.016214999999999868e+00 1.147249999999999943e+02 1.829375000000000000e+03
1.559999999999999998e-01 7.682324999999999848e-01 2.957685000000000120e+00 1.144950000000000045e+02 1.829320000000000164e+03
1.570000000000000007e-01 7.681925000000000558e-01 2.913839999999999986e+00 1.142974999999999994e+02 1.829269999999999982e+03
1.580000000000000016e-01 7.681609999999999827e-01 2.887755000000000294e+00 1.141400000000000006e+02 1.829230000000000018e+03
1.590000000000000024e-01 7.681394999999999751e-01 2.881940000000000168e+00 1.140294999999999987e+02 1.829200000000000045e+03
