# t [s], A [cm^2], U [cm/s], P [cPa], c [cm/s]
1.000000000000000021e-03 5.170099999999999696e-01 3.100199999999997402e-03 9.304554999999999154e+01 1.456920000000000073e+03
2.000000000000000042e-03 5.170035000000000602e-01 -2.862950000000002125e-04 9.303170000000000073e+01 1.456914999999999964e+03
3.000000000000000062e-03 5.170219999999999816e-01 3.375105000000000466e-02 9.306104999999999450e+01 1.456924999999999955e+03
4.000000000000000083e-03 5.170645000000000380e-01 1.126857500000000012e-01 9.315340000000000487e+01 1.456954999999999927e+03
5.000000000000000104e-03 5.170820000000000416e-01 1.504791999999999796e-01 9.320260000000000389e+01 1.456969999999999800e+03
6.000000000000000125e-03 5.170609999999999928e-01 1.183452655000000048e-01 9.315125000000000455e+01 1.456960000000000036e+03
7.000000000000000146e-03 5.170265000000000555e-01 5.799950000000000938e-02 9.302824999999999989e+01 1.456929999999999836e+03
8.000000000000000167e-03 5.169955000000000522e-01 2.604500000000009585e-03 9.287389999999999191e+01 1.456889999999999873e+03
9.000000000000001055e-03 5.169539999999999136e-01 -7.990150000000001418e-02 9.266155000000000541e+01 1.456829999999999927e+03
1.000000000000000194e-02 5.168829999999999814e-01 -2.251314999999999844e-01 9.234549999999998704e+01 1.456744999999999891e+03
1.099999999999999936e-02 5.167785000000000295e-01 -4.441500000000000448e-01 9.189589999999999748e+01 1.456619999999999891e+03
1.200000000000000025e-02 5.166325000000000500e-01 -7.468050000000000521e-01 9.128170000000000073e+01 1.456450000000000045e+03
1.300000000000000114e-02 5.164355000000000473e-01 -1.143625000000000114e+00 9.046835000000000093e+01 1.456219999999999800e+03
1.400000000000000203e-02 5.161899999999999267e-01 -1.622164999999999857e+00 8.944504999999999484e+01 1.455925000000000182e+03
1.499999999999999944e-02 5.159124999999999961e-01 -2.133429999999999715e+00 8.824739999999999895e+01 1.455575000000000045e+03
1.600000000000000033e-02 5.156319999999999792e-01 -2.604700000000000237e+00 8.695185000000000741e+01 1.455179999999999836e+03
1.700000000000000122e-02 5.153725000000000112e-01 -2.966380000000000017e+00 8.564744999999999209e+01 1.454769999999999982e+03
1.800000000000000211e-02 5.151495000000000379e-01 -3.173675999999999942e+00 8.440649999999999409e+01 1.454365000000000009e+03
1.900000000000000300e-02 5.149615000000000720e-01 -3.214389000000000163e+00 8.326730000000000587e+01 1.453974999999999909e+03
2.000000000000000042e-02 5.147979999999999778e-01 -3.104494499999999935e+00 8.223125000000000284e+01 1.453605000000000018e+03
2.100000000000000130e-02 5.146435000000000315e-01 -2.877151000000000014e+00 8.127150000000000318e+01 1.453240000000000009e+03
2.200000000000000219e-02 5.144819999999999949e-01 -2.570236500000000035e+00 8.034639999999998849e+01 1.452890000000000100e+03
2.299999999999999961e-02 5.143020000000000369e-01 -2.215864999999999974e+00 7.941370000000000573e+01 1.452535000000000082e+03
2.400000000000000050e-02 5.140989999999999727e-01 -1.833740000000000148e+00 7.844230000000000302e+01 1.452159999999999854e+03
2.500000000000000139e-02 5.138730000000000242e-01 -1.429304999999999826e+00 7.741894999999999527e+01 1.451775000000000091e+03
2.600000000000000228e-02 5.136325000000000474e-01 -9.966200000000000614e-01 7.634820000000000562e+01 1.451375000000000000e+03
2.700000000000000316e-02 5.133849999999999802e-01 -5.244250000000001410e-01 7.524764999999999304e+01 1.450965000000000146e+03
2.800000000000000058e-02 5.131379999999999830e-01 -3.429999999999822080e-03 7.413920000000000243e+01 1.450550000000000182e+03
2.900000000000000147e-02 5.128955000000000597e-01 5.677200000000000024e-01 7.304040000000000532e+01 1.450139999999999873e+03
3.000000000000000236e-02 5.126560000000000006e-01 1.179125000000000201e+00 7.195789999999999509e+01 1.449724999999999909e+03
3.099999999999999978e-02 5.124150000000000649e-01 1.809465000000000101e+00 7.088415000000000532e+01 1.449309999999999945e+03
3.200000000000000067e-02 5.121634999999999938e-01 2.428715000000000401e+00 6.979829999999999757e+01 1.448900000000000091e+03
3.300000000000000155e-02 5.118920000000000137e-01 3.002740000000000187e+00 6.867024999999999579e+01 1.448474999999999909e+03
3.400000000000000244e-02 5.115914999999999768e-01 3.498885000000000023e+00 6.746674999999999045e+01 1.448029999999999973e+03
3.500000000000000333e-02 5.112560000000000437e-01 3.891364999999999519e+00 6.615879999999999939e+01 1.447559999999999945e+03
3.600000000000000422e-02 5.108840000000000048e-01 4.165594999999999715e+00 6.472874999999999091e+01 1.447054999999999836e+03
3.700000000000000511e-02 5.104794999999999749e-01 4.320079999999999920e+00 6.317479999999999762e+01 1.446519999999999982e+03
3.799999999999999906e-02 5.100504999999999622e-01 4.366604999999999848e+00 6.151319999999999766e+01 1.445949999999999818e+03
3.899999999999999994e-02 5.096080000000000609e-01 4.327370000000000161e+00 5.977709999999999724e+01 1.445360000000000127e+03
4.000000000000000083e-02 5.091674999999999951e-01 4.231334999999999624e+00 5.801245000000000118e+01 1.444759999999999991e+03
4.100000000000000172e-02 5.087420000000000275e-01 4.109685000000000699e+00 5.627254999999999541e+01 1.444164999999999964e+03
4.200000000000000261e-02 5.083444999999999769e-01 3.992015000000000313e+00 5.461229999999999762e+01 1.443590000000000146e+03
4.300000000000000350e-02 5.079859999999999376e-01 3.903649999999999842e+00 5.308305000000000007e+01 1.443049999999999955e+03
4.400000000000000439e-02 5.076745000000000285e-01 3.864199999999999413e+00 5.172884999999999422e+01 1.442559999999999945e+03
4.499999999999999833e-02 5.074144999999999905e-01 3.887430000000000163e+00 5.058455000000000013e+01 1.442134999999999991e+03
4.599999999999999922e-02 5.072110000000000785e-01 3.982331500000000357e+00 4.967549999999999955e+01 1.441779999999999973e+03
4.700000000000000011e-02 5.070645000000000291e-01 4.154308999999999585e+00 4.901805000000000234e+01 1.441505000000000109e+03
4.800000000000000100e-02 5.069759999999999822e-01 4.406850000000000378e+00 4.862134999999999962e+01 1.441315000000000055e+03
4.900000000000000189e-02 5.069460000000000077e-01 4.742840000000000167e+00 4.848960000000000292e+01 1.441210000000000036e+03
5.000000000000000278e-02 5.069744999999999946e-01 5.165459999999999496e+00 4.862330000000000041e+01 1.441194999999999936e+03
5.100000000000000366e-02 5.070615000000000538e-01 5.678504999999999470e+00 4.902115000000000578e+01 1.441264999999999873e+03
5.200000000000000455e-02 5.072069999999999634e-01 6.286120000000000374e+00 4.968054999999999666e+01 1.441430000000000064e+03
5.300000000000000544e-02 5.074104999999999865e-01 6.992129999999999512e+00 5.059765000000000157e+01 1.441679999999999836e+03
5.399999999999999939e-02 5.076720000000000121e-01 7.799115000000000464e+00 5.176704999999999757e+01 1.442014999999999873e+03
5.500000000000000028e-02 5.079890000000000239e-01 8.707539999999999836e+00 5.318075000000000330e+01 1.442440000000000055e+03
5.600000000000000117e-02 5.083584999999999354e-01 9.715014999999999290e+00 5.482789999999999964e+01 1.442940000000000055e+03
5.700000000000000205e-02 5.087774999999999936e-01 1.081593000000000160e+01 5.669365000000000521e+01 1.443519999999999982e+03
5.800000000000000294e-02 5.092410000000000547e-01 1.200153500000000051e+01 5.875934999999999775e+01 1.444174999999999955e+03
5.900000000000000383e-02 5.097430000000000572e-01 1.326015000000000121e+01 6.100265000000000271e+01 1.444889999999999873e+03
6.000000000000000472e-02 5.102769999999999806e-01 1.457796500000000073e+01 6.339825000000000443e+01 1.445664999999999964e+03
6.099999999999999867e-02 5.108365000000000267e-01 1.593999499999999969e+01 6.591875000000000284e+01 1.446490000000000009e+03
6.199999999999999956e-02 5.114144999999999941e-01 1.733054999999999879e+01 6.853585000000001060e+01 1.447349999999999909e+03
6.300000000000000044e-02 5.120065000000000310e-01 1.873460000000000036e+01 7.122190000000000509e+01 1.448250000000000000e+03
6.400000000000000133e-02 5.126049999999999773e-01 2.013810000000000144e+01 7.395080000000000098e+01 1.449170000000000073e+03
6.500000000000000222e-02 5.132065000000000099e-01 2.152875000000000227e+01 7.669915000000000305e+01 1.450105000000000018e+03
6.600000000000000311e-02 5.138070000000000137e-01 2.289614999999999867e+01 7.944714999999999350e+01 1.451050000000000182e+03
6.700000000000000400e-02 5.144039999999999724e-01 2.423225000000000051e+01 8.217860000000000298e+01 1.451994999999999891e+03
6.800000000000000488e-02 5.149939999999999518e-01 2.553074999999999761e+01 8.488159999999999172e+01 1.452940000000000055e+03
6.900000000000000577e-02 5.155775000000000219e-01 2.678734999999999644e+01 8.754789999999999850e+01 1.453880000000000109e+03
7.000000000000000666e-02 5.161529999999999729e-01 2.799924999999999997e+01 9.017295000000000016e+01 1.454809999999999945e+03
7.100000000000000755e-02 5.167215000000000558e-01 2.916479999999999961e+01 9.275450000000000728e+01 1.455730000000000018e+03
7.200000000000000844e-02 5.172820000000000196e-01 3.028325000000000244e+01 9.529279999999999973e+01 1.456639999999999873e+03
7.300000000000000933e-02 5.178359999999999630e-01 3.135425000000000040e+01 9.778985000000000127e+01 1.457534999999999854e+03
7.399999999999999634e-02 5.183834999999999971e-01 3.237765000000000271e+01 1.002480500000000063e+02 1.458425000000000182e+03
7.499999999999999722e-02 5.189245000000000108e-01 3.335340000000000060e+01 1.026696499999999901e+02 1.459304999999999836e+03
7.599999999999999811e-02 5.194600000000000328e-01 3.428095000000000425e+01 1.050561500000000024e+02 1.460170000000000073e+03
7.699999999999999900e-02 5.199894999999999934e-01 3.515939999999999799e+01 1.074086499999999944e+02 1.461029999999999973e+03
7.799999999999999989e-02 5.205119999999999747e-01 3.598735000000000639e+01 1.097265000000000015e+02 1.461869999999999891e+03
7.900000000000000078e-02 5.210274999999999768e-01 3.676295000000000357e+01 1.120074999999999932e+02 1.462710000000000036e+03
8.000000000000000167e-02 5.215334999999999832e-01 3.748375000000000057e+01 1.142469999999999999e+02 1.463530000000000200e+03
8.100000000000000255e-02 5.220299999999999940e-01 3.814719999999999800e+01 1.164405000000000001e+02 1.464340000000000146e+03
8.200000000000000344e-02 5.225144999999999929e-01 3.875015000000000498e+01 1.185815000000000055e+02 1.465130000000000109e+03
8.300000000000000433e-02 5.229850000000000332e-01 3.928974999999999795e+01 1.206610000000000014e+02 1.465904999999999973e+03
8.400000000000000522e-02 5.234394999999999465e-01 3.976304999999999978e+01 1.226719999999999970e+02 1.466650000000000091e+03
8.500000000000000611e-02 5.238764999999999672e-01 4.016750000000000398e+01 1.246050000000000040e+02 1.467375000000000000e+03
8.600000000000000699e-02 5.242944999999999967e-01 4.050095000000000312e+01 1.264525000000000148e+02 1.468079999999999927e+03
8.700000000000000788e-02 5.246910000000000185e-01 4.076165000000000305e+01 1.282055000000000007e+02 1.468744999999999891e+03
8.800000000000000877e-02 5.250650000000000039e-01 4.094880000000000564e+01 1.298584999999999923e+02 1.469375000000000000e+03
8.899999999999999578e-02 5.254159999999999942e-01 4.106180000000000518e+01 1.314044999999999845e+02 1.469974999999999909e+03
8.999999999999999667e-02 5.257419999999999316e-01 4.110125000000000028e+01 1.328400000000000034e+02 1.470535000000000082e+03
9.099999999999999756e-02 5.260434999999999972e-01 4.106799999999999784e+01 1.341610000000000014e+02 1.471059999999999945e+03
9.199999999999999845e-02 5.263189999999999813e-01 4.096365000000000123e+01 1.353659999999999854e+02 1.471539999999999964e+03
9.299999999999999933e-02 5.265695000000000237e-01 4.079050000000000153e+01 1.364540000000000077e+02 1.471980000000000018e+03
9.400000000000000022e-02 5.267945000000000544e-01 4.055125000000000313e+01 1.374265000000000043e+02 1.472375000000000000e+03
9.500000000000000111e-02 5.269954999999999501e-01 4.024930000000000518e+01 1.382844999999999800e+02 1.472740000000000009e+03
9.600000000000000200e-02 5.271719999999999740e-01 3.988839999999999719e+01 1.390324999999999989e+02 1.473054999999999836e+03
9.700000000000000289e-02 5.273250000000000437e-01 3.947285000000000110e+01 1.396734999999999900e+02 1.473335000000000036e+03
9.800000000000000377e-02 5.274564999999999948e-01 3.900735000000000241e+01 1.402135000000000105e+02 1.473579999999999927e+03
9.900000000000000466e-02 5.275674999999999670e-01 3.849710000000000321e+01 1.406580000000000155e+02 1.473785000000000082e+03
1.000000000000000056e-01 5.276594999999999480e-01 3.794750000000000512e+01 1.410144999999999982e+02 1.473960000000000036e+03
1.010000000000000064e-01 5.277340000000000364e-01 3.736435000000000173e+01 1.412900000000000205e+02 1.474095000000000027e+03
1.020000000000000073e-01 5.277924999999999978e-01 3.675345000000000084e+01 1.414925000000000068e+02 1.474210000000000036e+03
1.030000000000000082e-01 5.278370000000000006e-01 3.612075000000000102e+01 1.416310000000000002e+02 1.474295000000000073e+03
1.040000000000000091e-01 5.278704999999999092e-01 3.547214999999999918e+01 1.417135000000000105e+02 1.474365000000000009e+03
1.050000000000000100e-01 5.278929999999999456e-01 3.481320000000000192e+01 1.417479999999999905e+02 1.474404999999999973e+03
1.059999999999999970e-01 5.279070000000000151e-01 3.414920000000000044e+01 1.417425000000000068e+02 1.474429999999999836e+03
1.069999999999999979e-01 5.279134999999999245e-01 3.348489999999999611e+01 1.417049999999999841e+02 1.474440000000000055e+03
1.079999999999999988e-01 5.279144999999999532e-01 3.282424999999999926e+01 1.416415000000000077e+02 1.474440000000000055e+03
1.089999999999999997e-01 5.279110000000000191e-01 3.217074999999999818e+01 1.415575000000000045e+02 1.474429999999999836e+03
1.100000000000000006e-01 5.279030000000000111e-01 3.152685000000000315e+01 1.414579999999999984e+02 1.474404999999999973e+03
1.110000000000000014e-01 5.278920000000000279e-01 3.089429999999999765e+01 1.413460000000000036e+02 1.474380000000000109e+03
1.120000000000000023e-01 5.278770000000000406e-01 3.027404999999999902e+01 1.412230000000000132e+02 1.474344999999999800e+03
1.130000000000000032e-01 5.278594999999999260e-01 2.966615000000000180e+01 1.410904999999999916e+02 1.474300000000000182e+03
1.140000000000000041e-01 5.278389999999999471e-01 2.907009999999999650e+01 1.409474999999999909e+02 1.474255000000000109e+03
1.150000000000000050e-01 5.278140000000000054e-01 2.848470000000000013e+01 1.407934999999999945e+02 1.474204999999999927e+03
1.160000000000000059e-01 5.277844999999999898e-01 2.790830000000000055e+01 1.406254999999999882e+02 1.474150000000000091e+03
1.170000000000000068e-01 5.277505000000000113e-01 2.733894999999999698e+01 1.404415000000000191e+02 1.474085000000000036e+03
1.180000000000000077e-01 5.277115000000000000e-01 2.677450000000000330e+01 1.402384999999999877e+02 1.474014999999999873e+03
1.190000000000000085e-01 5.276655000000000095e-01 2.621255000000000024e+01 1.400129999999999768e+02 1.473940000000000055e+03
1.200000000000000094e-01 5.276125000000000398e-01 2.565095000000000169e+01 1.397624999999999886e+02 1.473849999999999909e+03
1.209999999999999964e-01 5.275524999999999798e-01 2.508740000000000236e+01 1.394834999999999923e+02 1.473759999999999991e+03
1.219999999999999973e-01 5.274849999999999817e-01 2.452025000000000077e+01 1.391745000000000232e+02 1.473650000000000091e+03
1.229999999999999982e-01 5.274090000000000167e-01 2.394780000000000086e+01 1.388330000000000268e+02 1.473535000000000082e+03
1.239999999999999991e-01 5.273250000000000437e-01 2.336880000000000024e+01 1.384585000000000150e+02 1.473404999999999973e+03
1.250000000000000000e-01 5.272335000000000216e-01 2.278255000000000052e+01 1.380500000000000114e+02 1.473265000000000100e+03
1.260000000000000009e-01 5.271335000000000326e-01 2.218870000000000076e+01 1.376090000000000089e+02 1.473115000000000009e+03
1.270000000000000018e-01 5.270265000000000644e-01 2.158740000000000236e+01 1.371370000000000005e+02 1.472950000000000045e+03
1.280000000000000027e-01 5.269129999999999647e-01 2.097935000000000016e+01 1.366349999999999909e+02 1.472779999999999973e+03
1.290000000000000036e-01 5.267935000000000256e-01 2.036554999999999893e+01 1.361069999999999993e+02 1.472599999999999909e+03
1.300000000000000044e-01 5.266689999999999428e-01 1.974770000000000181e+01 1.355564999999999998e+02 1.472410000000000082e+03
1.310000000000000053e-01 5.265405000000000779e-01 1.912780000000000058e+01 1.349879999999999995e+02 1.472210000000000036e+03
1.320000000000000062e-01 5.264100000000000446e-01 1.850809999999999889e+01 1.344069999999999823e+02 1.472009999999999991e+03
1.330000000000000071e-01 5.262774999999999537e-01 1.789140000000000086e+01 1.338170000000000073e+02 1.471804999999999836e+03
1.340000000000000080e-01 5.261460000000000026e-01 1.728049999999999997e+01 1.332259999999999991e+02 1.471599999999999909e+03
1.350000000000000089e-01 5.260150000000000103e-01 1.667855000000000132e+01 1.326390000000000100e+02 1.471389999999999873e+03
1.360000000000000098e-01 5.258869999999999933e-01 1.608874999999999744e+01 1.320610000000000070e+02 1.471184999999999945e+03
1.370000000000000107e-01 5.257629999999999804e-01 1.551399999999999935e+01 1.314989999999999952e+02 1.470980000000000018e+03
1.380000000000000115e-01 5.256440000000000001e-01 1.495754999999999946e+01 1.309584999999999866e+02 1.470789999999999964e+03
1.390000000000000124e-01 5.255309999999999704e-01 1.442215000000000202e+01 1.304435000000000002e+02 1.470599999999999909e+03
1.400000000000000133e-01 5.254254999999999898e-01 1.391039500000000118e+01 1.299594999999999914e+02 1.470420000000000073e+03
1.410000000000000142e-01 5.253280000000000172e-01 1.342449500000000029e+01 1.295089999999999861e+02 1.470250000000000000e+03
1.420000000000000151e-01 5.252394999999999703e-01 1.296631499999999981e+01 1.290969999999999800e+02 1.470095000000000027e+03
1.430000000000000160e-01 5.251599999999999602e-01 1.253726999999999947e+01 1.287245000000000061e+02 1.469950000000000045e+03
1.440000000000000169e-01 5.250890000000000279e-01 1.213835999999999871e+01 1.283930000000000007e+02 1.469820000000000164e+03
1.450000000000000178e-01 5.250274999999999803e-01 1.176997000000000071e+01 1.281030000000000086e+02 1.469704999999999927e+03
1.459999999999999909e-01 5.249755000000000393e-01 1.143222500000000075e+01 1.278545000000000016e+02 1.469599999999999909e+03
1.469999999999999918e-01 5.249319999999999542e-01 1.112461499999999859e+01 1.276469999999999914e+02 1.469514999999999873e+03
1.479999999999999927e-01 5.248969999999999470e-01 1.084639499999999934e+01 1.274770000000000039e+02 1.469434999999999945e+03
1.489999999999999936e-01 5.248694999999999888e-01 1.059627000000000052e+01 1.273440000000000083e+02 1.469375000000000000e+03
1.499999999999999944e-01 5.248490000000000100e-01 1.037288500000000013e+01 1.272435000000000116e+02 1.469325000000000045e+03
1.509999999999999953e-01 5.248349999999999405e-01 1.017444500000000041e+01 1.271730000000000018e+02 1.469284999999999854e+03
1.519999999999999962e-01 5.248264999999999736e-01 9.999129999999999185e+00 1.271290000000000049e+02 1.469255000000000109e+03
1.529999999999999971e-01 5.248220000000000107e-01 9.844950000000000756e+00 1.271079999999999899e+02 1.469230000000000018e+03
1.539999999999999980e-01 5.248220000000000107e-01 9.709929999999999950e+00 1.271059999999999945e+02 1.469220000000000027e+03
1.549999999999999989e-01 5.248254999999999448e-01 9.592024999999999579e+00 1.271200000000000045e+02 1.469215000000000146e+03
1.559999999999999998e-01 5.248310000000000475e-01 9.489390000000000214e+00 1.271459999999999866e+02 1.469214999999999918e+03
1.570000000000000007e-01 5.248384999999999856e-01 9.400124999999999176e+00 1.271814999999999998e+02 1.469215000000000146e+03
1.580000000000000016e-01 5.248470000000000635e-01 9.322575000000000500e+00 1.272240000000000038e+02 1.469220000000000027e+03
1.590000000000000024e-01 5.248570000000000180e-01 9.255155000000000243e+00 1.272715000000000032e+02 1.469230000000000018e+03
