# t [s], A [cm^2], U [cm/s], P [cPa], c [cm/s]
1.000000000000000021e-03 7.315975000000000117e-01 7.768999999999998129e-03 1.077365000000000066e+02 1.728884999999999991e+03
2.000000000000000042e-03 7.315834999999999422e-01 -3.345230000000000252e-03 1.076984999999999957e+02 1.728880000000000109e+03
3.000000000000000062e-03 7.316540000000000266e-01 1.141565000000000080e-01 1.078360000000000127e+02 1.728904999999999973e+03
4.000000000000000083e-03 7.317024999999999224e-01 2.147933000000000203e-01 1.079594999999999914e+02 1.728930000000000064e+03
5.000000000000000104e-03 7.316430000000000433e-01 1.525210000000000177e-01 1.078164999999999907e+02 1.728904999999999973e+03
6.000000000000000125e-03 7.315534999999999677e-01 3.368799999999999573e-02 1.075014999999999930e+02 1.728845000000000027e+03
7.000000000000000146e-03 7.314760000000000151e-01 -7.731200000000004735e-02 1.071304999999999978e+02 1.728765000000000100e+03
8.000000000000000167e-03 7.313324999999999410e-01 -3.168650000000000633e-01 1.065399999999999920e+02 1.728644999999999982e+03
9.000000000000001055e-03 7.311099999999999266e-01 -7.106149999999999967e-01 1.056520000000000010e+02 1.728465000000000146e+03
1.000000000000000194e-02 7.308065000000000255e-01 -1.254150000000000098e+00 1.044234999999999900e+02 1.728210000000000036e+03
1.099999999999999936e-02 7.303865000000000496e-01 -1.986454999999999860e+00 1.027477499999999964e+02 1.727869999999999891e+03
1.200000000000000025e-02 7.298575000000000479e-01 -2.871189999999999909e+00 1.006060499999999962e+02 1.727414999999999964e+03
1.300000000000000114e-02 7.293035000000001045e-01 -3.731254999999999988e+00 9.819559999999999889e+01 1.726889999999999873e+03
1.400000000000000203e-02 7.288310000000000066e-01 -4.341330499999999759e+00 9.584199999999999875e+01 1.726360000000000127e+03
1.499999999999999944e-02 7.284975000000000200e-01 -4.558353499999999947e+00 9.381300000000000239e+01 1.725869999999999891e+03
1.600000000000000033e-02 7.282859999999999889e-01 -4.375865000000000116e+00 9.219749999999999091e+01 1.725450000000000045e+03
1.700000000000000122e-02 7.281290000000000262e-01 -3.898030000000000328e+00 9.089955000000000496e+01 1.725089999999999918e+03
1.800000000000000211e-02 7.279480000000000395e-01 -3.275590000000000224e+00 8.971205000000000496e+01 1.724750000000000000e+03
1.900000000000000300e-02 7.276834999999999276e-01 -2.638956450000000231e+00 8.841839999999999122e+01 1.724394999999999982e+03
2.000000000000000042e-02 7.273180000000000200e-01 -2.051330000000000098e+00 8.688240000000000407e+01 1.723990000000000009e+03
2.100000000000000130e-02 7.268764999999999254e-01 -1.497399999999999842e+00 8.509299999999998931e+01 1.723539999999999964e+03
2.200000000000000219e-02 7.264089999999999714e-01 -9.103150000000002073e-01 8.314740000000000464e+01 1.723049999999999955e+03
2.299999999999999961e-02 7.259625000000000661e-01 -2.199800000000000644e-01 8.118739999999999668e+01 1.722549999999999955e+03
2.400000000000000050e-02 7.255610000000000115e-01 6.030600000000001515e-01 7.932495000000000118e+01 1.722069999999999936e+03
2.500000000000000139e-02 7.251944999999999641e-01 1.525464999999999849e+00 7.758959999999999013e+01 1.721610000000000127e+03
2.600000000000000228e-02 7.248259999999999703e-01 2.454069999999999752e+00 7.591190000000000282e+01 1.721164999999999964e+03
2.700000000000000316e-02 7.244010000000000726e-01 3.258245000000000502e+00 7.414105000000000700e+01 1.720699999999999818e+03
2.800000000000000058e-02 7.238670000000000382e-01 3.803930000000000256e+00 7.208930000000000859e+01 1.720190000000000055e+03
2.900000000000000147e-02 7.231890000000000818e-01 3.990759999999999863e+00 6.959074999999999989e+01 1.719594999999999800e+03
3.000000000000000236e-02 7.223615000000001007e-01 3.781360000000000277e+00 6.655844999999999345e+01 1.718889999999999873e+03
3.099999999999999978e-02 7.214160000000000572e-01 3.212539999999999729e+00 6.301890000000000214e+01 1.718079999999999927e+03
3.200000000000000067e-02 7.204079999999999373e-01 2.383564999999999934e+00 5.911245000000000260e+01 1.717200000000000045e+03
3.300000000000000155e-02 7.194074999999999775e-01 1.427760000000000140e+00 5.506109999999999616e+01 1.716264999999999873e+03
3.400000000000000244e-02 7.184785000000000199e-01 4.805099999999997706e-01 5.111939999999999884e+01 1.715345000000000027e+03
3.500000000000000333e-02 7.176724999999999355e-01 -3.458600000000000563e-01 4.752734999999999843e+01 1.714485000000000127e+03
3.600000000000000422e-02 7.170214999999999783e-01 -9.747999999999996668e-01 4.447575000000000500e+01 1.713724999999999909e+03
3.700000000000000511e-02 7.165384999999999671e-01 -1.367199999999999971e+00 4.208930000000000149e+01 1.713115000000000009e+03
3.799999999999999906e-02 7.162224999999999842e-01 -1.514655000000000085e+00 4.042520000000000380e+01 1.712650000000000091e+03
3.899999999999999994e-02 7.160630000000000051e-01 -1.428269499999999859e+00 3.948445000000000249e+01 1.712345000000000027e+03
4.000000000000000083e-02 7.160459999999999603e-01 -1.126408500000000146e+00 3.923035000000000139e+01 1.712210000000000036e+03
4.100000000000000172e-02 7.161589999999999900e-01 -6.246704999999999064e-01 3.960889999999999844e+01 1.712219999999999800e+03
4.200000000000000261e-02 7.163919999999999177e-01 6.955500000000003347e-02 4.056524999999999892e+01 1.712375000000000000e+03
4.300000000000000350e-02 7.167395000000000849e-01 9.570400000000001128e-01 4.205294999999999561e+01 1.712654999999999973e+03
4.400000000000000439e-02 7.171974999999999323e-01 2.042110000000000092e+00 4.403454999999999586e+01 1.713059999999999945e+03
4.499999999999999833e-02 7.177610000000000934e-01 3.325750000000000206e+00 4.647570000000000334e+01 1.713585000000000036e+03
4.599999999999999922e-02 7.184209999999999763e-01 4.799420000000000464e+00 4.933675000000000210e+01 1.714210000000000036e+03
4.700000000000000011e-02 7.191640000000000255e-01 6.441409999999999414e+00 5.256589999999999918e+01 1.714924999999999955e+03
4.800000000000000100e-02 7.199705000000000688e-01 8.216773699999999181e+00 5.609575000000000244e+01 1.715719999999999800e+03
4.900000000000000189e-02 7.208189999999999875e-01 1.008003500000000052e+01 5.984430000000000405e+01 1.716575000000000045e+03
5.000000000000000278e-02 7.216864999999998975e-01 1.198023500000000041e+01 6.372025000000000006e+01 1.717470000000000027e+03
5.100000000000000366e-02 7.225500000000000256e-01 1.386636999999999986e+01 6.763060000000000116e+01 1.718389999999999873e+03
5.200000000000000455e-02 7.233920000000000350e-01 1.569264499999999884e+01 7.148904999999999177e+01 1.719305000000000064e+03
5.300000000000000544e-02 7.241975000000000495e-01 1.742220000000000013e+01 7.522319999999999141e+01 1.720204999999999927e+03
5.399999999999999939e-02 7.249579999999999913e-01 1.902909999999999968e+01 7.877975000000000705e+01 1.721079999999999927e+03
5.500000000000000028e-02 7.256704999999999961e-01 2.049859999999999971e+01 8.212669999999999959e+01 1.721909999999999854e+03
5.600000000000000117e-02 7.263355000000000228e-01 2.182584999999999908e+01 8.525290000000001100e+01 1.722695000000000164e+03
5.700000000000000205e-02 7.269574999999999232e-01 2.301435000000000031e+01 8.816554999999999609e+01 1.723434999999999945e+03
5.800000000000000294e-02 7.275434999999998986e-01 2.407375000000000043e+01 9.088665000000000305e+01 1.724134999999999991e+03
5.900000000000000383e-02 7.281014999999999571e-01 2.501784999999999926e+01 9.344865000000000066e+01 1.724795000000000073e+03
6.000000000000000472e-02 7.286405000000000243e-01 2.586329999999999885e+01 9.589074999999999704e+01 1.725424999999999955e+03
6.099999999999999867e-02 7.291705000000000547e-01 2.662794999999999845e+01 9.825540000000000873e+01 1.726034999999999854e+03
6.199999999999999956e-02 7.296994999999999454e-01 2.732955000000000112e+01 1.005835000000000008e+02 1.726634999999999991e+03
6.300000000000000044e-02 7.302355000000000373e-01 2.798474999999999824e+01 1.029127499999999884e+02 1.727224999999999909e+03
6.400000000000000133e-02 7.307829999999999604e-01 2.860730000000000217e+01 1.052725000000000080e+02 1.727825000000000045e+03
6.500000000000000222e-02 7.313454999999999817e-01 2.920714999999999861e+01 1.076825000000000045e+02 1.728429999999999836e+03
6.600000000000000311e-02 7.319229999999999903e-01 2.978920000000000101e+01 1.101509999999999962e+02 1.729050000000000182e+03
6.700000000000000400e-02 7.325129999999999697e-01 3.035309999999999775e+01 1.126730000000000018e+02 1.729674999999999955e+03
6.800000000000000488e-02 7.331090000000000106e-01 3.089349999999999952e+01 1.152305000000000064e+02 1.730315000000000055e+03
6.900000000000000577e-02 7.337035000000000640e-01 3.140064999999999884e+01 1.177955000000000041e+02 1.730949999999999818e+03
7.000000000000000666e-02 7.342874999999999819e-01 3.186195000000000022e+01 1.203305000000000007e+02 1.731585000000000036e+03
7.100000000000000755e-02 7.348514999999999908e-01 3.226319999999999766e+01 1.227944999999999993e+02 1.732204999999999927e+03
7.200000000000000844e-02 7.353849999999999554e-01 3.259014999999999418e+01 1.251449999999999960e+02 1.732799999999999955e+03
7.300000000000000933e-02 7.358800000000000896e-01 3.282985000000000042e+01 1.273414999999999964e+02 1.733360000000000127e+03
7.399999999999999634e-02 7.363294999999999702e-01 3.297155000000000058e+01 1.293474999999999966e+02 1.733884999999999991e+03
7.499999999999999722e-02 7.367270000000000207e-01 3.300730000000000075e+01 1.311349999999999909e+02 1.734349999999999909e+03
7.599999999999999811e-02 7.370700000000000029e-01 3.293234999999999957e+01 1.326834999999999809e+02 1.734769999999999982e+03
7.699999999999999900e-02 7.373564999999999703e-01 3.274539999999999651e+01 1.339800000000000182e+02 1.735125000000000000e+03
7.799999999999999989e-02 7.375860000000000749e-01 3.244839999999999947e+01 1.350229999999999961e+02 1.735420000000000073e+03
7.900000000000000078e-02 7.377610000000000001e-01 3.204659999999999798e+01 1.358164999999999907e+02 1.735659999999999854e+03
8.000000000000000167e-02 7.378854999999999720e-01 3.154829999999999757e+01 1.363750000000000000e+02 1.735835000000000036e+03
8.100000000000000255e-02 7.379629999999999246e-01 3.096444999999999936e+01 1.367175000000000011e+02 1.735960000000000036e+03
8.200000000000000344e-02 7.380010000000000181e-01 3.030830000000000268e+01 1.368695000000000164e+02 1.736034999999999854e+03
8.300000000000000433e-02 7.380054999999999810e-01 2.959494999999999720e+01 1.368609999999999900e+02 1.736065000000000055e+03
8.400000000000000522e-02 7.379850000000000021e-01 2.884069999999999823e+01 1.367235000000000014e+02 1.736059999999999945e+03
8.500000000000000611e-02 7.379454999999999210e-01 2.806224999999999881e+01 1.364925000000000068e+02 1.736029999999999973e+03
8.600000000000000699e-02 7.378945000000000087e-01 2.727595000000000169e+01 1.362005000000000052e+02 1.735985000000000127e+03
8.700000000000000788e-02 7.378400000000000514e-01 2.649719999999999942e+01 1.358785000000000025e+02 1.735920000000000073e+03
8.800000000000000877e-02 7.377864999999999007e-01 2.573944999999999794e+01 1.355559999999999832e+02 1.735849999999999909e+03
8.899999999999999578e-02 7.377394999999999925e-01 2.501364999999999839e+01 1.352545000000000073e+02 1.735785000000000082e+03
8.999999999999999667e-02 7.377015000000000100e-01 2.432764999999999844e+01 1.349919999999999902e+02 1.735724999999999909e+03
9.099999999999999756e-02 7.376739999999999409e-01 2.368614999999999782e+01 1.347794999999999845e+02 1.735670000000000073e+03
9.199999999999999845e-02 7.376574999999999660e-01 2.309045000000000059e+01 1.346210000000000093e+02 1.735630000000000109e+03
9.299999999999999933e-02 7.376504999999999868e-01 2.253855000000000075e+01 1.345129999999999768e+02 1.735599999999999909e+03
9.400000000000000022e-02 7.376510000000000566e-01 2.202570000000000050e+01 1.344485000000000241e+02 1.735569999999999936e+03
9.500000000000000111e-02 7.376549999999999496e-01 2.154475000000000051e+01 1.344139999999999873e+02 1.735559999999999945e+03
9.600000000000000200e-02 7.376579999999999249e-01 2.108664999999999878e+01 1.343915000000000077e+02 1.735545000000000073e+03
9.700000000000000289e-02 7.376560000000000894e-01 2.064110000000000156e+01 1.343620000000000232e+02 1.735534999999999854e+03
9.800000000000000377e-02 7.376445000000000363e-01 2.019729999999999848e+01 1.343040000000000020e+02 1.735514999999999873e+03
9.900000000000000466e-02 7.376179999999999959e-01 1.974445000000000050e+01 1.341965000000000146e+02 1.735490000000000009e+03
1.000000000000000056e-01 7.375734999999999930e-01 1.927244999999999919e+01 1.340194999999999936e+02 1.735440000000000055e+03
1.010000000000000064e-01 7.375070000000000237e-01 1.877234999999999943e+01 1.337560000000000002e+02 1.735384999999999991e+03
1.020000000000000073e-01 7.374155000000000015e-01 1.823720000000000141e+01 1.333924999999999841e+02 1.735300000000000182e+03
1.030000000000000082e-01 7.372985000000000788e-01 1.766215000000000046e+01 1.329205000000000041e+02 1.735195000000000164e+03
1.040000000000000091e-01 7.371555000000000746e-01 1.704514999999999958e+01 1.323350000000000080e+02 1.735059999999999945e+03
1.050000000000000100e-01 7.369875000000000176e-01 1.638700000000000045e+01 1.316394999999999982e+02 1.734904999999999973e+03
1.059999999999999970e-01 7.367974999999999941e-01 1.569134999999999991e+01 1.308414999999999964e+02 1.734720000000000027e+03
1.069999999999999979e-01 7.365885000000000904e-01 1.496480000000000032e+01 1.299540000000000077e+02 1.734514999999999873e+03
1.079999999999999988e-01 7.363665000000000349e-01 1.421627499999999955e+01 1.289964999999999975e+02 1.734295000000000073e+03
1.089999999999999997e-01 7.361360000000000126e-01 1.345692499999999825e+01 1.279915000000000020e+02 1.734054999999999836e+03
1.100000000000000006e-01 7.359035000000000437e-01 1.269925500000000085e+01 1.269645000000000010e+02 1.733815000000000055e+03
1.110000000000000014e-01 7.356759999999999966e-01 1.195658500000000046e+01 1.259440000000000026e+02 1.733569999999999936e+03
1.120000000000000023e-01 7.354589999999999739e-01 1.124238000000000071e+01 1.249570000000000078e+02 1.733329999999999927e+03
1.130000000000000032e-01 7.352579999999999671e-01 1.056946999999999903e+01 1.240310000000000059e+02 1.733099999999999909e+03
1.140000000000000041e-01 7.350790000000000379e-01 9.949434999999999363e+00 1.231890000000000072e+02 1.732889999999999873e+03
1.150000000000000050e-01 7.349254999999998983e-01 9.392055000000000931e+00 1.224525000000000006e+02 1.732694999999999936e+03
1.160000000000000059e-01 7.348010000000000375e-01 8.904854999999999521e+00 1.218365000000000009e+02 1.732534999999999854e+03
1.170000000000000068e-01 7.347060000000000812e-01 8.492885000000001128e+00 1.213520000000000039e+02 1.732394999999999982e+03
1.180000000000000077e-01 7.346420000000000172e-01 8.158305000000000362e+00 1.210030000000000001e+02 1.732295000000000073e+03
1.190000000000000085e-01 7.346079999999999277e-01 7.900724999999999554e+00 1.207890000000000015e+02 1.732224999999999909e+03
1.200000000000000094e-01 7.346014999999999073e-01 7.717094999999999594e+00 1.207049999999999983e+02 1.732184999999999945e+03
1.209999999999999964e-01 7.346200000000000507e-01 7.602135000000000531e+00 1.207379999999999995e+02 1.732170000000000073e+03
1.219999999999999973e-01 7.346600000000000907e-01 7.548685000000000755e+00 1.208744999999999976e+02 1.732180000000000064e+03
1.229999999999999982e-01 7.347164999999999946e-01 7.548159999999999314e+00 1.210974999999999966e+02 1.732219999999999800e+03
1.239999999999999991e-01 7.347854999999999803e-01 7.591060000000000585e+00 1.213875000000000028e+02 1.732275000000000091e+03
1.250000000000000000e-01 7.348630000000000440e-01 7.667424999999999713e+00 1.217249999999999943e+02 1.732335000000000036e+03
1.260000000000000009e-01 7.349445000000000006e-01 7.767340000000000799e+00 1.220900000000000034e+02 1.732414999999999964e+03
1.270000000000000018e-01 7.350265000000000271e-01 7.881294999999999717e+00 1.224650000000000034e+02 1.732494999999999891e+03
1.280000000000000027e-01 7.351050000000000084e-01 8.000569999999999737e+00 1.228340000000000032e+02 1.732575000000000045e+03
1.290000000000000036e-01 7.351784999999999570e-01 8.117445000000000022e+00 1.231829999999999927e+02 1.732659999999999854e+03
1.300000000000000044e-01 7.352429999999999799e-01 8.225414999999999921e+00 1.235020000000000095e+02 1.732734999999999900e+03
1.310000000000000053e-01 7.352990000000000359e-01 8.319304999999999950e+00 1.237824999999999989e+02 1.732805000000000064e+03
1.320000000000000062e-01 7.353454999999999853e-01 8.395310000000000272e+00 1.240199999999999960e+02 1.732865000000000009e+03
1.330000000000000071e-01 7.353814999999999102e-01 8.450984999999999303e+00 1.242129999999999939e+02 1.732914999999999964e+03
1.340000000000000080e-01 7.354084999999999095e-01 8.485219999999999985e+00 1.243619999999999948e+02 1.732954999999999927e+03
1.350000000000000089e-01 7.354264999999999830e-01 8.498120000000000118e+00 1.244689999999999941e+02 1.732990000000000009e+03
1.360000000000000098e-01 7.354370000000000074e-01 8.490895000000000081e+00 1.245399999999999920e+02 1.733009999999999991e+03
1.370000000000000107e-01 7.354424999999999990e-01 8.465685000000000571e+00 1.245805000000000007e+02 1.733019999999999982e+03
1.380000000000000115e-01 7.354435000000000278e-01 8.425399999999999778e+00 1.245985000000000014e+02 1.733034999999999854e+03
1.390000000000000124e-01 7.354419999999999291e-01 8.373490000000000322e+00 1.246009999999999991e+02 1.733039999999999964e+03
1.400000000000000133e-01 7.354410000000000114e-01 8.313719999999999999e+00 1.245974999999999966e+02 1.733045000000000073e+03
1.410000000000000142e-01 7.354410000000000114e-01 8.249950000000000117e+00 1.245949999999999989e+02 1.733045000000000073e+03
1.420000000000000151e-01 7.354435000000000278e-01 8.185909999999999798e+00 1.246009999999999991e+02 1.733050000000000182e+03
1.430000000000000160e-01 7.354510000000000769e-01 8.124980000000000757e+00 1.246209999999999951e+02 1.733059999999999945e+03
1.440000000000000169e-01 7.354629999999999779e-01 8.070024999999999338e+00 1.246610000000000014e+02 1.733070000000000164e+03
1.450000000000000178e-01 7.354810000000000514e-01 8.023229999999999862e+00 1.247240000000000038e+02 1.733079999999999927e+03
1.459999999999999909e-01 7.355039999999999356e-01 7.986025000000000595e+00 1.248100000000000023e+02 1.733105000000000018e+03
1.469999999999999918e-01 7.355335000000000623e-01 7.959039999999999893e+00 1.249205000000000041e+02 1.733130000000000109e+03
1.479999999999999927e-01 7.355670000000000819e-01 7.942129999999999690e+00 1.250534999999999997e+02 1.733160000000000082e+03
1.489999999999999936e-01 7.356044999999999945e-01 7.934450000000000003e+00 1.252049999999999983e+02 1.733195000000000164e+03
1.499999999999999944e-01 7.356445000000000345e-01 7.934575000000000600e+00 1.253704999999999927e+02 1.733235000000000127e+03
1.509999999999999953e-01 7.356865000000000210e-01 7.940644999999999953e+00 1.255455000000000041e+02 1.733275000000000091e+03
1.519999999999999962e-01 7.357285000000000075e-01 7.950565000000000992e+00 1.257235000000000014e+02 1.733315000000000055e+03
1.529999999999999971e-01 7.357690000000000063e-01 7.962189999999999657e+00 1.258984999999999985e+02 1.733360000000000127e+03
1.539999999999999980e-01 7.358074999999999477e-01 7.973494999999999777e+00 1.260664999999999907e+02 1.733400000000000091e+03
1.549999999999999989e-01 7.358419999999999961e-01 7.982734999999999914e+00 1.262224999999999966e+02 1.733434999999999945e+03
1.559999999999999998e-01 7.358735000000000692e-01 7.988534999999999719e+00 1.263629999999999995e+02 1.733474999999999909e+03
1.570000000000000007e-01 7.359005000000000685e-01 7.990009999999999835e+00 1.264860000000000042e+02 1.733505000000000109e+03
1.580000000000000016e-01 7.359234999999999527e-01 7.986760000000000304e+00 1.265904999999999916e+02 1.733529999999999973e+03
1.590000000000000024e-01 7.359424999999999439e-01 7.978874999999999496e+00 1.266774999999999949e+02 1.733554999999999836e+03
