# t [s], A [cm^2], U [cm/s], P [cPa], c [cm/s]
1.000000000000000021e-03 1.943249999999999977e-01 2.723344999999999794e-01 1.034799999999999898e+02 2.176534999999999854e+03
2.000000000000000042e-03 1.942649999999999932e-01 1.865921000000000163e+00 9.992889999999999873e+01 2.176055000000000291e+03
3.000000000000000062e-03 1.941100000000000048e-01 3.889498000000000122e+00 9.480289999999999395e+01 2.174875000000000000e+03
4.000000000000000083e-03 1.939009999999999900e-01 6.199221500000000162e+00 8.914889999999999759e+01 2.173320000000000164e+03
5.000000000000000104e-03 1.936815000000000064e-01 8.698124999999999218e+00 8.406295000000000073e+01 2.171695000000000164e+03
6.000000000000000125e-03 1.934744999999999937e-01 1.115473499999999873e+01 7.988535000000000252e+01 2.170180000000000291e+03
7.000000000000000146e-03 1.932820000000000094e-01 1.329716499999999968e+01 7.628034999999999854e+01 2.168815000000000055e+03
8.000000000000000167e-03 1.931085000000000163e-01 1.505154999999999887e+01 7.302915000000000134e+01 2.167599999999999909e+03
9.000000000000001055e-03 1.929595000000000060e-01 1.647885000000000133e+01 7.026279999999999859e+01 2.166569999999999709e+03
1.000000000000000194e-02 1.928374999999999950e-01 1.761860000000000070e+01 6.805875000000000341e+01 2.165735000000000127e+03
1.099999999999999936e-02 1.927409999999999957e-01 1.850029999999999930e+01 6.638434999999999775e+01 2.165090000000000146e+03
1.200000000000000025e-02 1.926689999999999792e-01 1.915180000000000149e+01 6.517360000000000753e+01 2.164609999999999673e+03
1.300000000000000114e-02 1.926140000000000074e-01 1.957464999999999833e+01 6.427514999999999645e+01 2.164255000000000109e+03
1.400000000000000203e-02 1.925705000000000056e-01 1.978909999999999769e+01 6.352800000000000580e+01 2.163985000000000127e+03
1.499999999999999944e-02 1.925390000000000157e-01 1.990885000000000105e+01 6.300495000000000090e+01 2.163795000000000073e+03
1.600000000000000033e-02 1.925290000000000057e-01 2.013170000000000215e+01 6.309860000000000468e+01 2.163734999999999673e+03
1.700000000000000122e-02 1.925534999999999886e-01 2.063190000000000168e+01 6.428190000000000737e+01 2.163909999999999854e+03
1.800000000000000211e-02 1.926194999999999991e-01 2.144655000000000200e+01 6.673449999999999704e+01 2.164355000000000018e+03
1.900000000000000300e-02 1.927205000000000168e-01 2.244234999999999758e+01 7.013139999999999930e+01 2.165055000000000291e+03
2.000000000000000042e-02 1.928380000000000094e-01 2.337519999999999953e+01 7.372610000000000241e+01 2.165875000000000000e+03
2.100000000000000130e-02 1.929474999999999940e-01 2.399884999999999735e+01 7.665254999999999086e+01 2.166650000000000091e+03
2.200000000000000219e-02 1.930260000000000031e-01 2.416465000000000174e+01 7.827000000000001023e+01 2.167225000000000364e+03
2.299999999999999961e-02 1.930629999999999846e-01 2.386950000000000216e+01 7.838980000000000814e+01 2.167514999999999873e+03
2.400000000000000050e-02 1.930584999999999940e-01 2.323959999999999937e+01 7.729734999999999445e+01 2.167519999999999982e+03
2.500000000000000139e-02 1.930270000000000041e-01 2.246389999999999887e+01 7.558289999999999509e+01 2.167319999999999709e+03
2.600000000000000228e-02 1.929839999999999889e-01 2.171284999999999954e+01 7.387485000000000923e+01 2.167029999999999745e+03
2.700000000000000316e-02 1.929440000000000044e-01 2.107785000000000153e+01 7.259940000000000282e+01 2.166744999999999891e+03
2.800000000000000058e-02 1.929150000000000031e-01 2.055215000000000103e+01 7.185814999999999486e+01 2.166529999999999745e+03
2.900000000000000147e-02 1.928944999999999965e-01 2.005250000000000199e+01 7.144944999999999879e+01 2.166385000000000218e+03
3.000000000000000236e-02 1.928745000000000043e-01 1.946705000000000041e+01 7.100139999999998963e+01 2.166250000000000000e+03
3.099999999999999978e-02 1.928460000000000174e-01 1.870989999999999753e+01 7.015389999999999304e+01 2.166055000000000291e+03
3.200000000000000067e-02 1.928019999999999734e-01 1.776375000000000171e+01 6.872390000000000043e+01 2.165760000000000218e+03
3.300000000000000155e-02 1.927420000000000244e-01 1.669669999999999987e+01 6.679845000000000255e+01 2.165349999999999909e+03
3.400000000000000244e-02 1.926729999999999832e-01 1.564739999999999931e+01 6.472504999999999598e+01 2.164875000000000000e+03
3.500000000000000333e-02 1.926090000000000024e-01 1.478389999999999915e+01 6.300419999999999732e+01 2.164425000000000182e+03
3.600000000000000422e-02 1.925649999999999862e-01 1.425169999999999959e+01 6.212470000000000425e+01 2.164099999999999909e+03
3.700000000000000511e-02 1.925525000000000153e-01 1.412935000000000052e+01 6.240520000000000067e+01 2.163994999999999891e+03
3.799999999999999906e-02 1.925784999999999858e-01 1.440735000000000099e+01 6.389424999999999955e+01 2.164150000000000091e+03
3.899999999999999994e-02 1.926395000000000191e-01 1.499164999999999992e+01 6.635639999999999361e+01 2.164550000000000182e+03
4.000000000000000083e-02 1.927254999999999940e-01 1.572909999999999897e+01 6.933669999999999334e+01 2.165130000000000109e+03
4.100000000000000172e-02 1.928209999999999924e-01 1.644299999999999784e+01 7.227355000000000018e+01 2.165784999999999854e+03
4.200000000000000261e-02 1.929084999999999828e-01 1.696904999999999930e+01 7.462354999999999450e+01 2.166400000000000091e+03
4.300000000000000350e-02 1.929720000000000046e-01 1.718215000000000003e+01 7.596490000000000009e+01 2.166855000000000018e+03
4.400000000000000439e-02 1.930009999999999781e-01 1.701184999999999903e+01 7.605955000000000155e+01 2.167079999999999927e+03
4.499999999999999833e-02 1.929899999999999949e-01 1.644330000000000069e+01 7.486740000000000350e+01 2.167019999999999982e+03
4.599999999999999922e-02 1.929374999999999840e-01 1.550794999999999924e+01 7.251720000000000255e+01 2.166680000000000291e+03
4.700000000000000011e-02 1.928495000000000070e-01 1.426770000000000138e+01 6.925024999999999409e+01 2.166085000000000036e+03
4.800000000000000100e-02 1.927329999999999877e-01 1.279823999999999984e+01 6.535564999999999714e+01 2.165284999999999854e+03
4.900000000000000189e-02 1.925955000000000028e-01 1.117566499999999863e+01 6.111405000000000598e+01 2.164335000000000036e+03
5.000000000000000278e-02 1.924474999999999936e-01 9.468294999999999462e+00 5.676205000000000211e+01 2.163305000000000291e+03
5.100000000000000366e-02 1.922935000000000061e-01 7.734779999999999767e+00 5.247984999999999900e+01 2.162235000000000127e+03
5.200000000000000455e-02 1.921414999999999929e-01 6.026205000000000034e+00 4.839789999999999992e+01 2.161170000000000073e+03
5.300000000000000544e-02 1.919945000000000124e-01 4.390380500000000019e+00 4.461520000000000152e+01 2.160144999999999982e+03
5.399999999999999939e-02 1.918580000000000008e-01 2.875523499999999899e+00 4.121940000000000026e+01 2.159180000000000291e+03
5.500000000000000028e-02 1.917355000000000032e-01 1.532634999999999970e+00 3.830240000000000578e+01 2.158315000000000055e+03
5.600000000000000117e-02 1.916304999999999814e-01 4.149699999999998390e-01 3.596694999999999709e+01 2.157574999999999818e+03
5.700000000000000205e-02 1.915479999999999960e-01 -4.248399999999999954e-01 3.432350000000000279e+01 2.156980000000000018e+03
5.800000000000000294e-02 1.914905000000000079e-01 -9.393269999999999120e-01 3.347889999999999588e+01 2.156559999999999945e+03
5.900000000000000383e-02 1.914635000000000087e-01 -1.091261000000000037e+00 3.352210000000000178e+01 2.156349999999999909e+03
6.000000000000000472e-02 1.914690000000000003e-01 -8.580084999999999518e-01 3.450884999999999536e+01 2.156359999999999673e+03
6.099999999999999867e-02 1.915080000000000116e-01 -2.343450000000000255e-01 3.645170000000000243e+01 2.156610000000000127e+03
6.199999999999999956e-02 1.915815000000000157e-01 7.667749999999999844e-01 3.931499999999999773e+01 2.157095000000000255e+03
6.300000000000000044e-02 1.916879999999999973e-01 2.115338500000000010e+00 4.301704999999999757e+01 2.157809999999999945e+03
6.400000000000000133e-02 1.918235000000000079e-01 3.766899500000000067e+00 4.743734999999999502e+01 2.158730000000000018e+03
6.500000000000000222e-02 1.919839999999999880e-01 5.666070000000000384e+00 5.242709999999999582e+01 2.159835000000000036e+03
6.600000000000000311e-02 1.921649999999999747e-01 7.750289999999999679e+00 5.782114999999999583e+01 2.161079999999999927e+03
6.700000000000000400e-02 1.923600000000000032e-01 9.953755000000001019e+00 6.344925000000000637e+01 2.162434999999999945e+03
6.800000000000000488e-02 1.925629999999999842e-01 1.221078500000000133e+01 6.914695000000000391e+01 2.163850000000000364e+03
6.900000000000000577e-02 1.927694999999999825e-01 1.445955000000000013e+01 7.476439999999999486e+01 2.165295000000000073e+03
7.000000000000000666e-02 1.929734999999999923e-01 1.664504999999999768e+01 8.017454999999999643e+01 2.166734999999999673e+03
7.100000000000000755e-02 1.931710000000000094e-01 1.872184999999999988e+01 8.527950000000001296e+01 2.168125000000000000e+03
7.200000000000000844e-02 1.933590000000000031e-01 2.065639999999999787e+01 9.001560000000000628e+01 2.169460000000000036e+03
7.300000000000000933e-02 1.935344999999999982e-01 2.242839999999999989e+01 9.435535000000000139e+01 2.170710000000000036e+03
7.399999999999999634e-02 1.936979999999999813e-01 2.403075000000000117e+01 9.830644999999999811e+01 2.171875000000000000e+03
7.499999999999999722e-02 1.938484999999999792e-01 2.546869999999999834e+01 1.019098500000000058e+02 2.172954999999999927e+03
7.599999999999999811e-02 1.939879999999999938e-01 2.675784999999999769e+01 1.052288000000000068e+02 2.173954999999999927e+03
7.699999999999999900e-02 1.941189999999999860e-01 2.792110000000000269e+01 1.083444999999999965e+02 2.174894999999999982e+03
7.799999999999999989e-02 1.942429999999999990e-01 2.898564999999999969e+01 1.113425000000000011e+02 2.175789999999999964e+03
7.900000000000000078e-02 1.943639999999999812e-01 2.997939999999999827e+01 1.143045000000000044e+02 2.176659999999999854e+03
8.000000000000000167e-02 1.944839999999999902e-01 3.092810000000000059e+01 1.172994999999999948e+02 2.177514999999999873e+03
8.100000000000000255e-02 1.946050000000000002e-01 3.185309999999999775e+01 1.203780000000000001e+02 2.178385000000000218e+03
8.200000000000000344e-02 1.947280000000000122e-01 3.276954999999999529e+01 1.235690000000000026e+02 2.179265000000000327e+03
8.300000000000000433e-02 1.948550000000000004e-01 3.368585000000000207e+01 1.268785000000000025e+02 2.180175000000000182e+03
8.400000000000000522e-02 1.949850000000000194e-01 3.460340000000000060e+01 1.302899999999999920e+02 2.181105000000000018e+03
8.500000000000000611e-02 1.951180000000000136e-01 3.551685000000000514e+01 1.337704999999999984e+02 2.182055000000000291e+03
8.600000000000000699e-02 1.952524999999999955e-01 3.641535000000000366e+01 1.372719999999999914e+02 2.183015000000000327e+03
8.700000000000000788e-02 1.953865000000000185e-01 3.728365000000000151e+01 1.407350000000000136e+02 2.183974999999999909e+03
8.800000000000000877e-02 1.955184999999999840e-01 3.810325000000000273e+01 1.440964999999999918e+02 2.184914999999999964e+03
8.899999999999999578e-02 1.956459999999999866e-01 3.885384999999999422e+01 1.472920000000000016e+02 2.185829999999999927e+03
8.999999999999999667e-02 1.957669999999999966e-01 3.951500000000000057e+01 1.502595000000000027e+02 2.186699999999999818e+03
9.099999999999999756e-02 1.958789999999999976e-01 4.006714999999999804e+01 1.529430000000000121e+02 2.187505000000000109e+03
9.199999999999999845e-02 1.959799999999999875e-01 4.049269999999999925e+01 1.552955000000000041e+02 2.188239999999999782e+03
9.299999999999999933e-02 1.960689999999999933e-01 4.077755000000000507e+01 1.572789999999999964e+02 2.188889999999999873e+03
9.400000000000000022e-02 1.961450000000000138e-01 4.091165000000000163e+01 1.588710000000000093e+02 2.189435000000000400e+03
9.500000000000000111e-02 1.962059999999999915e-01 4.088980000000000103e+01 1.600600000000000023e+02 2.189885000000000218e+03
9.600000000000000200e-02 1.962520000000000098e-01 4.071184999999999832e+01 1.608499999999999943e+02 2.190235000000000127e+03
9.700000000000000289e-02 1.962845000000000006e-01 4.038320000000000221e+01 1.612574999999999932e+02 2.190470000000000255e+03
9.800000000000000377e-02 1.963024999999999909e-01 3.991410000000000480e+01 1.613129999999999882e+02 2.190614999999999782e+03
9.900000000000000466e-02 1.963084999999999969e-01 3.931945000000000334e+01 1.610559999999999832e+02 2.190664999999999964e+03
1.000000000000000056e-01 1.963030000000000053e-01 3.861780000000000257e+01 1.605364999999999895e+02 2.190640000000000327e+03
1.010000000000000064e-01 1.962875000000000036e-01 3.783034999999999570e+01 1.598079999999999927e+02 2.190539999999999964e+03
1.020000000000000073e-01 1.962649999999999950e-01 3.697984999999999900e+01 1.589279999999999973e+02 2.190385000000000218e+03
1.030000000000000082e-01 1.962365000000000081e-01 3.608950000000000102e+01 1.579529999999999745e+02 2.190190000000000055e+03
1.040000000000000091e-01 1.962039999999999895e-01 3.518184999999999718e+01 1.569359999999999786e+02 2.189960000000000036e+03
1.050000000000000100e-01 1.961700000000000110e-01 3.427779999999999916e+01 1.559250000000000114e+02 2.189724999999999909e+03
1.059999999999999970e-01 1.961364999999999914e-01 3.339584999999999582e+01 1.549610000000000127e+02 2.189480000000000018e+03
1.069999999999999979e-01 1.961034999999999862e-01 3.255134999999999934e+01 1.540759999999999934e+02 2.189244999999999891e+03
1.079999999999999988e-01 1.960725000000000107e-01 3.175594999999999857e+01 1.532930000000000064e+02 2.189019999999999982e+03
1.089999999999999997e-01 1.960454999999999837e-01 3.101735000000000042e+01 1.526240000000000236e+02 2.188824999999999818e+03
1.100000000000000006e-01 1.960220000000000018e-01 3.033879999999999910e+01 1.520715000000000146e+02 2.188650000000000091e+03
1.110000000000000014e-01 1.960014999999999952e-01 2.971954999999999814e+01 1.516284999999999741e+02 2.188505000000000109e+03
1.120000000000000023e-01 1.959855000000000069e-01 2.915465000000000018e+01 1.512769999999999868e+02 2.188380000000000109e+03
1.130000000000000032e-01 1.959710000000000063e-01 2.863550000000000040e+01 1.509909999999999854e+02 2.188274999999999636e+03
1.140000000000000041e-01 1.959595000000000087e-01 2.815050000000000097e+01 1.507394999999999925e+02 2.188185000000000400e+03
1.150000000000000050e-01 1.959480000000000111e-01 2.768564999999999898e+01 1.504839999999999804e+02 2.188100000000000364e+03
1.160000000000000059e-01 1.959359999999999991e-01 2.722565000000000168e+01 1.501859999999999786e+02 2.188010000000000218e+03
1.170000000000000068e-01 1.959219999999999851e-01 2.675484999999999758e+01 1.498050000000000068e+02 2.187909999999999854e+03
1.180000000000000077e-01 1.959049999999999958e-01 2.625825000000000031e+01 1.493054999999999950e+02 2.187784999999999854e+03
1.190000000000000085e-01 1.958830000000000016e-01 2.572249999999999659e+01 1.486554999999999893e+02 2.187630000000000109e+03
1.200000000000000094e-01 1.958560000000000023e-01 2.513674999999999926e+01 1.478310000000000173e+02 2.187439999999999600e+03
1.209999999999999964e-01 1.958229999999999971e-01 2.449340000000000117e+01 1.468164999999999907e+02 2.187204999999999927e+03
1.219999999999999973e-01 1.957829999999999848e-01 2.378860000000000241e+01 1.456080000000000041e+02 2.186925000000000182e+03
1.229999999999999982e-01 1.957359999999999933e-01 2.302250000000000085e+01 1.442110000000000127e+02 2.186595000000000255e+03
1.239999999999999991e-01 1.956825000000000092e-01 2.219960000000000022e+01 1.426415000000000077e+02 2.186215000000000146e+03
1.250000000000000000e-01 1.956229999999999913e-01 2.132799999999999940e+01 1.409259999999999877e+02 2.185795000000000073e+03
1.260000000000000009e-01 1.955584999999999962e-01 2.041960000000000264e+01 1.390994999999999777e+02 2.185340000000000146e+03
1.270000000000000018e-01 1.954909999999999981e-01 1.948884999999999934e+01 1.372030000000000030e+02 2.184859999999999673e+03
1.280000000000000027e-01 1.954204999999999970e-01 1.855250000000000199e+01 1.352810000000000059e+02 2.184355000000000018e+03
1.290000000000000036e-01 1.953495000000000092e-01 1.762809999999999988e+01 1.333814999999999884e+02 2.183855000000000018e+03
1.300000000000000044e-01 1.952794999999999948e-01 1.673369999999999891e+01 1.315504999999999995e+02 2.183349999999999909e+03
1.310000000000000053e-01 1.952125000000000110e-01 1.588625000000000043e+01 1.298315000000000055e+02 2.182869999999999891e+03
1.320000000000000062e-01 1.951490000000000169e-01 1.510109999999999886e+01 1.282609999999999957e+02 2.182414999999999964e+03
1.330000000000000071e-01 1.950910000000000144e-01 1.439144999999999897e+01 1.268714999999999975e+02 2.182000000000000000e+03
1.340000000000000080e-01 1.950395000000000045e-01 1.376725000000000065e+01 1.256839999999999975e+02 2.181630000000000109e+03
1.350000000000000089e-01 1.949950000000000017e-01 1.323539999999999850e+01 1.247129999999999939e+02 2.181309999999999945e+03
1.360000000000000098e-01 1.949585000000000068e-01 1.279909999999999926e+01 1.239625000000000057e+02 2.181039999999999964e+03
1.370000000000000107e-01 1.949299999999999922e-01 1.245834999999999937e+01 1.234290000000000020e+02 2.180824999999999818e+03
1.380000000000000115e-01 1.949084999999999845e-01 1.220994999999999919e+01 1.231015000000000015e+02 2.180664999999999964e+03
1.390000000000000124e-01 1.948944999999999983e-01 1.204795000000000016e+01 1.229615000000000009e+02 2.180559999999999945e+03
1.400000000000000133e-01 1.948880000000000057e-01 1.196385000000000076e+01 1.229859999999999900e+02 2.180505000000000109e+03
1.410000000000000142e-01 1.948864999999999903e-01 1.194760000000000133e+01 1.231490000000000009e+02 2.180489999999999782e+03
1.420000000000000151e-01 1.948905000000000221e-01 1.198770000000000024e+01 1.234224999999999994e+02 2.180510000000000218e+03
1.430000000000000160e-01 1.948980000000000157e-01 1.207215000000000060e+01 1.237764999999999986e+02 2.180559999999999945e+03
1.440000000000000169e-01 1.949089999999999989e-01 1.218854999999999933e+01 1.241825000000000045e+02 2.180630000000000109e+03
1.450000000000000178e-01 1.949220000000000119e-01 1.232505000000000095e+01 1.246144999999999925e+02 2.180715000000000146e+03
1.459999999999999909e-01 1.949354999999999838e-01 1.247029999999999994e+01 1.250474999999999994e+02 2.180810000000000400e+03
1.469999999999999918e-01 1.949500000000000122e-01 1.261424999999999841e+01 1.254604999999999961e+02 2.180909999999999854e+03
1.479999999999999927e-01 1.949635000000000118e-01 1.274814999999999898e+01 1.258354999999999961e+02 2.181010000000000218e+03
1.489999999999999936e-01 1.949754999999999960e-01 1.286479999999999890e+01 1.261605000000000132e+02 2.181099999999999909e+03
1.499999999999999944e-01 1.949870000000000214e-01 1.295894999999999975e+01 1.264249999999999972e+02 2.181175000000000182e+03
1.509999999999999953e-01 1.949954999999999883e-01 1.302700000000000102e+01 1.266255000000000024e+02 2.181239999999999782e+03
1.519999999999999962e-01 1.950029999999999819e-01 1.306729999999999947e+01 1.267614999999999981e+02 2.181295000000000073e+03
1.529999999999999971e-01 1.950069999999999859e-01 1.308004999999999995e+01 1.268350000000000080e+02 2.181329999999999927e+03
1.539999999999999980e-01 1.950104999999999755e-01 1.306685000000000052e+01 1.268539999999999992e+02 2.181349999999999909e+03
1.549999999999999989e-01 1.950109999999999899e-01 1.303085000000000093e+01 1.268280000000000030e+02 2.181360000000000127e+03
1.559999999999999998e-01 1.950109999999999899e-01 1.297639999999999993e+01 1.267690000000000055e+02 2.181359999999999673e+03
1.570000000000000007e-01 1.950089999999999879e-01 1.290834999999999866e+01 1.266905000000000001e+02 2.181349999999999909e+03
1.580000000000000016e-01 1.950069999999999859e-01 1.283220000000000027e+01 1.266055000000000064e+02 2.181335000000000036e+03
1.590000000000000024e-01 1.950049999999999839e-01 1.275335000000000107e+01 1.265279999999999916e+02 2.181319999999999709e+03
