# t [s], A [cm^2], U [cm/s], P [cPa], c [cm/s]
1.000000000000000021e-03 1.460069999999999979e-01 4.746936000000000488e-01 1.033350000000000080e+02 1.977970000000000027e+03
2.000000000000000042e-03 1.459584999999999910e-01 2.326286500000000146e+00 9.943874999999999886e+01 1.977454999999999927e+03
3.000000000000000062e-03 1.458295000000000008e-01 4.548147500000000676e+00 9.425090000000000146e+01 1.976125000000000000e+03
4.000000000000000083e-03 1.456549999999999789e-01 7.015256499999999562e+00 8.886220000000000141e+01 1.974369999999999891e+03
5.000000000000000104e-03 1.454699999999999882e-01 9.628225000000000477e+00 8.423484999999999445e+01 1.972519999999999982e+03
6.000000000000000125e-03 1.452930000000000055e-01 1.215954999999999941e+01 8.053334999999999866e+01 1.970769999999999982e+03
7.000000000000000146e-03 1.451275000000000204e-01 1.437912000000000035e+01 7.738005000000001132e+01 1.969170000000000073e+03
8.000000000000000167e-03 1.449769999999999948e-01 1.623485000000000156e+01 7.454964999999999975e+01 1.967735000000000127e+03
9.000000000000001055e-03 1.448450000000000015e-01 1.778590000000000160e+01 7.213224999999999909e+01 1.966494999999999891e+03
1.000000000000000194e-02 1.447340000000000015e-01 1.906695000000000206e+01 7.018084999999999241e+01 1.965454999999999927e+03
1.099999999999999936e-02 1.446429999999999938e-01 2.009609999999999985e+01 6.864269999999999072e+01 1.964625000000000000e+03
1.200000000000000025e-02 1.445704999999999907e-01 2.089750000000000085e+01 6.745714999999999861e+01 1.963964999999999918e+03
1.300000000000000114e-02 1.445130000000000026e-01 2.148335000000000150e+01 6.653560000000000230e+01 1.963454999999999927e+03
1.400000000000000203e-02 1.444670000000000121e-01 2.186950000000000216e+01 6.576794999999999902e+01 1.963054999999999836e+03
1.499999999999999944e-02 1.444305000000000172e-01 2.212969999999999970e+01 6.516760000000000730e+01 1.962734999999999900e+03
1.600000000000000033e-02 1.444070000000000076e-01 2.241159999999999997e+01 6.498250000000000171e+01 1.962549999999999955e+03
1.700000000000000122e-02 1.444060000000000066e-01 2.287535000000000096e+01 6.559295000000000186e+01 1.962550000000000182e+03
1.800000000000000211e-02 1.444340000000000068e-01 2.360125000000000028e+01 6.725030000000000996e+01 1.962815000000000055e+03
1.900000000000000300e-02 1.444914999999999949e-01 2.453584999999999994e+01 6.985824999999999818e+01 1.963360000000000127e+03
2.000000000000000042e-02 1.445720000000000061e-01 2.550769999999999982e+01 7.294284999999999286e+01 1.964115000000000009e+03
2.100000000000000130e-02 1.446594999999999964e-01 2.629710000000000036e+01 7.581470000000000198e+01 1.964940000000000055e+03
2.200000000000000219e-02 1.447364999999999902e-01 2.672010000000000218e+01 7.782235000000000014e+01 1.965684999999999945e+03
2.299999999999999961e-02 1.447884999999999867e-01 2.669174999999999898e+01 7.857949999999999591e+01 1.966200000000000045e+03
2.400000000000000050e-02 1.448090000000000210e-01 2.624555000000000149e+01 7.807540000000000191e+01 1.966420000000000073e+03
2.500000000000000139e-02 1.447995000000000254e-01 2.550844999999999985e+01 7.663909999999999911e+01 1.966360000000000127e+03
2.600000000000000228e-02 1.447690000000000088e-01 2.464580000000000126e+01 7.478524999999999068e+01 1.966099999999999909e+03
2.700000000000000316e-02 1.447289999999999965e-01 2.380160000000000053e+01 7.301650000000000773e+01 1.965740000000000009e+03
2.800000000000000058e-02 1.446904999999999997e-01 2.305729999999999791e+01 7.166280000000000427e+01 1.965375000000000000e+03
2.900000000000000147e-02 1.446589999999999820e-01 2.242070000000000007e+01 7.080960000000000321e+01 1.965079999999999927e+03
3.000000000000000236e-02 1.446359999999999868e-01 2.184174999999999756e+01 7.032335000000000491e+01 1.964859999999999900e+03
3.099999999999999978e-02 1.446185000000000109e-01 2.124609999999999843e+01 6.994675000000000864e+01 1.964684999999999945e+03
3.200000000000000067e-02 1.446000000000000063e-01 2.057099999999999795e+01 6.941919999999998936e+01 1.964514999999999873e+03
3.300000000000000155e-02 1.445760000000000101e-01 1.979404999999999859e+01 6.858295000000001096e+01 1.964295000000000073e+03
3.400000000000000244e-02 1.445444999999999924e-01 1.894594999999999985e+01 6.744459999999999411e+01 1.964005000000000109e+03
3.500000000000000333e-02 1.445075000000000109e-01 1.810545000000000115e+01 6.617759999999999820e+01 1.963664999999999964e+03
3.600000000000000422e-02 1.444705000000000017e-01 1.737805000000000177e+01 6.506964999999999577e+01 1.963320000000000164e+03
3.700000000000000511e-02 1.444415000000000004e-01 1.686584999999999823e+01 6.443264999999999532e+01 1.963039999999999964e+03
3.799999999999999906e-02 1.444280000000000008e-01 1.663820000000000121e+01 6.450629999999999598e+01 1.962904999999999973e+03
3.899999999999999994e-02 1.444345000000000212e-01 1.671180000000000021e+01 6.538419999999999277e+01 1.962950000000000045e+03
4.000000000000000083e-02 1.444630000000000081e-01 1.704475000000000051e+01 6.698265000000000668e+01 1.963195000000000164e+03
4.100000000000000172e-02 1.445095000000000129e-01 1.754465000000000074e+01 6.905590000000000828e+01 1.963619999999999891e+03
4.200000000000000261e-02 1.445680000000000021e-01 1.808769999999999811e+01 7.124944999999999595e+01 1.964150000000000091e+03
4.300000000000000350e-02 1.446275000000000199e-01 1.854110000000000014e+01 7.317214999999998781e+01 1.964710000000000036e+03
4.400000000000000439e-02 1.446790000000000020e-01 1.878540000000000276e+01 7.446845000000000425e+01 1.965190000000000055e+03
4.499999999999999833e-02 1.447114999999999929e-01 1.873049999999999926e+01 7.487469999999999004e+01 1.965505000000000109e+03
4.599999999999999922e-02 1.447189999999999865e-01 1.832469999999999999e+01 7.425104999999999222e+01 1.965585000000000036e+03
4.700000000000000011e-02 1.446979999999999933e-01 1.755615000000000236e+01 7.258610000000000184e+01 1.965405000000000200e+03
4.800000000000000100e-02 1.446465000000000112e-01 1.644760000000000133e+01 6.997950000000000159e+01 1.964934999999999945e+03
4.900000000000000189e-02 1.445680000000000021e-01 1.504799999999999827e+01 6.660989999999999611e+01 1.964215000000000146e+03
5.000000000000000278e-02 1.444664999999999977e-01 1.342249499999999962e+01 6.269805000000000206e+01 1.963269999999999982e+03
5.100000000000000366e-02 1.443474999999999897e-01 1.164335499999999968e+01 5.847375000000000256e+01 1.962159999999999854e+03
5.200000000000000455e-02 1.442169999999999841e-01 9.784054999999998614e+00 5.415229999999999677e+01 1.960945000000000164e+03
5.300000000000000544e-02 1.440815000000000012e-01 7.915274999999999395e+00 4.992210000000000036e+01 1.959679999999999836e+03
5.399999999999999939e-02 1.439469999999999916e-01 6.103580000000000005e+00 4.594240000000000634e+01 1.958414999999999964e+03
5.500000000000000028e-02 1.438180000000000014e-01 4.411960999999999800e+00 4.234759999999999991e+01 1.957204999999999927e+03
5.600000000000000117e-02 1.436989999999999934e-01 2.899903000000000119e+00 3.925464999999999804e+01 1.956085000000000036e+03
5.700000000000000205e-02 1.435950000000000004e-01 1.623784999999999812e+00 3.676834999999999809e+01 1.955099999999999909e+03
5.800000000000000294e-02 1.435089999999999977e-01 6.359449999999999825e-01 3.498484999999999445e+01 1.954285000000000082e+03
5.900000000000000383e-02 1.434449999999999892e-01 -1.719499999999996032e-02 3.398995000000000033e+01 1.953664999999999964e+03
6.000000000000000472e-02 1.434059999999999779e-01 -2.977614999999999568e-01 3.385390000000000299e+01 1.953284999999999854e+03
6.099999999999999867e-02 1.433945000000000081e-01 -1.793914999999999815e-01 3.462444999999999595e+01 1.953144999999999982e+03
6.199999999999999956e-02 1.434114999999999973e-01 3.502075000000000049e-01 3.631974999999999909e+01 1.953285000000000082e+03
6.300000000000000044e-02 1.434584999999999888e-01 1.287618000000000151e+00 3.892260000000000275e+01 1.953695000000000164e+03
6.400000000000000133e-02 1.435345000000000093e-01 2.613352700000000084e+00 4.237870000000000203e+01 1.954380000000000109e+03
6.500000000000000222e-02 1.436385000000000023e-01 4.292950999999999517e+00 4.659875000000000256e+01 1.955325000000000045e+03
6.600000000000000311e-02 1.437680000000000069e-01 6.279259999999999842e+00 5.146399999999999864e+01 1.956519999999999982e+03
6.700000000000000400e-02 1.439185000000000048e-01 8.515719999999999956e+00 5.683509999999999707e+01 1.957909999999999854e+03
6.800000000000000488e-02 1.440874999999999795e-01 1.093972000000000122e+01 6.256170000000000186e+01 1.959480000000000018e+03
6.900000000000000577e-02 1.442689999999999806e-01 1.348648999999999987e+01 6.849235000000000184e+01 1.961174999999999955e+03
7.000000000000000666e-02 1.444595000000000184e-01 1.609205000000000041e+01 7.448310000000000741e+01 1.962960000000000036e+03
7.100000000000000755e-02 1.446540000000000048e-01 1.869619999999999749e+01 8.040415000000000134e+01 1.964789999999999964e+03
7.200000000000000844e-02 1.448484999999999912e-01 2.124445000000000050e+01 8.614504999999999768e+01 1.966630000000000109e+03
7.300000000000000933e-02 1.450394999999999879e-01 2.369044999999999845e+01 9.161754999999999427e+01 1.968444999999999936e+03
7.399999999999999634e-02 1.452239999999999920e-01 2.599690000000000012e+01 9.675865000000000293e+01 1.970199999999999818e+03
7.499999999999999722e-02 1.453995000000000148e-01 2.813664999999999949e+01 1.015302000000000078e+02 1.971884999999999991e+03
7.599999999999999811e-02 1.455649999999999999e-01 3.009389999999999787e+01 1.059199500000000000e+02 1.973470000000000027e+03
7.699999999999999900e-02 1.457200000000000162e-01 3.186354999999999649e+01 1.099415000000000049e+02 1.974960000000000036e+03
7.799999999999999989e-02 1.458639999999999937e-01 3.345129999999999626e+01 1.136289999999999907e+02 1.976349999999999909e+03
7.900000000000000078e-02 1.459975000000000023e-01 3.487194999999999823e+01 1.170380000000000109e+02 1.977650000000000091e+03
8.000000000000000167e-02 1.461235000000000173e-01 3.614820000000000277e+01 1.202365000000000066e+02 1.978869999999999891e+03
8.100000000000000255e-02 1.462419999999999831e-01 3.730805000000000149e+01 1.233009999999999877e+02 1.980029999999999973e+03
8.200000000000000344e-02 1.463570000000000149e-01 3.838210000000000122e+01 1.263094999999999999e+02 1.981144999999999982e+03
8.300000000000000433e-02 1.464695000000000025e-01 3.940140000000000242e+01 1.293369999999999891e+02 1.982240000000000009e+03
8.400000000000000522e-02 1.465819999999999901e-01 4.039450000000000074e+01 1.324454999999999814e+02 1.983335000000000036e+03
8.500000000000000611e-02 1.466959999999999931e-01 4.138545000000000584e+01 1.356829999999999927e+02 1.984445000000000164e+03
8.600000000000000699e-02 1.468140000000000001e-01 4.239189999999999969e+01 1.390785000000000196e+02 1.985585000000000036e+03
8.700000000000000788e-02 1.469354999999999967e-01 4.342430000000000234e+01 1.426399999999999864e+02 1.986764999999999873e+03
8.800000000000000877e-02 1.470619999999999983e-01 4.448505000000000109e+01 1.463555000000000064e+02 1.987985000000000127e+03
8.899999999999999578e-02 1.471919999999999895e-01 4.556905000000000427e+01 1.501924999999999955e+02 1.989250000000000000e+03
8.999999999999999667e-02 1.473254999999999981e-01 4.666384999999999650e+01 1.541045000000000016e+02 1.990539999999999964e+03
9.099999999999999756e-02 1.474610000000000087e-01 4.775140000000000384e+01 1.580289999999999964e+02 1.991855000000000018e+03
9.199999999999999845e-02 1.475964999999999916e-01 4.880904999999999916e+01 1.618985000000000127e+02 1.993170000000000073e+03
9.299999999999999933e-02 1.477300000000000002e-01 4.981135000000000446e+01 1.656405000000000030e+02 1.994470000000000027e+03
9.400000000000000022e-02 1.478594999999999771e-01 5.073179999999999978e+01 1.691825000000000045e+02 1.995730000000000018e+03
9.500000000000000111e-02 1.479825000000000168e-01 5.154439999999999600e+01 1.724575000000000102e+02 1.996934999999999945e+03
9.600000000000000200e-02 1.480970000000000064e-01 5.222520000000000095e+01 1.754069999999999823e+02 1.998059999999999945e+03
9.700000000000000289e-02 1.482009999999999994e-01 5.275350000000000250e+01 1.779825000000000159e+02 1.999085000000000036e+03
9.800000000000000377e-02 1.482939999999999814e-01 5.311315000000000452e+01 1.801490000000000009e+02 2.000000000000000000e+03
9.900000000000000466e-02 1.483740000000000059e-01 5.329309999999999548e+01 1.818834999999999980e+02 2.000789999999999964e+03
1.000000000000000056e-01 1.484395000000000020e-01 5.328770000000000095e+01 1.831795000000000186e+02 2.001444999999999936e+03
1.010000000000000064e-01 1.484914999999999985e-01 5.309730000000000416e+01 1.840430000000000064e+02 2.001960000000000036e+03
1.020000000000000073e-01 1.485289999999999944e-01 5.272799999999999443e+01 1.844925000000000068e+02 2.002345000000000027e+03
1.030000000000000082e-01 1.485529999999999906e-01 5.219089999999999918e+01 1.845600000000000023e+02 2.002595000000000027e+03
1.040000000000000091e-01 1.485644999999999882e-01 5.150209999999999866e+01 1.842849999999999966e+02 2.002720000000000027e+03
1.050000000000000100e-01 1.485644999999999882e-01 5.068130000000000024e+01 1.837164999999999964e+02 2.002735000000000127e+03
1.059999999999999970e-01 1.485545000000000060e-01 4.975124999999999886e+01 1.829064999999999941e+02 2.002650000000000091e+03
1.069999999999999979e-01 1.485354999999999870e-01 4.873669999999999902e+01 1.819114999999999895e+02 2.002480000000000018e+03
1.079999999999999988e-01 1.485100000000000031e-01 4.766290000000000049e+01 1.807869999999999777e+02 2.002240000000000009e+03
1.089999999999999997e-01 1.484794999999999865e-01 4.655514999999999759e+01 1.795874999999999773e+02 2.001950000000000045e+03
1.100000000000000006e-01 1.484455000000000080e-01 4.543744999999999834e+01 1.783625000000000114e+02 2.001619999999999891e+03
1.110000000000000014e-01 1.484094999999999998e-01 4.433155000000000001e+01 1.771564999999999941e+02 2.001275000000000091e+03
1.120000000000000023e-01 1.483730000000000049e-01 4.325670000000000215e+01 1.760060000000000002e+02 2.000920000000000073e+03
1.130000000000000032e-01 1.483375000000000110e-01 4.222844999999999516e+01 1.749409999999999741e+02 2.000579999999999927e+03
1.140000000000000041e-01 1.483039999999999914e-01 4.125854999999999961e+01 1.739805000000000064e+02 2.000244999999999891e+03
1.150000000000000050e-01 1.482729999999999881e-01 4.035470000000000113e+01 1.731355000000000075e+02 1.999940000000000055e+03
1.160000000000000059e-01 1.482445000000000013e-01 3.952040000000000219e+01 1.724080000000000155e+02 1.999659999999999854e+03
1.170000000000000068e-01 1.482195000000000040e-01 3.875509999999999877e+01 1.717899999999999920e+02 1.999405000000000200e+03
1.180000000000000077e-01 1.481975000000000098e-01 3.805434999999999945e+01 1.712680000000000007e+02 1.999184999999999945e+03
1.190000000000000085e-01 1.481780000000000042e-01 3.741039999999999566e+01 1.708195000000000050e+02 1.998990000000000009e+03
1.200000000000000094e-01 1.481609999999999872e-01 3.681275000000000119e+01 1.704180000000000064e+02 1.998819999999999936e+03
1.209999999999999964e-01 1.481449999999999989e-01 3.624875000000000114e+01 1.700330000000000155e+02 1.998659999999999854e+03
1.219999999999999973e-01 1.481294999999999973e-01 3.570425000000000182e+01 1.696315000000000168e+02 1.998500000000000000e+03
1.229999999999999982e-01 1.481135000000000090e-01 3.516460000000000008e+01 1.691800000000000068e+02 1.998340000000000146e+03
1.239999999999999991e-01 1.480960000000000054e-01 3.461520000000000152e+01 1.686474999999999795e+02 1.998164999999999964e+03
1.250000000000000000e-01 1.480759999999999854e-01 3.404245000000000232e+01 1.680054999999999836e+02 1.997970000000000027e+03
1.260000000000000009e-01 1.480525000000000035e-01 3.343444999999999823e+01 1.672295000000000016e+02 1.997740000000000009e+03
1.270000000000000018e-01 1.480250000000000177e-01 3.278135000000000332e+01 1.663020000000000209e+02 1.997474999999999909e+03
1.280000000000000027e-01 1.479929999999999857e-01 3.207635000000000502e+01 1.652119999999999891e+02 1.997164999999999964e+03
1.290000000000000036e-01 1.479560000000000042e-01 3.131555000000000177e+01 1.639549999999999841e+02 1.996804999999999836e+03
1.300000000000000044e-01 1.479135000000000033e-01 3.049844999999999828e+01 1.625370000000000061e+02 1.996394999999999982e+03
1.310000000000000053e-01 1.478665000000000118e-01 2.962814999999999799e+01 1.609689999999999941e+02 1.995940000000000055e+03
1.320000000000000062e-01 1.478140000000000009e-01 2.871070000000000277e+01 1.592699999999999818e+02 1.995434999999999945e+03
1.330000000000000071e-01 1.477580000000000005e-01 2.775550000000000139e+01 1.574664999999999964e+02 1.994894999999999982e+03
1.340000000000000080e-01 1.476985000000000103e-01 2.677434999999999832e+01 1.555899999999999750e+02 1.994315000000000055e+03
1.350000000000000089e-01 1.476359999999999895e-01 2.578110000000000213e+01 1.536754999999999995e+02 1.993715000000000146e+03
1.360000000000000098e-01 1.475724999999999953e-01 2.479100000000000037e+01 1.517604999999999791e+02 1.993095000000000027e+03
1.370000000000000107e-01 1.475084999999999869e-01 2.382000000000000028e+01 1.498829999999999814e+02 1.992474999999999909e+03
1.380000000000000115e-01 1.474455000000000071e-01 2.288405000000000200e+01 1.480799999999999841e+02 1.991869999999999891e+03
1.390000000000000124e-01 1.473849999999999882e-01 2.199810000000000088e+01 1.463865000000000123e+02 1.991269999999999982e+03
1.400000000000000133e-01 1.473269999999999857e-01 2.117605000000000004e+01 1.448324999999999818e+02 1.990710000000000036e+03
1.410000000000000142e-01 1.472735000000000016e-01 2.042950000000000088e+01 1.434424999999999955e+02 1.990190000000000055e+03
1.420000000000000151e-01 1.472245000000000081e-01 1.976780000000000115e+01 1.422359999999999900e+02 1.989714999999999918e+03
1.430000000000000160e-01 1.471815000000000206e-01 1.919749999999999801e+01 1.412249999999999943e+02 1.989289999999999964e+03
1.440000000000000169e-01 1.471439999999999970e-01 1.872225000000000250e+01 1.404139999999999873e+02 1.988925000000000182e+03
1.450000000000000178e-01 1.471139999999999948e-01 1.834264999999999901e+01 1.398029999999999973e+02 1.988619999999999891e+03
1.459999999999999909e-01 1.470890000000000253e-01 1.805655000000000143e+01 1.393829999999999814e+02 1.988380000000000109e+03
1.469999999999999918e-01 1.470710000000000073e-01 1.785909999999999798e+01 1.391405000000000030e+02 1.988190000000000055e+03
1.479999999999999927e-01 1.470584999999999809e-01 1.774305000000000021e+01 1.390575000000000045e+02 1.988065000000000055e+03
1.489999999999999936e-01 1.470515000000000017e-01 1.769924999999999926e+01 1.391119999999999948e+02 1.987990000000000009e+03
1.499999999999999944e-01 1.470489999999999853e-01 1.771715000000000018e+01 1.392785000000000082e+02 1.987960000000000036e+03
1.509999999999999953e-01 1.470505000000000007e-01 1.778515000000000157e+01 1.395319999999999823e+02 1.987965000000000146e+03
1.519999999999999962e-01 1.470555000000000057e-01 1.789114999999999966e+01 1.398454999999999870e+02 1.988005000000000109e+03
1.529999999999999971e-01 1.470624999999999849e-01 1.802304999999999779e+01 1.401929999999999836e+02 1.988070000000000164e+03
1.539999999999999980e-01 1.470710000000000073e-01 1.816920000000000002e+01 1.405509999999999877e+02 1.988150000000000091e+03
1.549999999999999989e-01 1.470799999999999885e-01 1.831859999999999999e+01 1.408979999999999961e+02 1.988230000000000018e+03
1.559999999999999998e-01 1.470894999999999841e-01 1.846154999999999902e+01 1.412155000000000200e+02 1.988320000000000164e+03
1.570000000000000007e-01 1.470984999999999931e-01 1.858970000000000056e+01 1.414869999999999948e+02 1.988404999999999973e+03
1.580000000000000016e-01 1.471060000000000145e-01 1.869630000000000081e+01 1.417024999999999864e+02 1.988480000000000018e+03
1.590000000000000024e-01 1.471129999999999938e-01 1.877629999999999910e+01 1.418540000000000134e+02 1.988545000000000073e+03
