# t [s], A [cm^2], U [cm/s], P [cPa], c [cm/s]
1.000000000000000021e-03 1.564984999999999848e-01 2.904930000000000012e-01 9.884209999999998786e+01 1.951569999999999936e+03
2.000000000000000042e-03 1.564669999999999950e-01 1.789901499999999812e+00 9.578524999999999068e+01 1.951244999999999891e+03
3.000000000000000062e-03 1.563625000000000154e-01 3.637508000000000408e+00 9.167425000000000068e+01 1.950240000000000009e+03
4.000000000000000083e-03 1.562115000000000031e-01 5.697169999999999845e+00 8.710415000000000418e+01 1.948800000000000182e+03
5.000000000000000104e-03 1.560400000000000120e-01 7.910425000000000040e+00 8.285535000000000139e+01 1.947190000000000055e+03
6.000000000000000125e-03 1.558694999999999942e-01 1.014974499999999935e+01 7.929080000000000439e+01 1.945599999999999909e+03
7.000000000000000146e-03 1.557064999999999977e-01 1.223463000000000100e+01 7.630984999999999729e+01 1.944099999999999909e+03
8.000000000000000167e-03 1.555544999999999844e-01 1.404857499999999959e+01 7.367300000000000182e+01 1.942724999999999909e+03
9.000000000000001055e-03 1.554159999999999986e-01 1.558994999999999997e+01 7.132654999999999745e+01 1.941494999999999891e+03
1.000000000000000194e-02 1.552950000000000164e-01 1.689424999999999955e+01 6.933740000000000236e+01 1.940424999999999955e+03
1.099999999999999936e-02 1.551925000000000110e-01 1.798049999999999926e+01 6.772324999999999307e+01 1.939535000000000082e+03
1.200000000000000025e-02 1.551075000000000093e-01 1.885989999999999966e+01 6.644469999999999743e+01 1.938805000000000064e+03
1.300000000000000114e-02 1.550385000000000235e-01 1.954084999999999894e+01 6.543919999999999959e+01 1.938215000000000146e+03
1.400000000000000203e-02 1.549824999999999953e-01 2.002694999999999936e+01 6.461984999999999957e+01 1.937744999999999891e+03
1.499999999999999944e-02 1.549360000000000182e-01 2.033559999999999945e+01 6.391100000000000136e+01 1.937365000000000009e+03
1.600000000000000033e-02 1.548984999999999945e-01 2.052590000000000003e+01 6.333374999999999488e+01 1.937065000000000055e+03
1.700000000000000122e-02 1.548720000000000097e-01 2.070094999999999885e+01 6.305190000000000339e+01 1.936860000000000127e+03
1.800000000000000211e-02 1.548630000000000007e-01 2.097205000000000297e+01 6.331090000000000373e+01 1.936800000000000182e+03
1.900000000000000300e-02 1.548765000000000003e-01 2.140925000000000011e+01 6.430064999999999031e+01 1.936929999999999836e+03
2.000000000000000042e-02 1.549149999999999971e-01 2.200829999999999842e+01 6.603289999999999793e+01 1.937269999999999982e+03
2.100000000000000130e-02 1.549754999999999883e-01 2.269245000000000090e+01 6.830240000000000578e+01 1.937800000000000182e+03
2.200000000000000219e-02 1.550489999999999924e-01 2.334190000000000254e+01 7.074354999999999905e+01 1.938454999999999927e+03
2.299999999999999961e-02 1.551254999999999995e-01 2.383599999999999852e+01 7.294640000000001123e+01 1.939139999999999873e+03
2.400000000000000050e-02 1.551934999999999842e-01 2.409025000000000105e+01 7.457974999999999000e+01 1.939750000000000000e+03
2.500000000000000139e-02 1.552455000000000085e-01 2.407670000000000243e+01 7.547569999999998913e+01 1.940235000000000127e+03
2.600000000000000228e-02 1.552775000000000127e-01 2.382319999999999993e+01 7.565420000000000300e+01 1.940539999999999964e+03
2.700000000000000316e-02 1.552910000000000124e-01 2.339634999999999820e+01 7.528624999999999545e+01 1.940684999999999945e+03
2.800000000000000058e-02 1.552904999999999980e-01 2.287444999999999951e+01 7.461769999999999925e+01 1.940700000000000045e+03
2.900000000000000147e-02 1.552815000000000167e-01 2.232269999999999754e+01 7.388309999999999889e+01 1.940630000000000109e+03
3.000000000000000236e-02 1.552695000000000047e-01 2.177689999999999770e+01 7.323940000000000339e+01 1.940529999999999973e+03
3.099999999999999978e-02 1.552570000000000061e-01 2.124014999999999986e+01 7.273645000000000493e+01 1.940420000000000073e+03
3.200000000000000067e-02 1.552449999999999941e-01 2.069030000000000058e+01 7.232694999999999652e+01 1.940320000000000164e+03
3.300000000000000155e-02 1.552319999999999811e-01 2.009485000000000099e+01 7.190540000000000020e+01 1.940210000000000036e+03
3.400000000000000244e-02 1.552160000000000206e-01 1.942779999999999774e+01 7.136050000000000182e+01 1.940069999999999936e+03
3.500000000000000333e-02 1.551954999999999862e-01 1.868269999999999698e+01 7.062395000000000778e+01 1.939889999999999873e+03
3.600000000000000422e-02 1.551679999999999726e-01 1.788009999999999877e+01 6.970239999999999725e+01 1.939660000000000082e+03
3.700000000000000511e-02 1.551365000000000105e-01 1.706589999999999918e+01 6.868524999999999636e+01 1.939389999999999873e+03
3.799999999999999906e-02 1.551035000000000053e-01 1.630279999999999774e+01 6.772610000000000241e+01 1.939099999999999909e+03
3.899999999999999994e-02 1.550750000000000184e-01 1.565634999999999977e+01 6.700589999999999691e+01 1.938849999999999909e+03
4.000000000000000083e-02 1.550544999999999840e-01 1.518015000000000114e+01 6.668715000000000259e+01 1.938664999999999964e+03
4.100000000000000172e-02 1.550475000000000048e-01 1.490365000000000073e+01 6.687299999999999045e+01 1.938589999999999918e+03
4.200000000000000261e-02 1.550555000000000128e-01 1.482610000000000028e+01 6.758140000000000214e+01 1.938650000000000091e+03
4.300000000000000350e-02 1.550794999999999813e-01 1.491655000000000086e+01 6.873904999999999177e+01 1.938840000000000146e+03
4.400000000000000439e-02 1.551155000000000173e-01 1.511994999999999933e+01 7.019544999999999391e+01 1.939150000000000091e+03
4.499999999999999833e-02 1.551605000000000067e-01 1.536724999999999852e+01 7.175104999999999222e+01 1.939539999999999964e+03
4.599999999999999922e-02 1.552084999999999992e-01 1.558605000000000018e+01 7.319150000000000489e+01 1.939949999999999818e+03
4.700000000000000011e-02 1.552520000000000011e-01 1.571069999999999922e+01 7.432099999999999795e+01 1.940329999999999927e+03
4.800000000000000100e-02 1.552859999999999796e-01 1.568984999999999985e+01 7.498784999999999457e+01 1.940639999999999873e+03
4.900000000000000189e-02 1.553065000000000140e-01 1.549030000000000129e+01 7.509954999999999359e+01 1.940825000000000045e+03
5.000000000000000278e-02 1.553094999999999892e-01 1.509745000000000026e+01 7.462545000000000073e+01 1.940860000000000127e+03
5.100000000000000366e-02 1.552950000000000164e-01 1.451355000000000040e+01 7.359040000000000248e+01 1.940740000000000009e+03
5.200000000000000455e-02 1.552624999999999977e-01 1.375360000000000049e+01 7.206080000000000041e+01 1.940460000000000036e+03
5.300000000000000544e-02 1.552129999999999899e-01 1.284130000000000038e+01 7.012874999999999659e+01 1.940039999999999964e+03
5.399999999999999939e-02 1.551500000000000101e-01 1.180493500000000040e+01 6.789660000000000650e+01 1.939490000000000009e+03
5.500000000000000028e-02 1.550765000000000060e-01 1.067497000000000007e+01 6.546535000000000082e+01 1.938844999999999800e+03
5.600000000000000117e-02 1.549940000000000206e-01 9.481790000000000163e+00 6.292770000000000152e+01 1.938125000000000000e+03
5.700000000000000205e-02 1.549065000000000025e-01 8.255665000000000475e+00 6.036554999999999893e+01 1.937359999999999900e+03
5.800000000000000294e-02 1.548174999999999968e-01 7.026730000000000587e+00 5.785139999999999816e+01 1.936570000000000164e+03
5.900000000000000383e-02 1.547279999999999767e-01 5.825630000000000308e+00 5.545120000000000005e+01 1.935785000000000082e+03
6.000000000000000472e-02 1.546414999999999873e-01 4.683824999999999683e+00 5.322834999999999894e+01 1.935019999999999982e+03
6.099999999999999867e-02 1.545600000000000029e-01 3.633677000000000046e+00 5.124559999999999604e+01 1.934295000000000073e+03
6.199999999999999956e-02 1.544864999999999988e-01 2.707939000000000096e+00 4.956664999999999566e+01 1.933644999999999982e+03
6.300000000000000044e-02 1.544230000000000047e-01 1.938671849999999974e+00 4.825440000000000396e+01 1.933079999999999927e+03
6.400000000000000133e-02 1.543720000000000092e-01 1.355747499999999883e+00 4.736870000000000402e+01 1.932619999999999891e+03
6.500000000000000222e-02 1.543355000000000143e-01 9.851867500000000000e-01 4.696200000000000330e+01 1.932284999999999854e+03
6.600000000000000311e-02 1.543160000000000087e-01 8.474455000000000737e-01 4.707540000000000191e+01 1.932095000000000027e+03
6.700000000000000400e-02 1.543140000000000067e-01 9.560290000000000177e-01 4.773444999999999538e+01 1.932065000000000055e+03
6.800000000000000488e-02 1.543309999999999960e-01 1.316509499999999999e+00 4.894665000000000532e+01 1.932200000000000045e+03
6.900000000000000577e-02 1.543680000000000052e-01 1.926109999999999989e+00 5.070005000000000450e+01 1.932505000000000109e+03
7.000000000000000666e-02 1.544245000000000201e-01 2.773833499999999841e+00 5.296320000000000050e+01 1.932974999999999909e+03
7.100000000000000755e-02 1.544984999999999831e-01 3.841159999999999908e+00 5.568744999999999834e+01 1.933615000000000009e+03
7.200000000000000844e-02 1.545900000000000052e-01 5.103130000000000166e+00 5.880949999999999989e+01 1.934400000000000091e+03
7.300000000000000933e-02 1.546954999999999858e-01 6.529745000000000132e+00 6.225569999999999737e+01 1.935315000000000055e+03
7.399999999999999634e-02 1.548140000000000072e-01 8.087650000000000006e+00 6.594620000000000459e+01 1.936345000000000027e+03
7.499999999999999722e-02 1.549415000000000098e-01 9.741649999999999920e+00 6.979959999999999809e+01 1.937469999999999800e+03
7.599999999999999811e-02 1.550770000000000204e-01 1.145657500000000084e+01 7.373705000000001064e+01 1.938659999999999854e+03
7.699999999999999900e-02 1.552169999999999939e-01 1.319875000000000043e+01 7.768639999999999191e+01 1.939884999999999991e+03
7.799999999999999989e-02 1.553585000000000105e-01 1.493720000000000070e+01 8.158494999999999209e+01 1.941139999999999873e+03
7.900000000000000078e-02 1.554999999999999993e-01 1.664509999999999934e+01 8.538214999999999577e+01 1.942400000000000091e+03
8.000000000000000167e-02 1.556400000000000006e-01 1.829994999999999905e+01 8.904064999999999941e+01 1.943639999999999873e+03
8.100000000000000255e-02 1.557759999999999978e-01 1.988485000000000014e+01 9.253704999999999359e+01 1.944855000000000018e+03
8.200000000000000344e-02 1.559074999999999767e-01 2.138785000000000025e+01 9.586115000000000919e+01 1.946039999999999964e+03
8.300000000000000433e-02 1.560345000000000204e-01 2.280209999999999937e+01 9.901505000000000223e+01 1.947174999999999955e+03
8.400000000000000522e-02 1.561560000000000170e-01 2.412519999999999953e+01 1.020099999999999909e+02 1.948269999999999982e+03
8.500000000000000611e-02 1.562719999999999942e-01 2.535835000000000150e+01 1.048641000000000076e+02 1.949325000000000045e+03
8.600000000000000699e-02 1.563844999999999819e-01 2.650569999999999737e+01 1.075999999999999943e+02 1.950335000000000036e+03
8.700000000000000788e-02 1.564929999999999932e-01 2.757290000000000063e+01 1.102429999999999950e+02 1.951320000000000164e+03
8.800000000000000877e-02 1.565980000000000150e-01 2.856680000000000064e+01 1.128149999999999977e+02 1.952269999999999982e+03
8.899999999999999578e-02 1.567000000000000060e-01 2.949405000000000143e+01 1.153359999999999985e+02 1.953199999999999818e+03
8.999999999999999667e-02 1.568005000000000093e-01 3.036070000000000135e+01 1.178204999999999956e+02 1.954115000000000009e+03
9.099999999999999756e-02 1.568994999999999973e-01 3.117149999999999821e+01 1.202775000000000034e+02 1.955009999999999991e+03
9.199999999999999845e-02 1.569964999999999833e-01 3.192954999999999899e+01 1.227090000000000032e+02 1.955900000000000091e+03
9.299999999999999933e-02 1.570929999999999827e-01 3.263635000000000019e+01 1.251109999999999900e+02 1.956775000000000091e+03
9.400000000000000022e-02 1.571874999999999800e-01 3.329144999999999754e+01 1.274754999999999967e+02 1.957634999999999991e+03
9.500000000000000111e-02 1.572810000000000041e-01 3.389265000000000327e+01 1.297860000000000014e+02 1.958490000000000009e+03
9.600000000000000200e-02 1.573720000000000119e-01 3.443639999999999901e+01 1.320255000000000223e+02 1.959319999999999936e+03
9.700000000000000289e-02 1.574599999999999889e-01 3.491779999999999973e+01 1.341734999999999900e+02 1.960125000000000000e+03
9.800000000000000377e-02 1.575455000000000050e-01 3.533104999999999762e+01 1.362069999999999936e+02 1.960900000000000091e+03
9.900000000000000466e-02 1.576259999999999883e-01 3.567000000000000171e+01 1.381030000000000086e+02 1.961634999999999991e+03
1.000000000000000056e-01 1.577014999999999945e-01 3.592810000000000059e+01 1.398410000000000082e+02 1.962335000000000036e+03
1.010000000000000064e-01 1.577715000000000090e-01 3.609929999999999950e+01 1.413999999999999773e+02 1.962974999999999909e+03
1.020000000000000073e-01 1.578350000000000031e-01 3.617775000000000318e+01 1.427610000000000241e+02 1.963555000000000064e+03
1.030000000000000082e-01 1.578910000000000036e-01 3.615885000000000105e+01 1.439094999999999800e+02 1.964079999999999927e+03
1.040000000000000091e-01 1.579399999999999971e-01 3.603909999999999769e+01 1.448344999999999914e+02 1.964530000000000200e+03
1.050000000000000100e-01 1.579804999999999959e-01 3.581640000000000157e+01 1.455285000000000082e+02 1.964905000000000200e+03
1.059999999999999970e-01 1.580125000000000002e-01 3.549044999999999561e+01 1.459895000000000209e+02 1.965210000000000036e+03
1.069999999999999979e-01 1.580364999999999964e-01 3.506289999999999907e+01 1.462185000000000059e+02 1.965434999999999945e+03
1.079999999999999988e-01 1.580515000000000114e-01 3.453735000000000355e+01 1.462235000000000014e+02 1.965579999999999927e+03
1.089999999999999997e-01 1.580584999999999907e-01 3.391939999999999600e+01 1.460159999999999911e+02 1.965655000000000200e+03
1.100000000000000006e-01 1.580580000000000040e-01 3.321649999999999636e+01 1.456120000000000232e+02 1.965654999999999973e+03
1.110000000000000014e-01 1.580489999999999950e-01 3.243775000000000119e+01 1.450319999999999823e+02 1.965589999999999918e+03
1.120000000000000023e-01 1.580340000000000078e-01 3.159380000000000166e+01 1.442980000000000018e+02 1.965465000000000146e+03
1.130000000000000032e-01 1.580130000000000146e-01 3.069624999999999915e+01 1.434359999999999786e+02 1.965279999999999973e+03
1.140000000000000041e-01 1.579865000000000019e-01 2.975750000000000028e+01 1.424724999999999966e+02 1.965045000000000073e+03
1.150000000000000050e-01 1.579559999999999853e-01 2.879009999999999891e+01 1.414345000000000141e+02 1.964775000000000091e+03
1.160000000000000059e-01 1.579220000000000068e-01 2.780644999999999811e+01 1.403474999999999966e+02 1.964469999999999800e+03
1.170000000000000068e-01 1.578855000000000119e-01 2.681839999999999691e+01 1.392350000000000136e+02 1.964139999999999873e+03
1.180000000000000077e-01 1.578479999999999883e-01 2.583680000000000021e+01 1.381189999999999998e+02 1.963799999999999955e+03
1.190000000000000085e-01 1.578094999999999914e-01 2.487124999999999986e+01 1.370169999999999959e+02 1.963454999999999927e+03
1.200000000000000094e-01 1.577704999999999802e-01 2.392985000000000184e+01 1.359445000000000050e+02 1.963099999999999909e+03
1.209999999999999964e-01 1.577320000000000111e-01 2.301890000000000214e+01 1.349114999999999895e+02 1.962750000000000000e+03
1.219999999999999973e-01 1.576945000000000152e-01 2.214289999999999736e+01 1.339239999999999782e+02 1.962409999999999854e+03
1.229999999999999982e-01 1.576579999999999926e-01 2.130450000000000088e+01 1.329830000000000041e+02 1.962075000000000045e+03
1.239999999999999991e-01 1.576230000000000131e-01 2.050440000000000040e+01 1.320885000000000105e+02 1.961750000000000000e+03
1.250000000000000000e-01 1.575885000000000202e-01 1.974170000000000158e+01 1.312334999999999923e+02 1.961440000000000055e+03
1.260000000000000009e-01 1.575555000000000150e-01 1.901379999999999981e+01 1.304099999999999966e+02 1.961134999999999991e+03
1.270000000000000018e-01 1.575234999999999830e-01 1.831685000000000230e+01 1.296064999999999827e+02 1.960845000000000027e+03
1.280000000000000027e-01 1.574920000000000209e-01 1.764580000000000126e+01 1.288104999999999905e+02 1.960550000000000182e+03
1.290000000000000036e-01 1.574605000000000032e-01 1.699490000000000123e+01 1.280070000000000050e+02 1.960265000000000100e+03
1.300000000000000044e-01 1.574289999999999856e-01 1.635784999999999911e+01 1.271825000000000045e+02 1.959974999999999909e+03
1.310000000000000053e-01 1.573964999999999947e-01 1.572819999999999929e+01 1.263220000000000027e+02 1.959675000000000182e+03
1.320000000000000062e-01 1.573625000000000163e-01 1.509975000000000023e+01 1.254129999999999967e+02 1.959369999999999891e+03
1.330000000000000071e-01 1.573269999999999946e-01 1.446669999999999945e+01 1.244429999999999978e+02 1.959049999999999955e+03
1.340000000000000080e-01 1.572899999999999854e-01 1.382404999999999973e+01 1.234030000000000058e+02 1.958710000000000036e+03
1.350000000000000089e-01 1.572500000000000009e-01 1.316784999999999961e+01 1.222874999999999943e+02 1.958345000000000027e+03
1.360000000000000098e-01 1.572075000000000000e-01 1.249535000000000018e+01 1.210930000000000035e+02 1.957965000000000146e+03
1.370000000000000107e-01 1.571625000000000105e-01 1.180524000000000129e+01 1.198185000000000002e+02 1.957555000000000064e+03
1.380000000000000115e-01 1.571144999999999903e-01 1.109761500000000112e+01 1.184685000000000059e+02 1.957119999999999891e+03
1.390000000000000124e-01 1.570639999999999814e-01 1.037417500000000103e+01 1.170500000000000114e+02 1.956664999999999964e+03
1.400000000000000133e-01 1.570110000000000117e-01 9.637999999999999901e+00 1.155734999999999957e+02 1.956184999999999945e+03
1.410000000000000142e-01 1.569559999999999844e-01 8.893560000000000798e+00 1.140515000000000043e+02 1.955690000000000055e+03
1.420000000000000151e-01 1.568990000000000107e-01 8.146539999999999893e+00 1.125010000000000048e+02 1.955179999999999836e+03
1.430000000000000160e-01 1.568414999999999948e-01 7.403564999999999507e+00 1.109389999999999930e+02 1.954659999999999854e+03
1.440000000000000169e-01 1.567824999999999913e-01 6.671944999999999126e+00 1.093840000000000003e+02 1.954125000000000000e+03
1.450000000000000178e-01 1.567240000000000022e-01 5.959374999999999645e+00 1.078549999999999898e+02 1.953605000000000018e+03
1.459999999999999909e-01 1.566664999999999863e-01 5.273620000000000196e+00 1.063709999999999951e+02 1.953085000000000036e+03
1.469999999999999918e-01 1.566104999999999858e-01 4.622194999999999609e+00 1.049500000000000028e+02 1.952570000000000164e+03
1.479999999999999927e-01 1.565560000000000007e-01 4.012089999999999712e+00 1.036075000000000017e+02 1.952085000000000036e+03
1.489999999999999936e-01 1.565044999999999908e-01 3.449475000000000069e+00 1.023569500000000119e+02 1.951615000000000009e+03
1.499999999999999944e-01 1.564554999999999974e-01 2.939519999999999911e+00 1.012100000000000080e+02 1.951175000000000182e+03
1.509999999999999953e-01 1.564105000000000079e-01 2.486189000000000426e+00 1.001739500000000049e+02 1.950764999999999873e+03
1.519999999999999962e-01 1.563689999999999802e-01 2.092189999999999994e+00 9.925355000000000416e+01 1.950384999999999991e+03
1.529999999999999971e-01 1.563315000000000121e-01 1.758877500000000094e+00 9.845060000000000855e+01 1.950045000000000073e+03
1.539999999999999980e-01 1.562990000000000212e-01 1.486284500000000008e+00 9.776385000000000502e+01 1.949744999999999891e+03
1.549999999999999989e-01 1.562695000000000056e-01 1.273187000000000069e+00 9.718899999999999295e+01 1.949474999999999909e+03
1.559999999999999998e-01 1.562445000000000084e-01 1.117179499999999992e+00 9.671970000000000312e+01 1.949250000000000000e+03
1.570000000000000007e-01 1.562235000000000151e-01 1.014847000000000055e+00 9.634729999999998995e+01 1.949049999999999955e+03
1.580000000000000016e-01 1.562054999999999971e-01 9.619030000000000635e-01 9.606184999999999263e+01 1.948884999999999991e+03
1.590000000000000024e-01 1.561914999999999831e-01 9.533760000000000012e-01 9.585214999999999463e+01 1.948755000000000109e+03
