# t [s], A [cm^2], U [cm/s], P [cPa], c [cm/s]
1.000000000000000021e-03 6.460985000000000200e-01 6.658100000000000129e-03 9.529319999999999879e+01 1.727019999999999982e+03
2.000000000000000042e-03 6.460859999999999381e-01 -5.038164999999999831e-03 9.525745000000000573e+01 1.727009999999999991e+03
3.000000000000000062e-03 6.461379999999999901e-01 9.374200000000000588e-02 9.536979999999999791e+01 1.727039999999999964e+03
4.000000000000000083e-03 6.461855000000000793e-01 1.973937799999999909e-01 9.550130000000000052e+01 1.727069999999999936e+03
5.000000000000000104e-03 6.461520000000000596e-01 1.649582500000000007e-01 9.541964999999999009e+01 1.727050000000000182e+03
6.000000000000000125e-03 6.460809999999999054e-01 5.859849999999999781e-02 9.516094999999999970e+01 1.726994999999999891e+03
7.000000000000000146e-03 6.460250000000000714e-01 -2.882450000000003065e-02 9.486244999999999550e+01 1.726924999999999955e+03
8.000000000000000167e-03 6.459319999999999506e-01 -1.989900000000000002e-01 9.441535000000000366e+01 1.726819999999999936e+03
9.000000000000001055e-03 6.457790000000001029e-01 -5.030650000000000954e-01 9.372520000000000095e+01 1.726670000000000073e+03
1.000000000000000194e-02 6.455629999999999979e-01 -9.412050000000000693e-01 9.275194999999999368e+01 1.726454999999999927e+03
1.099999999999999936e-02 6.452610000000000845e-01 -1.547274999999999956e+00 9.140809999999999036e+01 1.726150000000000091e+03
1.200000000000000025e-02 6.448670000000000790e-01 -2.315154999999999852e+00 8.964760000000001128e+01 1.725744999999999891e+03
1.300000000000000114e-02 6.444320000000000048e-01 -3.123915000000000219e+00 8.759035000000000082e+01 1.725259999999999991e+03
1.400000000000000203e-02 6.440360000000000529e-01 -3.786666999999999561e+00 8.549169999999999447e+01 1.724750000000000000e+03
1.499999999999999944e-02 6.437349999999999461e-01 -4.157847999999999544e+00 8.359950000000000614e+01 1.724259999999999991e+03
1.600000000000000033e-02 6.435334999999999805e-01 -4.195832499999999854e+00 8.203804999999999836e+01 1.723829999999999927e+03
1.700000000000000122e-02 6.433930000000001037e-01 -3.957304999999999851e+00 8.078034999999999854e+01 1.723454999999999927e+03
1.800000000000000211e-02 6.432594999999999841e-01 -3.552100000000000257e+00 7.969114999999999327e+01 1.723119999999999891e+03
1.900000000000000300e-02 6.430839999999999890e-01 -3.090040999999999816e+00 7.860114999999998986e+01 1.722784999999999854e+03
2.000000000000000042e-02 6.428439999999999710e-01 -2.640260999999999747e+00 7.737919999999999732e+01 1.722420000000000073e+03
2.100000000000000130e-02 6.425454999999999917e-01 -2.214106499999999755e+00 7.597655000000000314e+01 1.722025000000000091e+03
2.200000000000000219e-02 6.422160000000000091e-01 -1.774999999999999911e+00 7.443205000000000382e+01 1.721590000000000146e+03
2.299999999999999961e-02 6.418885000000000840e-01 -1.267979999999999885e+00 7.283910000000000196e+01 1.721144999999999982e+03
2.400000000000000050e-02 6.415869999999999074e-01 -6.539399999999997437e-01 7.129425000000000523e+01 1.720704999999999927e+03
2.500000000000000139e-02 6.413174999999999848e-01 6.621500000000013486e-02 6.985099999999999909e+01 1.720284999999999854e+03
2.600000000000000228e-02 6.410624999999999796e-01 8.442400000000001015e-01 6.849455000000000382e+01 1.719884999999999991e+03
2.700000000000000316e-02 6.407909999999999995e-01 1.593445000000000222e+00 6.714070000000000960e+01 1.719480000000000018e+03
2.800000000000000058e-02 6.404644999999999921e-01 2.209175000000000111e+00 6.565845000000000198e+01 1.719059999999999945e+03
2.900000000000000147e-02 6.400519999999999543e-01 2.595089999999999897e+00 6.390644999999999953e+01 1.718579999999999927e+03
3.000000000000000236e-02 6.395349999999999646e-01 2.688704999999999679e+00 6.177644999999999698e+01 1.718029999999999973e+03
3.099999999999999978e-02 6.389190000000000147e-01 2.478404999999999969e+00 5.922920000000000584e+01 1.717380000000000109e+03
3.200000000000000067e-02 6.382300000000000750e-01 2.005814999999999682e+00 5.631119999999999948e+01 1.716644999999999982e+03
3.300000000000000155e-02 6.375094999999999512e-01 1.353045000000000275e+00 5.314685000000000059e+01 1.715855000000000018e+03
3.400000000000000244e-02 6.368030000000000079e-01 6.205149999999992616e-01 4.991069999999999851e+01 1.715034999999999854e+03
3.500000000000000333e-02 6.361529999999999685e-01 -9.487000000000023192e-02 4.679175000000000040e+01 1.714224999999999909e+03
3.600000000000000422e-02 6.355895000000000294e-01 -7.159050000000002356e-01 4.396205000000000496e+01 1.713474999999999909e+03
3.700000000000000511e-02 6.351324999999999887e-01 -1.192120000000000068e+00 4.155454999999999899e+01 1.712819999999999936e+03
3.799999999999999906e-02 6.347869999999999902e-01 -1.499249999999999972e+00 3.965460000000000207e+01 1.712275000000000091e+03
3.899999999999999994e-02 6.345534999999999926e-01 -1.633234999999999992e+00 3.830089999999999861e+01 1.711860000000000127e+03
4.000000000000000083e-02 6.344250000000000167e-01 -1.601712000000000025e+00 3.749500000000000455e+01 1.711579999999999927e+03
4.100000000000000172e-02 6.343940000000000135e-01 -1.415271500000000016e+00 3.721495000000000175e+01 1.711440000000000055e+03
4.200000000000000261e-02 6.344529999999999337e-01 -1.080844499999999986e+00 3.742895000000000039e+01 1.711429999999999836e+03
4.300000000000000350e-02 6.346000000000000529e-01 -5.985149999999999082e-01 3.810625000000000284e+01 1.711539999999999964e+03
4.400000000000000439e-02 6.348314999999999930e-01 3.774500000000013955e-02 3.922225000000000250e+01 1.711769999999999982e+03
4.499999999999999833e-02 6.351485000000000047e-01 8.362900000000001999e-01 4.075795000000000101e+01 1.712114999999999782e+03
4.599999999999999922e-02 6.355470000000000841e-01 1.802655000000000118e+00 4.269549999999999557e+01 1.712565000000000055e+03
4.700000000000000011e-02 6.360240000000000338e-01 2.934844999999999260e+00 4.501165000000000305e+01 1.713115000000000009e+03
4.800000000000000100e-02 6.365704999999999281e-01 4.220525000000000304e+00 4.767269999999999897e+01 1.713759999999999991e+03
4.900000000000000189e-02 6.371744999999999770e-01 5.636544999999999916e+00 5.063150000000000261e+01 1.714485000000000127e+03
5.000000000000000278e-02 6.378209999999999713e-01 7.150813000000000308e+00 5.382784999999999798e+01 1.715284999999999854e+03
5.100000000000000366e-02 6.384944999999999649e-01 8.725499499999999742e+00 5.719225000000000136e+01 1.716139999999999873e+03
5.200000000000000455e-02 6.391789999999999417e-01 1.032119499999999945e+01 6.065090000000000003e+01 1.717019999999999982e+03
5.300000000000000544e-02 6.398599999999999843e-01 1.190071999999999974e+01 6.413214999999999577e+01 1.717925000000000182e+03
5.399999999999999939e-02 6.405254999999999699e-01 1.343242000000000047e+01 6.757224999999999682e+01 1.718829999999999927e+03
5.500000000000000028e-02 6.411675000000000013e-01 1.489182500000000076e+01 7.092010000000000502e+01 1.719720000000000027e+03
5.600000000000000117e-02 6.417825000000000335e-01 1.626275000000000048e+01 7.413954999999999984e+01 1.720585000000000036e+03
5.700000000000000205e-02 6.423674999999999802e-01 1.753655000000000186e+01 7.721049999999999613e+01 1.721424999999999955e+03
5.800000000000000294e-02 6.429234999999999811e-01 1.871134999999999948e+01 8.012744999999999607e+01 1.722230000000000018e+03
5.900000000000000383e-02 6.434549999999999992e-01 1.979035000000000011e+01 8.289754999999999541e+01 1.723000000000000000e+03
6.000000000000000472e-02 6.439650000000000096e-01 2.078040000000000020e+01 8.553740000000000521e+01 1.723735000000000127e+03
6.099999999999999867e-02 6.444600000000000328e-01 2.169055000000000177e+01 8.807014999999999816e+01 1.724445000000000164e+03
6.199999999999999956e-02 6.449435000000000029e-01 2.253095000000000070e+01 9.052189999999998804e+01 1.725135000000000218e+03
6.300000000000000044e-02 6.454219999999999402e-01 2.331145000000000067e+01 9.291910000000000025e+01 1.725809999999999945e+03
6.400000000000000133e-02 6.458984999999999310e-01 2.404090000000000060e+01 9.528560000000000230e+01 1.726469999999999800e+03
6.500000000000000222e-02 6.463764999999999095e-01 2.472635000000000005e+01 9.763925000000000409e+01 1.727130000000000109e+03
6.600000000000000311e-02 6.468570000000000153e-01 2.537214999999999776e+01 9.999349999999999739e+01 1.727784999999999854e+03
6.700000000000000400e-02 6.473389999999999977e-01 2.597970000000000113e+01 1.023508999999999958e+02 1.728434999999999945e+03
6.800000000000000488e-02 6.478204999999999103e-01 2.654749999999999943e+01 1.047079999999999984e+02 1.729089999999999918e+03
6.900000000000000577e-02 6.482995000000000285e-01 2.707130000000000081e+01 1.070515000000000043e+02 1.729740000000000009e+03
7.000000000000000666e-02 6.487694999999999990e-01 2.754480000000000217e+01 1.093635000000000019e+02 1.730384999999999991e+03
7.100000000000000755e-02 6.492275000000000684e-01 2.796045000000000158e+01 1.116194999999999879e+02 1.731009999999999991e+03
7.200000000000000844e-02 6.496660000000000768e-01 2.831024999999999991e+01 1.137934999999999945e+02 1.731619999999999891e+03
7.300000000000000933e-02 6.500799999999999912e-01 2.858644999999999925e+01 1.158580000000000041e+02 1.732204999999999927e+03
7.399999999999999634e-02 6.504664999999999475e-01 2.878269999999999840e+01 1.177890000000000015e+02 1.732755000000000109e+03
7.499999999999999722e-02 6.508194999999999952e-01 2.889365000000000094e+01 1.195629999999999882e+02 1.733264999999999873e+03
7.599999999999999811e-02 6.511370000000000768e-01 2.891594999999999871e+01 1.211624999999999943e+02 1.733730000000000018e+03
7.699999999999999900e-02 6.514170000000000238e-01 2.884805000000000064e+01 1.225730000000000075e+02 1.734150000000000091e+03
7.799999999999999989e-02 6.516575000000000006e-01 2.869004999999999939e+01 1.237870000000000061e+02 1.734519999999999982e+03
7.900000000000000078e-02 6.518585000000000074e-01 2.844399999999999906e+01 1.248004999999999995e+02 1.734829999999999927e+03
8.000000000000000167e-02 6.520209999999999617e-01 2.811379999999999768e+01 1.256154999999999973e+02 1.735090000000000146e+03
8.100000000000000255e-02 6.521460000000000035e-01 2.770490000000000208e+01 1.262385000000000019e+02 1.735300000000000182e+03
8.200000000000000344e-02 6.522369999999999557e-01 2.722469999999999857e+01 1.266790000000000020e+02 1.735460000000000036e+03
8.300000000000000433e-02 6.522955000000000281e-01 2.668189999999999884e+01 1.269524999999999864e+02 1.735570000000000164e+03
8.400000000000000522e-02 6.523255000000000026e-01 2.608684999999999832e+01 1.270769999999999982e+02 1.735639999999999873e+03
8.500000000000000611e-02 6.523324999999999818e-01 2.545085000000000264e+01 1.270729999999999933e+02 1.735670000000000073e+03
8.600000000000000699e-02 6.523205000000000808e-01 2.478614999999999924e+01 1.269639999999999986e+02 1.735670000000000073e+03
8.700000000000000788e-02 6.522934999999999706e-01 2.410504999999999853e+01 1.267729999999999961e+02 1.735639999999999873e+03
8.800000000000000877e-02 6.522569999999999757e-01 2.341964999999999719e+01 1.265254999999999939e+02 1.735599999999999909e+03
8.899999999999999578e-02 6.522149999999999892e-01 2.274125000000000085e+01 1.262434999999999832e+02 1.735539999999999964e+03
8.999999999999999667e-02 6.521715000000000151e-01 2.207970000000000255e+01 1.259484999999999957e+02 1.735470000000000027e+03
9.099999999999999756e-02 6.521295000000000286e-01 2.144304999999999950e+01 1.256574999999999989e+02 1.735394999999999982e+03
9.199999999999999845e-02 6.520915000000000461e-01 2.083699999999999974e+01 1.253854999999999933e+02 1.735329999999999927e+03
9.299999999999999933e-02 6.520580000000000265e-01 2.026484999999999914e+01 1.251409999999999911e+02 1.735264999999999873e+03
9.400000000000000022e-02 6.520304999999999573e-01 1.972755000000000081e+01 1.249294999999999902e+02 1.735199999999999818e+03
9.500000000000000111e-02 6.520079999999999210e-01 1.922364999999999924e+01 1.247510000000000048e+02 1.735144999999999982e+03
9.600000000000000200e-02 6.519885000000000819e-01 1.874980000000000047e+01 1.246015000000000157e+02 1.735105000000000018e+03
9.700000000000000289e-02 6.519719999999999960e-01 1.830085000000000051e+01 1.244735000000000014e+02 1.735059999999999945e+03
9.800000000000000377e-02 6.519550000000000622e-01 1.787034999999999840e+01 1.243574999999999875e+02 1.735025000000000091e+03
9.900000000000000466e-02 6.519345000000000834e-01 1.745104999999999862e+01 1.242415000000000020e+02 1.734985000000000127e+03
1.000000000000000056e-01 6.519099999999999895e-01 1.703545000000000087e+01 1.241110000000000042e+02 1.734944999999999936e+03
1.010000000000000064e-01 6.518774999999999986e-01 1.661585000000000178e+01 1.239550000000000125e+02 1.734900000000000091e+03
1.020000000000000073e-01 6.518344999999999834e-01 1.618524999999999991e+01 1.237605000000000075e+02 1.734845000000000027e+03
1.030000000000000082e-01 6.517804999999999849e-01 1.573750000000000071e+01 1.235165000000000077e+02 1.734779999999999973e+03
1.040000000000000091e-01 6.517135000000000566e-01 1.526749999999999829e+01 1.232150000000000034e+02 1.734704999999999927e+03
1.050000000000000100e-01 6.516325000000000589e-01 1.477179999999999893e+01 1.228505000000000109e+02 1.734610000000000127e+03
1.059999999999999970e-01 6.515385000000000204e-01 1.424885000000000090e+01 1.224215000000000089e+02 1.734505000000000109e+03
1.069999999999999979e-01 6.514314999999999412e-01 1.369875000000000043e+01 1.219300000000000068e+02 1.734375000000000000e+03
1.079999999999999988e-01 6.513139999999999485e-01 1.312367000000000061e+01 1.213799999999999955e+02 1.734235000000000127e+03
1.089999999999999997e-01 6.511879999999999891e-01 1.252762500000000045e+01 1.207824999999999989e+02 1.734085000000000036e+03
1.100000000000000006e-01 6.510555000000000092e-01 1.191627000000000081e+01 1.201484999999999985e+02 1.733920000000000073e+03
1.110000000000000014e-01 6.509205000000000130e-01 1.129677500000000023e+01 1.194934999999999974e+02 1.733744999999999891e+03
1.120000000000000023e-01 6.507864999999999345e-01 1.067729500000000087e+01 1.188340000000000032e+02 1.733574999999999818e+03
1.130000000000000032e-01 6.506574999999999998e-01 1.006664499999999940e+01 1.181889999999999930e+02 1.733400000000000091e+03
1.140000000000000041e-01 6.505370000000000319e-01 9.473869999999999791e+00 1.175765000000000100e+02 1.733235000000000127e+03
1.150000000000000050e-01 6.504290000000000349e-01 8.907740000000000435e+00 1.170150000000000006e+02 1.733085000000000036e+03
1.160000000000000059e-01 6.503360000000000252e-01 8.376519999999999300e+00 1.165200000000000102e+02 1.732944999999999936e+03
1.170000000000000068e-01 6.502605000000000190e-01 7.887159999999999727e+00 1.161069999999999993e+02 1.732829999999999927e+03
1.180000000000000077e-01 6.502045000000000741e-01 7.445479999999999876e+00 1.157854999999999990e+02 1.732730000000000018e+03
1.190000000000000085e-01 6.501695000000000668e-01 7.055520000000000458e+00 1.155645000000000095e+02 1.732655000000000200e+03
1.200000000000000094e-01 6.501559999999999562e-01 6.719614999999999227e+00 1.154474999999999909e+02 1.732610000000000127e+03
1.209999999999999964e-01 6.501624999999999766e-01 6.438250000000000028e+00 1.154344999999999999e+02 1.732594999999999800e+03
1.219999999999999973e-01 6.501885000000000581e-01 6.210155000000000314e+00 1.155215000000000032e+02 1.732599999999999909e+03
1.229999999999999982e-01 6.502330000000000609e-01 6.032429999999999737e+00 1.157015000000000100e+02 1.732630000000000109e+03
1.239999999999999991e-01 6.502924999999999400e-01 5.900809999999999889e+00 1.159650000000000034e+02 1.732684999999999945e+03
1.250000000000000000e-01 6.503645000000000120e-01 5.809919999999999973e+00 1.162994999999999948e+02 1.732755000000000109e+03
1.260000000000000009e-01 6.504475000000000673e-01 5.753610000000000113e+00 1.166899999999999977e+02 1.732849999999999909e+03
1.270000000000000018e-01 6.505360000000000031e-01 5.725295000000000023e+00 1.171235000000000070e+02 1.732954999999999927e+03
1.280000000000000027e-01 6.506294999999999717e-01 5.718234999999999957e+00 1.175840000000000032e+02 1.733065000000000055e+03
1.290000000000000036e-01 6.507239999999999691e-01 5.725839999999999819e+00 1.180575000000000045e+02 1.733184999999999945e+03
1.300000000000000044e-01 6.508180000000000076e-01 5.741905000000000037e+00 1.185310000000000059e+02 1.733305000000000064e+03
1.310000000000000053e-01 6.509085000000000010e-01 5.760765000000000136e+00 1.189925000000000068e+02 1.733424999999999955e+03
1.320000000000000062e-01 6.509935000000000027e-01 5.777445000000000164e+00 1.194335000000000093e+02 1.733545000000000073e+03
1.330000000000000071e-01 6.510730000000000128e-01 5.787745000000000140e+00 1.198449999999999989e+02 1.733650000000000091e+03
1.340000000000000080e-01 6.511449999999999738e-01 5.788280000000000314e+00 1.202205000000000013e+02 1.733759999999999991e+03
1.350000000000000089e-01 6.512089999999999268e-01 5.776505000000000223e+00 1.205575000000000045e+02 1.733849999999999909e+03
1.360000000000000098e-01 6.512655000000000527e-01 5.750690000000000524e+00 1.208530000000000086e+02 1.733934999999999945e+03
1.370000000000000107e-01 6.513130000000000308e-01 5.709884999999999877e+00 1.211059999999999945e+02 1.734009999999999991e+03
1.380000000000000115e-01 6.513534999999999187e-01 5.653900000000000148e+00 1.213185000000000002e+02 1.734074999999999818e+03
1.390000000000000124e-01 6.513860000000000205e-01 5.583210000000000228e+00 1.214919999999999902e+02 1.734125000000000000e+03
1.400000000000000133e-01 6.514124999999999499e-01 5.498855000000000715e+00 1.216299999999999955e+02 1.734170000000000073e+03
1.410000000000000142e-01 6.514334999999999987e-01 5.402385000000000659e+00 1.217359999999999900e+02 1.734210000000000036e+03
1.420000000000000151e-01 6.514495000000000147e-01 5.295704999999999885e+00 1.218149999999999977e+02 1.734234999999999900e+03
1.430000000000000160e-01 6.514614999999999156e-01 5.180959999999999788e+00 1.218710000000000093e+02 1.734255000000000109e+03
1.440000000000000169e-01 6.514705000000000634e-01 5.060399999999999565e+00 1.219089999999999918e+02 1.734269999999999982e+03
1.450000000000000178e-01 6.514780000000000015e-01 4.936265000000000569e+00 1.219329999999999927e+02 1.734284999999999854e+03
1.459999999999999909e-01 6.514830000000000343e-01 4.810639999999999361e+00 1.219474999999999909e+02 1.734289999999999964e+03
1.469999999999999918e-01 6.514874999999999972e-01 4.685354999999999492e+00 1.219555000000000007e+02 1.734299999999999955e+03
1.479999999999999927e-01 6.514915000000000012e-01 4.561930000000000263e+00 1.219585000000000008e+02 1.734299999999999955e+03
1.489999999999999936e-01 6.514949999999999353e-01 4.441494999999999749e+00 1.219579999999999984e+02 1.734305000000000064e+03
1.499999999999999944e-01 6.514974999999999516e-01 4.324785000000000323e+00 1.219555000000000007e+02 1.734309999999999945e+03
1.509999999999999953e-01 6.515005000000000379e-01 4.212145000000000472e+00 1.219499999999999886e+02 1.734305000000000064e+03
1.519999999999999962e-01 6.515014999999999556e-01 4.103580000000000005e+00 1.219404999999999859e+02 1.734300000000000182e+03
1.529999999999999971e-01 6.515014999999999556e-01 3.998840000000000394e+00 1.219254999999999995e+02 1.734305000000000064e+03
1.539999999999999980e-01 6.514994999999998981e-01 3.897475000000000023e+00 1.219025000000000034e+02 1.734295000000000073e+03
1.549999999999999989e-01 6.514949999999999353e-01 3.798950000000000493e+00 1.218695000000000022e+02 1.734289999999999964e+03
1.559999999999999998e-01 6.514880000000000670e-01 3.702745000000000175e+00 1.218245000000000005e+02 1.734275000000000091e+03
1.570000000000000007e-01 6.514784999999999604e-01 3.608424999999999994e+00 1.217655000000000030e+02 1.734259999999999991e+03
1.580000000000000016e-01 6.514645000000000019e-01 3.515735000000000277e+00 1.216914999999999907e+02 1.734244999999999891e+03
1.590000000000000024e-01 6.514480000000000270e-01 3.424615000000000187e+00 1.216024999999999920e+02 1.734220000000000027e+03
