# t [s], A [cm^2], U [cm/s], P [cPa], c [cm/s]
1.000000000000000021e-03 1.202505000000000102e-01 4.154900000000000260e-01 9.516159999999999286e+01 1.937485000000000127e+03
2.000000000000000042e-03 1.202184999999999920e-01 2.063976999999999951e+00 9.172104999999999109e+01 1.937074999999999818e+03
3.000000000000000062e-03 1.201269999999999977e-01 4.042665999999999649e+00 8.718729999999999336e+01 1.935954999999999927e+03
4.000000000000000083e-03 1.199999999999999956e-01 6.236708499999999766e+00 8.241714999999999236e+01 1.934430000000000064e+03
5.000000000000000104e-03 1.198619999999999963e-01 8.573539999999999495e+00 7.824285000000000423e+01 1.932784999999999854e+03
6.000000000000000125e-03 1.197275000000000006e-01 1.087760000000000105e+01 7.487664999999999793e+01 1.931200000000000045e+03
7.000000000000000146e-03 1.196004999999999985e-01 1.294730000000000025e+01 7.203459999999999752e+01 1.929730000000000018e+03
8.000000000000000167e-03 1.194830000000000059e-01 1.470901999999999887e+01 6.947105000000000530e+01 1.928384999999999991e+03
9.000000000000001055e-03 1.193779999999999980e-01 1.620309999999999917e+01 6.722259999999999991e+01 1.927204999999999927e+03
1.000000000000000194e-02 1.192874999999999908e-01 1.746520000000000294e+01 6.535819999999999652e+01 1.926190000000000055e+03
1.099999999999999936e-02 1.192109999999999975e-01 1.850735000000000241e+01 6.384729999999999706e+01 1.925349999999999909e+03
1.200000000000000025e-02 1.191480000000000039e-01 1.934394999999999953e+01 6.263219999999999743e+01 1.924659999999999854e+03
1.300000000000000114e-02 1.190965000000000079e-01 1.998570000000000135e+01 6.164544999999999675e+01 1.924110000000000127e+03
1.400000000000000203e-02 1.190539999999999932e-01 2.044120000000000203e+01 6.079829999999999757e+01 1.923654999999999973e+03
1.499999999999999944e-02 1.190184999999999993e-01 2.075185000000000102e+01 6.005975000000000108e+01 1.923284999999999854e+03
1.600000000000000033e-02 1.189904999999999990e-01 2.101905000000000001e+01 5.956409999999999627e+01 1.923005000000000109e+03
1.700000000000000122e-02 1.189755000000000118e-01 2.137805000000000177e+01 5.959734999999999872e+01 1.922855000000000018e+03
1.800000000000000211e-02 1.189785000000000009e-01 2.193290000000000006e+01 6.043750000000000000e+01 1.922910000000000082e+03
1.900000000000000300e-02 1.190044999999999992e-01 2.269789999999999708e+01 6.216185000000000116e+01 1.923200000000000045e+03
2.000000000000000042e-02 1.190505000000000035e-01 2.358460000000000178e+01 6.455219999999999914e+01 1.923704999999999927e+03
2.100000000000000130e-02 1.191095000000000070e-01 2.443495000000000061e+01 6.714580000000000837e+01 1.924369999999999891e+03
2.200000000000000219e-02 1.191699999999999982e-01 2.508084999999999809e+01 6.939374999999999716e+01 1.925055000000000064e+03
2.299999999999999961e-02 1.192219999999999946e-01 2.540104999999999791e+01 7.084499999999999886e+01 1.925650000000000091e+03
2.400000000000000050e-02 1.192554999999999865e-01 2.535610000000000142e+01 7.128235000000000809e+01 1.926055000000000064e+03
2.500000000000000139e-02 1.192684999999999995e-01 2.499119999999999919e+01 7.076619999999999777e+01 1.926224999999999909e+03
2.600000000000000228e-02 1.192624999999999935e-01 2.441044999999999732e+01 6.957970000000000255e+01 1.926180000000000064e+03
2.700000000000000316e-02 1.192425000000000013e-01 2.373525000000000063e+01 6.810795000000000243e+01 1.925980000000000018e+03
2.800000000000000058e-02 1.192169999999999896e-01 2.306484999999999985e+01 6.670204999999999984e+01 1.925704999999999927e+03
2.900000000000000147e-02 1.191909999999999914e-01 2.245145000000000124e+01 6.557850000000000534e+01 1.925414999999999964e+03
3.000000000000000236e-02 1.191679999999999962e-01 2.189569999999999794e+01 6.478130000000000166e+01 1.925164999999999964e+03
3.099999999999999978e-02 1.191494999999999915e-01 2.136054999999999993e+01 6.420769999999998845e+01 1.924950000000000045e+03
3.200000000000000067e-02 1.191325000000000023e-01 2.079475000000000051e+01 6.367699999999999960e+01 1.924759999999999991e+03
3.300000000000000155e-02 1.191145000000000120e-01 2.015840000000000032e+01 6.301399999999999579e+01 1.924559999999999945e+03
3.400000000000000244e-02 1.190920000000000034e-01 1.944165000000000276e+01 6.212069999999999936e+01 1.924315000000000055e+03
3.500000000000000333e-02 1.190654999999999908e-01 1.867350000000000065e+01 6.101630000000000109e+01 1.924019999999999982e+03
3.600000000000000422e-02 1.190350000000000019e-01 1.791740000000000066e+01 5.983859999999999957e+01 1.923690000000000055e+03
3.700000000000000511e-02 1.190049999999999997e-01 1.725585000000000235e+01 5.880599999999999739e+01 1.923355000000000018e+03
3.799999999999999906e-02 1.189810000000000034e-01 1.676940000000000097e+01 5.815574999999999761e+01 1.923079999999999927e+03
3.899999999999999994e-02 1.189665000000000028e-01 1.651529999999999987e+01 5.807609999999999673e+01 1.922910000000000082e+03
4.000000000000000083e-02 1.189660000000000023e-01 1.651225000000000165e+01 5.865165000000000362e+01 1.922894999999999982e+03
4.100000000000000172e-02 1.189810000000000034e-01 1.673509999999999920e+01 5.983794999999999931e+01 1.923045000000000073e+03
4.200000000000000261e-02 1.190090000000000037e-01 1.711909999999999954e+01 6.146734999999999616e+01 1.923345000000000027e+03
4.300000000000000350e-02 1.190469999999999862e-01 1.757240000000000180e+01 6.328234999999999388e+01 1.923759999999999991e+03
4.400000000000000439e-02 1.190890000000000004e-01 1.799194999999999922e+01 6.498534999999999684e+01 1.924215000000000146e+03
4.499999999999999833e-02 1.191280000000000117e-01 1.828025000000000233e+01 6.629064999999999941e+01 1.924650000000000091e+03
4.599999999999999922e-02 1.191579999999999862e-01 1.835795000000000243e+01 6.696885000000000332e+01 1.924985000000000127e+03
4.700000000000000011e-02 1.191730000000000012e-01 1.817255000000000109e+01 6.687514999999999077e+01 1.925159999999999854e+03
4.800000000000000100e-02 1.191695000000000115e-01 1.770110000000000028e+01 6.595914999999999395e+01 1.925130000000000109e+03
4.900000000000000189e-02 1.191470000000000029e-01 1.694810000000000016e+01 6.425794999999999391e+01 1.924894999999999982e+03
5.000000000000000278e-02 1.191050000000000164e-01 1.594015000000000093e+01 6.187720000000000198e+01 1.924429999999999836e+03
5.100000000000000366e-02 1.190450000000000119e-01 1.471940000000000026e+01 5.896595000000000653e+01 1.923775000000000091e+03
5.200000000000000455e-02 1.189715000000000078e-01 1.333670000000000044e+01 5.569180000000000064e+01 1.922965000000000146e+03
5.300000000000000544e-02 1.188869999999999927e-01 1.184623000000000026e+01 5.222079999999999700e+01 1.922025000000000091e+03
5.399999999999999939e-02 1.187954999999999983e-01 1.030193500000000029e+01 4.870504999999999995e+01 1.921015000000000100e+03
5.500000000000000028e-02 1.187015000000000015e-01 8.755980000000000985e+00 4.527740000000000009e+01 1.919965000000000146e+03
5.600000000000000117e-02 1.186075000000000046e-01 7.258234999999999992e+00 4.205180000000000007e+01 1.918914999999999964e+03
5.700000000000000205e-02 1.185170000000000112e-01 5.856595000000000439e+00 3.912794999999999845e+01 1.917909999999999854e+03
5.800000000000000294e-02 1.184339999999999976e-01 4.597430000000000128e+00 3.659555000000000291e+01 1.916970000000000027e+03
5.900000000000000383e-02 1.183600000000000069e-01 3.525349499999999914e+00 3.453820000000000334e+01 1.916139999999999873e+03
6.000000000000000472e-02 1.182974999999999999e-01 2.682408500000000195e+00 3.303439999999999799e+01 1.915440000000000055e+03
6.099999999999999867e-02 1.182499999999999940e-01 2.106599999999999806e+00 3.215554999999999808e+01 1.914900000000000091e+03
6.199999999999999956e-02 1.182190000000000046e-01 1.829824000000000117e+00 3.196215000000000117e+01 1.914534999999999854e+03
6.300000000000000044e-02 1.182060000000000055e-01 1.875729999999999897e+00 3.249835000000000207e+01 1.914375000000000000e+03
6.400000000000000133e-02 1.182134999999999991e-01 2.257830000000000226e+00 3.378695000000000448e+01 1.914434999999999945e+03
6.500000000000000222e-02 1.182414999999999994e-01 2.978204999999999991e+00 3.582519999999999527e+01 1.914724999999999909e+03
6.600000000000000311e-02 1.182895000000000058e-01 4.027065000000000339e+00 3.858335000000000292e+01 1.915239999999999782e+03
6.700000000000000400e-02 1.183579999999999910e-01 5.383230000000000182e+00 4.200495000000000090e+01 1.915980000000000018e+03
6.800000000000000488e-02 1.184454999999999952e-01 7.015394999999999825e+00 4.601069999999999993e+01 1.916934999999999945e+03
6.900000000000000577e-02 1.185499999999999887e-01 8.884100000000000108e+00 5.050305000000000177e+01 1.918079999999999927e+03
7.000000000000000666e-02 1.186685000000000101e-01 1.094399999999999906e+01 5.537290000000000134e+01 1.919389999999999873e+03
7.100000000000000755e-02 1.187990000000000018e-01 1.314642500000000069e+01 6.050574999999999903e+01 1.920835000000000036e+03
7.200000000000000844e-02 1.189385000000000026e-01 1.544164999999999921e+01 6.578855000000000075e+01 1.922389999999999873e+03
7.300000000000000933e-02 1.190839999999999954e-01 1.778115000000000023e+01 7.111469999999999914e+01 1.924009999999999991e+03
7.399999999999999634e-02 1.192319999999999908e-01 2.011959999999999837e+01 7.638909999999999911e+01 1.925674999999999955e+03
7.499999999999999722e-02 1.193809999999999871e-01 2.241659999999999897e+01 8.153125000000000000e+01 1.927349999999999909e+03
7.599999999999999811e-02 1.195280000000000092e-01 2.463799999999999812e+01 8.647835000000000605e+01 1.929014999999999873e+03
7.699999999999999900e-02 1.196720000000000006e-01 2.675715000000000288e+01 9.118670000000000186e+01 1.930644999999999982e+03
7.799999999999999989e-02 1.198105000000000003e-01 2.875529999999999831e+01 9.563275000000000148e+01 1.932220000000000027e+03
7.900000000000000078e-02 1.199435000000000084e-01 3.062219999999999942e+01 9.981194999999999595e+01 1.933730000000000018e+03
8.000000000000000167e-02 1.200694999999999957e-01 3.235555000000000092e+01 1.037383499999999970e+02 1.935174999999999955e+03
8.100000000000000255e-02 1.201899999999999913e-01 3.396045000000000158e+01 1.074414999999999907e+02 1.936554999999999836e+03
8.200000000000000344e-02 1.203049999999999953e-01 3.544805000000000206e+01 1.109625000000000057e+02 1.937875000000000000e+03
8.300000000000000433e-02 1.204149999999999943e-01 3.683429999999999893e+01 1.143509999999999991e+02 1.939144999999999982e+03
8.400000000000000522e-02 1.205215000000000036e-01 3.813800000000000523e+01 1.176595000000000084e+02 1.940375000000000000e+03
8.500000000000000611e-02 1.206254999999999966e-01 3.937895000000000323e+01 1.209389999999999930e+02 1.941575000000000045e+03
8.600000000000000699e-02 1.207284999999999886e-01 4.057625000000000171e+01 1.242344999999999970e+02 1.942759999999999991e+03
8.700000000000000788e-02 1.208315000000000083e-01 4.174684999999999491e+01 1.275819999999999936e+02 1.943949999999999818e+03
8.800000000000000877e-02 1.209355000000000013e-01 4.290384999999999849e+01 1.310065000000000168e+02 1.945154999999999973e+03
8.899999999999999578e-02 1.210410000000000097e-01 4.405620000000000402e+01 1.345165000000000077e+02 1.946365000000000009e+03
8.999999999999999667e-02 1.211480000000000057e-01 4.520765000000000100e+01 1.381114999999999782e+02 1.947599999999999909e+03
9.099999999999999756e-02 1.212570000000000037e-01 4.635689999999999600e+01 1.417735000000000127e+02 1.948860000000000127e+03
9.199999999999999845e-02 1.213675000000000032e-01 4.749790000000000134e+01 1.454739999999999895e+02 1.950134999999999991e+03
9.299999999999999933e-02 1.214785000000000031e-01 4.862030000000000030e+01 1.491759999999999877e+02 1.951420000000000073e+03
9.400000000000000022e-02 1.215890000000000026e-01 4.971004999999999541e+01 1.528335000000000150e+02 1.952700000000000045e+03
9.500000000000000111e-02 1.216984999999999872e-01 5.075079999999999814e+01 1.563980000000000246e+02 1.953970000000000027e+03
9.600000000000000200e-02 1.218054999999999971e-01 5.172469999999999857e+01 1.598180000000000121e+02 1.955204999999999927e+03
9.700000000000000289e-02 1.219085000000000030e-01 5.261325000000000074e+01 1.630434999999999945e+02 1.956404999999999973e+03
9.800000000000000377e-02 1.220060000000000033e-01 5.339870000000000516e+01 1.660294999999999845e+02 1.957545000000000073e+03
9.900000000000000466e-02 1.220980000000000121e-01 5.406484999999999985e+01 1.687344999999999970e+02 1.958615000000000009e+03
1.000000000000000056e-01 1.221814999999999984e-01 5.459770000000000323e+01 1.711270000000000095e+02 1.959594999999999800e+03
1.010000000000000064e-01 1.222570000000000046e-01 5.498619999999999663e+01 1.731809999999999832e+02 1.960480000000000018e+03
1.020000000000000073e-01 1.223230000000000012e-01 5.522299999999999898e+01 1.748810000000000002e+02 1.961259999999999991e+03
1.030000000000000082e-01 1.223795000000000022e-01 5.530440000000000111e+01 1.762219999999999800e+02 1.961924999999999955e+03
1.040000000000000091e-01 1.224260000000000070e-01 5.523080000000000211e+01 1.772065000000000055e+02 1.962480000000000018e+03
1.050000000000000100e-01 1.224625000000000019e-01 5.500650000000000261e+01 1.778480000000000132e+02 1.962920000000000073e+03
1.059999999999999970e-01 1.224900000000000155e-01 5.463965000000000316e+01 1.781680000000000064e+02 1.963244999999999891e+03
1.069999999999999979e-01 1.225070000000000048e-01 5.414189999999999969e+01 1.781939999999999884e+02 1.963465000000000146e+03
1.079999999999999988e-01 1.225165000000000004e-01 5.352759999999999962e+01 1.779615000000000009e+02 1.963579999999999927e+03
1.089999999999999997e-01 1.225175000000000014e-01 5.281365000000000265e+01 1.775080000000000098e+02 1.963610000000000127e+03
1.100000000000000006e-01 1.225124999999999964e-01 5.201845000000000141e+01 1.768759999999999764e+02 1.963554999999999836e+03
1.110000000000000014e-01 1.225009999999999988e-01 5.116140000000000043e+01 1.761064999999999827e+02 1.963440000000000055e+03
1.120000000000000023e-01 1.224854999999999972e-01 5.026189999999999714e+01 1.752429999999999950e+02 1.963264999999999873e+03
1.130000000000000032e-01 1.224669999999999925e-01 4.933870000000000289e+01 1.743234999999999957e+02 1.963049999999999955e+03
1.140000000000000041e-01 1.224449999999999983e-01 4.840954999999999586e+01 1.733849999999999909e+02 1.962799999999999955e+03
1.150000000000000050e-01 1.224220000000000030e-01 4.749004999999999654e+01 1.724585000000000150e+02 1.962539999999999964e+03
1.160000000000000059e-01 1.223990000000000078e-01 4.659355000000000047e+01 1.715679999999999836e+02 1.962269999999999982e+03
1.170000000000000068e-01 1.223754999999999982e-01 4.573069999999999879e+01 1.707334999999999923e+02 1.962000000000000000e+03
1.180000000000000077e-01 1.223530000000000034e-01 4.490919999999999845e+01 1.699669999999999845e+02 1.961734999999999900e+03
1.190000000000000085e-01 1.223315000000000097e-01 4.413354999999999961e+01 1.692744999999999891e+02 1.961490000000000009e+03
1.200000000000000094e-01 1.223120000000000041e-01 4.340534999999999854e+01 1.686539999999999964e+02 1.961255000000000109e+03
1.209999999999999964e-01 1.222934999999999994e-01 4.272315000000000396e+01 1.680985000000000014e+02 1.961039999999999964e+03
1.219999999999999973e-01 1.222769999999999968e-01 4.208274999999999721e+01 1.675945000000000107e+02 1.960840000000000146e+03
1.229999999999999982e-01 1.222614999999999952e-01 4.147780000000000200e+01 1.671254999999999882e+02 1.960654999999999973e+03
1.239999999999999991e-01 1.222464999999999941e-01 4.090000000000000568e+01 1.666709999999999923e+02 1.960474999999999909e+03
1.250000000000000000e-01 1.222315000000000068e-01 4.033984999999999843e+01 1.662079999999999984e+02 1.960299999999999955e+03
1.260000000000000009e-01 1.222169999999999923e-01 3.978679999999999950e+01 1.657115000000000009e+02 1.960125000000000000e+03
1.270000000000000018e-01 1.222010000000000041e-01 3.923024999999999807e+01 1.651594999999999800e+02 1.959940000000000055e+03
1.280000000000000027e-01 1.221835000000000004e-01 3.865980000000000416e+01 1.645294999999999845e+02 1.959735000000000127e+03
1.290000000000000036e-01 1.221645000000000092e-01 3.806600000000000250e+01 1.638020000000000209e+02 1.959514999999999873e+03
1.300000000000000044e-01 1.221430000000000016e-01 3.744084999999999752e+01 1.629610000000000127e+02 1.959259999999999991e+03
1.310000000000000053e-01 1.221180000000000043e-01 3.677779999999999916e+01 1.619964999999999975e+02 1.958974999999999909e+03
1.320000000000000062e-01 1.220905000000000046e-01 3.607269999999999754e+01 1.609025000000000034e+02 1.958650000000000091e+03
1.330000000000000071e-01 1.220585000000000003e-01 3.532359999999999900e+01 1.596775000000000091e+02 1.958284999999999854e+03
1.340000000000000080e-01 1.220240000000000075e-01 3.453099999999999881e+01 1.583280000000000030e+02 1.957884999999999991e+03
1.350000000000000089e-01 1.219854999999999967e-01 3.369790000000000418e+01 1.568640000000000043e+02 1.957440000000000055e+03
1.360000000000000098e-01 1.219439999999999968e-01 3.282965000000000089e+01 1.553025000000000091e+02 1.956965000000000146e+03
1.370000000000000107e-01 1.218994999999999940e-01 3.193370000000000175e+01 1.536634999999999991e+02 1.956454999999999927e+03
1.380000000000000115e-01 1.218535000000000035e-01 3.101935000000000286e+01 1.519710000000000036e+02 1.955914999999999964e+03
1.390000000000000124e-01 1.218055000000000110e-01 3.009729999999999706e+01 1.502520000000000095e+02 1.955360000000000127e+03
1.400000000000000133e-01 1.217560000000000031e-01 2.917925000000000324e+01 1.485349999999999966e+02 1.954795000000000073e+03
1.410000000000000142e-01 1.217069999999999957e-01 2.827720000000000056e+01 1.468489999999999895e+02 1.954230000000000018e+03
1.420000000000000151e-01 1.216579999999999884e-01 2.740330000000000155e+01 1.452214999999999918e+02 1.953664999999999964e+03
1.430000000000000160e-01 1.216104999999999964e-01 2.656879999999999953e+01 1.436790000000000020e+02 1.953115000000000009e+03
1.440000000000000169e-01 1.215650000000000064e-01 2.578430000000000177e+01 1.422434999999999832e+02 1.952585000000000036e+03
1.450000000000000178e-01 1.215219999999999911e-01 2.505859999999999843e+01 1.409339999999999975e+02 1.952090000000000146e+03
1.459999999999999909e-01 1.214830000000000076e-01 2.439894999999999925e+01 1.397649999999999864e+02 1.951630000000000109e+03
1.469999999999999918e-01 1.214464999999999989e-01 2.381060000000000088e+01 1.387465000000000259e+02 1.951210000000000036e+03
1.479999999999999927e-01 1.214145000000000085e-01 2.329645000000000010e+01 1.378840000000000146e+02 1.950835000000000036e+03
1.489999999999999936e-01 1.213865000000000083e-01 2.285759999999999792e+01 1.371754999999999995e+02 1.950505000000000109e+03
1.499999999999999944e-01 1.213629999999999987e-01 2.249289999999999878e+01 1.366170000000000186e+02 1.950230000000000018e+03
1.509999999999999953e-01 1.213434999999999930e-01 2.219919999999999760e+01 1.361999999999999886e+02 1.949994999999999891e+03
1.519999999999999962e-01 1.213274999999999909e-01 2.197189999999999799e+01 1.359114999999999895e+02 1.949809999999999945e+03
1.529999999999999971e-01 1.213160000000000072e-01 2.180480000000000018e+01 1.357375000000000114e+02 1.949664999999999964e+03
1.539999999999999980e-01 1.213069999999999982e-01 2.169080000000000297e+01 1.356599999999999966e+02 1.949559999999999945e+03
1.549999999999999989e-01 1.213015000000000065e-01 2.162194999999999823e+01 1.356625000000000227e+02 1.949485000000000127e+03
1.559999999999999998e-01 1.212980000000000030e-01 2.158995000000000175e+01 1.357255000000000109e+02 1.949445000000000164e+03
1.570000000000000007e-01 1.212970000000000159e-01 2.158650000000000091e+01 1.358329999999999984e+02 1.949425000000000182e+03
1.580000000000000016e-01 1.212969999999999882e-01 2.160340000000000060e+01 1.359675000000000011e+02 1.949424999999999955e+03
1.590000000000000024e-01 1.212979999999999892e-01 2.163304999999999723e+01 1.361140000000000043e+02 1.949434999999999945e+03
