# t [s], A [cm^2], U [cm/s], P [cPa], c [cm/s]
1.000000000000000021e-03 7.145095000000000196e-01 4.832499999999996521e-03 1.036310000000000002e+02 1.652174999999999955e+03
2.000000000000000042e-03 7.145010000000000527e-01 2.721359999999999925e-03 1.036059999999999945e+02 1.652164999999999964e+03
3.000000000000000062e-03 7.145714999999999151e-01 1.170323999999999948e-01 1.037330000000000041e+02 1.652199999999999818e+03
4.000000000000000083e-03 7.146170000000000577e-01 2.030880500000000199e-01 1.038425000000000011e+02 1.652220000000000027e+03
5.000000000000000104e-03 7.145725000000000549e-01 1.521453500000000125e-01 1.037394999999999925e+02 1.652204999999999927e+03
6.000000000000000125e-03 7.144969999999999377e-01 4.590100000000002511e-02 1.034809999999999945e+02 1.652150000000000091e+03
7.000000000000000146e-03 7.144230000000000302e-01 -6.815800000000005188e-02 1.031410000000000053e+02 1.652079999999999927e+03
8.000000000000000167e-03 7.142935000000000256e-01 -2.855300000000000615e-01 1.026090000000000089e+02 1.651974999999999909e+03
9.000000000000001055e-03 7.140859999999999985e-01 -6.462350000000001149e-01 1.017978500000000111e+02 1.651809999999999945e+03
1.000000000000000194e-02 7.137925000000000519e-01 -1.154850000000000154e+00 1.006540500000000122e+02 1.651570000000000164e+03
1.099999999999999936e-02 7.133890000000000509e-01 -1.832924999999999915e+00 9.910165000000000646e+01 1.651240000000000009e+03
1.200000000000000025e-02 7.128794999999999993e-01 -2.653505000000000003e+00 9.712194999999999823e+01 1.650809999999999945e+03
1.300000000000000114e-02 7.123215000000000519e-01 -3.491065000000000307e+00 9.484225000000000705e+01 1.650309999999999945e+03
1.400000000000000203e-02 7.118005000000000582e-01 -4.168652999999999942e+00 9.250445000000000562e+01 1.649769999999999982e+03
1.499999999999999944e-02 7.113774999999999959e-01 -4.547093000000000274e+00 9.034874999999999545e+01 1.649250000000000000e+03
1.600000000000000033e-02 7.110659999999999759e-01 -4.578824000000000005e+00 8.851614999999999611e+01 1.648775000000000091e+03
1.700000000000000122e-02 7.108339999999999659e-01 -4.307220000000000049e+00 8.701269999999999527e+01 1.648359999999999900e+03
1.800000000000000211e-02 7.106265000000000498e-01 -3.831409999999999982e+00 8.573629999999999995e+01 1.647985000000000127e+03
1.900000000000000300e-02 7.103924999999999823e-01 -3.260664499999999855e+00 8.453419999999999845e+01 1.647630000000000109e+03
2.000000000000000042e-02 7.100999999999999535e-01 -2.675178499999999904e+00 8.326760000000000161e+01 1.647259999999999991e+03
2.100000000000000130e-02 7.097439999999999305e-01 -2.105129999999999946e+00 8.185914999999999964e+01 1.646869999999999891e+03
2.200000000000000219e-02 7.093445000000000444e-01 -1.534295000000000186e+00 8.030815000000001191e+01 1.646444999999999936e+03
2.299999999999999961e-02 7.089309999999999778e-01 -9.239399999999999835e-01 7.867040000000000077e+01 1.646009999999999991e+03
2.400000000000000050e-02 7.085265000000000590e-01 -2.437550000000001660e-01 7.701630000000000109e+01 1.645559999999999945e+03
2.500000000000000139e-02 7.081379999999999342e-01 5.046750000000002068e-01 7.538980000000000814e+01 1.645115000000000009e+03
2.600000000000000228e-02 7.077515000000000889e-01 1.279454999999999787e+00 7.378215000000000146e+01 1.644670000000000073e+03
2.700000000000000316e-02 7.073384999999999811e-01 2.005060000000000286e+00 7.212860000000000582e+01 1.644220000000000027e+03
2.800000000000000058e-02 7.068619999999999903e-01 2.589910000000000156e+00 7.032370000000000232e+01 1.643735000000000127e+03
2.900000000000000147e-02 7.062910000000000021e-01 2.949065000000000047e+00 6.825155000000000882e+01 1.643199999999999818e+03
3.000000000000000236e-02 7.056069999999999842e-01 3.025970000000000049e+00 6.582089999999999463e+01 1.642590000000000146e+03
3.099999999999999978e-02 7.048134999999999817e-01 2.807470000000000354e+00 6.299580000000000268e+01 1.641900000000000091e+03
3.200000000000000067e-02 7.039349999999999774e-01 2.327385000000000481e+00 5.981289999999999907e+01 1.641134999999999991e+03
3.300000000000000155e-02 7.030119999999999703e-01 1.658470000000000333e+00 5.637959999999999638e+01 1.640315000000000055e+03
3.400000000000000244e-02 7.020944999999999547e-01 8.960949999999998639e-01 5.285649999999999693e+01 1.639465000000000146e+03
3.500000000000000333e-02 7.012320000000000775e-01 1.394750000000000156e-01 4.942974999999999852e+01 1.638625000000000000e+03
3.600000000000000422e-02 7.004669999999999508e-01 -5.236950000000000216e-01 4.628234999999999388e+01 1.637835000000000036e+03
3.700000000000000511e-02 6.998305000000000220e-01 -1.026740000000000208e+00 4.357139999999999702e+01 1.637125000000000000e+03
3.799999999999999906e-02 6.993415000000000603e-01 -1.326810000000000045e+00 4.141400000000000148e+01 1.636539999999999964e+03
3.899999999999999994e-02 6.990085000000000326e-01 -1.402485000000000204e+00 3.988275000000000148e+01 1.636095000000000027e+03
4.000000000000000083e-02 6.988309999999999800e-01 -1.248054999999999914e+00 3.900889999999999702e+01 1.635795000000000073e+03
4.100000000000000172e-02 6.988054999999999684e-01 -8.668075000000000641e-01 3.879129999999999967e+01 1.635650000000000091e+03
4.200000000000000261e-02 6.989239999999999897e-01 -2.651250000000000551e-01 3.920730000000000359e+01 1.635664999999999964e+03
4.300000000000000350e-02 6.991795000000000648e-01 5.511349999999999305e-01 4.022275000000000489e+01 1.635825000000000045e+03
4.400000000000000439e-02 6.995640000000000747e-01 1.577524999999999844e+00 4.179879999999999995e+01 1.636125000000000000e+03
4.499999999999999833e-02 7.000705000000000400e-01 2.809429999999999872e+00 4.389499999999999602e+01 1.636559999999999945e+03
4.599999999999999922e-02 7.006904999999999939e-01 4.239164999999999850e+00 4.646869999999999834e+01 1.637115000000000009e+03
4.700000000000000011e-02 7.014134999999999120e-01 5.852919999999999234e+00 4.947254999999999825e+01 1.637789999999999964e+03
4.800000000000000100e-02 7.022245000000000292e-01 7.628924500000000108e+00 5.285184999999999889e+01 1.638565000000000055e+03
4.900000000000000189e-02 7.031074999999999964e-01 9.537177999999999045e+00 5.654339999999999833e+01 1.639420000000000073e+03
5.000000000000000278e-02 7.040440000000000031e-01 1.154067000000000043e+01 6.047574999999999790e+01 1.640349999999999909e+03
5.100000000000000366e-02 7.050140000000000295e-01 1.359797499999999992e+01 6.457200000000000273e+01 1.641329999999999927e+03
5.200000000000000455e-02 7.059980000000000144e-01 1.566684000000000054e+01 6.875400000000000489e+01 1.642340000000000146e+03
5.300000000000000544e-02 7.069784999999999542e-01 1.770715500000000020e+01 7.294729999999999848e+01 1.643369999999999891e+03
5.399999999999999939e-02 7.079405000000000836e-01 1.968394999999999939e+01 7.708575000000000443e+01 1.644404999999999973e+03
5.500000000000000028e-02 7.088735000000000452e-01 2.156920000000000215e+01 8.111560000000000059e+01 1.645420000000000073e+03
5.600000000000000117e-02 7.097705000000000819e-01 2.334299999999999997e+01 8.499784999999999968e+01 1.646414999999999964e+03
5.700000000000000205e-02 7.106284999999999963e-01 2.499320000000000164e+01 8.870935000000000059e+01 1.647375000000000000e+03
5.800000000000000294e-02 7.114469999999999406e-01 2.651505000000000223e+01 9.224179999999999779e+01 1.648305000000000064e+03
5.900000000000000383e-02 7.122290000000000010e-01 2.791004999999999825e+01 9.560099999999999909e+01 1.649195000000000164e+03
6.000000000000000472e-02 7.129799999999999471e-01 2.918444999999999823e+01 9.880240000000000578e+01 1.650045000000000073e+03
6.099999999999999867e-02 7.137059999999999516e-01 3.034815000000000396e+01 1.018707500000000010e+02 1.650869999999999891e+03
6.199999999999999956e-02 7.144144999999999524e-01 3.141319999999999979e+01 1.048349000000000046e+02 1.651670000000000073e+03
6.300000000000000044e-02 7.151119999999999699e-01 3.239274999999999949e+01 1.077265000000000015e+02 1.652450000000000045e+03
6.400000000000000133e-02 7.158050000000000246e-01 3.329959999999999809e+01 1.105739999999999981e+02 1.653210000000000036e+03
6.500000000000000222e-02 7.164989999999999970e-01 3.414569999999999794e+01 1.134050000000000011e+02 1.653969999999999800e+03
6.600000000000000311e-02 7.171980000000000022e-01 3.494050000000000011e+01 1.162379999999999995e+02 1.654724999999999909e+03
6.700000000000000400e-02 7.179035000000000277e-01 3.569060000000000343e+01 1.190854999999999961e+02 1.655480000000000018e+03
6.800000000000000488e-02 7.186144999999999339e-01 3.639934999999999832e+01 1.219519999999999982e+02 1.656244999999999891e+03
6.900000000000000577e-02 7.193285000000000373e-01 3.706620000000000203e+01 1.248299999999999983e+02 1.657005000000000109e+03
7.000000000000000666e-02 7.200419999999999598e-01 3.768724999999999881e+01 1.277060000000000031e+02 1.657769999999999982e+03
7.100000000000000755e-02 7.207464999999999566e-01 3.825560000000000116e+01 1.305559999999999832e+02 1.658525000000000091e+03
7.200000000000000844e-02 7.214365000000000361e-01 3.876210000000000377e+01 1.333505000000000109e+02 1.659269999999999982e+03
7.300000000000000933e-02 7.221020000000000216e-01 3.919624999999999915e+01 1.360579999999999927e+02 1.659990000000000009e+03
7.399999999999999634e-02 7.227365000000000039e-01 3.954715000000000202e+01 1.386435000000000173e+02 1.660690000000000055e+03
7.499999999999999722e-02 7.233309999999999462e-01 3.980445000000000277e+01 1.410724999999999909e+02 1.661344999999999800e+03
7.599999999999999811e-02 7.238780000000000214e-01 3.995905000000000484e+01 1.433149999999999977e+02 1.661965000000000146e+03
7.699999999999999900e-02 7.243725000000000858e-01 4.000370000000000203e+01 1.453435000000000059e+02 1.662529999999999973e+03
7.799999999999999989e-02 7.248105000000000242e-01 3.993365000000000009e+01 1.471374999999999886e+02 1.663034999999999854e+03
7.900000000000000078e-02 7.251879999999999438e-01 3.974675000000000580e+01 1.486839999999999975e+02 1.663490000000000009e+03
8.000000000000000167e-02 7.255050000000000665e-01 3.944344999999999857e+01 1.499744999999999777e+02 1.663875000000000000e+03
8.100000000000000255e-02 7.257614999999999483e-01 3.902745000000000175e+01 1.510099999999999909e+02 1.664195000000000164e+03
8.200000000000000344e-02 7.259594999999999798e-01 3.850480000000000302e+01 1.517969999999999970e+02 1.664454999999999927e+03
8.300000000000000433e-02 7.261024999999999840e-01 3.788439999999999941e+01 1.523489999999999895e+02 1.664650000000000091e+03
8.400000000000000522e-02 7.261960000000000637e-01 3.717735000000000412e+01 1.526850000000000023e+02 1.664795000000000073e+03
8.500000000000000611e-02 7.262454999999999883e-01 3.639655000000000484e+01 1.528284999999999911e+02 1.664880000000000109e+03
8.600000000000000699e-02 7.262560000000000127e-01 3.555644999999999811e+01 1.528060000000000116e+02 1.664920000000000073e+03
8.700000000000000788e-02 7.262364999999999515e-01 3.467244999999999777e+01 1.526469999999999914e+02 1.664924999999999955e+03
8.800000000000000877e-02 7.261929999999999774e-01 3.376015000000000299e+01 1.523824999999999932e+02 1.664890000000000100e+03
8.899999999999999578e-02 7.261329999999999174e-01 3.283489999999999753e+01 1.520424999999999898e+02 1.664840000000000146e+03
8.999999999999999667e-02 7.260625000000000551e-01 3.191129999999999711e+01 1.516550000000000011e+02 1.664759999999999991e+03
9.099999999999999756e-02 7.259880000000000777e-01 3.100215000000000032e+01 1.512475000000000023e+02 1.664680000000000064e+03
9.199999999999999845e-02 7.259139999999999482e-01 3.011840000000000117e+01 1.508414999999999964e+02 1.664585000000000036e+03
9.299999999999999933e-02 7.258439999999999337e-01 2.926845000000000141e+01 1.504540000000000077e+02 1.664500000000000000e+03
9.400000000000000022e-02 7.257810000000000095e-01 2.845815000000000339e+01 1.500994999999999777e+02 1.664410000000000082e+03
9.500000000000000111e-02 7.257255000000000233e-01 2.769025000000000247e+01 1.497835000000000036e+02 1.664325000000000045e+03
9.600000000000000200e-02 7.256785000000000041e-01 2.696499999999999986e+01 1.495090000000000146e+02 1.664255000000000109e+03
9.700000000000000289e-02 7.256374999999999353e-01 2.627980000000000160e+01 1.492704999999999984e+02 1.664184999999999945e+03
9.800000000000000377e-02 7.256004999999999816e-01 2.562995000000000090e+01 1.490620000000000118e+02 1.664125000000000000e+03
9.900000000000000466e-02 7.255650000000000155e-01 2.500889999999999702e+01 1.488709999999999809e+02 1.664069999999999936e+03
1.000000000000000056e-01 7.255270000000000330e-01 2.440869999999999962e+01 1.486825000000000045e+02 1.664015000000000100e+03
1.010000000000000064e-01 7.254825000000000301e-01 2.382065000000000055e+01 1.484800000000000182e+02 1.663954999999999927e+03
1.020000000000000073e-01 7.254285000000000316e-01 2.323574999999999946e+01 1.482485000000000070e+02 1.663894999999999982e+03
1.030000000000000082e-01 7.253600000000000048e-01 2.264524999999999721e+01 1.479694999999999823e+02 1.663819999999999936e+03
1.040000000000000091e-01 7.252745000000000442e-01 2.204124999999999801e+01 1.476310000000000002e+02 1.663735000000000127e+03
1.050000000000000100e-01 7.251704999999999401e-01 2.141689999999999827e+01 1.472175000000000011e+02 1.663630000000000109e+03
1.059999999999999970e-01 7.250440000000000218e-01 2.076704999999999757e+01 1.467224999999999966e+02 1.663510000000000218e+03
1.069999999999999979e-01 7.248965000000000547e-01 2.008845000000000169e+01 1.461399999999999864e+02 1.663369999999999891e+03
1.079999999999999988e-01 7.247269999999998991e-01 1.937979999999999947e+01 1.454685000000000059e+02 1.663204999999999927e+03
1.089999999999999997e-01 7.245369999999999866e-01 1.864199999999999946e+01 1.447110000000000127e+02 1.663025000000000091e+03
1.100000000000000006e-01 7.243290000000000006e-01 1.787815000000000154e+01 1.438745000000000118e+02 1.662820000000000164e+03
1.110000000000000014e-01 7.241059999999999164e-01 1.709329999999999927e+01 1.429705000000000155e+02 1.662599999999999909e+03
1.120000000000000023e-01 7.238709999999999312e-01 1.629420000000000002e+01 1.420129999999999768e+02 1.662360000000000127e+03
1.130000000000000032e-01 7.236294999999999256e-01 1.548930000000000007e+01 1.410209999999999866e+02 1.662115000000000009e+03
1.140000000000000041e-01 7.233864999999999323e-01 1.468797499999999978e+01 1.400124999999999886e+02 1.661865000000000009e+03
1.150000000000000050e-01 7.231459999999999555e-01 1.390028500000000022e+01 1.390084999999999980e+02 1.661610000000000127e+03
1.160000000000000059e-01 7.229140000000000565e-01 1.313649500000000003e+01 1.380300000000000011e+02 1.661355000000000018e+03
1.170000000000000068e-01 7.226945000000000174e-01 1.240651500000000063e+01 1.370970000000000084e+02 1.661114999999999782e+03
1.180000000000000077e-01 7.224920000000000231e-01 1.171954999999999991e+01 1.362284999999999968e+02 1.660884999999999991e+03
1.190000000000000085e-01 7.223100000000000076e-01 1.108356999999999992e+01 1.354390000000000214e+02 1.660679999999999836e+03
1.200000000000000094e-01 7.221515000000000573e-01 1.050502999999999965e+01 1.347425000000000068e+02 1.660485000000000127e+03
1.209999999999999964e-01 7.220174999999999788e-01 9.988680000000000447e+00 1.341474999999999795e+02 1.660320000000000164e+03
1.219999999999999973e-01 7.219089999999999119e-01 9.537200000000000344e+00 1.336589999999999918e+02 1.660174999999999955e+03
1.229999999999999982e-01 7.218260000000000787e-01 9.151324999999999932e+00 1.332789999999999964e+02 1.660054999999999836e+03
1.239999999999999991e-01 7.217679999999999652e-01 8.829879999999999285e+00 1.330029999999999859e+02 1.659969999999999800e+03
1.250000000000000000e-01 7.217320000000000402e-01 8.569890000000000896e+00 1.328259999999999934e+02 1.659900000000000091e+03
1.260000000000000009e-01 7.217164999999999830e-01 8.366759999999999309e+00 1.327370000000000232e+02 1.659860000000000127e+03
1.270000000000000018e-01 7.217175000000000118e-01 8.214724999999999611e+00 1.327255000000000109e+02 1.659829999999999927e+03
1.280000000000000027e-01 7.217324999999999990e-01 8.107034999999999769e+00 1.327774999999999750e+02 1.659825000000000045e+03
1.290000000000000036e-01 7.217569999999999819e-01 8.036384999999999224e+00 1.328774999999999977e+02 1.659835000000000036e+03
1.300000000000000044e-01 7.217884999999999440e-01 7.995255000000000223e+00 1.330115000000000123e+02 1.659849999999999909e+03
1.310000000000000053e-01 7.218234999999999513e-01 7.976200000000000401e+00 1.331649999999999920e+02 1.659875000000000000e+03
1.320000000000000062e-01 7.218584999999999585e-01 7.972170000000000201e+00 1.333255000000000052e+02 1.659909999999999854e+03
1.330000000000000071e-01 7.218915000000000193e-01 7.976704999999999934e+00 1.334809999999999945e+02 1.659940000000000055e+03
1.340000000000000080e-01 7.219204999999999650e-01 7.984130000000000393e+00 1.336220000000000141e+02 1.659970000000000027e+03
1.350000000000000089e-01 7.219435000000000713e-01 7.989654999999999951e+00 1.337404999999999973e+02 1.659994999999999891e+03
1.360000000000000098e-01 7.219599999999999351e-01 7.989440000000000097e+00 1.338319999999999936e+02 1.660014999999999873e+03
1.370000000000000107e-01 7.219694999999999308e-01 7.980610000000000426e+00 1.338930000000000007e+02 1.660029999999999973e+03
1.380000000000000115e-01 7.219709999999999184e-01 7.961235000000000284e+00 1.339225000000000136e+02 1.660039999999999964e+03
1.390000000000000124e-01 7.219659999999999966e-01 7.930234999999999701e+00 1.339209999999999923e+02 1.660039999999999964e+03
1.400000000000000133e-01 7.219545000000000545e-01 7.887335000000000207e+00 1.338905000000000030e+02 1.660034999999999854e+03
1.410000000000000142e-01 7.219374999999998987e-01 7.832950000000000301e+00 1.338329999999999984e+02 1.660025000000000091e+03
1.420000000000000151e-01 7.219154999999999323e-01 7.768040000000000056e+00 1.337545000000000073e+02 1.660005000000000109e+03
1.430000000000000160e-01 7.218899999999999206e-01 7.694024999999999892e+00 1.336575000000000273e+02 1.659985000000000127e+03
1.440000000000000169e-01 7.218625000000000735e-01 7.612650000000000361e+00 1.335484999999999900e+02 1.659965000000000146e+03
1.450000000000000178e-01 7.218335000000000168e-01 7.525850000000000151e+00 1.334314999999999998e+02 1.659934999999999945e+03
1.459999999999999909e-01 7.218044999999999600e-01 7.435650000000000759e+00 1.333100000000000023e+02 1.659904999999999973e+03
1.469999999999999918e-01 7.217755000000000143e-01 7.344034999999999869e+00 1.331895000000000095e+02 1.659875000000000000e+03
1.479999999999999927e-01 7.217489999999999739e-01 7.252874999999999517e+00 1.330730000000000075e+02 1.659849999999999909e+03
1.489999999999999936e-01 7.217240000000000322e-01 7.163804999999999978e+00 1.329635000000000105e+02 1.659820000000000164e+03
1.499999999999999944e-01 7.217010000000000369e-01 7.078189999999999316e+00 1.328614999999999782e+02 1.659795000000000073e+03
1.509999999999999953e-01 7.216804999999999470e-01 6.997054999999999580e+00 1.327705000000000268e+02 1.659775000000000091e+03
1.519999999999999962e-01 7.216625000000000956e-01 6.921075000000000088e+00 1.326879999999999882e+02 1.659750000000000000e+03
1.529999999999999971e-01 7.216469999999999274e-01 6.850545000000000329e+00 1.326154999999999973e+02 1.659735000000000127e+03
1.539999999999999980e-01 7.216329999999999689e-01 6.785414999999999530e+00 1.325509999999999877e+02 1.659720000000000027e+03
1.549999999999999989e-01 7.216204999999999981e-01 6.725344999999999906e+00 1.324925000000000068e+02 1.659695000000000164e+03
1.559999999999999998e-01 7.216089999999999449e-01 6.669729999999999492e+00 1.324375000000000000e+02 1.659684999999999945e+03
1.570000000000000007e-01 7.215964999999999741e-01 6.617795000000000094e+00 1.323840000000000146e+02 1.659670000000000073e+03
1.580000000000000016e-01 7.215840000000000032e-01 6.568659999999999499e+00 1.323285000000000196e+02 1.659655000000000200e+03
1.590000000000000024e-01 7.215700000000000447e-01 6.521419999999999995e+00 1.322694999999999936e+02 1.659634999999999991e+03
