# t [s], A [cm^2], U [cm/s], P [cPa], c [cm/s]
1.000000000000000021e-03 6.007424999999999571e-01 3.452400000000001301e-03 1.001730000000000018e+02 1.464710000000000036e+03
2.000000000000000042e-03 6.007335000000000313e-01 -6.957099999999998832e-04 1.001550000000000011e+02 1.464704999999999927e+03
3.000000000000000062e-03 6.007724999999999316e-01 6.252725000000000644e-02 1.002137000000000029e+02 1.464724999999999909e+03
4.000000000000000083e-03 6.008259999999999712e-01 1.514961000000000224e-01 1.003186000000000035e+02 1.464755000000000109e+03
5.000000000000000104e-03 6.008284999999999876e-01 1.630834999999999924e-01 1.003315999999999946e+02 1.464765000000000100e+03
6.000000000000000125e-03 6.007845000000000546e-01 9.796199999999999353e-02 1.002158500000000032e+02 1.464735000000000127e+03
7.000000000000000146e-03 6.007360000000000477e-01 2.157799999999998608e-02 1.000320999999999998e+02 1.464694999999999936e+03
8.000000000000000167e-03 6.006819999999999382e-01 -7.053300000000001235e-02 9.978634999999999877e+01 1.464634999999999991e+03
9.000000000000001055e-03 6.005890000000000395e-01 -2.358119999999999661e-01 9.941425000000000978e+01 1.464545000000000073e+03
1.000000000000000194e-02 6.004454999999999654e-01 -4.961350000000001037e-01 9.886809999999999832e+01 1.464414999999999964e+03
1.099999999999999936e-02 6.002450000000000285e-01 -8.550100000000000477e-01 9.811555000000001314e+01 1.464224999999999909e+03
1.200000000000000025e-02 5.999745000000000772e-01 -1.324180000000000135e+00 9.711469999999999914e+01 1.463974999999999909e+03
1.300000000000000114e-02 5.996295000000000375e-01 -1.898965000000000014e+00 9.583944999999999936e+01 1.463644999999999982e+03
1.400000000000000203e-02 5.992279999999999829e-01 -2.527374999999999705e+00 9.432120000000000459e+01 1.463250000000000000e+03
1.499999999999999944e-02 5.988124999999999698e-01 -3.115314999999999834e+00 9.265715000000000146e+01 1.462795000000000073e+03
1.600000000000000033e-02 5.984270000000000422e-01 -3.562409999999999854e+00 9.097759999999999536e+01 1.462320000000000164e+03
1.700000000000000122e-02 5.980985000000000884e-01 -3.798468499999999803e+00 8.939804999999999779e+01 1.461860000000000127e+03
1.800000000000000211e-02 5.978310000000000013e-01 -3.800879499999999744e+00 8.798554999999998927e+01 1.461414999999999964e+03
1.900000000000000300e-02 5.976105000000000445e-01 -3.591696900000000081e+00 8.674915000000000020e+01 1.461014999999999873e+03
2.000000000000000042e-02 5.974099999999999966e-01 -3.222232250000000242e+00 8.564894999999999925e+01 1.460630000000000109e+03
2.100000000000000130e-02 5.972014999999999407e-01 -2.753463500000000064e+00 8.461724999999999852e+01 1.460264999999999873e+03
2.200000000000000219e-02 5.969640000000000502e-01 -2.238023000000000096e+00 8.358279999999999177e+01 1.459900000000000091e+03
2.299999999999999961e-02 5.966890000000000249e-01 -1.708169999999999966e+00 8.249195000000000277e+01 1.459519999999999982e+03
2.400000000000000050e-02 5.963780000000000747e-01 -1.172289999999999832e+00 8.132104999999999961e+01 1.459119999999999891e+03
2.500000000000000139e-02 5.960440000000000182e-01 -6.202549999999997787e-01 8.007670000000000243e+01 1.458704999999999927e+03
2.600000000000000228e-02 5.956995000000000484e-01 -3.464499999999981483e-02 7.878579999999999472e+01 1.458275000000000091e+03
2.700000000000000316e-02 5.953574999999999839e-01 5.967500000000001137e-01 7.748000000000000398e+01 1.457839999999999918e+03
2.800000000000000058e-02 5.950204999999999522e-01 1.271610000000000129e+00 7.618099999999999739e+01 1.457404999999999973e+03
2.900000000000000147e-02 5.946845000000000603e-01 1.969189999999999996e+00 7.489045000000000130e+01 1.456969999999999800e+03
3.000000000000000236e-02 5.943374999999999631e-01 2.652069999999999705e+00 7.358674999999999500e+01 1.456529999999999973e+03
3.099999999999999978e-02 5.939630000000000187e-01 3.272319999999999673e+00 7.222899999999999920e+01 1.456069999999999936e+03
3.200000000000000067e-02 5.935445000000000304e-01 3.780269999999999797e+00 7.076564999999999372e+01 1.455595000000000027e+03
3.300000000000000155e-02 5.930684999999999985e-01 4.133840000000000181e+00 6.914685000000000059e+01 1.455079999999999927e+03
3.400000000000000244e-02 5.925289999999999724e-01 4.306879999999999598e+00 6.733655000000000257e+01 1.454514999999999873e+03
3.500000000000000333e-02 5.919289999999999274e-01 4.293879999999999697e+00 6.532325000000000159e+01 1.453904999999999973e+03
3.600000000000000422e-02 5.912804999999999866e-01 4.111270000000000202e+00 6.312480000000000047e+01 1.453250000000000000e+03
3.700000000000000511e-02 5.906040000000000179e-01 3.794229999999999769e+00 6.078884999999999650e+01 1.452549999999999955e+03
3.799999999999999906e-02 5.899235000000000451e-01 3.390489999999999782e+00 5.838694999999999879e+01 1.451835000000000036e+03
3.899999999999999994e-02 5.892649999999999277e-01 2.952910000000000146e+00 5.600560000000000116e+01 1.451119999999999891e+03
4.000000000000000083e-02 5.886525000000000230e-01 2.532730000000000370e+00 5.373590000000000089e+01 1.450424999999999955e+03
4.100000000000000172e-02 5.881069999999999354e-01 2.174100000000000588e+00 5.166384999999999650e+01 1.449784999999999854e+03
4.200000000000000261e-02 5.876430000000000264e-01 1.911289999999999711e+00 4.986339999999999861e+01 1.449204999999999927e+03
4.300000000000000350e-02 5.872720000000000162e-01 1.768019999999999925e+00 4.839140000000000441e+01 1.448710000000000036e+03
4.400000000000000439e-02 5.869990000000000485e-01 1.758400000000000185e+00 4.728674999999999784e+01 1.448315000000000055e+03
4.499999999999999833e-02 5.868260000000000698e-01 1.889155000000000140e+00 4.657090000000000174e+01 1.448029999999999973e+03
4.599999999999999922e-02 5.867525000000000102e-01 2.162157999999999802e+00 4.625065000000000026e+01 1.447855000000000018e+03
4.700000000000000011e-02 5.867759999999999643e-01 2.576795000000000169e+00 4.632175000000000153e+01 1.447795000000000073e+03
4.800000000000000100e-02 5.868934999999999569e-01 3.131689999999999863e+00 4.677294999999999447e+01 1.447855000000000018e+03
4.900000000000000189e-02 5.871014999999999429e-01 3.825450000000000017e+00 4.758800000000000097e+01 1.448019999999999982e+03
5.000000000000000278e-02 5.873960000000000292e-01 4.656544999999999490e+00 4.874849999999999994e+01 1.448295000000000073e+03
5.100000000000000366e-02 5.877734999999999488e-01 5.622514999999999930e+00 5.023400000000000176e+01 1.448670000000000073e+03
5.200000000000000455e-02 5.882275000000000142e-01 6.718740000000000379e+00 5.202190000000000225e+01 1.449139999999999873e+03
5.300000000000000544e-02 5.887529999999999708e-01 7.937540000000000262e+00 5.408695000000000164e+01 1.449694999999999936e+03
5.399999999999999939e-02 5.893414999999999626e-01 9.267224999999999824e+00 5.640035000000000309e+01 1.450335000000000036e+03
5.500000000000000028e-02 5.899845000000000228e-01 1.069211999999999918e+01 5.892924999999999613e+01 1.451045000000000073e+03
5.600000000000000117e-02 5.906715000000000160e-01 1.219289000000000023e+01 6.163719999999999999e+01 1.451819999999999936e+03
5.700000000000000205e-02 5.913920000000000288e-01 1.374755500000000019e+01 6.448474999999999113e+01 1.452644999999999982e+03
5.800000000000000294e-02 5.921345000000000081e-01 1.533267500000000183e+01 6.743099999999999739e+01 1.453505000000000109e+03
5.900000000000000383e-02 5.928884999999999295e-01 1.692477500000000035e+01 7.043495000000000061e+01 1.454400000000000091e+03
6.000000000000000472e-02 5.936449999999999783e-01 1.850159999999999982e+01 7.345810000000000173e+01 1.455309999999999945e+03
6.099999999999999867e-02 5.943944999999999368e-01 2.004335000000000022e+01 7.646539999999998827e+01 1.456220000000000027e+03
6.199999999999999956e-02 5.951310000000000766e-01 2.153354999999999819e+01 7.942725000000000080e+01 1.457134999999999991e+03
6.300000000000000044e-02 5.958504999999999496e-01 2.295924999999999727e+01 8.232050000000000978e+01 1.458034999999999854e+03
6.400000000000000133e-02 5.965484999999999260e-01 2.431145000000000067e+01 8.512864999999999327e+01 1.458914999999999964e+03
6.500000000000000222e-02 5.972239999999999771e-01 2.558484999999999943e+01 8.784225000000000705e+01 1.459779999999999973e+03
6.600000000000000311e-02 5.978774999999999507e-01 2.677725000000000222e+01 9.045810000000000173e+01 1.460615000000000009e+03
6.700000000000000400e-02 5.985104999999999453e-01 2.788935000000000031e+01 9.297890000000001010e+01 1.461434999999999945e+03
6.800000000000000488e-02 5.991250000000000187e-01 2.892395000000000138e+01 9.541120000000000800e+01 1.462224999999999909e+03
6.900000000000000577e-02 5.997240000000000348e-01 2.988550000000000040e+01 9.776595000000000368e+01 1.462994999999999891e+03
7.000000000000000666e-02 6.003100000000000103e-01 3.077929999999999922e+01 1.000550000000000068e+02 1.463744999999999891e+03
7.100000000000000755e-02 6.008869999999999489e-01 3.161115000000000208e+01 1.022913999999999959e+02 1.464480000000000018e+03
7.200000000000000844e-02 6.014570000000000194e-01 3.238684999999999548e+01 1.044879499999999979e+02 1.465204999999999927e+03
7.300000000000000933e-02 6.020240000000000036e-01 3.311149999999999949e+01 1.066564999999999941e+02 1.465920000000000073e+03
7.399999999999999634e-02 6.025875000000000536e-01 3.378945000000000221e+01 1.088050000000000068e+02 1.466625000000000000e+03
7.499999999999999722e-02 6.031500000000000750e-01 3.442390000000000327e+01 1.109399999999999977e+02 1.467325000000000045e+03
7.599999999999999811e-02 6.037109999999999976e-01 3.501655000000000229e+01 1.130644999999999953e+02 1.468025000000000091e+03
7.699999999999999900e-02 6.042689999999999451e-01 3.556759999999999877e+01 1.151759999999999877e+02 1.468720000000000027e+03
7.799999999999999989e-02 6.048234999999999584e-01 3.607585000000000264e+01 1.172704999999999984e+02 1.469405000000000200e+03
7.900000000000000078e-02 6.053705000000000336e-01 3.653875000000000028e+01 1.193389999999999986e+02 1.470079999999999927e+03
8.000000000000000167e-02 6.059069999999999734e-01 3.695255000000000223e+01 1.213700000000000045e+02 1.470755000000000109e+03
8.100000000000000255e-02 6.064294999999999547e-01 3.731265000000000498e+01 1.233495000000000061e+02 1.471409999999999854e+03
8.200000000000000344e-02 6.069340000000000845e-01 3.761404999999999887e+01 1.252620000000000005e+02 1.472039999999999964e+03
8.300000000000000433e-02 6.074159999999999560e-01 3.785160000000000480e+01 1.270914999999999964e+02 1.472654999999999973e+03
8.400000000000000522e-02 6.078715000000000090e-01 3.802024999999999721e+01 1.288214999999999861e+02 1.473235000000000127e+03
8.500000000000000611e-02 6.082965000000000177e-01 3.811565000000000225e+01 1.304370000000000118e+02 1.473784999999999854e+03
8.600000000000000699e-02 6.086884999999999657e-01 3.813414999999999822e+01 1.319250000000000114e+02 1.474299999999999955e+03
8.700000000000000788e-02 6.090439999999999188e-01 3.807309999999999661e+01 1.332735000000000127e+02 1.474775000000000091e+03
8.800000000000000877e-02 6.093610000000000415e-01 3.793115000000000236e+01 1.344730000000000132e+02 1.475199999999999818e+03
8.899999999999999578e-02 6.096390000000000420e-01 3.770810000000000173e+01 1.355190000000000055e+02 1.475579999999999927e+03
8.999999999999999667e-02 6.098770000000000024e-01 3.740520000000000067e+01 1.364069999999999823e+02 1.475914999999999964e+03
9.099999999999999756e-02 6.100754999999999928e-01 3.702499999999999858e+01 1.371390000000000100e+02 1.476199999999999818e+03
9.199999999999999845e-02 6.102345000000000130e-01 3.657124999999999915e+01 1.377164999999999964e+02 1.476434999999999945e+03
9.299999999999999933e-02 6.103570000000000384e-01 3.604910000000000281e+01 1.381460000000000150e+02 1.476619999999999891e+03
9.400000000000000022e-02 6.104445000000000565e-01 3.546470000000000056e+01 1.384359999999999786e+02 1.476769999999999982e+03
9.500000000000000111e-02 6.105000000000000426e-01 3.482519999999999527e+01 1.385969999999999800e+02 1.476869999999999891e+03
9.600000000000000200e-02 6.105264999999999720e-01 3.413850000000000051e+01 1.386415000000000077e+02 1.476930000000000064e+03
9.700000000000000289e-02 6.105279999999999596e-01 3.341310000000000002e+01 1.385829999999999984e+02 1.476949999999999818e+03
9.800000000000000377e-02 6.105070000000000219e-01 3.265789999999999793e+01 1.384370000000000118e+02 1.476950000000000045e+03
9.900000000000000466e-02 6.104684999999999695e-01 3.188200000000000145e+01 1.382189999999999941e+02 1.476920000000000073e+03
1.000000000000000056e-01 6.104165000000000285e-01 3.109430000000000049e+01 1.379435000000000002e+02 1.476860000000000127e+03
1.010000000000000064e-01 6.103534999999999933e-01 3.030315000000000225e+01 1.376270000000000095e+02 1.476789999999999964e+03
1.020000000000000073e-01 6.102834999999999788e-01 2.951655000000000229e+01 1.372819999999999823e+02 1.476704999999999927e+03
1.030000000000000082e-01 6.102099999999999191e-01 2.874155000000000015e+01 1.369219999999999970e+02 1.476610000000000127e+03
1.040000000000000091e-01 6.101349999999999829e-01 2.798385000000000034e+01 1.365589999999999975e+02 1.476509999999999991e+03
1.050000000000000100e-01 6.100609999999999644e-01 2.724830000000000041e+01 1.361999999999999886e+02 1.476400000000000091e+03
1.059999999999999970e-01 6.099890000000000034e-01 2.653810000000000002e+01 1.358534999999999968e+02 1.476300000000000182e+03
1.069999999999999979e-01 6.099200000000000177e-01 2.585515000000000185e+01 1.355229999999999961e+02 1.476195000000000164e+03
1.079999999999999988e-01 6.098540000000000072e-01 2.519984999999999786e+01 1.352104999999999961e+02 1.476095000000000027e+03
1.089999999999999997e-01 6.097909999999999719e-01 2.457140000000000057e+01 1.349164999999999850e+02 1.476000000000000000e+03
1.100000000000000006e-01 6.097304999999999531e-01 2.396774999999999878e+01 1.346374999999999886e+02 1.475910000000000082e+03
1.110000000000000014e-01 6.096705000000000041e-01 2.338564999999999827e+01 1.343689999999999998e+02 1.475815000000000055e+03
1.120000000000000023e-01 6.096094999999999153e-01 2.282124999999999915e+01 1.341065000000000111e+02 1.475730000000000018e+03
1.130000000000000032e-01 6.095464999999999911e-01 2.226995000000000147e+01 1.338419999999999845e+02 1.475639999999999873e+03
1.140000000000000041e-01 6.094789999999999930e-01 2.172690000000000055e+01 1.335674999999999955e+02 1.475549999999999955e+03
1.150000000000000050e-01 6.094049999999999745e-01 2.118719999999999715e+01 1.332764999999999986e+02 1.475450000000000045e+03
1.160000000000000059e-01 6.093230000000000590e-01 2.064580000000000126e+01 1.329599999999999795e+02 1.475355000000000018e+03
1.170000000000000068e-01 6.092319999999999958e-01 2.009844999999999970e+01 1.326115000000000066e+02 1.475244999999999891e+03
1.180000000000000077e-01 6.091290000000000315e-01 1.954110000000000014e+01 1.322259999999999991e+02 1.475119999999999891e+03
1.190000000000000085e-01 6.090145000000000142e-01 1.897060000000000102e+01 1.317969999999999970e+02 1.474990000000000009e+03
1.200000000000000094e-01 6.088875000000000259e-01 1.838459999999999894e+01 1.313220000000000027e+02 1.474839999999999918e+03
1.209999999999999964e-01 6.087474999999999969e-01 1.778164999999999907e+01 1.307994999999999948e+02 1.474684999999999945e+03
1.219999999999999973e-01 6.085954999999999560e-01 1.716140000000000043e+01 1.302295000000000016e+02 1.474509999999999991e+03
1.229999999999999982e-01 6.084315000000000140e-01 1.652465000000000117e+01 1.296144999999999925e+02 1.474325000000000045e+03
1.239999999999999991e-01 6.082579999999999654e-01 1.587300000000000111e+01 1.289579999999999984e+02 1.474119999999999891e+03
1.250000000000000000e-01 6.080749999999999211e-01 1.520919999999999916e+01 1.282655000000000030e+02 1.473910000000000082e+03
1.260000000000000009e-01 6.078864999999999963e-01 1.453688000000000002e+01 1.275444999999999993e+02 1.473690000000000055e+03
1.270000000000000018e-01 6.076924999999999688e-01 1.386035500000000198e+01 1.268024999999999949e+02 1.473464999999999918e+03
1.280000000000000027e-01 6.074969999999999537e-01 1.318466000000000093e+01 1.260499999999999972e+02 1.473234999999999900e+03
1.290000000000000036e-01 6.073029999999999262e-01 1.251521999999999935e+01 1.252955000000000041e+02 1.473000000000000000e+03
1.300000000000000044e-01 6.071115000000000261e-01 1.185778499999999980e+01 1.245509999999999877e+02 1.472764999999999873e+03
1.310000000000000053e-01 6.069265000000000354e-01 1.121813000000000038e+01 1.238255000000000052e+02 1.472534999999999854e+03
1.320000000000000062e-01 6.067499999999999005e-01 1.060195500000000024e+01 1.231304999999999978e+02 1.472315000000000055e+03
1.330000000000000071e-01 6.065844999999999709e-01 1.001453000000000060e+01 1.224745000000000061e+02 1.472105000000000018e+03
1.340000000000000080e-01 6.064320000000000821e-01 9.460715000000000430e+00 1.218654999999999973e+02 1.471904999999999973e+03
1.350000000000000089e-01 6.062939999999999996e-01 8.944605000000001027e+00 1.213114999999999952e+02 1.471720000000000027e+03
1.360000000000000098e-01 6.061720000000000441e-01 8.469614999999999227e+00 1.208174999999999955e+02 1.471549999999999955e+03
1.370000000000000107e-01 6.060669999999999114e-01 8.038090000000000401e+00 1.203880000000000052e+02 1.471400000000000091e+03
1.380000000000000115e-01 6.059790000000000454e-01 7.651540000000000674e+00 1.200244999999999891e+02 1.471269999999999982e+03
1.390000000000000124e-01 6.059080000000000021e-01 7.310415000000000774e+00 1.197279999999999944e+02 1.471154999999999973e+03
1.400000000000000133e-01 6.058529999999999749e-01 7.014224999999999710e+00 1.194964999999999975e+02 1.471065000000000055e+03
1.410000000000000142e-01 6.058135000000000048e-01 6.761554999999999538e+00 1.193280000000000030e+02 1.470990000000000009e+03
1.420000000000000151e-01 6.057885000000000630e-01 6.550184999999999924e+00 1.192169999999999987e+02 1.470934999999999945e+03
1.430000000000000160e-01 6.057765000000000510e-01 6.377164999999999750e+00 1.191585000000000036e+02 1.470900000000000091e+03
1.440000000000000169e-01 6.057745000000001045e-01 6.239005000000000578e+00 1.191454999999999984e+02 1.470880000000000109e+03
1.450000000000000178e-01 6.057814999999999728e-01 6.131769999999999499e+00 1.191715000000000089e+02 1.470865000000000009e+03
1.459999999999999909e-01 6.057965000000000710e-01 6.051285000000000025e+00 1.192274999999999920e+02 1.470869999999999891e+03
1.469999999999999918e-01 6.058160000000000212e-01 5.993249999999999744e+00 1.193075000000000045e+02 1.470875000000000000e+03
1.479999999999999927e-01 6.058384999999999465e-01 5.953395000000000437e+00 1.194029999999999916e+02 1.470889999999999873e+03
1.489999999999999936e-01 6.058630000000000404e-01 5.927595000000000169e+00 1.195070000000000050e+02 1.470914999999999964e+03
1.499999999999999944e-01 6.058879999999999821e-01 5.911995000000000111e+00 1.196135000000000019e+02 1.470934999999999945e+03
1.509999999999999953e-01 6.059109999999999774e-01 5.903074999999999406e+00 1.197164999999999964e+02 1.470960000000000036e+03
1.519999999999999962e-01 6.059319999999999151e-01 5.897714999999999819e+00 1.198119999999999976e+02 1.470985000000000127e+03
1.529999999999999971e-01 6.059494999999999187e-01 5.893240000000000478e+00 1.198950000000000102e+02 1.471009999999999991e+03
1.539999999999999980e-01 6.059639999999999471e-01 5.887439999999999785e+00 1.199645000000000010e+02 1.471025000000000091e+03
1.549999999999999989e-01 6.059740000000000126e-01 5.878565000000000040e+00 1.200165000000000077e+02 1.471039999999999964e+03
1.559999999999999998e-01 6.059795000000000043e-01 5.865294999999999703e+00 1.200519999999999925e+02 1.471050000000000182e+03
1.570000000000000007e-01 6.059814999999999507e-01 5.846765000000000434e+00 1.200695000000000050e+02 1.471059999999999945e+03
1.580000000000000016e-01 6.059790000000000454e-01 5.822454999999999714e+00 1.200704999999999956e+02 1.471059999999999945e+03
1.590000000000000024e-01 6.059730000000000949e-01 5.792215000000000558e+00 1.200554999999999950e+02 1.471055000000000064e+03
