# t [s], A [cm^2], U [cm/s], P [cPa], c [cm/s]
1.000000000000000021e-03 1.595799999999999996e-01 2.918680000000000163e-01 9.541640000000001010e+01 1.844105000000000018e+03
2.000000000000000042e-03 1.595515000000000128e-01 1.773451499999999958e+00 9.252219999999999800e+01 1.843839999999999918e+03
3.000000000000000062e-03 1.594480000000000064e-01 3.589696500000000068e+00 8.870830000000000837e+01 1.842929999999999836e+03
4.000000000000000083e-03 1.592939999999999912e-01 5.604518999999999807e+00 8.445374999999999943e+01 1.841599999999999909e+03
5.000000000000000104e-03 1.591159999999999797e-01 7.767285000000000217e+00 8.045484999999999332e+01 1.840090000000000146e+03
6.000000000000000125e-03 1.589355000000000073e-01 9.971664999999999779e+00 7.706559999999998922e+01 1.838554999999999836e+03
7.000000000000000146e-03 1.587614999999999998e-01 1.205951500000000109e+01 7.423720000000000141e+01 1.837105000000000018e+03
8.000000000000000167e-03 1.585975000000000024e-01 1.391199500000000100e+01 7.175535000000000707e+01 1.835755000000000109e+03
9.000000000000001055e-03 1.584464999999999901e-01 1.550950000000000095e+01 6.952795000000000414e+01 1.834534999999999854e+03
1.000000000000000194e-02 1.583114999999999939e-01 1.688185000000000002e+01 6.759714999999999918e+01 1.833444999999999936e+03
1.099999999999999936e-02 1.581944999999999879e-01 1.804950000000000188e+01 6.599094999999999800e+01 1.832519999999999982e+03
1.200000000000000025e-02 1.580949999999999855e-01 1.902214999999999989e+01 6.468274999999999864e+01 1.831740000000000009e+03
1.300000000000000114e-02 1.580125000000000002e-01 1.980874999999999986e+01 6.362525000000000119e+01 1.831099999999999909e+03
1.400000000000000203e-02 1.579440000000000011e-01 2.041550000000000153e+01 6.275874999999999915e+01 1.830574999999999818e+03
1.499999999999999944e-02 1.578869999999999996e-01 2.085085000000000122e+01 6.201624999999999943e+01 1.830139999999999873e+03
1.600000000000000033e-02 1.578384999999999927e-01 2.114584999999999937e+01 6.137104999999999677e+01 1.829784999999999854e+03
1.700000000000000122e-02 1.577999999999999958e-01 2.136870000000000047e+01 6.089300000000000068e+01 1.829505000000000109e+03
1.800000000000000211e-02 1.577749999999999986e-01 2.161315000000000097e+01 6.074954999999999927e+01 1.829329999999999927e+03
1.900000000000000300e-02 1.577684999999999782e-01 2.196415000000000006e+01 6.113224999999999909e+01 1.829289999999999964e+03
2.000000000000000042e-02 1.577850000000000086e-01 2.246225000000000094e+01 6.215269999999999584e+01 1.829429999999999836e+03
2.100000000000000130e-02 1.578244999999999787e-01 2.308605000000000018e+01 6.376900000000000546e+01 1.829750000000000000e+03
2.200000000000000219e-02 1.578844999999999832e-01 2.376014999999999944e+01 6.577795000000000414e+01 1.830230000000000018e+03
2.299999999999999961e-02 1.579559999999999853e-01 2.438109999999999999e+01 6.787020000000001119e+01 1.830805000000000064e+03
2.400000000000000050e-02 1.580294999999999894e-01 2.485000000000000142e+01 6.971975000000000477e+01 1.831400000000000091e+03
2.500000000000000139e-02 1.580954999999999999e-01 2.509944999999999737e+01 7.107144999999999868e+01 1.831944999999999936e+03
2.600000000000000228e-02 1.581460000000000088e-01 2.510775000000000290e+01 7.179944999999999311e+01 1.832365000000000009e+03
2.700000000000000316e-02 1.581780000000000130e-01 2.489829999999999899e+01 7.192194999999999538e+01 1.832639999999999873e+03
2.800000000000000058e-02 1.581919999999999993e-01 2.452599999999999980e+01 7.157390000000000896e+01 1.832775000000000091e+03
2.900000000000000147e-02 1.581919999999999993e-01 2.405715000000000003e+01 7.095115000000001260e+01 1.832795000000000073e+03
3.000000000000000236e-02 1.581830000000000180e-01 2.354990000000000094e+01 7.024715000000000487e+01 1.832730000000000018e+03
3.099999999999999978e-02 1.581695000000000184e-01 2.304075000000000273e+01 6.960210000000000719e+01 1.832630000000000109e+03
3.200000000000000067e-02 1.581549999999999900e-01 2.253999999999999915e+01 6.907659999999999911e+01 1.832519999999999982e+03
3.300000000000000155e-02 1.581414999999999904e-01 2.203634999999999877e+01 6.865375000000000227e+01 1.832414999999999964e+03
3.400000000000000244e-02 1.581274999999999764e-01 2.150634999999999764e+01 6.826330000000000098e+01 1.832304999999999836e+03
3.500000000000000333e-02 1.581120000000000025e-01 2.092739999999999867e+01 6.781780000000000541e+01 1.832184999999999945e+03
3.600000000000000422e-02 1.580929999999999835e-01 2.028815000000000168e+01 6.724960000000000093e+01 1.832039999999999964e+03
3.700000000000000511e-02 1.580695000000000017e-01 1.959629999999999939e+01 6.653830000000000666e+01 1.831855000000000018e+03
3.799999999999999906e-02 1.580409999999999870e-01 1.887979999999999947e+01 6.572354999999998881e+01 1.831640000000000100e+03
3.899999999999999994e-02 1.580110000000000126e-01 1.818299999999999983e+01 6.489985000000000070e+01 1.831394999999999982e+03
4.000000000000000083e-02 1.579809999999999826e-01 1.755799999999999983e+01 6.419639999999999702e+01 1.831159999999999854e+03
4.100000000000000172e-02 1.579564999999999997e-01 1.705399999999999849e+01 6.374710000000000321e+01 1.830964999999999918e+03
4.200000000000000261e-02 1.579419999999999991e-01 1.670664999999999978e+01 6.365919999999999845e+01 1.830840000000000146e+03
4.300000000000000350e-02 1.579400000000000248e-01 1.653099999999999881e+01 6.398789999999999623e+01 1.830820000000000164e+03
4.400000000000000439e-02 1.579524999999999957e-01 1.651804999999999879e+01 6.472274999999999068e+01 1.830900000000000091e+03
4.499999999999999833e-02 1.579780000000000073e-01 1.663649999999999807e+01 6.578799999999999670e+01 1.831095000000000027e+03
4.599999999999999922e-02 1.580145000000000022e-01 1.683740000000000236e+01 6.705514999999999759e+01 1.831380000000000109e+03
4.700000000000000011e-02 1.580579999999999763e-01 1.706244999999999834e+01 6.836395000000000266e+01 1.831720000000000027e+03
4.800000000000000100e-02 1.581035000000000079e-01 1.725175000000000125e+01 6.954725000000000534e+01 1.832074999999999818e+03
4.900000000000000189e-02 1.581444999999999934e-01 1.735115000000000052e+01 7.045400000000000773e+01 1.832400000000000091e+03
5.000000000000000278e-02 1.581770000000000120e-01 1.731799999999999784e+01 7.096699999999999875e+01 1.832659999999999854e+03
5.100000000000000366e-02 1.581960000000000033e-01 1.712395000000000067e+01 7.101330000000000098e+01 1.832815000000000055e+03
5.200000000000000455e-02 1.581990000000000063e-01 1.675564999999999927e+01 7.056669999999999732e+01 1.832849999999999909e+03
5.300000000000000544e-02 1.581850000000000200e-01 1.621359999999999957e+01 6.964355000000000473e+01 1.832744999999999891e+03
5.399999999999999939e-02 1.581535000000000024e-01 1.550949999999999918e+01 6.829355000000001041e+01 1.832500000000000000e+03
5.500000000000000028e-02 1.581059999999999965e-01 1.466300000000000026e+01 6.658889999999999532e+01 1.832125000000000000e+03
5.600000000000000117e-02 1.580439999999999900e-01 1.369890000000000008e+01 6.461275000000000546e+01 1.831644999999999982e+03
5.700000000000000205e-02 1.579714999999999869e-01 1.264448499999999953e+01 6.245060000000000144e+01 1.831069999999999936e+03
5.800000000000000294e-02 1.578894999999999882e-01 1.152820999999999962e+01 6.018394999999999584e+01 1.830424999999999955e+03
5.900000000000000383e-02 1.578019999999999978e-01 1.037867499999999943e+01 5.788729999999999620e+01 1.829724999999999909e+03
6.000000000000000472e-02 1.577115000000000045e-01 9.224375000000000213e+00 5.562805000000000177e+01 1.829009999999999991e+03
6.099999999999999867e-02 1.576204999999999967e-01 8.093975000000000364e+00 5.346755000000000280e+01 1.828285000000000082e+03
6.199999999999999956e-02 1.575325000000000197e-01 7.016370000000000218e+00 5.146330000000000382e+01 1.827579999999999927e+03
6.300000000000000044e-02 1.574484999999999912e-01 6.020719999999999850e+00 4.967095000000000482e+01 1.826909999999999854e+03
6.400000000000000133e-02 1.573720000000000119e-01 5.136264999999999858e+00 4.814480000000000359e+01 1.826295000000000073e+03
6.500000000000000222e-02 1.573054999999999870e-01 4.391539999999999999e+00 4.693820000000000192e+01 1.825759999999999991e+03
6.600000000000000311e-02 1.572505000000000153e-01 3.813480000000000203e+00 4.610170000000000101e+01 1.825315000000000055e+03
6.700000000000000400e-02 1.572105000000000030e-01 3.426190000000000069e+00 4.568089999999999407e+01 1.824985000000000127e+03
6.800000000000000488e-02 1.571859999999999924e-01 3.249705000000000066e+00 4.571359999999999957e+01 1.824775000000000091e+03
6.900000000000000577e-02 1.571784999999999988e-01 3.298820000000000086e+00 4.622690000000000055e+01 1.824704999999999927e+03
7.000000000000000666e-02 1.571909999999999974e-01 3.582180000000000142e+00 4.723485000000000156e+01 1.824789999999999964e+03
7.100000000000000755e-02 1.572230000000000016e-01 4.101700000000000124e+00 4.873669999999999902e+01 1.825025000000000091e+03
7.200000000000000844e-02 1.572744999999999838e-01 4.852414999999999701e+00 5.071670000000000300e+01 1.825420000000000073e+03
7.300000000000000933e-02 1.573454999999999993e-01 5.822720000000000340e+00 5.314444999999999908e+01 1.825970000000000027e+03
7.399999999999999634e-02 1.574355000000000060e-01 6.995050000000000878e+00 5.597660000000000480e+01 1.826670000000000073e+03
7.499999999999999722e-02 1.575420000000000154e-01 8.346735000000000682e+00 5.915914999999999679e+01 1.827505000000000109e+03
7.599999999999999811e-02 1.576639999999999986e-01 9.851255000000000095e+00 6.263065000000000282e+01 1.828465000000000146e+03
7.699999999999999900e-02 1.577989999999999948e-01 1.147937500000000099e+01 6.632545000000000357e+01 1.829529999999999973e+03
7.799999999999999989e-02 1.579450000000000021e-01 1.320066500000000076e+01 7.017669999999999675e+01 1.830690000000000055e+03
7.900000000000000078e-02 1.580989999999999895e-01 1.498455000000000048e+01 7.411994999999998868e+01 1.831909999999999854e+03
8.000000000000000167e-02 1.582580000000000098e-01 1.680174999999999841e+01 7.809565000000000623e+01 1.833184999999999945e+03
8.100000000000000255e-02 1.584209999999999785e-01 1.862514999999999787e+01 8.205150000000000432e+01 1.834485000000000127e+03
8.200000000000000344e-02 1.585845000000000171e-01 2.043084999999999951e+01 8.594440000000000168e+01 1.835804999999999836e+03
8.300000000000000433e-02 1.587480000000000002e-01 2.219859999999999900e+01 8.974129999999999541e+01 1.837115000000000009e+03
8.400000000000000522e-02 1.589090000000000225e-01 2.391254999999999953e+01 9.341995000000000005e+01 1.838414999999999964e+03
8.500000000000000611e-02 1.590664999999999996e-01 2.556099999999999994e+01 9.696860000000000923e+01 1.839695000000000164e+03
8.600000000000000699e-02 1.592204999999999870e-01 2.713669999999999760e+01 1.003854000000000042e+02 1.840945000000000164e+03
8.700000000000000788e-02 1.593704999999999983e-01 2.863609999999999900e+01 1.036765000000000043e+02 1.842164999999999964e+03
8.800000000000000877e-02 1.595155000000000045e-01 3.005920000000000059e+01 1.068545000000000016e+02 1.843355000000000018e+03
8.899999999999999578e-02 1.596575000000000077e-01 3.140859999999999985e+01 1.099369999999999976e+02 1.844514999999999873e+03
8.999999999999999667e-02 1.597955000000000070e-01 3.268885000000000218e+01 1.129430000000000121e+02 1.845644999999999982e+03
9.099999999999999756e-02 1.599309999999999898e-01 3.390559999999999974e+01 1.158924999999999983e+02 1.846755000000000109e+03
9.199999999999999845e-02 1.600639999999999841e-01 3.506489999999999441e+01 1.188044999999999902e+02 1.847844999999999800e+03
9.299999999999999933e-02 1.601950000000000041e-01 3.617239999999999611e+01 1.216920000000000073e+02 1.848929999999999836e+03
9.400000000000000022e-02 1.603255000000000097e-01 3.723290000000000077e+01 1.245660000000000025e+02 1.850000000000000000e+03
9.500000000000000111e-02 1.604544999999999999e-01 3.824974999999999881e+01 1.274320000000000022e+02 1.851065000000000055e+03
9.600000000000000200e-02 1.605830000000000035e-01 3.922464999999999691e+01 1.302880000000000109e+02 1.852125000000000000e+03
9.700000000000000289e-02 1.607109999999999927e-01 4.015775000000000006e+01 1.331295000000000073e+02 1.853180000000000064e+03
9.800000000000000377e-02 1.608375000000000221e-01 4.104715000000000202e+01 1.359445000000000050e+02 1.854224999999999909e+03
9.900000000000000466e-02 1.609634999999999816e-01 4.188949999999999818e+01 1.387185000000000059e+02 1.855260000000000218e+03
1.000000000000000056e-01 1.610870000000000080e-01 4.267974999999999852e+01 1.414325000000000045e+02 1.856284999999999854e+03
1.010000000000000064e-01 1.612084999999999768e-01 4.341190000000000282e+01 1.440645000000000095e+02 1.857284999999999854e+03
1.020000000000000073e-01 1.613264999999999838e-01 4.407920000000000016e+01 1.465935000000000059e+02 1.858269999999999982e+03
1.030000000000000082e-01 1.614404999999999868e-01 4.467409999999999570e+01 1.489954999999999927e+02 1.859210000000000036e+03
1.040000000000000091e-01 1.615495000000000125e-01 4.518935000000000457e+01 1.512500000000000000e+02 1.860115000000000009e+03
1.050000000000000100e-01 1.616520000000000179e-01 4.561769999999999925e+01 1.533354999999999961e+02 1.860970000000000027e+03
1.059999999999999970e-01 1.617480000000000029e-01 4.595260000000000389e+01 1.552330000000000041e+02 1.861769999999999982e+03
1.069999999999999979e-01 1.618364999999999942e-01 4.618845000000000312e+01 1.569284999999999854e+02 1.862505000000000109e+03
1.079999999999999988e-01 1.619165000000000187e-01 4.632075000000000387e+01 1.584085000000000036e+02 1.863180000000000064e+03
1.089999999999999997e-01 1.619880000000000209e-01 4.634644999999999726e+01 1.596649999999999920e+02 1.863780000000000200e+03
1.100000000000000006e-01 1.620504999999999862e-01 4.626415000000000077e+01 1.606940000000000168e+02 1.864309999999999945e+03
1.110000000000000014e-01 1.621035000000000115e-01 4.607415000000000305e+01 1.614939999999999998e+02 1.864755000000000109e+03
1.120000000000000023e-01 1.621469999999999856e-01 4.577859999999999729e+01 1.620699999999999932e+02 1.865125000000000000e+03
1.130000000000000032e-01 1.621814999999999785e-01 4.538159999999999883e+01 1.624295000000000186e+02 1.865424999999999955e+03
1.140000000000000041e-01 1.622065000000000035e-01 4.488875000000000171e+01 1.625840000000000032e+02 1.865640000000000100e+03
1.150000000000000050e-01 1.622230000000000061e-01 4.430765000000000242e+01 1.625500000000000114e+02 1.865785000000000082e+03
1.160000000000000059e-01 1.622310000000000141e-01 4.364709999999999468e+01 1.623445000000000107e+02 1.865859999999999900e+03
1.170000000000000068e-01 1.622315000000000007e-01 4.291724999999999568e+01 1.619894999999999925e+02 1.865875000000000000e+03
1.180000000000000077e-01 1.622250000000000081e-01 4.212905000000000655e+01 1.615060000000000002e+02 1.865829999999999927e+03
1.190000000000000085e-01 1.622124999999999817e-01 4.129404999999999859e+01 1.609189999999999827e+02 1.865740000000000009e+03
1.200000000000000094e-01 1.621954999999999925e-01 4.042395000000000493e+01 1.602504999999999882e+02 1.865599999999999909e+03
1.209999999999999964e-01 1.621744999999999992e-01 3.953029999999999688e+01 1.595240000000000009e+02 1.865430000000000064e+03
1.219999999999999973e-01 1.621489999999999876e-01 3.862409999999999854e+01 1.587595000000000027e+02 1.865230000000000018e+03
1.229999999999999982e-01 1.621225000000000027e-01 3.771555000000000035e+01 1.579769999999999754e+02 1.865009999999999991e+03
1.239999999999999991e-01 1.620940000000000158e-01 3.681380000000000052e+01 1.571924999999999955e+02 1.864775000000000091e+03
1.250000000000000000e-01 1.620639999999999858e-01 3.592650000000000432e+01 1.564194999999999993e+02 1.864530000000000200e+03
1.260000000000000009e-01 1.620340000000000114e-01 3.505995000000000061e+01 1.556674999999999898e+02 1.864285000000000082e+03
1.270000000000000018e-01 1.620044999999999957e-01 3.421880000000000166e+01 1.549429999999999836e+02 1.864035000000000082e+03
1.280000000000000027e-01 1.619750000000000079e-01 3.340599999999999881e+01 1.542495000000000118e+02 1.863789999999999964e+03
1.290000000000000036e-01 1.619460000000000066e-01 3.262295000000000300e+01 1.535865000000000009e+02 1.863549999999999955e+03
1.300000000000000044e-01 1.619185000000000207e-01 3.186945000000000050e+01 1.529505000000000052e+02 1.863315000000000055e+03
1.310000000000000053e-01 1.618910000000000071e-01 3.114389999999999858e+01 1.523360000000000127e+02 1.863089999999999918e+03
1.320000000000000062e-01 1.618640000000000079e-01 3.044350000000000023e+01 1.517344999999999970e+02 1.862860000000000127e+03
1.330000000000000071e-01 1.618379999999999819e-01 2.976440000000000197e+01 1.511355000000000075e+02 1.862639999999999873e+03
1.340000000000000080e-01 1.618114999999999970e-01 2.910184999999999889e+01 1.505285000000000082e+02 1.862420000000000073e+03
1.350000000000000089e-01 1.617839999999999834e-01 2.845064999999999955e+01 1.499019999999999868e+02 1.862194999999999936e+03
1.360000000000000098e-01 1.617564999999999975e-01 2.780529999999999902e+01 1.492429999999999950e+02 1.861960000000000036e+03
1.370000000000000107e-01 1.617274999999999963e-01 2.716035000000000110e+01 1.485414999999999850e+02 1.861720000000000027e+03
1.380000000000000115e-01 1.616965000000000208e-01 2.651060000000000016e+01 1.477864999999999895e+02 1.861465000000000146e+03
1.390000000000000124e-01 1.616640000000000021e-01 2.585119999999999862e+01 1.469699999999999989e+02 1.861195000000000164e+03
1.400000000000000133e-01 1.616289999999999949e-01 2.517835000000000178e+01 1.460840000000000032e+02 1.860900000000000091e+03
1.410000000000000142e-01 1.615909999999999846e-01 2.448890000000000100e+01 1.451250000000000000e+02 1.860590000000000146e+03
1.420000000000000151e-01 1.615499999999999992e-01 2.378079999999999927e+01 1.440904999999999916e+02 1.860250000000000000e+03
1.430000000000000160e-01 1.615064999999999973e-01 2.305330000000000013e+01 1.429814999999999827e+02 1.859889999999999873e+03
1.440000000000000169e-01 1.614595000000000058e-01 2.230695000000000050e+01 1.418025000000000091e+02 1.859505000000000109e+03
1.450000000000000178e-01 1.614105000000000123e-01 2.154339999999999833e+01 1.405589999999999975e+02 1.859099999999999909e+03
1.459999999999999909e-01 1.613580000000000014e-01 2.076555000000000106e+01 1.392599999999999909e+02 1.858670000000000073e+03
1.469999999999999918e-01 1.613030000000000019e-01 1.997749999999999915e+01 1.379170000000000016e+02 1.858224999999999909e+03
1.479999999999999927e-01 1.612469999999999737e-01 1.918440000000000012e+01 1.365430000000000064e+02 1.857759999999999991e+03
1.489999999999999936e-01 1.611889999999999989e-01 1.839204999999999757e+01 1.351524999999999750e+02 1.857279999999999973e+03
1.499999999999999944e-01 1.611299999999999955e-01 1.760694999999999766e+01 1.337620000000000005e+02 1.856795000000000073e+03
1.509999999999999953e-01 1.610709999999999920e-01 1.683595000000000041e+01 1.323865000000000123e+02 1.856309999999999945e+03
1.519999999999999962e-01 1.610125000000000028e-01 1.608599999999999852e+01 1.310424999999999898e+02 1.855824999999999818e+03
1.529999999999999971e-01 1.609545000000000003e-01 1.536390000000000100e+01 1.297450000000000045e+02 1.855349999999999909e+03
1.539999999999999980e-01 1.608984999999999999e-01 1.467600000000000016e+01 1.285080000000000098e+02 1.854884999999999991e+03
1.549999999999999989e-01 1.608439999999999870e-01 1.402820000000000000e+01 1.273435000000000059e+02 1.854440000000000055e+03
1.559999999999999998e-01 1.607925000000000049e-01 1.342534999999999989e+01 1.262624999999999886e+02 1.854014999999999873e+03
1.570000000000000007e-01 1.607445000000000124e-01 1.287144999999999939e+01 1.252719999999999914e+02 1.853610000000000127e+03
1.580000000000000016e-01 1.606990000000000085e-01 1.236950000000000038e+01 1.243764999999999930e+02 1.853240000000000009e+03
1.590000000000000024e-01 1.606579999999999953e-01 1.192122499999999974e+01 1.235809999999999889e+02 1.852900000000000091e+03
