# t [s], A [cm^2], U [cm/s], P [cPa], c [cm/s]
1.000000000000000021e-03 5.251660000000000217e-01 4.437700000000002754e-03 9.408455000000000723e+01 1.559829999999999927e+03
2.000000000000000042e-03 5.251569999999999849e-01 -3.070479999999999998e-03 9.406029999999999802e+01 1.559824999999999818e+03
3.000000000000000062e-03 5.251930000000000209e-01 6.978850000000000331e-02 9.413280000000000314e+01 1.559845000000000027e+03
4.000000000000000083e-03 5.252379999999999827e-01 1.667888000000000148e-01 9.425024999999999409e+01 1.559880000000000109e+03
5.000000000000000104e-03 5.252319999999999212e-01 1.712825000000000042e-01 9.424455000000000382e+01 1.559880000000000109e+03
6.000000000000000125e-03 5.251839999999999842e-01 8.900000000000002354e-02 9.408310000000000173e+01 1.559840000000000146e+03
7.000000000000000146e-03 5.251384999999999525e-01 6.606500000000015138e-03 9.386024999999999352e+01 1.559784999999999854e+03
8.000000000000000167e-03 5.250844999999999541e-01 -1.029380000000000295e-01 9.356325000000001069e+01 1.559704999999999927e+03
9.000000000000001055e-03 5.249905000000000266e-01 -3.065650000000000874e-01 9.310750000000000171e+01 1.559585000000000036e+03
1.000000000000000194e-02 5.248509999999999565e-01 -6.154900000000000926e-01 9.245080000000000098e+01 1.559409999999999854e+03
1.099999999999999936e-02 5.246600000000000152e-01 -1.038339999999999819e+00 9.155244999999999322e+01 1.559170000000000073e+03
1.200000000000000025e-02 5.244005000000000472e-01 -1.595145000000000035e+00 9.035439999999999827e+01 1.558845000000000027e+03
1.300000000000000114e-02 5.240770000000000151e-01 -2.264050000000000118e+00 8.884449999999999648e+01 1.558429999999999836e+03
1.400000000000000203e-02 5.237220000000000208e-01 -2.951414999999999900e+00 8.710960000000000036e+01 1.557934999999999945e+03
1.499999999999999944e-02 5.233870000000000466e-01 -3.525800000000000267e+00 8.531374999999999886e+01 1.557404999999999973e+03
1.600000000000000033e-02 5.231090000000000462e-01 -3.878531500000000243e+00 8.362440000000000850e+01 1.556889999999999873e+03
1.700000000000000122e-02 5.228979999999999739e-01 -3.963046499999999916e+00 8.214830000000000609e+01 1.556409999999999854e+03
1.800000000000000211e-02 5.227405000000000523e-01 -3.798882000000000314e+00 8.090545000000000186e+01 1.555974999999999909e+03
1.900000000000000300e-02 5.226060000000000150e-01 -3.451233000000000217e+00 7.984004999999999086e+01 1.555579999999999927e+03
2.000000000000000042e-02 5.224615000000000231e-01 -3.001144000000000034e+00 7.885300000000000864e+01 1.555210000000000036e+03
2.100000000000000130e-02 5.222835000000000116e-01 -2.517666500000000251e+00 7.784154999999999802e+01 1.554829999999999927e+03
2.200000000000000219e-02 5.220629999999999438e-01 -2.039161500000000071e+00 7.673314999999999486e+01 1.554430000000000064e+03
2.299999999999999961e-02 5.218055000000000332e-01 -1.568284999999999929e+00 7.550390000000000157e+01 1.554000000000000000e+03
2.400000000000000050e-02 5.215265000000000040e-01 -1.080770000000000008e+00 7.417754999999999654e+01 1.553539999999999964e+03
2.500000000000000139e-02 5.212455000000000283e-01 -5.433700000000001307e-01 7.280670000000000641e+01 1.553069999999999936e+03
2.600000000000000228e-02 5.209759999999999946e-01 6.707499999999999574e-02 7.144689999999999941e+01 1.552599999999999909e+03
2.700000000000000316e-02 5.207215000000000593e-01 7.501649999999999707e-01 7.013290000000000646e+01 1.552134999999999991e+03
2.800000000000000058e-02 5.204755000000000908e-01 1.477334999999999843e+00 6.886440000000000339e+01 1.551674999999999955e+03
2.900000000000000147e-02 5.202215000000000034e-01 2.195870000000000211e+00 6.760329999999999018e+01 1.551224999999999909e+03
3.000000000000000236e-02 5.199400000000000688e-01 2.839245000000000019e+00 6.628244999999999720e+01 1.550755000000000109e+03
3.099999999999999978e-02 5.196115000000000039e-01 3.341120000000000090e+00 6.482175000000000864e+01 1.550259999999999991e+03
3.200000000000000067e-02 5.192210000000000436e-01 3.649639999999999773e+00 6.314885000000000304e+01 1.549710000000000036e+03
3.300000000000000155e-02 5.187654999999999905e-01 3.739015000000000200e+00 6.121935000000000571e+01 1.549089999999999918e+03
3.400000000000000244e-02 5.182530000000000747e-01 3.615185000000000315e+00 5.903085000000000093e+01 1.548400000000000091e+03
3.500000000000000333e-02 5.177009999999999668e-01 3.314249999999999918e+00 5.662739999999999441e+01 1.547655000000000200e+03
3.600000000000000422e-02 5.171350000000000113e-01 2.894174999999999720e+00 5.409385000000000332e+01 1.546875000000000000e+03
3.700000000000000511e-02 5.165824999999999445e-01 2.423470000000000457e+00 5.154189999999999827e+01 1.546075000000000045e+03
3.799999999999999906e-02 5.160704999999999876e-01 1.969615000000000116e+00 4.909324999999999761e+01 1.545300000000000182e+03
3.899999999999999994e-02 5.156205000000000371e-01 1.590169999999999639e+00 4.686384999999999934e+01 1.544575000000000045e+03
4.000000000000000083e-02 5.152474999999999694e-01 1.327910000000000146e+00 4.495125000000000171e+01 1.543929999999999836e+03
4.100000000000000172e-02 5.149614999999999609e-01 1.209870000000000001e+00 4.342804999999999893e+01 1.543400000000000091e+03
4.200000000000000261e-02 5.147659999999999458e-01 1.249204999999999899e+00 4.234000000000000341e+01 1.542990000000000009e+03
4.300000000000000350e-02 5.146600000000000064e-01 1.448939999999999895e+00 4.170794999999999675e+01 1.542710000000000036e+03
4.400000000000000439e-02 5.146425000000000027e-01 1.806459499999999885e+00 4.153324999999999534e+01 1.542570000000000164e+03
4.499999999999999833e-02 5.147089999999999721e-01 2.317509999999999959e+00 4.180429999999999779e+01 1.542570000000000164e+03
4.599999999999999922e-02 5.148559999999999803e-01 2.978944999999999954e+00 4.250240000000000151e+01 1.542710000000000036e+03
4.700000000000000011e-02 5.150799999999999823e-01 3.789801999999999893e+00 4.360679999999999978e+01 1.542974999999999909e+03
4.800000000000000100e-02 5.153794999999999904e-01 4.750675500000000717e+00 4.509680000000000177e+01 1.543369999999999891e+03
4.900000000000000189e-02 5.157509999999999595e-01 5.861870500000000206e+00 4.695179999999999865e+01 1.543884999999999991e+03
5.000000000000000278e-02 5.161910000000000664e-01 7.121074000000000126e+00 4.915004999999999313e+01 1.544509999999999991e+03
5.100000000000000366e-02 5.166939999999999866e-01 8.521440000000000126e+00 5.166615000000000180e+01 1.545250000000000000e+03
5.200000000000000455e-02 5.172550000000000203e-01 1.005010500000000029e+01 5.446925000000000239e+01 1.546079999999999927e+03
5.300000000000000544e-02 5.178629999999999622e-01 1.168843999999999994e+01 5.752224999999999966e+01 1.547000000000000000e+03
5.399999999999999939e-02 5.185100000000000264e-01 1.341244499999999995e+01 6.078175000000000239e+01 1.547990000000000009e+03
5.500000000000000028e-02 5.191850000000000076e-01 1.519486999999999988e+01 6.419979999999999620e+01 1.549039999999999964e+03
5.600000000000000117e-02 5.198769999999999225e-01 1.700699499999999986e+01 6.772629999999999484e+01 1.550139999999999873e+03
5.700000000000000205e-02 5.205764999999999976e-01 1.882094999999999985e+01 7.131199999999999761e+01 1.551269999999999982e+03
5.800000000000000294e-02 5.212749999999999329e-01 2.061149999999999949e+01 7.491140000000000043e+01 1.552420000000000073e+03
5.900000000000000383e-02 5.219659999999999300e-01 2.235739999999999839e+01 7.848545000000000016e+01 1.553575000000000045e+03
6.000000000000000472e-02 5.226435000000000386e-01 2.404229999999999734e+01 8.200319999999999254e+01 1.554720000000000027e+03
6.099999999999999867e-02 5.233054999999999790e-01 2.565484999999999971e+01 8.544310000000000116e+01 1.555849999999999909e+03
6.199999999999999956e-02 5.239510000000000556e-01 2.718845000000000312e+01 8.879279999999999973e+01 1.556965000000000146e+03
6.300000000000000044e-02 5.245794999999999764e-01 2.864065000000000083e+01 9.204775000000000773e+01 1.558054999999999836e+03
6.400000000000000133e-02 5.251935000000000908e-01 3.001230000000000331e+01 9.521200000000000330e+01 1.559125000000000000e+03
6.500000000000000222e-02 5.257945000000000535e-01 3.130675000000000097e+01 9.829449999999999932e+01 1.560164999999999964e+03
6.600000000000000311e-02 5.263860000000000205e-01 3.252870000000000061e+01 1.013075499999999920e+02 1.561195000000000164e+03
6.700000000000000400e-02 5.269709999999999672e-01 3.368404999999999916e+01 1.042660999999999945e+02 1.562200000000000045e+03
6.800000000000000488e-02 5.275509999999999922e-01 3.477839999999999776e+01 1.071859499999999912e+02 1.563200000000000045e+03
6.900000000000000577e-02 5.281305000000000582e-01 3.581709999999999638e+01 1.100805000000000007e+02 1.564184999999999945e+03
7.000000000000000666e-02 5.287085000000000257e-01 3.680440000000000111e+01 1.129604999999999961e+02 1.565164999999999964e+03
7.100000000000000755e-02 5.292879999999999807e-01 3.774309999999999832e+01 1.158344999999999914e+02 1.566144999999999982e+03
7.200000000000000844e-02 5.298674999999999358e-01 3.863424999999999443e+01 1.187034999999999911e+02 1.567125000000000000e+03
7.300000000000000933e-02 5.304465000000000430e-01 3.947675000000000267e+01 1.215660000000000025e+02 1.568099999999999909e+03
7.399999999999999634e-02 5.310224999999999529e-01 4.026789999999999736e+01 1.244145000000000039e+02 1.569074999999999818e+03
7.499999999999999722e-02 5.315929999999999822e-01 4.100305000000000177e+01 1.272365000000000066e+02 1.570039999999999964e+03
7.599999999999999811e-02 5.321529999999999871e-01 4.167620000000000147e+01 1.300150000000000148e+02 1.570990000000000009e+03
7.699999999999999900e-02 5.326999999999999513e-01 4.228065000000000140e+01 1.327309999999999945e+02 1.571930000000000064e+03
7.799999999999999989e-02 5.332284999999999942e-01 4.280904999999999916e+01 1.353625000000000114e+02 1.572840000000000146e+03
7.900000000000000078e-02 5.337355000000000294e-01 4.325444999999999851e+01 1.378879999999999768e+02 1.573719999999999800e+03
8.000000000000000167e-02 5.342155000000000653e-01 4.361034999999999684e+01 1.402870000000000061e+02 1.574559999999999945e+03
8.100000000000000255e-02 5.346660000000000856e-01 4.387160000000000082e+01 1.425395000000000039e+02 1.575355000000000018e+03
8.200000000000000344e-02 5.350829999999999753e-01 4.403410000000000224e+01 1.446285000000000025e+02 1.576105000000000018e+03
8.300000000000000433e-02 5.354655000000000387e-01 4.409565000000000623e+01 1.465420000000000016e+02 1.576795000000000073e+03
8.400000000000000522e-02 5.358110000000000372e-01 4.405550000000000210e+01 1.482704999999999984e+02 1.577429999999999836e+03
8.500000000000000611e-02 5.361194999999999711e-01 4.391485000000000127e+01 1.498079999999999927e+02 1.578005000000000109e+03
8.600000000000000699e-02 5.363909999999999512e-01 4.367645000000000266e+01 1.511544999999999845e+02 1.578514999999999873e+03
8.700000000000000788e-02 5.366260000000000474e-01 4.334485000000000099e+01 1.523125000000000000e+02 1.578965000000000146e+03
8.800000000000000877e-02 5.368264999999999842e-01 4.292614999999999981e+01 1.532889999999999873e+02 1.579349999999999909e+03
8.899999999999999578e-02 5.369939999999999714e-01 4.242770000000000152e+01 1.540929999999999893e+02 1.579679999999999836e+03
8.999999999999999667e-02 5.371314999999999840e-01 4.185835000000000150e+01 1.547389999999999759e+02 1.579950000000000045e+03
9.099999999999999756e-02 5.372419999999999973e-01 4.122769999999999868e+01 1.552400000000000091e+02 1.580175000000000182e+03
9.199999999999999845e-02 5.373284999999999867e-01 4.054609999999999559e+01 1.556145000000000209e+02 1.580355000000000018e+03
9.299999999999999933e-02 5.373944999999999972e-01 3.982450000000000045e+01 1.558810000000000002e+02 1.580490000000000009e+03
9.400000000000000022e-02 5.374440000000000328e-01 3.907394999999999641e+01 1.560559999999999832e+02 1.580590000000000146e+03
9.500000000000000111e-02 5.374805000000000277e-01 3.830519999999999925e+01 1.561599999999999966e+02 1.580664999999999964e+03
9.600000000000000200e-02 5.375075000000000269e-01 3.752835000000000321e+01 1.562105000000000246e+02 1.580715000000000146e+03
9.700000000000000289e-02 5.375269999999999770e-01 3.675294999999999845e+01 1.562230000000000132e+02 1.580744999999999891e+03
9.800000000000000377e-02 5.375425000000000342e-01 3.598680000000000234e+01 1.562139999999999986e+02 1.580769999999999982e+03
9.900000000000000466e-02 5.375560000000000338e-01 3.523669999999999902e+01 1.561929999999999836e+02 1.580775000000000091e+03
1.000000000000000056e-01 5.375685000000000047e-01 3.450744999999999862e+01 1.561709999999999923e+02 1.580784999999999854e+03
1.010000000000000064e-01 5.375815000000000454e-01 3.380225000000000080e+01 1.561535000000000082e+02 1.580784999999999854e+03
1.020000000000000073e-01 5.375944999999999752e-01 3.312239999999999895e+01 1.561440000000000055e+02 1.580785000000000082e+03
1.030000000000000082e-01 5.376079999999999748e-01 3.246744999999999948e+01 1.561419999999999959e+02 1.580789999999999964e+03
1.040000000000000091e-01 5.376210000000000155e-01 3.183565000000000111e+01 1.561450000000000102e+02 1.580789999999999964e+03
1.050000000000000100e-01 5.376324999999999577e-01 3.122370000000000090e+01 1.561474999999999795e+02 1.580789999999999964e+03
1.059999999999999970e-01 5.376404999999999657e-01 3.062750000000000128e+01 1.561430000000000007e+02 1.580784999999999854e+03
1.069999999999999979e-01 5.376429999999999820e-01 3.004194999999999993e+01 1.561229999999999905e+02 1.580779999999999973e+03
1.079999999999999988e-01 5.376389999999999780e-01 2.946179999999999666e+01 1.560785000000000196e+02 1.580769999999999982e+03
1.089999999999999997e-01 5.376270000000000771e-01 2.888165000000000049e+01 1.559995000000000118e+02 1.580740000000000009e+03
1.100000000000000006e-01 5.376045000000000407e-01 2.829614999999999725e+01 1.558779999999999859e+02 1.580704999999999927e+03
1.110000000000000014e-01 5.375710000000000210e-01 2.770059999999999789e+01 1.557059999999999889e+02 1.580650000000000091e+03
1.120000000000000023e-01 5.375244999999999607e-01 2.709090000000000131e+01 1.554770000000000039e+02 1.580579999999999927e+03
1.130000000000000032e-01 5.374650000000000816e-01 2.646374999999999744e+01 1.551854999999999905e+02 1.580490000000000009e+03
1.140000000000000041e-01 5.373919999999999808e-01 2.581700000000000017e+01 1.548290000000000077e+02 1.580380000000000109e+03
1.150000000000000050e-01 5.373050000000000326e-01 2.514969999999999928e+01 1.544064999999999941e+02 1.580250000000000000e+03
1.160000000000000059e-01 5.372059999999999613e-01 2.446200000000000330e+01 1.539200000000000159e+02 1.580099999999999909e+03
1.170000000000000068e-01 5.370945000000000302e-01 2.375525000000000020e+01 1.533734999999999786e+02 1.579930000000000064e+03
1.180000000000000077e-01 5.369730000000000336e-01 2.303220000000000312e+01 1.527725000000000080e+02 1.579744999999999891e+03
1.190000000000000085e-01 5.368425000000000002e-01 2.229654999999999987e+01 1.521250000000000000e+02 1.579539999999999964e+03
1.200000000000000094e-01 5.367064999999999753e-01 2.155300000000000082e+01 1.514404999999999859e+02 1.579320000000000164e+03
1.209999999999999964e-01 5.365649999999999586e-01 2.080720000000000169e+01 1.507309999999999945e+02 1.579095000000000027e+03
1.219999999999999973e-01 5.364225000000000243e-01 2.006520000000000081e+01 1.500074999999999932e+02 1.578860000000000127e+03
1.229999999999999982e-01 5.362815000000000776e-01 1.933364999999999867e+01 1.492830000000000155e+02 1.578630000000000109e+03
1.239999999999999991e-01 5.361430000000000362e-01 1.861909999999999954e+01 1.485709999999999980e+02 1.578389999999999873e+03
1.250000000000000000e-01 5.360104999999999453e-01 1.792820000000000036e+01 1.478834999999999980e+02 1.578164999999999964e+03
1.260000000000000009e-01 5.358865000000000434e-01 1.726704999999999757e+01 1.472315000000000111e+02 1.577940000000000055e+03
1.270000000000000018e-01 5.357724999999999849e-01 1.664134999999999920e+01 1.466270000000000095e+02 1.577735000000000127e+03
1.280000000000000027e-01 5.356699999999999795e-01 1.605574999999999974e+01 1.460774999999999864e+02 1.577545000000000073e+03
1.290000000000000036e-01 5.355794999999999861e-01 1.551425000000000054e+01 1.455900000000000034e+02 1.577365000000000009e+03
1.300000000000000044e-01 5.355030000000000623e-01 1.501949999999999896e+01 1.451700000000000159e+02 1.577215000000000146e+03
1.310000000000000053e-01 5.354404999999999859e-01 1.457315000000000182e+01 1.448205000000000098e+02 1.577079999999999927e+03
1.320000000000000062e-01 5.353919999999999790e-01 1.417565000000000097e+01 1.445409999999999968e+02 1.576970000000000027e+03
1.330000000000000071e-01 5.353559999999999430e-01 1.382629999999999981e+01 1.443299999999999841e+02 1.576884999999999991e+03
1.340000000000000080e-01 5.353330000000000588e-01 1.352335000000000065e+01 1.441845000000000141e+02 1.576815000000000055e+03
1.350000000000000089e-01 5.353210000000000468e-01 1.326405000000000101e+01 1.440989999999999895e+02 1.576764999999999873e+03
1.360000000000000098e-01 5.353185000000000304e-01 1.304510000000000147e+01 1.440660000000000025e+02 1.576735000000000127e+03
1.370000000000000107e-01 5.353234999999999522e-01 1.286230000000000118e+01 1.440784999999999911e+02 1.576715000000000146e+03
1.380000000000000115e-01 5.353354999999999642e-01 1.271124999999999972e+01 1.441279999999999859e+02 1.576720000000000027e+03
1.390000000000000124e-01 5.353525000000000089e-01 1.258725000000000094e+01 1.442049999999999841e+02 1.576730000000000018e+03
1.400000000000000133e-01 5.353719999999999590e-01 1.248564999999999969e+01 1.443020000000000209e+02 1.576750000000000000e+03
1.410000000000000142e-01 5.353930000000000078e-01 1.240184999999999960e+01 1.444105000000000132e+02 1.576769999999999982e+03
1.420000000000000151e-01 5.354134999999999867e-01 1.233150000000000013e+01 1.445235000000000127e+02 1.576795000000000073e+03
1.430000000000000160e-01 5.354339999999999655e-01 1.227074999999999960e+01 1.446345000000000027e+02 1.576825000000000045e+03
1.440000000000000169e-01 5.354524999999999979e-01 1.221594999999999942e+01 1.447375000000000114e+02 1.576855000000000018e+03
1.450000000000000178e-01 5.354685000000000139e-01 1.216420000000000101e+01 1.448284999999999911e+02 1.576880000000000109e+03
1.459999999999999909e-01 5.354814999999999436e-01 1.211304999999999943e+01 1.449055000000000177e+02 1.576900000000000091e+03
1.469999999999999918e-01 5.354910000000000503e-01 1.206044999999999945e+01 1.449650000000000034e+02 1.576920000000000073e+03
1.479999999999999927e-01 5.354970000000000008e-01 1.200505000000000067e+01 1.450070000000000050e+02 1.576934999999999945e+03
1.489999999999999936e-01 5.354995000000000172e-01 1.194585000000000008e+01 1.450310000000000059e+02 1.576940000000000055e+03
1.499999999999999944e-01 5.354984999999999884e-01 1.188244500000000059e+01 1.450389999999999873e+02 1.576940000000000055e+03
1.509999999999999953e-01 5.354955000000000132e-01 1.181456499999999998e+01 1.450310000000000059e+02 1.576945000000000164e+03
1.519999999999999962e-01 5.354904999999999804e-01 1.174258999999999986e+01 1.450095000000000027e+02 1.576940000000000055e+03
1.529999999999999971e-01 5.354824999999999724e-01 1.166694500000000012e+01 1.449775000000000205e+02 1.576929999999999836e+03
1.539999999999999980e-01 5.354745000000000754e-01 1.158848000000000056e+01 1.449370000000000118e+02 1.576920000000000073e+03
1.549999999999999989e-01 5.354649999999999688e-01 1.150807499999999983e+01 1.448915000000000077e+02 1.576904999999999973e+03
1.559999999999999998e-01 5.354550000000000143e-01 1.142687000000000097e+01 1.448419999999999845e+02 1.576889999999999873e+03
1.570000000000000007e-01 5.354455000000000187e-01 1.134588499999999911e+01 1.447925000000000182e+02 1.576875000000000000e+03
1.580000000000000016e-01 5.354364999999999819e-01 1.126627000000000045e+01 1.447454999999999927e+02 1.576865000000000009e+03
1.590000000000000024e-01 5.354289999999999328e-01 1.118900999999999968e+01 1.447015000000000100e+02 1.576849999999999909e+03
