# t [s], A [cm^2], U [cm/s], P [cPa], c [cm/s]
1.000000000000000021e-03 1.394970000000000099e-01 2.345605000000000051e-01 8.997520000000000095e+01 1.963829999999999927e+03
2.000000000000000042e-03 1.394699999999999829e-01 1.574120500000000034e+00 8.722950000000000159e+01 1.963494999999999891e+03
3.000000000000000062e-03 1.393845000000000223e-01 3.246440999999999910e+00 8.346809999999999263e+01 1.962460000000000036e+03
4.000000000000000083e-03 1.392594999999999805e-01 5.124885850000000076e+00 7.922630000000000905e+01 1.960984999999999900e+03
5.000000000000000104e-03 1.391184999999999783e-01 7.159755000000000535e+00 7.523875000000001023e+01 1.959335000000000036e+03
6.000000000000000125e-03 1.389779999999999904e-01 9.237004999999999910e+00 7.187404999999999688e+01 1.957710000000000036e+03
7.000000000000000146e-03 1.388445000000000096e-01 1.118075499999999955e+01 6.904980000000000473e+01 1.956190000000000055e+03
8.000000000000000167e-03 1.387200000000000100e-01 1.287009999999999899e+01 6.652570000000000050e+01 1.954785000000000082e+03
9.000000000000001055e-03 1.386060000000000070e-01 1.430270999999999937e+01 6.424804999999999211e+01 1.953529999999999973e+03
1.000000000000000194e-02 1.385064999999999769e-01 1.551600000000000001e+01 6.229424999999999812e+01 1.952440000000000055e+03
1.099999999999999936e-02 1.384214999999999751e-01 1.652965000000000018e+01 6.069214999999999804e+01 1.951525000000000091e+03
1.200000000000000025e-02 1.383510000000000018e-01 1.735559999999999903e+01 5.941219999999999857e+01 1.950769999999999982e+03
1.300000000000000114e-02 1.382940000000000003e-01 1.800270000000000081e+01 5.840099999999999625e+01 1.950170000000000073e+03
1.400000000000000203e-02 1.382475000000000231e-01 1.847059999999999746e+01 5.757205000000000439e+01 1.949684999999999945e+03
1.499999999999999944e-02 1.382079999999999975e-01 1.876939999999999742e+01 5.683665000000000589e+01 1.949289999999999964e+03
1.600000000000000033e-02 1.381759999999999933e-01 1.895324999999999704e+01 5.620154999999999745e+01 1.948960000000000036e+03
1.700000000000000122e-02 1.381525000000000114e-01 1.912760000000000105e+01 5.583225000000000193e+01 1.948735000000000127e+03
1.800000000000000211e-02 1.381435000000000024e-01 1.941205000000000069e+01 5.599519999999999698e+01 1.948654999999999973e+03
1.900000000000000300e-02 1.381550000000000000e-01 1.988364999999999938e+01 5.690800000000000125e+01 1.948784999999999854e+03
2.000000000000000042e-02 1.381884999999999919e-01 2.053849999999999909e+01 5.859705000000000297e+01 1.949154999999999973e+03
2.100000000000000130e-02 1.382420000000000038e-01 2.129095000000000226e+01 6.084784999999999400e+01 1.949735000000000127e+03
2.200000000000000219e-02 1.383070000000000133e-01 2.200679999999999836e+01 6.326420000000000243e+01 1.950445000000000164e+03
2.299999999999999961e-02 1.383725000000000094e-01 2.255149999999999721e+01 6.539865000000000350e+01 1.951175000000000182e+03
2.400000000000000050e-02 1.384289999999999965e-01 2.283265000000000100e+01 6.689160000000001105e+01 1.951809999999999945e+03
2.500000000000000139e-02 1.384684999999999944e-01 2.282314999999999827e+01 6.756950000000000500e+01 1.952269999999999982e+03
2.600000000000000228e-02 1.384885000000000144e-01 2.256034999999999968e+01 6.747139999999998849e+01 1.952514999999999873e+03
2.700000000000000316e-02 1.384910000000000030e-01 2.212494999999999834e+01 6.680660000000000309e+01 1.952570000000000164e+03
2.800000000000000058e-02 1.384805000000000064e-01 2.160989999999999966e+01 6.586509999999999820e+01 1.952474999999999909e+03
2.900000000000000147e-02 1.384639999999999760e-01 2.109029999999999916e+01 6.491795000000000471e+01 1.952304999999999836e+03
3.000000000000000236e-02 1.384465000000000001e-01 2.060524999999999807e+01 6.414010000000000389e+01 1.952115000000000009e+03
3.099999999999999978e-02 1.384305000000000119e-01 2.015324999999999989e+01 6.357734999999999559e+01 1.951940000000000055e+03
3.200000000000000067e-02 1.384170000000000122e-01 1.970215000000000316e+01 6.315845000000000198e+01 1.951785000000000082e+03
3.300000000000000155e-02 1.384035000000000126e-01 1.920694999999999908e+01 6.274204999999999899e+01 1.951644999999999982e+03
3.400000000000000244e-02 1.383880000000000110e-01 1.862950000000000017e+01 6.217945000000000277e+01 1.951470000000000027e+03
3.500000000000000333e-02 1.383665000000000034e-01 1.795584999999999809e+01 6.137389999999999901e+01 1.951244999999999891e+03
3.600000000000000422e-02 1.383385000000000031e-01 1.720479999999999876e+01 6.032049999999999557e+01 1.950950000000000045e+03
3.700000000000000511e-02 1.383050000000000113e-01 1.642714999999999748e+01 5.911679999999999779e+01 1.950590000000000146e+03
3.799999999999999906e-02 1.382705000000000184e-01 1.569524999999999970e+01 5.794204999999999472e+01 1.950210000000000036e+03
3.899999999999999994e-02 1.382379999999999998e-01 1.508629999999999960e+01 5.701269999999999527e+01 1.949855000000000018e+03
4.000000000000000083e-02 1.382145000000000179e-01 1.466409999999999947e+01 5.652615000000000123e+01 1.949595000000000027e+03
4.100000000000000172e-02 1.382045000000000079e-01 1.446429999999999971e+01 5.661135000000000161e+01 1.949465000000000146e+03
4.200000000000000261e-02 1.382089999999999985e-01 1.448675000000000068e+01 5.729625000000000057e+01 1.949505000000000109e+03
4.300000000000000350e-02 1.382304999999999784e-01 1.469614999999999938e+01 5.850114999999999554e+01 1.949720000000000027e+03
4.400000000000000439e-02 1.382645000000000124e-01 1.502915000000000134e+01 6.005540000000000589e+01 1.950074999999999818e+03
4.499999999999999833e-02 1.383064999999999989e-01 1.540675000000000061e+01 6.173104999999999620e+01 1.950525000000000091e+03
4.599999999999999922e-02 1.383520000000000028e-01 1.574690000000000012e+01 6.328415000000000390e+01 1.951009999999999991e+03
4.700000000000000011e-02 1.383925000000000016e-01 1.597684999999999889e+01 6.449410000000000309e+01 1.951454999999999927e+03
4.800000000000000100e-02 1.384239999999999915e-01 1.604119999999999990e+01 6.519364999999999100e+01 1.951805000000000064e+03
4.900000000000000189e-02 1.384414999999999951e-01 1.590650000000000119e+01 6.528585000000001060e+01 1.952005000000000109e+03
5.000000000000000278e-02 1.384425000000000239e-01 1.556145000000000067e+01 6.474644999999999584e+01 1.952025000000000091e+03
5.100000000000000366e-02 1.384259999999999935e-01 1.501364999999999839e+01 6.361494999999999322e+01 1.951865000000000009e+03
5.200000000000000455e-02 1.383929999999999882e-01 1.428474999999999895e+01 6.197699999999999676e+01 1.951519999999999982e+03
5.300000000000000544e-02 1.383459999999999968e-01 1.340510000000000090e+01 5.994454999999999956e+01 1.951009999999999991e+03
5.399999999999999939e-02 1.382864999999999789e-01 1.240854999999999997e+01 5.763705000000000211e+01 1.950369999999999891e+03
5.500000000000000028e-02 1.382185000000000219e-01 1.132960500000000081e+01 5.516805000000000092e+01 1.949630000000000109e+03
5.600000000000000117e-02 1.381439999999999890e-01 1.020148999999999972e+01 5.263739999999999952e+01 1.948824999999999818e+03
5.700000000000000205e-02 1.380664999999999809e-01 9.055770000000000763e+00 5.012989999999999924e+01 1.947980000000000018e+03
5.800000000000000294e-02 1.379885000000000139e-01 7.923284999999999911e+00 4.771779999999999688e+01 1.947125000000000000e+03
5.900000000000000383e-02 1.379124999999999934e-01 6.835035000000000416e+00 4.546590000000000487e+01 1.946295000000000073e+03
6.000000000000000472e-02 1.378405000000000047e-01 5.822960000000000136e+00 4.343644999999999357e+01 1.945505000000000109e+03
6.099999999999999867e-02 1.377749999999999808e-01 4.920270000000000366e+00 4.169294999999999618e+01 1.944779999999999973e+03
6.199999999999999956e-02 1.377180000000000071e-01 4.160859999999999559e+00 4.030114999999999981e+01 1.944150000000000091e+03
6.300000000000000044e-02 1.376715000000000022e-01 3.578089999999999549e+00 3.932779999999999632e+01 1.943630000000000109e+03
6.400000000000000133e-02 1.376379999999999826e-01 3.203020000000000422e+00 3.883695000000000164e+01 1.943255000000000109e+03
6.500000000000000222e-02 1.376195000000000057e-01 3.062349999999999905e+00 3.888490000000000180e+01 1.943034999999999854e+03
6.600000000000000311e-02 1.376175000000000037e-01 3.176540000000000141e+00 3.951510000000000389e+01 1.943000000000000000e+03
6.700000000000000400e-02 1.376339999999999786e-01 3.558234999999999815e+00 4.075345000000000084e+01 1.943154999999999973e+03
6.800000000000000488e-02 1.376700000000000146e-01 4.211280000000000356e+00 4.260529999999999973e+01 1.943525000000000091e+03
6.900000000000000577e-02 1.377244999999999997e-01 5.130444999999999922e+00 4.505429999999999779e+01 1.944099999999999909e+03
7.000000000000000666e-02 1.377980000000000038e-01 6.301740000000000563e+00 4.806279999999999575e+01 1.944875000000000000e+03
7.100000000000000755e-02 1.378894999999999982e-01 7.703440000000000509e+00 5.157479999999999620e+01 1.945849999999999909e+03
7.200000000000000844e-02 1.379970000000000085e-01 9.307444999999999524e+00 5.551955000000000240e+01 1.947014999999999873e+03
7.300000000000000933e-02 1.381180000000000185e-01 1.108086499999999930e+01 5.981615000000000038e+01 1.948324999999999818e+03
7.399999999999999634e-02 1.382514999999999994e-01 1.298792999999999864e+01 6.437879999999999825e+01 1.949779999999999973e+03
7.499999999999999722e-02 1.383945000000000036e-01 1.499174999999999969e+01 6.912109999999999843e+01 1.951335000000000036e+03
7.599999999999999811e-02 1.385440000000000005e-01 1.705615000000000236e+01 7.396144999999999925e+01 1.952980000000000018e+03
7.699999999999999900e-02 1.386979999999999880e-01 1.914724999999999966e+01 7.882640000000000668e+01 1.954670000000000073e+03
7.799999999999999989e-02 1.388539999999999774e-01 2.123474999999999824e+01 8.365424999999999045e+01 1.956394999999999982e+03
7.900000000000000078e-02 1.390104999999999813e-01 2.329315000000000069e+01 8.839709999999999468e+01 1.958125000000000000e+03
8.000000000000000167e-02 1.391654999999999975e-01 2.530249999999999844e+01 9.302205000000000723e+01 1.959849999999999909e+03
8.100000000000000255e-02 1.393179999999999974e-01 2.724849999999999994e+01 9.751234999999999786e+01 1.961554999999999836e+03
8.200000000000000344e-02 1.394680000000000086e-01 2.912259999999999849e+01 1.018636000000000053e+02 1.963224999999999909e+03
8.300000000000000433e-02 1.396135000000000015e-01 3.092119999999999891e+01 1.060853500000000054e+02 1.964860000000000127e+03
8.400000000000000522e-02 1.397565000000000057e-01 3.264515000000000100e+01 1.101954999999999956e+02 1.966470000000000027e+03
8.500000000000000611e-02 1.398969999999999936e-01 3.429845000000000255e+01 1.142185000000000059e+02 1.968045000000000073e+03
8.600000000000000699e-02 1.400345000000000062e-01 3.588694999999999879e+01 1.181790000000000020e+02 1.969605000000000018e+03
8.700000000000000788e-02 1.401705000000000034e-01 3.741760000000000019e+01 1.221030000000000086e+02 1.971139999999999873e+03
8.800000000000000877e-02 1.403054999999999997e-01 3.889690000000000225e+01 1.260120000000000005e+02 1.972664999999999964e+03
8.899999999999999578e-02 1.404394999999999949e-01 4.033020000000000493e+01 1.299194999999999993e+02 1.974195000000000164e+03
8.999999999999999667e-02 1.405734999999999901e-01 4.172095000000000198e+01 1.338335000000000150e+02 1.975710000000000036e+03
9.099999999999999756e-02 1.407079999999999997e-01 4.307040000000000646e+01 1.377514999999999930e+02 1.977235000000000127e+03
9.199999999999999845e-02 1.408415000000000084e-01 4.437729999999999819e+01 1.416655000000000086e+02 1.978759999999999991e+03
9.299999999999999933e-02 1.409750000000000170e-01 4.563804999999999978e+01 1.455564999999999998e+02 1.980279999999999973e+03
9.400000000000000022e-02 1.411074999999999968e-01 4.684664999999999679e+01 1.494029999999999916e+02 1.981784999999999854e+03
9.500000000000000111e-02 1.412380000000000024e-01 4.799545000000000528e+01 1.531764999999999759e+02 1.983280000000000200e+03
9.600000000000000200e-02 1.413665000000000060e-01 4.907529999999999859e+01 1.568455000000000155e+02 1.984744999999999891e+03
9.700000000000000289e-02 1.414914999999999923e-01 5.007630000000000337e+01 1.603785000000000025e+02 1.986174999999999955e+03
9.800000000000000377e-02 1.416115000000000013e-01 5.098799999999999955e+01 1.637415000000000020e+02 1.987554999999999836e+03
9.900000000000000466e-02 1.417265000000000053e-01 5.180030000000000001e+01 1.669049999999999727e+02 1.988884999999999991e+03
1.000000000000000056e-01 1.418349999999999889e-01 5.250359999999999872e+01 1.698414999999999964e+02 1.990134999999999991e+03
1.010000000000000064e-01 1.419364999999999932e-01 5.308950000000000102e+01 1.725260000000000105e+02 1.991305000000000064e+03
1.020000000000000073e-01 1.420299999999999896e-01 5.355105000000000359e+01 1.749390000000000214e+02 1.992389999999999873e+03
1.030000000000000082e-01 1.421149999999999913e-01 5.388315000000000055e+01 1.770659999999999741e+02 1.993375000000000000e+03
1.040000000000000091e-01 1.421910000000000118e-01 5.408289999999999509e+01 1.788980000000000246e+02 1.994260000000000218e+03
1.050000000000000100e-01 1.422574999999999812e-01 5.414964999999999407e+01 1.804325000000000045e+02 1.995039999999999964e+03
1.059999999999999970e-01 1.423139999999999961e-01 5.408545000000000158e+01 1.816730000000000018e+02 1.995704999999999927e+03
1.069999999999999979e-01 1.423615000000000019e-01 5.389480000000000359e+01 1.826290000000000191e+02 1.996269999999999982e+03
1.079999999999999988e-01 1.423999999999999988e-01 5.358455000000000013e+01 1.833165000000000191e+02 1.996724999999999909e+03
1.089999999999999997e-01 1.424294999999999867e-01 5.316400000000000148e+01 1.837540000000000191e+02 1.997079999999999927e+03
1.100000000000000006e-01 1.424509999999999943e-01 5.264424999999999955e+01 1.839680000000000177e+02 1.997340000000000146e+03
1.110000000000000014e-01 1.424644999999999939e-01 5.203820000000000334e+01 1.839855000000000018e+02 1.997510000000000218e+03
1.120000000000000023e-01 1.424719999999999875e-01 5.135954999999999870e+01 1.838374999999999773e+02 1.997605000000000018e+03
1.130000000000000032e-01 1.424739999999999895e-01 5.062274999999999636e+01 1.835545000000000186e+02 1.997634999999999991e+03
1.140000000000000041e-01 1.424704999999999999e-01 4.984234999999999616e+01 1.831680000000000064e+02 1.997609999999999900e+03
1.150000000000000050e-01 1.424630000000000063e-01 4.903234999999999388e+01 1.827069999999999936e+02 1.997529999999999973e+03
1.160000000000000059e-01 1.424529999999999963e-01 4.820589999999999975e+01 1.821980000000000075e+02 1.997420000000000073e+03
1.170000000000000068e-01 1.424404999999999977e-01 4.737489999999999668e+01 1.816645000000000039e+02 1.997284999999999854e+03
1.180000000000000077e-01 1.424275000000000124e-01 4.654935000000000400e+01 1.811254999999999882e+02 1.997130000000000109e+03
1.190000000000000085e-01 1.424130000000000118e-01 4.573770000000000380e+01 1.805960000000000036e+02 1.996965000000000146e+03
1.200000000000000094e-01 1.423975000000000102e-01 4.494624999999999915e+01 1.800865000000000009e+02 1.996795000000000073e+03
1.209999999999999964e-01 1.423834999999999962e-01 4.417914999999999992e+01 1.796019999999999754e+02 1.996625000000000000e+03
1.219999999999999973e-01 1.423689999999999956e-01 4.343860000000000099e+01 1.791435000000000173e+02 1.996454999999999927e+03
1.229999999999999982e-01 1.423544999999999949e-01 4.272480000000000189e+01 1.787074999999999818e+02 1.996295000000000073e+03
1.239999999999999991e-01 1.423405000000000087e-01 4.203605000000000302e+01 1.782880000000000109e+02 1.996130000000000109e+03
1.250000000000000000e-01 1.423269999999999813e-01 4.136910000000000309e+01 1.778745000000000118e+02 1.995969999999999800e+03
1.260000000000000009e-01 1.423130000000000228e-01 4.071949999999999648e+01 1.774549999999999841e+02 1.995809999999999945e+03
1.270000000000000018e-01 1.422990000000000088e-01 4.008164999999999623e+01 1.770155000000000030e+02 1.995644999999999982e+03
1.280000000000000027e-01 1.422844999999999804e-01 3.944939999999999714e+01 1.765409999999999968e+02 1.995470000000000027e+03
1.290000000000000036e-01 1.422680000000000056e-01 3.881629999999999825e+01 1.760169999999999959e+02 1.995279999999999973e+03
1.300000000000000044e-01 1.422505000000000019e-01 3.817589999999999861e+01 1.754295000000000186e+02 1.995079999999999927e+03
1.310000000000000053e-01 1.422309999999999963e-01 3.752219999999999800e+01 1.747660000000000196e+02 1.994845000000000027e+03
1.320000000000000062e-01 1.422085000000000155e-01 3.685000000000000142e+01 1.740160000000000196e+02 1.994590000000000146e+03
1.330000000000000071e-01 1.421835000000000182e-01 3.615489999999999782e+01 1.731714999999999804e+02 1.994309999999999945e+03
1.340000000000000080e-01 1.421564999999999912e-01 3.543394999999999584e+01 1.722289999999999850e+02 1.993990000000000009e+03
1.350000000000000089e-01 1.421250000000000013e-01 3.468550000000000466e+01 1.711870000000000118e+02 1.993639999999999873e+03
1.360000000000000098e-01 1.420914999999999817e-01 3.390940000000000509e+01 1.700480000000000018e+02 1.993250000000000000e+03
1.370000000000000107e-01 1.420545000000000002e-01 3.310715000000000430e+01 1.688185000000000002e+02 1.992829999999999927e+03
1.380000000000000115e-01 1.420144999999999880e-01 3.228179999999999694e+01 1.675084999999999980e+02 1.992375000000000000e+03
1.390000000000000124e-01 1.419719999999999871e-01 3.143775000000000119e+01 1.661304999999999836e+02 1.991894999999999982e+03
1.400000000000000133e-01 1.419279999999999986e-01 3.058085000000000164e+01 1.647009999999999934e+02 1.991384999999999991e+03
1.410000000000000142e-01 1.418814999999999937e-01 2.971799999999999642e+01 1.632369999999999948e+02 1.990860000000000127e+03
1.420000000000000151e-01 1.418345000000000022e-01 2.885685000000000144e+01 1.617599999999999909e+02 1.990315000000000055e+03
1.430000000000000160e-01 1.417864999999999820e-01 2.800554999999999950e+01 1.602884999999999991e+02 1.989769999999999982e+03
1.440000000000000169e-01 1.417390000000000039e-01 2.717249999999999943e+01 1.588435000000000059e+02 1.989220000000000027e+03
1.450000000000000178e-01 1.416914999999999980e-01 2.636599999999999966e+01 1.574449999999999932e+02 1.988674999999999955e+03
1.459999999999999909e-01 1.416454999999999798e-01 2.559375000000000000e+01 1.561095000000000255e+02 1.988150000000000091e+03
1.469999999999999918e-01 1.416010000000000046e-01 2.486260000000000048e+01 1.548545000000000016e+02 1.987644999999999982e+03
1.479999999999999927e-01 1.415595000000000048e-01 2.417859999999999943e+01 1.536920000000000073e+02 1.987164999999999964e+03
1.489999999999999936e-01 1.415204999999999935e-01 2.354635000000000034e+01 1.526320000000000050e+02 1.986710000000000036e+03
1.499999999999999944e-01 1.414839999999999987e-01 2.296925000000000239e+01 1.516809999999999832e+02 1.986295000000000073e+03
1.509999999999999953e-01 1.414509999999999934e-01 2.244930000000000092e+01 1.508425000000000011e+02 1.985914999999999964e+03
1.519999999999999962e-01 1.414219999999999922e-01 2.198689999999999856e+01 1.501150000000000091e+02 1.985575000000000045e+03
1.529999999999999971e-01 1.413960000000000217e-01 2.158135000000000048e+01 1.494975000000000023e+02 1.985269999999999982e+03
1.539999999999999980e-01 1.413729999999999987e-01 2.123060000000000258e+01 1.489825000000000159e+02 1.985005000000000109e+03
1.549999999999999989e-01 1.413535000000000208e-01 2.093144999999999811e+01 1.485629999999999882e+02 1.984775000000000091e+03
1.559999999999999998e-01 1.413375000000000048e-01 2.068010000000000304e+01 1.482284999999999968e+02 1.984585000000000036e+03
1.570000000000000007e-01 1.413240000000000052e-01 2.047180000000000177e+01 1.479689999999999941e+02 1.984425000000000182e+03
1.580000000000000016e-01 1.413125000000000075e-01 2.030144999999999911e+01 1.477729999999999961e+02 1.984295000000000073e+03
1.590000000000000024e-01 1.413034999999999985e-01 2.016365000000000052e+01 1.476285000000000025e+02 1.984184999999999945e+03
