# t [s], A [cm^2], U [cm/s], P [cPa], c [cm/s]
1.000000000000000021e-03 6.158704999999999874e-01 4.950000000000003009e-03 1.069464999999999861e+02 1.544615000000000009e+03
2.000000000000000042e-03 6.158600000000000740e-01 -2.027094499999999855e-03 1.069244999999999948e+02 1.544610000000000127e+03
3.000000000000000062e-03 6.158980000000000565e-01 5.861575000000000812e-02 1.069869999999999948e+02 1.544630000000000109e+03
4.000000000000000083e-03 6.159510000000000263e-01 1.503915000000000113e-01 1.071020000000000039e+02 1.544659999999999854e+03
5.000000000000000104e-03 6.159525000000000139e-01 1.646944999999999937e-01 1.071154999999999973e+02 1.544664999999999964e+03
6.000000000000000125e-03 6.159040000000000070e-01 9.586550000000000626e-02 1.069840000000000089e+02 1.544634999999999991e+03
7.000000000000000146e-03 6.158555000000000001e-01 2.214050000000000740e-02 1.067890000000000015e+02 1.544595000000000027e+03
8.000000000000000167e-03 6.158030000000001003e-01 -6.407450000000003421e-02 1.065374999999999943e+02 1.544539999999999964e+03
9.000000000000001055e-03 6.157120000000000370e-01 -2.272060000000000191e-01 1.061544999999999987e+02 1.544449999999999818e+03
1.000000000000000194e-02 6.155709999999999793e-01 -4.881999999999999673e-01 1.055925000000000011e+02 1.544325000000000045e+03
1.099999999999999936e-02 6.153744999999999354e-01 -8.540350000000000996e-01 1.048130000000000024e+02 1.544144999999999982e+03
1.200000000000000025e-02 6.151050000000000129e-01 -1.340969999999999773e+00 1.037630000000000052e+02 1.543900000000000091e+03
1.300000000000000114e-02 6.147609999999998909e-01 -1.937580000000000080e+00 1.024192999999999927e+02 1.543585000000000036e+03
1.400000000000000203e-02 6.143715000000000703e-01 -2.574040000000000106e+00 1.008347499999999997e+02 1.543199999999999818e+03
1.499999999999999944e-02 6.139835000000000154e-01 -3.140710000000000335e+00 9.913320000000000221e+01 1.542775000000000091e+03
1.600000000000000033e-02 6.136390000000000455e-01 -3.535484999999999989e+00 9.745795000000001096e+01 1.542340000000000146e+03
1.700000000000000122e-02 6.133564999999999712e-01 -3.700909500000000296e+00 9.591505000000000791e+01 1.541914999999999964e+03
1.800000000000000211e-02 6.131299999999999528e-01 -3.634108320000000170e+00 9.454609999999999559e+01 1.541519999999999982e+03
1.900000000000000300e-02 6.129335000000000200e-01 -3.374993499999999980e+00 9.332925000000000182e+01 1.541150000000000091e+03
2.000000000000000042e-02 6.127380000000000049e-01 -2.984455999999999776e+00 9.220054999999999268e+01 1.540799999999999955e+03
2.100000000000000130e-02 6.125164999999999083e-01 -2.522110999999999770e+00 9.108244999999999436e+01 1.540445000000000164e+03
2.200000000000000219e-02 6.122564999999999813e-01 -2.029469999999999885e+00 8.991094999999999970e+01 1.540075000000000045e+03
2.299999999999999961e-02 6.119574999999999321e-01 -1.522109999999999852e+00 8.865379999999998972e+01 1.539690000000000055e+03
2.400000000000000050e-02 6.116310000000000358e-01 -9.922449999999998216e-01 8.731560000000000343e+01 1.539285000000000082e+03
2.500000000000000139e-02 6.112929999999999753e-01 -4.197849999999996307e-01 8.592855000000000132e+01 1.538864999999999782e+03
2.600000000000000228e-02 6.109599999999999476e-01 2.130999999999998451e-01 8.453485000000000582e+01 1.538440000000000055e+03
2.700000000000000316e-02 6.106380000000000141e-01 9.095549999999996693e-01 8.316745000000000232e+01 1.538019999999999982e+03
2.800000000000000058e-02 6.103244999999999365e-01 1.651494999999999935e+00 8.183594999999999686e+01 1.537610000000000127e+03
2.900000000000000147e-02 6.100084999999999535e-01 2.400020000000000042e+00 8.052084999999999582e+01 1.537195000000000164e+03
3.000000000000000236e-02 6.096705000000000041e-01 3.101670000000000371e+00 7.917674999999999841e+01 1.536780000000000200e+03
3.099999999999999978e-02 6.092919999999999447e-01 3.698465000000000114e+00 7.774250000000000682e+01 1.536345000000000027e+03
3.200000000000000067e-02 6.088569999999999816e-01 4.139299999999999535e+00 7.615619999999999834e+01 1.535880000000000109e+03
3.300000000000000155e-02 6.083574999999999955e-01 4.390304999999999680e+00 7.437104999999999677e+01 1.535380000000000109e+03
3.400000000000000244e-02 6.077949999999999742e-01 4.441409999999999414e+00 7.236885000000000900e+01 1.534820000000000164e+03
3.500000000000000333e-02 6.071834999999999871e-01 4.308089999999999975e+00 7.016669999999999163e+01 1.534220000000000027e+03
3.600000000000000422e-02 6.065445000000000420e-01 4.027474999999999916e+00 6.781714999999999804e+01 1.533579999999999927e+03
3.700000000000000511e-02 6.059034999999999282e-01 3.650664999999999605e+00 6.540014999999999645e+01 1.532924999999999955e+03
3.799999999999999906e-02 6.052880000000000482e-01 3.233434999999999615e+00 6.301140000000000185e+01 1.532269999999999982e+03
3.899999999999999994e-02 6.047219999999999818e-01 2.827925000000000466e+00 6.074925000000000352e+01 1.531639999999999873e+03
4.000000000000000083e-02 6.042250000000000121e-01 2.477289999999999992e+00 5.870309999999999917e+01 1.531059999999999945e+03
4.100000000000000172e-02 6.038090000000000401e-01 2.212704999999999700e+00 5.694634999999999536e+01 1.530545000000000073e+03
4.200000000000000261e-02 6.034835000000000615e-01 2.053759999999999586e+00 5.553184999999999860e+01 1.530115000000000009e+03
4.300000000000000350e-02 6.032494999999999941e-01 2.010525000000000340e+00 5.449224999999999852e+01 1.529775000000000091e+03
4.400000000000000439e-02 6.031075000000000186e-01 2.086769499999999944e+00 5.384234999999999616e+01 1.529545000000000073e+03
4.499999999999999833e-02 6.030560000000000365e-01 2.283214999999999772e+00 5.358379999999999654e+01 1.529409999999999854e+03
4.599999999999999922e-02 6.030919999999999614e-01 2.600304999999999644e+00 5.370955000000000013e+01 1.529380000000000109e+03
4.700000000000000011e-02 6.032144999999999868e-01 3.039710000000000356e+00 5.420824999999999960e+01 1.529454999999999927e+03
4.800000000000000100e-02 6.034200000000000674e-01 3.604540000000000077e+00 5.506705000000000183e+01 1.529630000000000109e+03
4.900000000000000189e-02 6.037080000000000224e-01 4.298408499999999854e+00 5.627224999999999966e+01 1.529905000000000200e+03
5.000000000000000278e-02 6.040749999999999176e-01 5.123760500000000384e+00 5.780924999999999869e+01 1.530264999999999873e+03
5.100000000000000366e-02 6.045184999999999587e-01 6.080000000000000071e+00 5.966069999999999851e+01 1.530724999999999909e+03
5.200000000000000455e-02 6.050314999999999444e-01 7.161897000000000624e+00 6.180504999999999427e+01 1.531259999999999991e+03
5.300000000000000544e-02 6.056079999999999242e-01 8.358914999999999651e+00 6.421484999999999843e+01 1.531880000000000109e+03
5.399999999999999939e-02 6.062380000000000546e-01 9.655100000000000904e+00 6.685660000000000025e+01 1.532565000000000055e+03
5.500000000000000028e-02 6.069109999999999783e-01 1.102986999999999895e+01 6.969079999999999586e+01 1.533309999999999945e+03
5.600000000000000117e-02 6.076154999999999751e-01 1.245946500000000157e+01 7.267334999999999923e+01 1.534105000000000018e+03
5.700000000000000205e-02 6.083395000000000330e-01 1.391860999999999926e+01 7.575799999999999557e+01 1.534934999999999945e+03
5.800000000000000294e-02 6.090725000000000167e-01 1.538222500000000004e+01 7.889834999999999354e+01 1.535789999999999964e+03
5.900000000000000383e-02 6.098040000000000127e-01 1.682712499999999878e+01 8.205049999999999955e+01 1.536659999999999854e+03
6.000000000000000472e-02 6.105259999999999021e-01 1.823300000000000054e+01 8.517545000000001210e+01 1.537529999999999973e+03
6.099999999999999867e-02 6.112305000000000099e-01 1.958339999999999748e+01 8.824084999999999468e+01 1.538394999999999982e+03
6.199999999999999956e-02 6.119149999999999867e-01 2.086599999999999966e+01 9.122090000000000032e+01 1.539244999999999891e+03
6.300000000000000044e-02 6.125754999999999395e-01 2.207250000000000156e+01 9.409909999999999286e+01 1.540069999999999936e+03
6.400000000000000133e-02 6.132115000000000204e-01 2.319810000000000016e+01 9.686545000000000982e+01 1.540880000000000109e+03
6.500000000000000222e-02 6.138230000000000075e-01 2.424129999999999896e+01 9.951699999999999591e+01 1.541655000000000200e+03
6.600000000000000311e-02 6.144114999999999993e-01 2.520289999999999964e+01 1.020559499999999957e+02 1.542409999999999854e+03
6.700000000000000400e-02 6.149789999999999424e-01 2.608539999999999992e+01 1.044900499999999965e+02 1.543130000000000109e+03
6.800000000000000488e-02 6.155280000000000751e-01 2.689269999999999783e+01 1.068280000000000030e+02 1.543829999999999927e+03
6.900000000000000577e-02 6.160615000000000396e-01 2.762895000000000323e+01 1.090819999999999936e+02 1.544505000000000109e+03
7.000000000000000666e-02 6.165804999999999758e-01 2.829850000000000065e+01 1.112630000000000052e+02 1.545160000000000082e+03
7.100000000000000755e-02 6.170885000000000398e-01 2.890540000000000020e+01 1.133799999999999955e+02 1.545795000000000073e+03
7.200000000000000844e-02 6.175855000000000095e-01 2.945275000000000176e+01 1.154420000000000073e+02 1.546420000000000073e+03
7.300000000000000933e-02 6.180719999999999548e-01 2.994275000000000020e+01 1.174544999999999959e+02 1.547025000000000091e+03
7.399999999999999634e-02 6.185490000000000155e-01 3.037655000000000172e+01 1.194180000000000064e+02 1.547615000000000009e+03
7.499999999999999722e-02 6.190145000000000231e-01 3.075394999999999968e+01 1.213319999999999936e+02 1.548194999999999936e+03
7.599999999999999811e-02 6.194675000000000598e-01 3.107385000000000019e+01 1.231910000000000025e+02 1.548755000000000109e+03
7.699999999999999900e-02 6.199045000000000805e-01 3.133409999999999940e+01 1.249875000000000114e+02 1.549300000000000182e+03
7.799999999999999989e-02 6.203240000000000975e-01 3.153219999999999956e+01 1.267104999999999961e+02 1.549824999999999818e+03
7.900000000000000078e-02 6.207225000000000659e-01 3.166515000000000057e+01 1.283489999999999895e+02 1.550329999999999927e+03
8.000000000000000167e-02 6.210970000000000102e-01 3.173019999999999996e+01 1.298899999999999864e+02 1.550804999999999836e+03
8.100000000000000255e-02 6.214444999999999553e-01 3.172475000000000023e+01 1.313204999999999814e+02 1.551250000000000000e+03
8.200000000000000344e-02 6.217624999999999957e-01 3.164690000000000225e+01 1.326299999999999955e+02 1.551664999999999964e+03
8.300000000000000433e-02 6.220485000000000042e-01 3.149559999999999960e+01 1.338075000000000045e+02 1.552039999999999964e+03
8.400000000000000522e-02 6.223009999999999931e-01 3.127055000000000007e+01 1.348455000000000155e+02 1.552375000000000000e+03
8.500000000000000611e-02 6.225190000000000445e-01 3.097245000000000203e+01 1.357365000000000066e+02 1.552675000000000182e+03
8.600000000000000699e-02 6.227019999999999778e-01 3.060299999999999798e+01 1.364784999999999968e+02 1.552929999999999836e+03
8.700000000000000788e-02 6.228500000000000147e-01 3.016479999999999961e+01 1.370695000000000050e+02 1.553139999999999873e+03
8.800000000000000877e-02 6.229629999999999335e-01 2.966154999999999831e+01 1.375115000000000123e+02 1.553309999999999945e+03
8.899999999999999578e-02 6.230415000000000258e-01 2.909774999999999778e+01 1.378079999999999927e+02 1.553440000000000055e+03
8.999999999999999667e-02 6.230885000000000451e-01 2.847889999999999588e+01 1.379655000000000200e+02 1.553525000000000091e+03
9.099999999999999756e-02 6.231050000000000200e-01 2.781114999999999782e+01 1.379929999999999950e+02 1.553569999999999936e+03
9.199999999999999845e-02 6.230940000000000367e-01 2.710159999999999769e+01 1.378994999999999891e+02 1.553579999999999927e+03
9.299999999999999933e-02 6.230580000000000007e-01 2.635774999999999935e+01 1.376974999999999909e+02 1.553559999999999945e+03
9.400000000000000022e-02 6.230009999999999160e-01 2.558774999999999977e+01 1.374010000000000105e+02 1.553509999999999991e+03
9.500000000000000111e-02 6.229244999999999921e-01 2.480000000000000071e+01 1.370240000000000009e+02 1.553424999999999955e+03
9.600000000000000200e-02 6.228339999999999987e-01 2.400300000000000011e+01 1.365810000000000173e+02 1.553325000000000045e+03
9.700000000000000289e-02 6.227320000000000633e-01 2.320490000000000208e+01 1.360879999999999939e+02 1.553210000000000036e+03
9.800000000000000377e-02 6.226220000000000088e-01 2.241349999999999909e+01 1.355589999999999975e+02 1.553075000000000045e+03
9.900000000000000466e-02 6.225069999999999215e-01 2.163605000000000089e+01 1.350090000000000146e+02 1.552924999999999955e+03
1.000000000000000056e-01 6.223899999999999988e-01 2.087854999999999706e+01 1.344499999999999886e+02 1.552775000000000091e+03
1.010000000000000064e-01 6.222739999999999938e-01 2.014594999999999914e+01 1.338930000000000007e+02 1.552625000000000000e+03
1.020000000000000073e-01 6.221590000000000176e-01 1.944190000000000040e+01 1.333480000000000132e+02 1.552469999999999800e+03
1.030000000000000082e-01 6.220480000000000453e-01 1.876845000000000141e+01 1.328205000000000098e+02 1.552315000000000055e+03
1.040000000000000091e-01 6.219409999999999661e-01 1.812635000000000218e+01 1.323145000000000095e+02 1.552170000000000073e+03
1.050000000000000100e-01 6.218375000000000430e-01 1.751480000000000103e+01 1.318325000000000102e+02 1.552025000000000091e+03
1.059999999999999970e-01 6.217384999999999717e-01 1.693165000000000120e+01 1.313739999999999952e+02 1.551889999999999873e+03
1.069999999999999979e-01 6.216420000000000279e-01 1.637385000000000090e+01 1.309360000000000070e+02 1.551755000000000109e+03
1.079999999999999988e-01 6.215465000000000018e-01 1.583725000000000094e+01 1.305140000000000100e+02 1.551625000000000000e+03
1.089999999999999997e-01 6.214520000000000044e-01 1.531719999999999970e+01 1.301020000000000039e+02 1.551494999999999891e+03
1.100000000000000006e-01 6.213554999999999495e-01 1.480849999999999866e+01 1.296929999999999836e+02 1.551369999999999891e+03
1.110000000000000014e-01 6.212564999999999893e-01 1.430589999999999939e+01 1.292800000000000011e+02 1.551250000000000000e+03
1.120000000000000023e-01 6.211524999999999963e-01 1.380419999999999980e+01 1.288564999999999827e+02 1.551119999999999891e+03
1.130000000000000032e-01 6.210430000000000117e-01 1.329865000000000030e+01 1.284149999999999920e+02 1.550985000000000127e+03
1.140000000000000041e-01 6.209260000000000890e-01 1.278495999999999988e+01 1.279505000000000052e+02 1.550849999999999909e+03
1.150000000000000050e-01 6.208020000000000760e-01 1.225958999999999932e+01 1.274574999999999960e+02 1.550710000000000036e+03
1.160000000000000059e-01 6.206690000000000262e-01 1.171985000000000099e+01 1.269335000000000093e+02 1.550555000000000064e+03
1.170000000000000068e-01 6.205275000000000096e-01 1.116400499999999951e+01 1.263759999999999906e+02 1.550400000000000091e+03
1.180000000000000077e-01 6.203779999999999850e-01 1.059150999999999954e+01 1.257860000000000014e+02 1.550230000000000018e+03
1.190000000000000085e-01 6.202220000000000510e-01 1.000276999999999994e+01 1.251649999999999920e+02 1.550054999999999836e+03
1.200000000000000094e-01 6.200594999999999857e-01 9.399264999999999759e+00 1.245169999999999959e+02 1.549875000000000000e+03
1.209999999999999964e-01 6.198924999999999574e-01 8.783554999999999779e+00 1.238474999999999966e+02 1.549690000000000055e+03
1.219999999999999973e-01 6.197234999999999827e-01 8.159190000000000609e+00 1.231630000000000109e+02 1.549500000000000000e+03
1.229999999999999982e-01 6.195534999999999792e-01 7.530465000000000408e+00 1.224729999999999990e+02 1.549299999999999955e+03
1.239999999999999991e-01 6.193859999999999921e-01 6.902260000000000062e+00 1.217849999999999966e+02 1.549105000000000018e+03
1.250000000000000000e-01 6.192225000000000090e-01 6.280085000000000583e+00 1.211109999999999900e+02 1.548914999999999964e+03
1.260000000000000009e-01 6.190664999999999640e-01 5.669624999999999915e+00 1.204594999999999914e+02 1.548724999999999909e+03
1.270000000000000018e-01 6.189189999999999969e-01 5.076624999999999943e+00 1.198410000000000082e+02 1.548549999999999955e+03
1.280000000000000027e-01 6.187834999999999308e-01 4.506689999999999863e+00 1.192659999999999911e+02 1.548375000000000000e+03
1.290000000000000036e-01 6.186620000000000452e-01 3.965050000000000185e+00 1.187419999999999902e+02 1.548224999999999909e+03
1.300000000000000044e-01 6.185555000000000359e-01 3.456374999999999975e+00 1.182779999999999916e+02 1.548079999999999927e+03
1.310000000000000053e-01 6.184655000000000014e-01 2.984585000000000043e+00 1.178789999999999907e+02 1.547960000000000036e+03
1.320000000000000062e-01 6.183924999999999006e-01 2.552760000000000140e+00 1.175510000000000019e+02 1.547849999999999909e+03
1.330000000000000071e-01 6.183374999999999844e-01 2.163000000000000256e+00 1.172944999999999993e+02 1.547759999999999991e+03
1.340000000000000080e-01 6.182999999999999607e-01 1.816374500000000003e+00 1.171115000000000066e+02 1.547694999999999936e+03
1.350000000000000089e-01 6.182799999999999407e-01 1.512946499999999972e+00 1.170005000000000024e+02 1.547644999999999982e+03
1.360000000000000098e-01 6.182754999999999779e-01 1.251787999999999901e+00 1.169585000000000008e+02 1.547619999999999891e+03
1.370000000000000107e-01 6.182860000000000023e-01 1.031054999999999833e+00 1.169800000000000040e+02 1.547609999999999900e+03
1.380000000000000115e-01 6.183100000000000263e-01 8.481155000000000221e-01 1.170589999999999975e+02 1.547615000000000009e+03
1.390000000000000124e-01 6.183445000000000746e-01 6.996729999999999894e-01 1.171880000000000024e+02 1.547639999999999873e+03
1.400000000000000133e-01 6.183879999999999377e-01 5.819389999999999841e-01 1.173580000000000041e+02 1.547675000000000182e+03
1.410000000000000142e-01 6.184385000000000021e-01 4.907839999999999425e-01 1.175610000000000070e+02 1.547719999999999800e+03
1.420000000000000151e-01 6.184935000000000294e-01 4.219134999999999414e-01 1.177874999999999943e+02 1.547769999999999982e+03
1.430000000000000160e-01 6.185514999999999208e-01 3.710040000000000004e-01 1.180279999999999916e+02 1.547829999999999927e+03
1.440000000000000169e-01 6.186104999999999521e-01 3.338490000000000069e-01 1.182750000000000057e+02 1.547889999999999873e+03
1.450000000000000178e-01 6.186679999999999957e-01 3.064600000000000102e-01 1.185199999999999960e+02 1.547954999999999927e+03
1.459999999999999909e-01 6.187225000000000641e-01 2.851704999999999934e-01 1.187560000000000002e+02 1.548019999999999982e+03
1.469999999999999918e-01 6.187739999999999352e-01 2.666905000000000525e-01 1.189765000000000015e+02 1.548075000000000045e+03
1.479999999999999927e-01 6.188204999999999956e-01 2.481544999999999723e-01 1.191779999999999973e+02 1.548130000000000109e+03
1.489999999999999936e-01 6.188605000000000356e-01 2.271455000000000279e-01 1.193550000000000040e+02 1.548184999999999945e+03
1.499999999999999944e-01 6.188949999999999729e-01 2.016985000000000305e-01 1.195049999999999955e+02 1.548224999999999909e+03
1.509999999999999953e-01 6.189219999999999722e-01 1.702974999999999905e-01 1.196260000000000048e+02 1.548264999999999873e+03
1.519999999999999962e-01 6.189424999999999510e-01 1.318519999999999692e-01 1.197175000000000011e+02 1.548295000000000073e+03
1.529999999999999971e-01 6.189560000000000617e-01 8.567549999999998778e-02 1.197785000000000082e+02 1.548315000000000055e+03
1.539999999999999980e-01 6.189630000000000409e-01 3.144844999999999585e-02 1.198094999999999999e+02 1.548329999999999927e+03
1.549999999999999989e-01 6.189634999999999998e-01 -3.081435000000000077e-02 1.198114999999999952e+02 1.548335000000000036e+03
1.559999999999999998e-01 6.189575000000000493e-01 -1.008084999999999953e-01 1.197860000000000014e+02 1.548335000000000036e+03
1.570000000000000007e-01 6.189454999999999263e-01 -1.779804000000000108e-01 1.197344999999999970e+02 1.548325000000000045e+03
1.580000000000000016e-01 6.189290000000000624e-01 -2.615706500000000156e-01 1.196595000000000084e+02 1.548309999999999945e+03
1.590000000000000024e-01 6.189069999999999849e-01 -3.506624999999999881e-01 1.195630000000000024e+02 1.548289999999999964e+03
