# t [s], A [cm^2], U [cm/s], P [cPa], c [cm/s]
1.000000000000000021e-03 1.635955000000000048e-01 2.312160000000000049e-01 1.023925000000000125e+02 1.944660000000000082e+03
2.000000000000000042e-03 1.635655000000000026e-01 1.697537999999999991e+00 9.946889999999999077e+01 1.944380000000000109e+03
3.000000000000000062e-03 1.634579999999999922e-01 3.535856500000000402e+00 9.548895000000000266e+01 1.943460000000000036e+03
4.000000000000000083e-03 1.633000000000000007e-01 5.593017050000000268e+00 9.094034999999999513e+01 1.942115000000000009e+03
5.000000000000000104e-03 1.631179999999999852e-01 7.810875000000000234e+00 8.658754999999999313e+01 1.940594999999999800e+03
6.000000000000000125e-03 1.629349999999999965e-01 1.007643500000000003e+01 8.285654999999999859e+01 1.939074999999999818e+03
7.000000000000000146e-03 1.627605000000000024e-01 1.221696999999999989e+01 7.973425000000000296e+01 1.937639999999999873e+03
8.000000000000000167e-03 1.625965000000000049e-01 1.409717500000000001e+01 7.700329999999999586e+01 1.936319999999999936e+03
9.000000000000001055e-03 1.624474999999999947e-01 1.569255000000000067e+01 7.457274999999999920e+01 1.935139999999999873e+03
1.000000000000000194e-02 1.623160000000000158e-01 1.703484999999999872e+01 7.249660000000000082e+01 1.934110000000000127e+03
1.099999999999999936e-02 1.622049999999999881e-01 1.814825000000000088e+01 7.081144999999999357e+01 1.933255000000000109e+03
1.200000000000000025e-02 1.621130000000000071e-01 1.904700000000000060e+01 6.949484999999999957e+01 1.932554999999999836e+03
1.300000000000000114e-02 1.620400000000000174e-01 1.974255000000000138e+01 6.849445000000000050e+01 1.932000000000000000e+03
1.400000000000000203e-02 1.619820000000000149e-01 2.023995000000000033e+01 6.773069999999999879e+01 1.931569999999999936e+03
1.499999999999999944e-02 1.619355000000000100e-01 2.054905000000000115e+01 6.711469999999999914e+01 1.931235000000000127e+03
1.600000000000000033e-02 1.618990000000000151e-01 2.071085000000000065e+01 6.661849999999999739e+01 1.930974999999999909e+03
1.700000000000000122e-02 1.618729999999999891e-01 2.081054999999999922e+01 6.633975000000000932e+01 1.930799999999999955e+03
1.800000000000000211e-02 1.618625000000000203e-01 2.095589999999999975e+01 6.648250000000000171e+01 1.930740000000000009e+03
1.900000000000000300e-02 1.618729999999999891e-01 2.123364999999999725e+01 6.725325000000000841e+01 1.930835000000000036e+03
2.000000000000000042e-02 1.619079999999999964e-01 2.167200000000000060e+01 6.873845000000000027e+01 1.931119999999999891e+03
2.100000000000000130e-02 1.619669999999999999e-01 2.222875000000000156e+01 7.083610000000000184e+01 1.931575000000000045e+03
2.200000000000000219e-02 1.620429999999999926e-01 2.280924999999999869e+01 7.327100000000000080e+01 1.932174999999999955e+03
2.299999999999999961e-02 1.621265000000000067e-01 2.330044999999999789e+01 7.567840000000001055e+01 1.932840000000000146e+03
2.400000000000000050e-02 1.622069999999999901e-01 2.360750000000000171e+01 7.771334999999999127e+01 1.933480000000000018e+03
2.500000000000000139e-02 1.622755000000000170e-01 2.367914999999999992e+01 7.914314999999999145e+01 1.934035000000000082e+03
2.600000000000000228e-02 1.623259999999999981e-01 2.351614999999999966e+01 7.989619999999999322e+01 1.934454999999999927e+03
2.700000000000000316e-02 1.623570000000000013e-01 2.316275000000000261e+01 8.005584999999999241e+01 1.934724999999999909e+03
2.800000000000000058e-02 1.623729999999999896e-01 2.268585000000000207e+01 7.980984999999999729e+01 1.934865000000000009e+03
2.900000000000000147e-02 1.623769999999999936e-01 2.215155000000000030e+01 7.937680000000000291e+01 1.934910000000000082e+03
3.000000000000000236e-02 1.623744999999999772e-01 2.160560000000000258e+01 7.893670000000000186e+01 1.934904999999999973e+03
3.099999999999999978e-02 1.623709999999999876e-01 2.106454999999999700e+01 7.858574999999999022e+01 1.934875000000000000e+03
3.200000000000000067e-02 1.623664999999999969e-01 2.051709999999999923e+01 7.832560000000000855e+01 1.934845000000000027e+03
3.300000000000000155e-02 1.623609999999999776e-01 1.993489999999999895e+01 7.808379999999999654e+01 1.934804999999999836e+03
3.400000000000000244e-02 1.623525000000000107e-01 1.928710000000000235e+01 7.775515000000000043e+01 1.934740000000000009e+03
3.500000000000000333e-02 1.623394999999999977e-01 1.855505000000000138e+01 7.724895000000000778e+01 1.934644999999999982e+03
3.600000000000000422e-02 1.623189999999999911e-01 1.774285000000000068e+01 7.652834999999998900e+01 1.934490000000000009e+03
3.700000000000000511e-02 1.622925000000000062e-01 1.688064999999999927e+01 7.563204999999999245e+01 1.934284999999999854e+03
3.799999999999999906e-02 1.622615000000000030e-01 1.602094999999999914e+01 7.467230000000000700e+01 1.934050000000000182e+03
3.899999999999999994e-02 1.622299999999999853e-01 1.522790000000000177e+01 7.381180000000000518e+01 1.933804999999999836e+03
4.000000000000000083e-02 1.622045000000000015e-01 1.456380000000000052e+01 7.322509999999999764e+01 1.933599999999999909e+03
4.100000000000000172e-02 1.621889999999999998e-01 1.407540000000000013e+01 7.305660000000000309e+01 1.933474999999999909e+03
4.200000000000000261e-02 1.621869999999999978e-01 1.378420000000000023e+01 7.338625000000000398e+01 1.933450000000000045e+03
4.300000000000000350e-02 1.622014999999999985e-01 1.368250000000000099e+01 7.421059999999999945e+01 1.933554999999999836e+03
4.400000000000000439e-02 1.622319999999999873e-01 1.373545000000000016e+01 7.544294999999999618e+01 1.933775000000000091e+03
4.499999999999999833e-02 1.622739999999999738e-01 1.388790000000000013e+01 7.693039999999999168e+01 1.934095000000000027e+03
4.599999999999999922e-02 1.623235000000000094e-01 1.407424999999999926e+01 7.848165000000000191e+01 1.934474999999999909e+03
4.700000000000000011e-02 1.623744999999999772e-01 1.422834999999999894e+01 7.989945000000000164e+01 1.934869999999999891e+03
4.800000000000000100e-02 1.624204999999999954e-01 1.429230000000000089e+01 8.100925000000000864e+01 1.935230000000000018e+03
4.900000000000000189e-02 1.624559999999999893e-01 1.422250000000000014e+01 8.168094999999999573e+01 1.935515000000000100e+03
5.000000000000000278e-02 1.624780000000000113e-01 1.399205000000000076e+01 8.183965000000000600e+01 1.935695000000000164e+03
5.100000000000000366e-02 1.624835000000000029e-01 1.359074999999999989e+01 8.146629999999998972e+01 1.935744999999999891e+03
5.200000000000000455e-02 1.624710000000000043e-01 1.302264999999999873e+01 8.058979999999999677e+01 1.935654999999999973e+03
5.300000000000000544e-02 1.624415000000000164e-01 1.230205000000000126e+01 7.927365000000000350e+01 1.935429999999999836e+03
5.399999999999999939e-02 1.623964999999999992e-01 1.144968499999999878e+01 7.760085000000000832e+01 1.935085000000000036e+03
5.500000000000000028e-02 1.623390000000000111e-01 1.048940999999999946e+01 7.566079999999999472e+01 1.934639999999999873e+03
5.600000000000000117e-02 1.622709999999999986e-01 9.445940000000000225e+00 7.353889999999999816e+01 1.934105000000000018e+03
5.700000000000000205e-02 1.621949999999999781e-01 8.343659999999999854e+00 7.131190000000000850e+01 1.933514999999999873e+03
5.800000000000000294e-02 1.621139999999999803e-01 7.206735000000000113e+00 6.904630000000000223e+01 1.932884999999999991e+03
5.900000000000000383e-02 1.620300000000000074e-01 6.059775000000000134e+00 6.680084999999999695e+01 1.932224999999999909e+03
6.000000000000000472e-02 1.619459999999999789e-01 4.928329999999999878e+00 6.463009999999999877e+01 1.931570000000000164e+03
6.099999999999999867e-02 1.618640000000000079e-01 3.839800000000000324e+00 6.258794999999999931e+01 1.930920000000000073e+03
6.199999999999999956e-02 1.617859999999999854e-01 2.823461500000000068e+00 6.073075000000000045e+01 1.930305000000000064e+03
6.300000000000000044e-02 1.617139999999999966e-01 1.910049499999999956e+00 5.911794999999999334e+01 1.929735000000000127e+03
6.400000000000000133e-02 1.616509999999999891e-01 1.130737000000000103e+00 5.781135000000000446e+01 1.929230000000000018e+03
6.500000000000000222e-02 1.615995000000000070e-01 5.156795000000000684e-01 5.687199999999999989e+01 1.928820000000000164e+03
6.600000000000000311e-02 1.615610000000000102e-01 9.228649999999993803e-02 5.635640000000000072e+01 1.928505000000000109e+03
6.700000000000000400e-02 1.615385000000000015e-01 -1.165149999999999797e-01 5.631210000000000093e+01 1.928315000000000055e+03
6.800000000000000488e-02 1.615329999999999822e-01 -9.379025000000000556e-02 5.677360000000000184e+01 1.928259999999999991e+03
6.900000000000000577e-02 1.615459999999999952e-01 1.702825000000000033e-01 5.775900000000000034e+01 1.928344999999999800e+03
7.000000000000000666e-02 1.615790000000000004e-01 6.777819999999998846e-01 5.926855000000000473e+01 1.928579999999999927e+03
7.100000000000000755e-02 1.616309999999999969e-01 1.422967500000000163e+00 6.128370000000000317e+01 1.928974999999999909e+03
7.200000000000000844e-02 1.617024999999999990e-01 2.392670399999999642e+00 6.376879999999999882e+01 1.929514999999999873e+03
7.300000000000000933e-02 1.617910000000000181e-01 3.567158499999999677e+00 6.667334999999999923e+01 1.930195000000000164e+03
7.399999999999999634e-02 1.618959999999999844e-01 4.921285000000000132e+00 6.993500000000000227e+01 1.931000000000000000e+03
7.499999999999999722e-02 1.620150000000000201e-01 6.425869999999999749e+00 7.348380000000000223e+01 1.931924999999999955e+03
7.599999999999999811e-02 1.621454999999999980e-01 8.049260000000000304e+00 7.724594999999999345e+01 1.932945000000000164e+03
7.699999999999999900e-02 1.622844999999999982e-01 9.758675000000000210e+00 8.114804999999999779e+01 1.934034999999999854e+03
7.799999999999999989e-02 1.624309999999999921e-01 1.152201499999999967e+01 8.512080000000000268e+01 1.935174999999999955e+03
7.900000000000000078e-02 1.625810000000000033e-01 1.330871999999999922e+01 8.910210000000000719e+01 1.936355000000000018e+03
8.000000000000000167e-02 1.627325000000000021e-01 1.509135000000000026e+01 9.303979999999999961e+01 1.937555000000000064e+03
8.100000000000000255e-02 1.628835000000000144e-01 1.684605000000000175e+01 9.689230000000000587e+01 1.938755000000000109e+03
8.200000000000000344e-02 1.630334999999999979e-01 1.855339999999999989e+01 1.006312999999999960e+02 1.939940000000000055e+03
8.300000000000000433e-02 1.631799999999999917e-01 2.019845000000000113e+01 1.042402500000000032e+02 1.941110000000000127e+03
8.400000000000000522e-02 1.633224999999999816e-01 2.177070000000000149e+01 1.077129999999999939e+02 1.942250000000000000e+03
8.500000000000000611e-02 1.634619999999999962e-01 2.326350000000000051e+01 1.110529999999999973e+02 1.943360000000000127e+03
8.600000000000000699e-02 1.635959999999999914e-01 2.467385000000000161e+01 1.142710000000000008e+02 1.944445000000000164e+03
8.700000000000000788e-02 1.637270000000000114e-01 2.600135000000000218e+01 1.173815000000000026e+02 1.945494999999999891e+03
8.800000000000000877e-02 1.638539999999999996e-01 2.724750000000000227e+01 1.204014999999999986e+02 1.946525000000000091e+03
8.899999999999999578e-02 1.639780000000000126e-01 2.841485000000000127e+01 1.233474999999999966e+02 1.947519999999999982e+03
8.999999999999999667e-02 1.640995000000000092e-01 2.950649999999999906e+01 1.262330000000000041e+02 1.948505000000000109e+03
9.099999999999999756e-02 1.642184999999999895e-01 3.052529999999999788e+01 1.290695000000000050e+02 1.949465000000000146e+03
9.199999999999999845e-02 1.643354999999999955e-01 3.147335000000000349e+01 1.318609999999999900e+02 1.950420000000000073e+03
9.299999999999999933e-02 1.644510000000000138e-01 3.235220000000000340e+01 1.346084999999999923e+02 1.951355000000000018e+03
9.400000000000000022e-02 1.645645000000000024e-01 3.316199999999999903e+01 1.373085000000000093e+02 1.952269999999999982e+03
9.500000000000000111e-02 1.646759999999999891e-01 3.390210000000000434e+01 1.399524999999999864e+02 1.953180000000000064e+03
9.600000000000000200e-02 1.647845000000000004e-01 3.457075000000000387e+01 1.425280000000000200e+02 1.954065000000000055e+03
9.700000000000000289e-02 1.648910000000000098e-01 3.516535000000000366e+01 1.450194999999999936e+02 1.954930000000000064e+03
9.800000000000000377e-02 1.649940000000000018e-01 3.568249999999999744e+01 1.474119999999999777e+02 1.955769999999999982e+03
9.900000000000000466e-02 1.650935000000000041e-01 3.611839999999999407e+01 1.496860000000000070e+02 1.956575000000000045e+03
1.000000000000000056e-01 1.651880000000000015e-01 3.646889999999999787e+01 1.518245000000000005e+02 1.957349999999999909e+03
1.010000000000000064e-01 1.652774999999999939e-01 3.672975000000000279e+01 1.538089999999999975e+02 1.958079999999999927e+03
1.020000000000000073e-01 1.653610000000000080e-01 3.689685000000000059e+01 1.556229999999999905e+02 1.958764999999999873e+03
1.030000000000000082e-01 1.654380000000000017e-01 3.696650000000000347e+01 1.572524999999999977e+02 1.959394999999999982e+03
1.040000000000000091e-01 1.655079999999999885e-01 3.693564999999999543e+01 1.586835000000000093e+02 1.959970000000000027e+03
1.050000000000000100e-01 1.655699999999999950e-01 3.680195000000000505e+01 1.599055000000000177e+02 1.960485000000000127e+03
1.059999999999999970e-01 1.656245000000000078e-01 3.656430000000000291e+01 1.609110000000000014e+02 1.960934999999999945e+03
1.069999999999999979e-01 1.656699999999999839e-01 3.622285000000000110e+01 1.616959999999999980e+02 1.961320000000000164e+03
1.079999999999999988e-01 1.657075000000000076e-01 3.577925000000000466e+01 1.622609999999999957e+02 1.961630000000000109e+03
1.089999999999999997e-01 1.657359999999999944e-01 3.523669999999999902e+01 1.626090000000000089e+02 1.961869999999999891e+03
1.100000000000000006e-01 1.657569999999999877e-01 3.460025000000000261e+01 1.627489999999999952e+02 1.962049999999999955e+03
1.110000000000000014e-01 1.657689999999999997e-01 3.387650000000000006e+01 1.626915000000000191e+02 1.962154999999999973e+03
1.120000000000000023e-01 1.657734999999999903e-01 3.307375000000000398e+01 1.624535000000000196e+02 1.962200000000000045e+03
1.130000000000000032e-01 1.657710000000000017e-01 3.220150000000000290e+01 1.620534999999999854e+02 1.962190000000000055e+03
1.140000000000000041e-01 1.657609999999999917e-01 3.127059999999999818e+01 1.615124999999999886e+02 1.962119999999999891e+03
1.150000000000000050e-01 1.657465000000000188e-01 3.029244999999999877e+01 1.608545000000000016e+02 1.962009999999999991e+03
1.160000000000000059e-01 1.657264999999999988e-01 2.927915000000000134e+01 1.601034999999999968e+02 1.961849999999999909e+03
1.170000000000000068e-01 1.657020000000000159e-01 2.824264999999999759e+01 1.592830000000000155e+02 1.961660000000000082e+03
1.180000000000000077e-01 1.656745000000000023e-01 2.719469999999999743e+01 1.584149999999999920e+02 1.961440000000000055e+03
1.190000000000000085e-01 1.656449999999999867e-01 2.614625000000000199e+01 1.575225000000000080e+02 1.961204999999999927e+03
1.200000000000000094e-01 1.656139999999999834e-01 2.510735000000000028e+01 1.566229999999999905e+02 1.960954999999999927e+03
1.209999999999999964e-01 1.655814999999999926e-01 2.408684999999999832e+01 1.557309999999999945e+02 1.960694999999999936e+03
1.219999999999999973e-01 1.655494999999999883e-01 2.309205000000000041e+01 1.548595000000000255e+02 1.960429999999999836e+03
1.229999999999999982e-01 1.655170000000000252e-01 2.212859999999999872e+01 1.540169999999999959e+02 1.960170000000000073e+03
1.239999999999999991e-01 1.654849999999999932e-01 2.120050000000000168e+01 1.532085000000000150e+02 1.959909999999999854e+03
1.250000000000000000e-01 1.654539999999999900e-01 2.031015000000000015e+01 1.524334999999999809e+02 1.959660000000000082e+03
1.260000000000000009e-01 1.654240000000000155e-01 1.945805000000000007e+01 1.516915000000000191e+02 1.959410000000000082e+03
1.270000000000000018e-01 1.653950000000000142e-01 1.864329999999999998e+01 1.509755000000000109e+02 1.959170000000000073e+03
1.280000000000000027e-01 1.653660000000000130e-01 1.786364999999999981e+01 1.502785000000000082e+02 1.958934999999999945e+03
1.290000000000000036e-01 1.653379999999999850e-01 1.711549999999999727e+01 1.495894999999999868e+02 1.958704999999999927e+03
1.300000000000000044e-01 1.653100000000000125e-01 1.639430000000000121e+01 1.488974999999999795e+02 1.958474999999999909e+03
1.310000000000000053e-01 1.652814999999999979e-01 1.569490000000000052e+01 1.481895000000000095e+02 1.958240000000000009e+03
1.320000000000000062e-01 1.652524999999999966e-01 1.501169999999999938e+01 1.474529999999999745e+02 1.958000000000000000e+03
1.330000000000000071e-01 1.652224999999999944e-01 1.433894999999999875e+01 1.466759999999999877e+02 1.957755000000000109e+03
1.340000000000000080e-01 1.651905000000000179e-01 1.367109999999999914e+01 1.458469999999999800e+02 1.957494999999999891e+03
1.350000000000000089e-01 1.651569999999999983e-01 1.300309999999999988e+01 1.449555000000000007e+02 1.957220000000000027e+03
1.360000000000000098e-01 1.651215000000000044e-01 1.233050000000000068e+01 1.439954999999999927e+02 1.956930000000000064e+03
1.370000000000000107e-01 1.650824999999999931e-01 1.164987500000000153e+01 1.429605000000000246e+02 1.956615000000000009e+03
1.380000000000000115e-01 1.650409999999999933e-01 1.095882500000000093e+01 1.418489999999999895e+02 1.956279999999999973e+03
1.390000000000000124e-01 1.649974999999999914e-01 1.025624999999999964e+01 1.406614999999999895e+02 1.955930000000000064e+03
1.400000000000000133e-01 1.649504999999999999e-01 9.542439999999999145e+00 1.394025000000000034e+02 1.955545000000000073e+03
1.410000000000000142e-01 1.649010000000000198e-01 8.818955000000000766e+00 1.380784999999999911e+02 1.955144999999999982e+03
1.420000000000000151e-01 1.648485000000000089e-01 8.088739999999999597e+00 1.366999999999999886e+02 1.954730000000000018e+03
1.430000000000000160e-01 1.647939999999999960e-01 7.355945000000000178e+00 1.352800000000000011e+02 1.954289999999999964e+03
1.440000000000000169e-01 1.647385000000000099e-01 6.625804999999999723e+00 1.338329999999999984e+02 1.953839999999999918e+03
1.450000000000000178e-01 1.646814999999999807e-01 5.904395000000000060e+00 1.323745000000000118e+02 1.953384999999999991e+03
1.459999999999999909e-01 1.646245000000000069e-01 5.198405000000000165e+00 1.309230000000000018e+02 1.952920000000000073e+03
1.469999999999999918e-01 1.645670000000000188e-01 4.514850000000000030e+00 1.294964999999999975e+02 1.952454999999999927e+03
1.479999999999999927e-01 1.645105000000000040e-01 3.860784999999999911e+00 1.281115000000000066e+02 1.952000000000000000e+03
1.489999999999999936e-01 1.644555000000000045e-01 3.243004999999999693e+00 1.267845000000000084e+02 1.951559999999999945e+03
1.499999999999999944e-01 1.644019999999999926e-01 2.667765000000000164e+00 1.255294999999999987e+02 1.951130000000000109e+03
1.509999999999999953e-01 1.643514999999999837e-01 2.140554499999999916e+00 1.243599999999999994e+02 1.950715000000000146e+03
1.519999999999999962e-01 1.643040000000000056e-01 1.665887000000000118e+00 1.232849999999999966e+02 1.950329999999999927e+03
1.529999999999999971e-01 1.642600000000000171e-01 1.247151500000000190e+00 1.223114999999999952e+02 1.949970000000000027e+03
1.539999999999999980e-01 1.642190000000000039e-01 8.865015000000000533e-01 1.214435000000000002e+02 1.949639999999999873e+03
1.549999999999999989e-01 1.641825000000000090e-01 5.848614999999999231e-01 1.206809999999999974e+02 1.949340000000000146e+03
1.559999999999999998e-01 1.641500000000000181e-01 3.418984999999999941e-01 1.200240000000000009e+02 1.949074999999999818e+03
1.570000000000000007e-01 1.641210000000000169e-01 1.561119999999999730e-01 1.194659999999999940e+02 1.948835000000000036e+03
1.580000000000000016e-01 1.640959999999999919e-01 2.494150000000000533e-02 1.190019999999999953e+02 1.948625000000000000e+03
1.590000000000000024e-01 1.640745000000000120e-01 -5.511149999999997995e-02 1.186235000000000070e+02 1.948450000000000045e+03
