# t [s], A [cm^2], U [cm/s], P [cPa], c [cm/s]
1.000000000000000021e-03 1.725480000000000069e-01 3.697284700000000313e-01 9.061754999999999427e+01 2.329039999999999964e+03
2.000000000000000042e-03 1.724934999999999941e-01 1.852260000000000240e+00 8.683265000000000100e+01 2.328474999999999909e+03
3.000000000000000062e-03 1.723700000000000232e-01 3.676546000000000092e+00 8.164435000000000286e+01 2.327215000000000146e+03
4.000000000000000083e-03 1.722144999999999926e-01 5.755288999999999433e+00 7.640935000000000343e+01 2.325654999999999745e+03
5.000000000000000104e-03 1.720590000000000175e-01 7.963544999999999874e+00 7.212584999999999980e+01 2.324110000000000127e+03
6.000000000000000125e-03 1.719160000000000132e-01 1.000374500000000033e+01 6.869025000000000603e+01 2.322704999999999927e+03
7.000000000000000146e-03 1.717825000000000046e-01 1.167736000000000018e+01 6.558745000000000402e+01 2.321434999999999945e+03
8.000000000000000167e-03 1.716660000000000130e-01 1.302860500000000066e+01 6.284525000000000006e+01 2.320340000000000146e+03
9.000000000000001055e-03 1.715689999999999993e-01 1.411599999999999966e+01 6.063424999999999443e+01 2.319440000000000055e+03
1.000000000000000194e-02 1.714915000000000189e-01 1.495725000000000016e+01 5.892549999999999955e+01 2.318725000000000364e+03
1.099999999999999936e-02 1.714315000000000144e-01 1.556685000000000052e+01 5.762104999999999677e+01 2.318185000000000400e+03
1.200000000000000025e-02 1.713830000000000076e-01 1.593730000000000047e+01 5.653575000000000017e+01 2.317755000000000109e+03
1.300000000000000114e-02 1.713415000000000077e-01 1.609580000000000055e+01 5.550614999999999810e+01 2.317394999999999982e+03
1.400000000000000203e-02 1.713095000000000034e-01 1.619879999999999853e+01 5.473664999999999736e+01 2.317119999999999891e+03
1.499999999999999944e-02 1.712980000000000058e-01 1.649674999999999869e+01 5.486025000000000063e+01 2.317025000000000091e+03
1.600000000000000033e-02 1.713214999999999877e-01 1.716969999999999885e+01 5.649275000000000091e+01 2.317244999999999891e+03
1.700000000000000122e-02 1.713844999999999952e-01 1.818870000000000076e+01 5.968040000000000589e+01 2.317824999999999818e+03
1.800000000000000211e-02 1.714765000000000039e-01 1.931465000000000032e+01 6.372005000000000052e+01 2.318684999999999945e+03
1.900000000000000300e-02 1.715750000000000053e-01 2.022039999999999793e+01 6.745529999999999404e+01 2.319609999999999673e+03
2.000000000000000042e-02 1.716544999999999876e-01 2.064730000000000132e+01 6.981389999999998963e+01 2.320380000000000109e+03
2.100000000000000130e-02 1.716965000000000019e-01 2.051055000000000206e+01 7.026650000000000773e+01 2.320815000000000055e+03
2.200000000000000219e-02 1.716975000000000029e-01 1.991145000000000209e+01 6.898759999999998627e+01 2.320855000000000018e+03
2.299999999999999961e-02 1.716654999999999986e-01 1.906455000000000055e+01 6.668075000000000330e+01 2.320590000000000146e+03
2.400000000000000050e-02 1.716169999999999918e-01 1.818730000000000047e+01 6.419759999999999422e+01 2.320150000000000091e+03
2.500000000000000139e-02 1.715685000000000127e-01 1.741055000000000064e+01 6.216019999999999612e+01 2.319690000000000055e+03
2.600000000000000228e-02 1.715274999999999994e-01 1.674450000000000216e+01 6.075520000000000209e+01 2.319295000000000073e+03
2.700000000000000316e-02 1.714934999999999932e-01 1.610500000000000043e+01 5.975570000000000448e+01 2.318970000000000255e+03
2.800000000000000058e-02 1.714614999999999889e-01 1.537610000000000099e+01 5.871699999999999875e+01 2.318664999999999964e+03
2.900000000000000147e-02 1.714220000000000188e-01 1.447949999999999804e+01 5.723839999999999861e+01 2.318305000000000291e+03
3.000000000000000236e-02 1.713699999999999946e-01 1.342334999999999923e+01 5.518035000000000423e+01 2.317824999999999818e+03
3.099999999999999978e-02 1.713085000000000024e-01 1.231319500000000033e+01 5.275714999999999577e+01 2.317250000000000000e+03
3.200000000000000067e-02 1.712449999999999806e-01 1.132035499999999928e+01 5.047440000000000282e+01 2.316650000000000091e+03
3.300000000000000155e-02 1.711929999999999841e-01 1.062336499999999972e+01 4.894185000000000230e+01 2.316154999999999745e+03
3.400000000000000244e-02 1.711654999999999982e-01 1.034533000000000058e+01 4.864350000000000307e+01 2.315875000000000000e+03
3.500000000000000333e-02 1.711694999999999744e-01 1.051200000000000045e+01 4.975789999999999935e+01 2.315894999999999982e+03
3.600000000000000422e-02 1.712075000000000125e-01 1.104380000000000095e+01 5.209125000000000227e+01 2.316215000000000146e+03
3.700000000000000511e-02 1.712695000000000189e-01 1.177874999999999872e+01 5.513269999999999982e+01 2.316779999999999745e+03
3.799999999999999906e-02 1.713429999999999953e-01 1.251545000000000130e+01 5.819680000000000319e+01 2.317460000000000036e+03
3.899999999999999994e-02 1.714120000000000088e-01 1.305900000000000105e+01 6.059624999999999773e+01 2.318100000000000364e+03
4.000000000000000083e-02 1.714594999999999869e-01 1.325859999999999950e+01 6.179149999999999920e+01 2.318569999999999709e+03
4.100000000000000172e-02 1.714765000000000039e-01 1.302795000000000059e+01 6.148179999999999978e+01 2.318739999999999782e+03
4.200000000000000261e-02 1.714559999999999973e-01 1.234825000000000017e+01 5.962500000000000000e+01 2.318565000000000055e+03
4.300000000000000350e-02 1.713979999999999948e-01 1.125664000000000087e+01 5.639650000000000318e+01 2.318045000000000073e+03
4.400000000000000439e-02 1.713065000000000004e-01 9.826679999999999637e+00 5.211055000000000348e+01 2.317199999999999818e+03
4.499999999999999833e-02 1.711894999999999945e-01 8.148300000000000765e+00 4.713354999999999961e+01 2.316119999999999891e+03
4.599999999999999922e-02 1.710550000000000126e-01 6.312490000000000379e+00 4.181449999999999534e+01 2.314860000000000127e+03
4.700000000000000011e-02 1.709104999999999930e-01 4.403128849999999872e+00 3.644545000000000101e+01 2.313510000000000218e+03
4.800000000000000100e-02 1.707635000000000125e-01 2.495055000000000245e+00 3.125280000000000058e+01 2.312125000000000000e+03
4.900000000000000189e-02 1.706205000000000083e-01 6.568350000000002797e-01 2.641060000000000230e+01 2.310779999999999745e+03
5.000000000000000278e-02 1.704855000000000120e-01 -1.045609999999999928e+00 2.206344999999999956e+01 2.309505000000000109e+03
5.100000000000000366e-02 1.703640000000000154e-01 -2.546545000000000059e+00 1.834665000000000035e+01 2.308349999999999909e+03
5.200000000000000455e-02 1.702589999999999937e-01 -3.780669999999999753e+00 1.539724999999999966e+01 2.307360000000000127e+03
5.300000000000000544e-02 1.701769999999999949e-01 -4.686225000000000307e+00 1.335142499999999899e+01 2.306564999999999600e+03
5.399999999999999939e-02 1.701199999999999934e-01 -5.210164999999999935e+00 1.233245499999999950e+01 2.306010000000000218e+03
5.500000000000000028e-02 1.700919999999999932e-01 -5.313959999999999795e+00 1.243270000000000053e+01 2.305720000000000255e+03
5.600000000000000117e-02 1.700955000000000106e-01 -4.978429999999999467e+00 1.369630000000000081e+01 2.305725000000000364e+03
5.700000000000000205e-02 1.701310000000000044e-01 -4.206665000000000099e+00 1.610735000000000028e+01 2.306029999999999745e+03
5.800000000000000294e-02 1.701980000000000159e-01 -3.024214500000000250e+00 1.958675000000000210e+01 2.306625000000000000e+03
5.900000000000000383e-02 1.702945000000000153e-01 -1.476970000000000116e+00 2.399770000000000181e+01 2.307500000000000000e+03
6.000000000000000472e-02 1.704160000000000119e-01 3.728499999999999037e-01 2.915775000000000006e+01 2.308619999999999891e+03
6.099999999999999867e-02 1.705579999999999874e-01 2.451774999999999594e+00 3.485545000000000471e+01 2.309934999999999945e+03
6.199999999999999956e-02 1.707150000000000056e-01 4.680494500000000002e+00 4.086780000000000257e+01 2.311394999999999982e+03
6.300000000000000044e-02 1.708815000000000195e-01 6.979330000000000034e+00 4.697710000000000008e+01 2.312949999999999818e+03
6.400000000000000133e-02 1.710510000000000086e-01 9.273059999999999192e+00 5.298600000000000421e+01 2.314545000000000073e+03
6.500000000000000222e-02 1.712184999999999957e-01 1.149583499999999958e+01 5.872990000000000066e+01 2.316130000000000109e+03
6.600000000000000311e-02 1.713800000000000046e-01 1.359445999999999977e+01 6.408660000000000423e+01 2.317664999999999964e+03
6.700000000000000400e-02 1.715320000000000178e-01 1.553149999999999942e+01 6.898239999999999839e+01 2.319114999999999782e+03
6.800000000000000488e-02 1.716729999999999923e-01 1.728625000000000256e+01 7.339420000000001210e+01 2.320465000000000146e+03
6.900000000000000577e-02 1.718025000000000246e-01 1.885510000000000019e+01 7.734655000000000769e+01 2.321715000000000146e+03
7.000000000000000666e-02 1.719205000000000039e-01 2.024940000000000140e+01 8.090510000000000446e+01 2.322850000000000364e+03
7.100000000000000755e-02 1.720289999999999875e-01 2.149260000000000304e+01 8.416525000000000034e+01 2.323900000000000091e+03
7.200000000000000844e-02 1.721305000000000196e-01 2.261639999999999873e+01 8.723890000000000100e+01 2.324885000000000218e+03
7.300000000000000933e-02 1.722275000000000056e-01 2.365615000000000023e+01 9.024105000000000132e+01 2.325819999999999709e+03
7.399999999999999634e-02 1.723230000000000040e-01 2.464724999999999966e+01 9.327644999999999698e+01 2.326739999999999782e+03
7.499999999999999722e-02 1.724189999999999889e-01 2.562069999999999936e+01 9.642929999999999779e+01 2.327675000000000182e+03
7.599999999999999811e-02 1.725185000000000191e-01 2.660115000000000052e+01 9.975739999999998986e+01 2.328630000000000109e+03
7.699999999999999900e-02 1.726214999999999833e-01 2.760439999999999827e+01 1.032864500000000021e+02 2.329619999999999891e+03
7.799999999999999989e-02 1.727299999999999947e-01 2.863694999999999879e+01 1.070124999999999886e+02 2.330659999999999854e+03
7.900000000000000078e-02 1.728429999999999966e-01 2.969610000000000127e+01 1.109020000000000010e+02 2.331744999999999891e+03
8.000000000000000167e-02 1.729594999999999883e-01 3.077064999999999628e+01 1.148990000000000009e+02 2.332864999999999782e+03
8.100000000000000255e-02 1.730780000000000096e-01 3.184254999999999924e+01 1.189294999999999902e+02 2.334005000000000109e+03
8.200000000000000344e-02 1.731969999999999898e-01 3.288835000000000264e+01 1.229095000000000084e+02 2.335150000000000091e+03
8.300000000000000433e-02 1.733139999999999958e-01 3.388160000000000593e+01 1.267489999999999952e+02 2.336269999999999982e+03
8.400000000000000522e-02 1.734259999999999968e-01 3.479470000000000596e+01 1.303615000000000066e+02 2.337360000000000127e+03
8.500000000000000611e-02 1.735315000000000052e-01 3.560094999999999743e+01 1.336664999999999850e+02 2.338380000000000109e+03
8.600000000000000699e-02 1.736280000000000046e-01 3.627635000000000076e+01 1.365960000000000036e+02 2.339319999999999709e+03
8.700000000000000788e-02 1.737144999999999939e-01 3.680154999999999887e+01 1.390985000000000014e+02 2.340159999999999854e+03
8.800000000000000877e-02 1.737879999999999980e-01 3.716254999999999598e+01 1.411394999999999982e+02 2.340885000000000218e+03
8.899999999999999578e-02 1.738500000000000045e-01 3.735229999999999961e+01 1.427044999999999959e+02 2.341489999999999782e+03
8.999999999999999667e-02 1.738975000000000104e-01 3.737054999999999438e+01 1.438020000000000209e+02 2.341965000000000146e+03
9.099999999999999756e-02 1.739330000000000043e-01 3.722429999999999950e+01 1.444574999999999818e+02 2.342319999999999709e+03
9.199999999999999845e-02 1.739559999999999995e-01 3.692685000000000173e+01 1.447135000000000105e+02 2.342554999999999836e+03
9.299999999999999933e-02 1.739674999999999971e-01 3.649729999999999563e+01 1.446274999999999977e+02 2.342679999999999836e+03
9.400000000000000022e-02 1.739700000000000135e-01 3.595884999999999820e+01 1.442665000000000077e+02 2.342710000000000036e+03
9.500000000000000111e-02 1.739644999999999941e-01 3.533759999999999479e+01 1.437030000000000030e+02 2.342670000000000073e+03
9.600000000000000200e-02 1.739529999999999965e-01 3.466110000000000468e+01 1.430105000000000075e+02 2.342569999999999709e+03
9.700000000000000289e-02 1.739375000000000226e-01 3.395655000000000001e+01 1.422599999999999909e+02 2.342430000000000291e+03
9.800000000000000377e-02 1.739205000000000056e-01 3.324960000000000093e+01 1.415159999999999911e+02 2.342264999999999873e+03
9.900000000000000466e-02 1.739029999999999743e-01 3.256289999999999907e+01 1.408325000000000102e+02 2.342105000000000018e+03
1.000000000000000056e-01 1.738864999999999994e-01 3.191539999999999822e+01 1.402529999999999859e+02 2.341945000000000164e+03
1.010000000000000064e-01 1.738729999999999998e-01 3.132095000000000340e+01 1.398060000000000116e+02 2.341805000000000291e+03
1.020000000000000073e-01 1.738620000000000165e-01 3.078819999999999624e+01 1.395065000000000168e+02 2.341699999999999818e+03
1.030000000000000082e-01 1.738544999999999952e-01 3.032025000000000148e+01 1.393539999999999850e+02 2.341625000000000000e+03
1.040000000000000091e-01 1.738505000000000189e-01 2.991460000000000008e+01 1.393335000000000150e+02 2.341585000000000036e+03
1.050000000000000100e-01 1.738500000000000045e-01 2.956350000000000122e+01 1.394174999999999898e+02 2.341574999999999818e+03
1.059999999999999970e-01 1.738520000000000065e-01 2.925479999999999947e+01 1.395670000000000073e+02 2.341585000000000036e+03
1.069999999999999979e-01 1.738549999999999818e-01 2.897274999999999778e+01 1.397345000000000255e+02 2.341609999999999673e+03
1.079999999999999988e-01 1.738574999999999982e-01 2.869944999999999879e+01 1.398695000000000164e+02 2.341635000000000218e+03
1.089999999999999997e-01 1.738595000000000002e-01 2.841600000000000037e+01 1.399190000000000111e+02 2.341650000000000091e+03
1.100000000000000006e-01 1.738595000000000002e-01 2.810379999999999967e+01 1.398340000000000032e+02 2.341640000000000327e+03
1.110000000000000014e-01 1.738545000000000229e-01 2.774624999999999986e+01 1.395709999999999980e+02 2.341599999999999909e+03
1.120000000000000023e-01 1.738449999999999995e-01 2.732950000000000301e+01 1.390964999999999918e+02 2.341510000000000218e+03
1.130000000000000032e-01 1.738294999999999979e-01 2.684404999999999930e+01 1.383905000000000030e+02 2.341364999999999782e+03
1.140000000000000041e-01 1.738080000000000180e-01 2.628495000000000203e+01 1.374454999999999814e+02 2.341159999999999854e+03
1.150000000000000050e-01 1.737799999999999900e-01 2.565240000000000009e+01 1.362700000000000102e+02 2.340894999999999982e+03
1.160000000000000059e-01 1.737460000000000115e-01 2.495195000000000007e+01 1.348855000000000075e+02 2.340565000000000055e+03
1.170000000000000068e-01 1.737059999999999993e-01 2.419384999999999764e+01 1.333280000000000030e+02 2.340190000000000055e+03
1.180000000000000077e-01 1.736620000000000108e-01 2.339245000000000019e+01 1.316415000000000077e+02 2.339765000000000327e+03
1.190000000000000085e-01 1.736135000000000039e-01 2.256534999999999869e+01 1.298804999999999836e+02 2.339309999999999945e+03
1.200000000000000094e-01 1.735639999999999961e-01 2.173230000000000217e+01 1.281020000000000039e+02 2.338835000000000036e+03
1.209999999999999964e-01 1.735145000000000159e-01 2.091349999999999909e+01 1.263629999999999995e+02 2.338350000000000364e+03
1.219999999999999973e-01 1.734650000000000081e-01 2.012890000000000157e+01 1.247189999999999941e+02 2.337880000000000109e+03
1.229999999999999982e-01 1.734185000000000032e-01 1.939674999999999727e+01 1.232164999999999964e+02 2.337430000000000291e+03
1.239999999999999991e-01 1.733760000000000023e-01 1.873250000000000171e+01 1.218965000000000032e+02 2.337019999999999982e+03
1.250000000000000000e-01 1.733385000000000065e-01 1.814839999999999876e+01 1.207874999999999943e+02 2.336654999999999745e+03
1.260000000000000009e-01 1.733065000000000022e-01 1.765274999999999750e+01 1.199064999999999941e+02 2.336340000000000146e+03
1.270000000000000018e-01 1.732810000000000183e-01 1.724980000000000047e+01 1.192595000000000027e+02 2.336085000000000036e+03
1.280000000000000027e-01 1.732615000000000127e-01 1.693984999999999985e+01 1.188429999999999893e+02 2.335889999999999873e+03
1.290000000000000036e-01 1.732480000000000131e-01 1.671940000000000026e+01 1.186430000000000007e+02 2.335755000000000109e+03
1.300000000000000044e-01 1.732404999999999917e-01 1.658184999999999931e+01 1.186370000000000005e+02 2.335675000000000182e+03
1.310000000000000053e-01 1.732385000000000175e-01 1.651784999999999926e+01 1.187969999999999970e+02 2.335650000000000091e+03
1.320000000000000062e-01 1.732414999999999927e-01 1.651620000000000132e+01 1.190925000000000011e+02 2.335670000000000073e+03
1.330000000000000071e-01 1.732474999999999987e-01 1.656419999999999959e+01 1.194885000000000019e+02 2.335724999999999909e+03
1.340000000000000080e-01 1.732569999999999943e-01 1.664874999999999972e+01 1.199515000000000100e+02 2.335809999999999945e+03
1.350000000000000089e-01 1.732680000000000053e-01 1.675659999999999883e+01 1.204489999999999981e+02 2.335909999999999854e+03
1.360000000000000098e-01 1.732805000000000040e-01 1.687514999999999787e+01 1.209505000000000052e+02 2.336029999999999745e+03
1.370000000000000107e-01 1.732930000000000026e-01 1.699295000000000044e+01 1.214290000000000020e+02 2.336145000000000437e+03
1.380000000000000115e-01 1.733055000000000012e-01 1.709994999999999976e+01 1.218635000000000019e+02 2.336265000000000327e+03
1.390000000000000124e-01 1.733165000000000122e-01 1.718815000000000026e+01 1.222359999999999900e+02 2.336375000000000000e+03
1.400000000000000133e-01 1.733264999999999945e-01 1.725144999999999840e+01 1.225360000000000014e+02 2.336465000000000146e+03
1.410000000000000142e-01 1.733345000000000025e-01 1.728614999999999924e+01 1.227584999999999980e+02 2.336545000000000073e+03
1.420000000000000151e-01 1.733405000000000085e-01 1.729080000000000084e+01 1.229029999999999916e+02 2.336605000000000018e+03
1.430000000000000160e-01 1.733449999999999991e-01 1.726604999999999990e+01 1.229754999999999967e+02 2.336650000000000091e+03
1.440000000000000169e-01 1.733470000000000011e-01 1.721439999999999770e+01 1.229855000000000018e+02 2.336670000000000073e+03
1.450000000000000178e-01 1.733474999999999877e-01 1.714020000000000010e+01 1.229470000000000027e+02 2.336679999999999836e+03
1.459999999999999909e-01 1.733474999999999877e-01 1.704874999999999829e+01 1.228760000000000048e+02 2.336679999999999836e+03
1.469999999999999918e-01 1.733460000000000001e-01 1.694604999999999961e+01 1.227890000000000015e+02 2.336670000000000073e+03
1.479999999999999927e-01 1.733445000000000125e-01 1.683840000000000003e+01 1.227030000000000030e+02 2.336654999999999745e+03
1.489999999999999936e-01 1.733429999999999971e-01 1.673179999999999978e+01 1.226340000000000003e+02 2.336639999999999873e+03
1.499999999999999944e-01 1.733414999999999817e-01 1.663155000000000072e+01 1.225939999999999941e+02 2.336630000000000109e+03
1.509999999999999953e-01 1.733409999999999951e-01 1.654204999999999970e+01 1.225919999999999987e+02 2.336625000000000000e+03
1.519999999999999962e-01 1.733414999999999817e-01 1.646649999999999991e+01 1.226340000000000003e+02 2.336630000000000109e+03
1.529999999999999971e-01 1.733434999999999837e-01 1.640684999999999860e+01 1.227229999999999990e+02 2.336649999999999636e+03
1.539999999999999980e-01 1.733460000000000001e-01 1.636370000000000147e+01 1.228569999999999993e+02 2.336670000000000073e+03
1.549999999999999989e-01 1.733505000000000185e-01 1.633644999999999925e+01 1.230319999999999965e+02 2.336715000000000146e+03
1.559999999999999998e-01 1.733554999999999957e-01 1.632355000000000089e+01 1.232404999999999973e+02 2.336760000000000218e+03
1.570000000000000007e-01 1.733615000000000017e-01 1.632260000000000133e+01 1.234749999999999943e+02 2.336815000000000055e+03
1.580000000000000016e-01 1.733684999999999810e-01 1.633055000000000234e+01 1.237245000000000061e+02 2.336875000000000000e+03
1.590000000000000024e-01 1.733750000000000013e-01 1.634430000000000049e+01 1.239799999999999898e+02 2.336944999999999709e+03
