# t [s], A [cm^2], U [cm/s], P [cPa], c [cm/s]
1.000000000000000021e-03 5.201409999999999645e-01 4.165900000000000158e-03 9.413040000000000873e+01 1.586240000000000009e+03
2.000000000000000042e-03 5.201329999999999565e-01 -1.072199999999999933e-03 9.410580000000000211e+01 1.586235000000000127e+03
3.000000000000000062e-03 5.201765000000000416e-01 9.057355000000000267e-02 9.419979999999999620e+01 1.586259999999999991e+03
4.000000000000000083e-03 5.202165000000000816e-01 1.847360500000000127e-01 9.431559999999998922e+01 1.586289999999999964e+03
5.000000000000000104e-03 5.201994999999999258e-01 1.658494500000000094e-01 9.427360000000000184e+01 1.586280000000000200e+03
6.000000000000000125e-03 5.201480000000000548e-01 7.138050000000001338e-02 9.407509999999999195e+01 1.586240000000000009e+03
7.000000000000000146e-03 5.201010000000000355e-01 -2.155000000000001359e-02 9.381229999999999336e+01 1.586174999999999955e+03
8.000000000000000167e-03 5.200320000000000498e-01 -1.712584999999999802e-01 9.343254999999999200e+01 1.586085000000000036e+03
9.000000000000001055e-03 5.199154999999999749e-01 -4.360050000000000869e-01 9.284735000000000582e+01 1.585949999999999818e+03
1.000000000000000194e-02 5.197475000000000289e-01 -8.202200000000000601e-01 9.201505000000000223e+01 1.585750000000000000e+03
1.099999999999999936e-02 5.195165000000000477e-01 -1.339310000000000223e+00 9.088165000000000759e+01 1.585474999999999909e+03
1.200000000000000025e-02 5.192109999999999781e-01 -2.002975000000000172e+00 8.939499999999999602e+01 1.585105000000000018e+03
1.300000000000000114e-02 5.188479999999999759e-01 -2.754434999999999967e+00 8.758609999999998763e+01 1.584650000000000091e+03
1.400000000000000203e-02 5.184739999999999904e-01 -3.465119999999999756e+00 8.560009999999999764e+01 1.584134999999999991e+03
1.499999999999999944e-02 5.181419999999999915e-01 -3.992807000000000439e+00 8.363935000000000741e+01 1.583605000000000018e+03
1.600000000000000033e-02 5.178789999999999782e-01 -4.244980949999999531e+00 8.187479999999999336e+01 1.583105000000000018e+03
1.700000000000000122e-02 5.176864999999999384e-01 -4.205807000000000073e+00 8.038769999999999527e+01 1.582650000000000091e+03
1.800000000000000211e-02 5.175380000000000535e-01 -3.925953499999999874e+00 7.915914999999999679e+01 1.582244999999999891e+03
1.900000000000000300e-02 5.173995000000000122e-01 -3.492165500000000034e+00 7.809645000000000437e+01 1.581875000000000000e+03
2.000000000000000042e-02 5.172394999999999632e-01 -2.992627999999999844e+00 7.707769999999999300e+01 1.581525000000000091e+03
2.100000000000000130e-02 5.170394999999999852e-01 -2.488970000000000127e+00 7.599719999999999231e+01 1.581160000000000082e+03
2.200000000000000219e-02 5.167990000000000084e-01 -2.002490000000000325e+00 7.479824999999999591e+01 1.580769999999999982e+03
2.299999999999999961e-02 5.165299999999999336e-01 -1.517940000000000067e+00 7.348239999999999839e+01 1.580355000000000018e+03
2.400000000000000050e-02 5.162514999999999743e-01 -1.001609999999999889e+00 7.209465000000000146e+01 1.579920000000000073e+03
2.500000000000000139e-02 5.159795000000000353e-01 -4.245199999999997864e-01 7.069415000000000759e+01 1.579480000000000018e+03
2.600000000000000228e-02 5.157214999999999439e-01 2.189950000000000507e-01 6.932354999999999734e+01 1.579049999999999955e+03
2.700000000000000316e-02 5.154704999999999426e-01 9.030899999999999483e-01 6.798810000000000286e+01 1.578619999999999891e+03
2.800000000000000058e-02 5.152109999999999745e-01 1.573180000000000245e+00 6.664979999999999905e+01 1.578184999999999945e+03
2.900000000000000147e-02 5.149215000000000320e-01 2.157235000000000014e+00 6.523480000000000700e+01 1.577734999999999900e+03
3.000000000000000236e-02 5.145809999999999551e-01 2.581945000000000157e+00 6.365229999999999677e+01 1.577250000000000000e+03
3.099999999999999978e-02 5.141729999999999912e-01 2.789634999999999643e+00 6.181924999999999670e+01 1.576710000000000036e+03
3.200000000000000067e-02 5.136945000000000539e-01 2.751994999999999969e+00 5.968419999999999703e+01 1.576099999999999909e+03
3.300000000000000155e-02 5.131529999999999703e-01 2.477020000000000000e+00 5.724484999999999957e+01 1.575414999999999964e+03
3.400000000000000244e-02 5.125674999999999537e-01 2.006985000000000241e+00 5.455379999999999541e+01 1.574664999999999964e+03
3.500000000000000333e-02 5.119669999999999499e-01 1.409425000000000150e+00 5.171175000000000210e+01 1.573875000000000000e+03
3.600000000000000422e-02 5.113809999999999745e-01 7.634250000000006864e-01 4.885134999999999650e+01 1.573070000000000164e+03
3.700000000000000511e-02 5.108399999999999608e-01 1.463099999999997181e-01 4.611634999999999707e+01 1.572284999999999854e+03
3.799999999999999906e-02 5.103670000000000151e-01 -3.763950000000000351e-01 4.364265000000000327e+01 1.571554999999999836e+03
3.899999999999999994e-02 5.099795000000000300e-01 -7.565550000000000885e-01 4.154380000000000450e+01 1.570920000000000073e+03
4.000000000000000083e-02 5.096870000000000012e-01 -9.643449999999997857e-01 3.990259999999999962e+01 1.570389999999999873e+03
4.100000000000000172e-02 5.094935000000000436e-01 -9.857850000000001334e-01 3.876905000000000001e+01 1.569994999999999891e+03
4.200000000000000261e-02 5.093989999999999352e-01 -8.181749999999999856e-01 3.816380000000000194e+01 1.569740000000000009e+03
4.300000000000000350e-02 5.094005000000000338e-01 -4.650544999999999818e-01 3.808450000000000557e+01 1.569625000000000000e+03
4.400000000000000439e-02 5.094929999999999737e-01 6.820999999999999286e-02 3.851359999999999673e+01 1.569659999999999854e+03
4.499999999999999833e-02 5.096730000000000427e-01 7.771200000000000330e-01 3.942560000000000286e+01 1.569829999999999927e+03
4.599999999999999922e-02 5.099359999999999449e-01 1.658800000000000274e+00 4.079189999999999827e+01 1.570134999999999991e+03
4.700000000000000011e-02 5.102780000000000094e-01 2.710860000000000269e+00 4.258330000000000126e+01 1.570570000000000164e+03
4.800000000000000100e-02 5.106939999999999813e-01 3.929219999999999935e+00 4.476940000000000452e+01 1.571114999999999782e+03
4.900000000000000189e-02 5.111784999999999801e-01 5.305810000000000137e+00 4.731730000000000302e+01 1.571780000000000200e+03
5.000000000000000278e-02 5.117240000000000677e-01 6.826464999999999783e+00 5.018905000000000172e+01 1.572539999999999964e+03
5.100000000000000366e-02 5.123219999999999441e-01 8.470583750000001189e+00 5.334009999999999252e+01 1.573384999999999991e+03
5.200000000000000455e-02 5.129599999999999715e-01 1.021146500000000046e+01 5.671945000000000192e+01 1.574305000000000064e+03
5.300000000000000544e-02 5.136285000000000434e-01 1.201798499999999947e+01 6.027049999999999841e+01 1.575285000000000082e+03
5.399999999999999939e-02 5.143134999999999790e-01 1.385668499999999881e+01 6.393359999999999843e+01 1.576315000000000055e+03
5.500000000000000028e-02 5.150044999999999762e-01 1.569444999999999979e+01 6.764950000000000330e+01 1.577365000000000009e+03
5.600000000000000117e-02 5.156914999999999694e-01 1.750087500000000063e+01 7.136289999999999623e+01 1.578429999999999836e+03
5.700000000000000205e-02 5.163655000000000328e-01 1.924990000000000023e+01 7.502550000000000807e+01 1.579500000000000000e+03
5.800000000000000294e-02 5.170215000000000227e-01 2.092089999999999961e+01 7.859865000000000634e+01 1.580549999999999955e+03
5.900000000000000383e-02 5.176544999999999064e-01 2.249960000000000093e+01 8.205455000000000609e+01 1.581579999999999927e+03
6.000000000000000472e-02 5.182640000000000580e-01 2.397729999999999961e+01 8.537709999999999866e+01 1.582585000000000036e+03
6.099999999999999867e-02 5.188494999999999635e-01 2.535089999999999932e+01 8.856080000000000041e+01 1.583549999999999955e+03
6.199999999999999956e-02 5.194130000000000136e-01 2.662134999999999962e+01 9.160929999999999040e+01 1.584489999999999782e+03
6.300000000000000044e-02 5.199575000000000724e-01 2.779344999999999999e+01 9.453480000000000416e+01 1.585389999999999873e+03
6.400000000000000133e-02 5.204854999999999343e-01 2.887409999999999854e+01 9.735384999999999422e+01 1.586264999999999873e+03
6.500000000000000222e-02 5.210025000000000350e-01 2.987190000000000367e+01 1.000875000000000057e+02 1.587119999999999891e+03
6.600000000000000311e-02 5.215110000000000579e-01 3.079590000000000316e+01 1.027566500000000076e+02 1.587954999999999927e+03
6.700000000000000400e-02 5.220154999999999657e-01 3.165525000000000233e+01 1.053827500000000015e+02 1.588775000000000091e+03
6.800000000000000488e-02 5.225174999999999681e-01 3.245779999999999887e+01 1.079834999999999923e+02 1.589585000000000036e+03
6.900000000000000577e-02 5.230204999999999993e-01 3.321025000000000205e+01 1.105725000000000051e+02 1.590389999999999873e+03
7.000000000000000666e-02 5.235250000000000181e-01 3.391709999999999781e+01 1.131589999999999918e+02 1.591190000000000055e+03
7.100000000000000755e-02 5.240305000000000657e-01 3.458034999999999570e+01 1.157445000000000022e+02 1.591994999999999891e+03
7.200000000000000844e-02 5.245345000000000146e-01 3.519965000000000543e+01 1.183255000000000052e+02 1.592789999999999964e+03
7.300000000000000933e-02 5.250354999999999883e-01 3.577214999999999634e+01 1.208905000000000030e+02 1.593585000000000036e+03
7.399999999999999634e-02 5.255300000000000527e-01 3.629295000000000471e+01 1.234240000000000066e+02 1.594369999999999891e+03
7.499999999999999722e-02 5.260139999999999816e-01 3.675560000000000116e+01 1.259060000000000059e+02 1.595139999999999873e+03
7.599999999999999811e-02 5.264809999999999768e-01 3.715265000000000128e+01 1.283110000000000070e+02 1.595889999999999873e+03
7.699999999999999900e-02 5.269280000000000630e-01 3.747630000000000194e+01 1.306165000000000020e+02 1.596619999999999891e+03
7.799999999999999989e-02 5.273495000000000266e-01 3.771905000000000285e+01 1.327959999999999923e+02 1.597305000000000064e+03
7.900000000000000078e-02 5.277414999999999745e-01 3.787425000000000352e+01 1.348260000000000218e+02 1.597960000000000036e+03
8.000000000000000167e-02 5.281010000000000426e-01 3.793654999999999688e+01 1.366870000000000118e+02 1.598559999999999945e+03
8.100000000000000255e-02 5.284240000000000048e-01 3.790220000000000056e+01 1.383609999999999900e+02 1.599115000000000009e+03
8.200000000000000344e-02 5.287100000000000133e-01 3.776930000000000121e+01 1.398369999999999891e+02 1.599605000000000018e+03
8.300000000000000433e-02 5.289559999999999818e-01 3.753795000000000215e+01 1.411064999999999827e+02 1.600045000000000073e+03
8.400000000000000522e-02 5.291639999999999677e-01 3.721034999999999826e+01 1.421669999999999732e+02 1.600420000000000073e+03
8.500000000000000611e-02 5.293330000000000535e-01 3.679070000000000107e+01 1.430219999999999914e+02 1.600730000000000018e+03
8.600000000000000699e-02 5.294655000000000333e-01 3.628499999999999659e+01 1.436784999999999854e+02 1.600985000000000127e+03
8.700000000000000788e-02 5.295634999999999648e-01 3.570109999999999673e+01 1.441469999999999914e+02 1.601184999999999945e+03
8.800000000000000877e-02 5.296305000000000041e-01 3.504834999999999923e+01 1.444445000000000050e+02 1.601329999999999927e+03
8.899999999999999578e-02 5.296695000000000153e-01 3.433740000000000236e+01 1.445894999999999868e+02 1.601424999999999955e+03
8.999999999999999667e-02 5.296840000000000437e-01 3.357990000000000208e+01 1.446014999999999873e+02 1.601474999999999909e+03
9.099999999999999756e-02 5.296794999999999698e-01 3.278804999999999836e+01 1.445039999999999907e+02 1.601485000000000127e+03
9.199999999999999845e-02 5.296585000000000321e-01 3.197409999999999997e+01 1.443199999999999932e+02 1.601470000000000027e+03
9.299999999999999933e-02 5.296275000000000288e-01 3.115024999999999977e+01 1.440720000000000027e+02 1.601430000000000064e+03
9.400000000000000022e-02 5.295885000000000176e-01 3.032785000000000153e+01 1.437835000000000036e+02 1.601365000000000009e+03
9.500000000000000111e-02 5.295465000000000311e-01 2.951725000000000421e+01 1.434735000000000014e+02 1.601295000000000073e+03
9.600000000000000200e-02 5.295035000000000158e-01 2.872710000000000008e+01 1.431614999999999895e+02 1.601220000000000027e+03
9.700000000000000289e-02 5.294630000000000170e-01 2.796430000000000149e+01 1.428609999999999900e+02 1.601139999999999873e+03
9.800000000000000377e-02 5.294254999999999933e-01 2.723389999999999844e+01 1.425830000000000268e+02 1.601059999999999945e+03
9.900000000000000466e-02 5.293925000000000436e-01 2.653844999999999743e+01 1.423349999999999795e+02 1.600990000000000009e+03
1.000000000000000056e-01 5.293654999999999333e-01 2.587865000000000038e+01 1.421204999999999927e+02 1.600920000000000073e+03
1.010000000000000064e-01 5.293419999999999792e-01 2.525309999999999988e+01 1.419385000000000048e+02 1.600860000000000127e+03
1.020000000000000073e-01 5.293219999999999592e-01 2.465854999999999819e+01 1.417845000000000084e+02 1.600804999999999836e+03
1.030000000000000082e-01 5.293045000000000666e-01 2.409020000000000294e+01 1.416514999999999986e+02 1.600759999999999991e+03
1.040000000000000091e-01 5.292870000000000630e-01 2.354204999999999970e+01 1.415294999999999845e+02 1.600714999999999918e+03
1.050000000000000100e-01 5.292679999999999607e-01 2.300755000000000194e+01 1.414080000000000155e+02 1.600674999999999955e+03
1.059999999999999970e-01 5.292440000000000477e-01 2.247950000000000159e+01 1.412754999999999939e+02 1.600630000000000109e+03
1.069999999999999979e-01 5.292140000000000732e-01 2.195080000000000098e+01 1.411189999999999998e+02 1.600574999999999818e+03
1.079999999999999988e-01 5.291755000000000209e-01 2.141479999999999961e+01 1.409275000000000091e+02 1.600519999999999982e+03
1.089999999999999997e-01 5.291270000000000140e-01 2.086540000000000106e+01 1.406904999999999859e+02 1.600445000000000164e+03
1.100000000000000006e-01 5.290675000000000239e-01 2.029765000000000086e+01 1.404004999999999939e+02 1.600365000000000009e+03
1.110000000000000014e-01 5.289960000000000218e-01 1.970769999999999911e+01 1.400500000000000114e+02 1.600259999999999991e+03
1.120000000000000023e-01 5.289120000000000488e-01 1.909329999999999927e+01 1.396374999999999886e+02 1.600144999999999982e+03
1.130000000000000032e-01 5.288160000000000638e-01 1.845370000000000132e+01 1.391625000000000227e+02 1.600009999999999991e+03
1.140000000000000041e-01 5.287089999999999845e-01 1.778965000000000174e+01 1.386264999999999930e+02 1.599860000000000127e+03
1.150000000000000050e-01 5.285914999999999919e-01 1.710350000000000037e+01 1.380360000000000014e+02 1.599694999999999936e+03
1.160000000000000059e-01 5.284659999999999913e-01 1.639930000000000021e+01 1.373985000000000127e+02 1.599514999999999873e+03
1.170000000000000068e-01 5.283349999999999991e-01 1.568210000000000015e+01 1.367255000000000109e+02 1.599319999999999936e+03
1.180000000000000077e-01 5.282000000000000028e-01 1.495814999999999984e+01 1.360294999999999845e+02 1.599125000000000000e+03
1.190000000000000085e-01 5.280650000000000066e-01 1.423463500000000082e+01 1.353240000000000123e+02 1.598920000000000073e+03
1.200000000000000094e-01 5.279324999999999157e-01 1.351913000000000054e+01 1.346229999999999905e+02 1.598710000000000036e+03
1.209999999999999964e-01 5.278045000000000098e-01 1.281942000000000093e+01 1.339429999999999836e+02 1.598509999999999991e+03
1.219999999999999973e-01 5.276845000000000008e-01 1.214316999999999958e+01 1.332975000000000136e+02 1.598319999999999936e+03
1.229999999999999982e-01 5.275745000000000573e-01 1.149756000000000000e+01 1.327005000000000052e+02 1.598134999999999991e+03
1.239999999999999991e-01 5.274775000000000436e-01 1.088908499999999968e+01 1.321630000000000109e+02 1.597964999999999918e+03
1.250000000000000000e-01 5.273940000000000294e-01 1.032322999999999880e+01 1.316959999999999980e+02 1.597819999999999936e+03
1.260000000000000009e-01 5.273259999999999614e-01 9.804140000000000299e+00 1.313060000000000116e+02 1.597690000000000055e+03
1.270000000000000018e-01 5.272734999999999506e-01 9.334834999999999994e+00 1.309979999999999905e+02 1.597579999999999927e+03
1.280000000000000027e-01 5.272369999999999557e-01 8.916774999999999451e+00 1.307735000000000127e+02 1.597494999999999891e+03
1.290000000000000036e-01 5.272160000000000180e-01 8.550074999999999648e+00 1.306315000000000168e+02 1.597434999999999945e+03
1.300000000000000044e-01 5.272094999999999976e-01 8.233519999999998618e+00 1.305695000000000050e+02 1.597400000000000091e+03
1.310000000000000053e-01 5.272160000000000180e-01 7.964605000000000601e+00 1.305800000000000125e+02 1.597380000000000109e+03
1.320000000000000062e-01 5.272345000000000503e-01 7.739860000000000184e+00 1.306564999999999941e+02 1.597384999999999991e+03
1.330000000000000071e-01 5.272630000000000372e-01 7.554949999999999832e+00 1.307884999999999991e+02 1.597405000000000200e+03
1.340000000000000080e-01 5.272989999999999622e-01 7.404960000000000875e+00 1.309664999999999964e+02 1.597444999999999936e+03
1.350000000000000089e-01 5.273410000000000597e-01 7.284570000000000434e+00 1.311795000000000186e+02 1.597490000000000009e+03
1.360000000000000098e-01 5.273864999999999803e-01 7.188340000000000174e+00 1.314159999999999968e+02 1.597549999999999955e+03
1.370000000000000107e-01 5.274339999999999584e-01 7.110875000000000057e+00 1.316664999999999850e+02 1.597610000000000127e+03
1.380000000000000115e-01 5.274815000000000476e-01 7.047010000000000218e+00 1.319194999999999993e+02 1.597679999999999836e+03
1.390000000000000124e-01 5.275270000000000792e-01 6.991954999999999920e+00 1.321680000000000064e+02 1.597744999999999891e+03
1.400000000000000133e-01 5.275699999999999834e-01 6.941415000000000113e+00 1.324035000000000082e+02 1.597809999999999945e+03
1.410000000000000142e-01 5.276094999999999535e-01 6.891640000000000654e+00 1.326200000000000045e+02 1.597869999999999891e+03
1.420000000000000151e-01 5.276445000000000718e-01 6.839475000000000193e+00 1.328129999999999882e+02 1.597924999999999955e+03
1.430000000000000160e-01 5.276735000000000175e-01 6.782404999999999795e+00 1.329795000000000016e+02 1.597974999999999909e+03
1.440000000000000169e-01 5.276980000000000004e-01 6.718494999999999884e+00 1.331165000000000020e+02 1.598019999999999982e+03
1.450000000000000178e-01 5.277164999999999218e-01 6.646415000000000184e+00 1.332239999999999895e+02 1.598054999999999836e+03
1.459999999999999909e-01 5.277300000000000324e-01 6.565369999999999706e+00 1.333020000000000209e+02 1.598079999999999927e+03
1.469999999999999918e-01 5.277384999999999993e-01 6.475075000000000358e+00 1.333514999999999873e+02 1.598099999999999909e+03
1.479999999999999927e-01 5.277419999999999334e-01 6.375690000000000524e+00 1.333739999999999952e+02 1.598110000000000127e+03
1.489999999999999936e-01 5.277414999999999745e-01 6.267759999999999998e+00 1.333720000000000141e+02 1.598119999999999891e+03
1.499999999999999944e-01 5.277370000000000116e-01 6.152155000000000484e+00 1.333480000000000132e+02 1.598115000000000009e+03
1.509999999999999953e-01 5.277290000000000036e-01 6.029989999999999739e+00 1.333050000000000068e+02 1.598110000000000127e+03
1.519999999999999962e-01 5.277184999999999793e-01 5.902580000000000382e+00 1.332464999999999975e+02 1.598099999999999909e+03
1.529999999999999971e-01 5.277065000000000783e-01 5.771319999999999339e+00 1.331744999999999948e+02 1.598079999999999927e+03
1.539999999999999980e-01 5.276920000000000499e-01 5.637669999999999959e+00 1.330930000000000177e+02 1.598059999999999945e+03
1.549999999999999989e-01 5.276769999999999516e-01 5.503025000000000055e+00 1.330029999999999859e+02 1.598039999999999964e+03
1.559999999999999998e-01 5.276604999999999768e-01 5.368699999999999584e+00 1.329080000000000155e+02 1.598009999999999991e+03
1.570000000000000007e-01 5.276434999999999320e-01 5.235825000000000173e+00 1.328089999999999975e+02 1.597985000000000127e+03
1.580000000000000016e-01 5.276264999999999983e-01 5.105360000000000120e+00 1.327065000000000055e+02 1.597960000000000036e+03
1.590000000000000024e-01 5.276089999999999947e-01 4.978004999999999569e+00 1.326024999999999920e+02 1.597929999999999836e+03
