# t [s], A [cm^2], U [cm/s], P [cPa], c [cm/s]
1.000000000000000021e-03 6.994664999999999910e-01 4.819000000000003836e-03 1.024819999999999993e+02 1.791164999999999964e+03
2.000000000000000042e-03 6.994675000000000198e-01 2.274835000000000051e-02 1.024639999999999986e+02 1.791159999999999854e+03
3.000000000000000062e-03 6.995580000000000132e-01 1.988974500000000034e-01 1.026754999999999995e+02 1.791204999999999927e+03
4.000000000000000083e-03 6.995599999999999596e-01 2.379295000000000160e-01 1.026984999999999957e+02 1.791210000000000036e+03
5.000000000000000104e-03 6.994590000000000529e-01 8.950799999999997647e-02 1.023539999999999992e+02 1.791140000000000100e+03
6.000000000000000125e-03 6.993620000000000392e-01 -6.946499999999999897e-02 1.018615000000000066e+02 1.791039999999999964e+03
7.000000000000000146e-03 6.992034999999999778e-01 -3.605199999999999516e-01 1.010966500000000110e+02 1.790884999999999991e+03
8.000000000000000167e-03 6.989370000000000305e-01 -8.748649999999998927e-01 9.987745000000001028e+01 1.790639999999999873e+03
9.000000000000001055e-03 6.985660000000000203e-01 -1.593394999999999895e+00 9.815269999999999584e+01 1.790289999999999964e+03
1.000000000000000194e-02 6.980545000000000222e-01 -2.556375000000000064e+00 9.579865000000000919e+01 1.789804999999999836e+03
1.099999999999999936e-02 6.974059999999999704e-01 -3.721775000000000055e+00 9.279050000000000864e+01 1.789164999999999964e+03
1.200000000000000025e-02 6.967315000000000591e-01 -4.839459999999999873e+00 8.943885000000000218e+01 1.788434999999999945e+03
1.300000000000000114e-02 6.961775000000000047e-01 -5.581892500000000368e+00 8.627895000000000891e+01 1.787710000000000036e+03
1.400000000000000203e-02 6.958195000000000352e-01 -5.754439999999999777e+00 8.374610000000001264e+01 1.787089999999999918e+03
1.499999999999999944e-02 6.956309999999999993e-01 -5.379839999999999733e+00 8.196395000000001119e+01 1.786590000000000146e+03
1.600000000000000033e-02 6.955154999999999532e-01 -4.648775000000000546e+00 8.073714999999999975e+01 1.786210000000000036e+03
1.700000000000000122e-02 6.953620000000000356e-01 -3.808455000000000368e+00 7.968795000000000073e+01 1.785865000000000009e+03
1.800000000000000211e-02 6.950965000000000060e-01 -3.047886499999999721e+00 7.844904999999999973e+01 1.785510000000000218e+03
1.900000000000000300e-02 6.947114999999999263e-01 -2.427109000000000183e+00 7.682464999999999122e+01 1.785079999999999927e+03
2.000000000000000042e-02 6.942520000000000913e-01 -1.883674999999999988e+00 7.484215000000000373e+01 1.784585000000000036e+03
2.100000000000000130e-02 6.937839999999999563e-01 -1.306009999999999893e+00 7.267734999999998990e+01 1.784045000000000073e+03
2.200000000000000219e-02 6.933495000000000630e-01 -6.210749999999998217e-01 7.051664999999999850e+01 1.783500000000000000e+03
2.299999999999999961e-02 6.929469999999999796e-01 1.519599999999998730e-01 6.843919999999999959e+01 1.782965000000000146e+03
2.400000000000000050e-02 6.925334999999999130e-01 8.971350000000000158e-01 6.636610000000000298e+01 1.782425000000000182e+03
2.500000000000000139e-02 6.920409999999999062e-01 1.436685000000000212e+00 6.408050000000000068e+01 1.781845000000000027e+03
2.600000000000000228e-02 6.914005000000000845e-01 1.587985000000000202e+00 6.130239999999999867e+01 1.781175000000000182e+03
2.700000000000000316e-02 6.905689999999999884e-01 1.224129999999999718e+00 5.779104999999999848e+01 1.780355000000000018e+03
2.800000000000000058e-02 6.895470000000000210e-01 3.187699999999997758e-01 5.344180000000000064e+01 1.779369999999999891e+03
2.900000000000000147e-02 6.883814999999999795e-01 -1.042049999999999699e+00 4.834024999999999750e+01 1.778230000000000018e+03
3.000000000000000236e-02 6.871530000000000138e-01 -2.684270000000000600e+00 4.275395000000000323e+01 1.776969999999999800e+03
3.099999999999999978e-02 6.859564999999999690e-01 -4.393890000000000740e+00 3.707155000000000200e+01 1.775670000000000073e+03
3.200000000000000067e-02 6.848799999999999333e-01 -5.965600000000000236e+00 3.171744999999999948e+01 1.774409999999999854e+03
3.300000000000000155e-02 6.839899999999999869e-01 -7.238070000000000448e+00 2.707349999999999923e+01 1.773279999999999973e+03
3.400000000000000244e-02 6.833274999999999766e-01 -8.109019999999999229e+00 2.342575000000000074e+01 1.772345000000000027e+03
3.500000000000000333e-02 6.829065000000000829e-01 -8.533619999999999095e+00 2.094050000000000011e+01 1.771650000000000091e+03
3.600000000000000422e-02 6.827235000000000387e-01 -8.510865000000000791e+00 1.966939999999999955e+01 1.771219999999999800e+03
3.700000000000000511e-02 6.827605000000001034e-01 -8.065735000000000099e+00 1.957385000000000019e+01 1.771059999999999945e+03
3.799999999999999906e-02 6.829965000000000064e-01 -7.232124999999999915e+00 2.055865000000000009e+01 1.771154999999999973e+03
3.899999999999999994e-02 6.834095000000000031e-01 -6.042364999999999320e+00 2.250390000000000157e+01 1.771485000000000127e+03
4.000000000000000083e-02 6.839790000000000036e-01 -4.524639999999999773e+00 2.528570000000000206e+01 1.772019999999999982e+03
4.100000000000000172e-02 6.846849999999999881e-01 -2.707435000000000258e+00 2.878374999999999773e+01 1.772735000000000127e+03
4.200000000000000261e-02 6.855059999999999487e-01 -6.271100000000000563e-01 3.287789999999999679e+01 1.773605000000000018e+03
4.300000000000000350e-02 6.864164999999999850e-01 1.666029999999999234e+00 3.744060000000000343e+01 1.774599999999999909e+03
4.400000000000000439e-02 6.873860000000000525e-01 4.105964999999999421e+00 4.233145000000000380e+01 1.775694999999999936e+03
4.499999999999999833e-02 6.883820000000000494e-01 6.614135000000000097e+00 4.739770000000000039e+01 1.776849999999999909e+03
4.599999999999999922e-02 6.893715000000000259e-01 9.106225999999999487e+00 5.248104999999999620e+01 1.778025000000000091e+03
4.700000000000000011e-02 6.903224999999999500e-01 1.150126999999999988e+01 5.742970000000000397e+01 1.779194999999999936e+03
4.800000000000000100e-02 6.912115000000000897e-01 1.372958999999999996e+01 6.211114999999999498e+01 1.780319999999999936e+03
4.900000000000000189e-02 6.920214999999999561e-01 1.573886999999999858e+01 6.642439999999999145e+01 1.781380000000000109e+03
5.000000000000000278e-02 6.927444999999999853e-01 1.749709999999999965e+01 7.030679999999999552e+01 1.782360000000000127e+03
5.100000000000000366e-02 6.933804999999999552e-01 1.899249999999999972e+01 7.373660000000000991e+01 1.783244999999999891e+03
5.200000000000000455e-02 6.939370000000000260e-01 2.023075000000000045e+01 7.672984999999999900e+01 1.784030000000000200e+03
5.300000000000000544e-02 6.944249999999999590e-01 2.123190000000000310e+01 7.933374999999999488e+01 1.784730000000000018e+03
5.399999999999999939e-02 6.948609999999999509e-01 2.202570000000000050e+01 8.161895000000001232e+01 1.785355000000000018e+03
5.500000000000000028e-02 6.952625000000000055e-01 2.264889999999999759e+01 8.367074999999999818e+01 1.785925000000000182e+03
5.600000000000000117e-02 6.956465000000000565e-01 2.314235000000000042e+01 8.558164999999999623e+01 1.786450000000000045e+03
5.700000000000000205e-02 6.960304999999999964e-01 2.354820000000000135e+01 8.744440000000000168e+01 1.786954999999999927e+03
5.800000000000000294e-02 6.964310000000000223e-01 2.390804999999999936e+01 8.934629999999999939e+01 1.787465000000000146e+03
5.900000000000000383e-02 6.968619999999999814e-01 2.426019999999999754e+01 9.136330000000000950e+01 1.787985000000000127e+03
6.000000000000000472e-02 6.973335000000000505e-01 2.463654999999999973e+01 9.355459999999999354e+01 1.788534999999999854e+03
6.099999999999999867e-02 6.978509999999999991e-01 2.506005000000000038e+01 9.595725000000000193e+01 1.789134999999999991e+03
6.199999999999999956e-02 6.984139999999999793e-01 2.554229999999999734e+01 9.858299999999999841e+01 1.789779999999999973e+03
6.300000000000000044e-02 6.990175000000000693e-01 2.608275000000000077e+01 1.014154499999999928e+02 1.790465000000000146e+03
6.400000000000000133e-02 6.996499999999999941e-01 2.666850000000000165e+01 1.044110000000000014e+02 1.791190000000000055e+03
6.500000000000000222e-02 7.002969999999999473e-01 2.727620000000000289e+01 1.075049999999999955e+02 1.791945000000000164e+03
6.600000000000000311e-02 7.009395000000000486e-01 2.787474999999999881e+01 1.106110000000000042e+02 1.792699999999999818e+03
6.700000000000000400e-02 7.015584999999999738e-01 2.842859999999999943e+01 1.136364999999999981e+02 1.793450000000000045e+03
6.800000000000000488e-02 7.021344999999999947e-01 2.890100000000000335e+01 1.164840000000000089e+02 1.794164999999999964e+03
6.900000000000000577e-02 7.026504999999999557e-01 2.925764999999999816e+01 1.190625000000000000e+02 1.794819999999999936e+03
7.000000000000000666e-02 7.030925000000000091e-01 2.946914999999999907e+01 1.212944999999999993e+02 1.795405000000000200e+03
7.100000000000000755e-02 7.034484999999999211e-01 2.951299999999999812e+01 1.231189999999999998e+02 1.795894999999999982e+03
7.200000000000000844e-02 7.037145000000000206e-01 2.937514999999999787e+01 1.244960000000000093e+02 1.796284999999999854e+03
7.300000000000000933e-02 7.038869999999999294e-01 2.905049999999999955e+01 1.254094999999999942e+02 1.796575000000000045e+03
7.399999999999999634e-02 7.039699999999999847e-01 2.854289999999999949e+01 1.258644999999999925e+02 1.796755000000000109e+03
7.499999999999999722e-02 7.039690000000000669e-01 2.786459999999999937e+01 1.258875000000000028e+02 1.796825000000000045e+03
7.599999999999999811e-02 7.038949999999999374e-01 2.703535000000000110e+01 1.255240000000000009e+02 1.796804999999999836e+03
7.699999999999999900e-02 7.037590000000000234e-01 2.608095000000000141e+01 1.248319999999999936e+02 1.796695000000000164e+03
7.799999999999999989e-02 7.035759999999999792e-01 2.503175000000000239e+01 1.238820000000000050e+02 1.796525000000000091e+03
7.900000000000000078e-02 7.033610000000000140e-01 2.392074999999999818e+01 1.227494999999999976e+02 1.796295000000000073e+03
8.000000000000000167e-02 7.031294999999999629e-01 2.278200000000000003e+01 1.215109999999999957e+02 1.796029999999999973e+03
8.100000000000000255e-02 7.028944999999999776e-01 2.164829999999999899e+01 1.202409999999999997e+02 1.795750000000000000e+03
8.200000000000000344e-02 7.026695000000000579e-01 2.054984999999999928e+01 1.190060000000000002e+02 1.795460000000000036e+03
8.300000000000000433e-02 7.024645000000000472e-01 1.951245000000000118e+01 1.178635000000000019e+02 1.795190000000000055e+03
8.400000000000000522e-02 7.022874999999999535e-01 1.855630000000000024e+01 1.168575000000000017e+02 1.794940000000000055e+03
8.500000000000000611e-02 7.021435000000000315e-01 1.769549999999999912e+01 1.160180000000000007e+02 1.794724999999999909e+03
8.600000000000000699e-02 7.020349999999999646e-01 1.693724999999999881e+01 1.153610000000000042e+02 1.794555000000000064e+03
8.700000000000000788e-02 7.019599999999999174e-01 1.628200000000000003e+01 1.148870000000000005e+02 1.794409999999999854e+03
8.800000000000000877e-02 7.019159999999999844e-01 1.572394999999999854e+01 1.145819999999999936e+02 1.794309999999999945e+03
8.899999999999999578e-02 7.018965000000000343e-01 1.525159999999999982e+01 1.144205000000000041e+02 1.794244999999999891e+03
8.999999999999999667e-02 7.018949999999999356e-01 1.484864999999999924e+01 1.143675000000000068e+02 1.794210000000000036e+03
9.099999999999999756e-02 7.019024999999999848e-01 1.449535000000000018e+01 1.143820000000000050e+02 1.794190000000000055e+03
9.199999999999999845e-02 7.019090000000000051e-01 1.416975000000000051e+01 1.144159999999999968e+02 1.794180000000000064e+03
9.299999999999999933e-02 7.019055000000000710e-01 1.384929999999999950e+01 1.144224999999999994e+02 1.794170000000000073e+03
9.400000000000000022e-02 7.018839999999999524e-01 1.351184999999999903e+01 1.143559999999999945e+02 1.794140000000000100e+03
9.500000000000000111e-02 7.018364999999999743e-01 1.313779999999999859e+01 1.141754999999999995e+02 1.794099999999999909e+03
9.600000000000000200e-02 7.017565000000000053e-01 1.271077000000000012e+01 1.138490000000000038e+02 1.794025000000000091e+03
9.700000000000000289e-02 7.016415000000000290e-01 1.221892000000000067e+01 1.133524999999999920e+02 1.793909999999999854e+03
9.800000000000000377e-02 7.014894999999999881e-01 1.165578499999999984e+01 1.126744999999999948e+02 1.793759999999999991e+03
9.900000000000000466e-02 7.013024999999999398e-01 1.102046499999999973e+01 1.118160000000000025e+02 1.793570000000000164e+03
1.000000000000000056e-01 7.010825000000000529e-01 1.031803000000000026e+01 1.107890000000000015e+02 1.793340000000000146e+03
1.010000000000000064e-01 7.008364999999999734e-01 9.558745000000000047e+00 1.096179999999999950e+02 1.793074999999999818e+03
1.020000000000000073e-01 7.005715000000000137e-01 8.757680000000000575e+00 1.083370000000000033e+02 1.792779999999999973e+03
1.030000000000000082e-01 7.002960000000000296e-01 7.933875000000000455e+00 1.069879999999999995e+02 1.792470000000000027e+03
1.040000000000000091e-01 7.000204999999999345e-01 7.108805000000000263e+00 1.056184000000000083e+02 1.792144999999999982e+03
1.050000000000000100e-01 6.997545000000000570e-01 6.305245000000000211e+00 1.042773499999999984e+02 1.791825000000000045e+03
1.059999999999999970e-01 6.995080000000000187e-01 5.545849999999999724e+00 1.030145499999999998e+02 1.791515000000000100e+03
1.069999999999999979e-01 6.992890000000000494e-01 4.851670000000000371e+00 1.018746999999999900e+02 1.791230000000000018e+03
1.079999999999999988e-01 6.991054999999999353e-01 4.240965000000000096e+00 1.008966000000000065e+02 1.790985000000000127e+03
1.089999999999999997e-01 6.989620000000000832e-01 3.728099999999999969e+00 1.001103500000000111e+02 1.790769999999999982e+03
1.100000000000000006e-01 6.988615000000000244e-01 3.322834999999999983e+00 9.953570000000000562e+01 1.790605000000000018e+03
1.110000000000000014e-01 6.988049999999998985e-01 3.029869999999999841e+00 9.918139999999999645e+01 1.790494999999999891e+03
1.120000000000000023e-01 6.987915000000000099e-01 2.848799999999999777e+00 9.904470000000000596e+01 1.790430000000000064e+03
1.130000000000000032e-01 6.988170000000000215e-01 2.774345000000000283e+00 9.911329999999999529e+01 1.790414999999999964e+03
1.140000000000000041e-01 6.988769999999999705e-01 2.796890000000000320e+00 9.936464999999999748e+01 1.790440000000000055e+03
1.150000000000000050e-01 6.989644999999999886e-01 2.903214999999999879e+00 9.976935000000000286e+01 1.790509999999999991e+03
1.160000000000000059e-01 6.990730000000000555e-01 3.077390000000000292e+00 1.002925999999999931e+02 1.790610000000000127e+03
1.170000000000000068e-01 6.991944999999999411e-01 3.301730000000000054e+00 1.008966000000000065e+02 1.790730000000000018e+03
1.180000000000000077e-01 6.993214999999999293e-01 3.557750000000000412e+00 1.015422000000000082e+02 1.790869999999999891e+03
1.190000000000000085e-01 6.994469999999999299e-01 3.827105000000000423e+00 1.021927000000000021e+02 1.791009999999999991e+03
1.200000000000000094e-01 6.995640000000000747e-01 4.092444999999999666e+00 1.028130000000000024e+02 1.791154999999999973e+03
1.209999999999999964e-01 6.996674999999999978e-01 4.338135000000000296e+00 1.033729999999999905e+02 1.791284999999999854e+03
1.219999999999999973e-01 6.997519999999999296e-01 4.550855000000000317e+00 1.038485000000000014e+02 1.791404999999999973e+03
1.229999999999999982e-01 6.998159999999999936e-01 4.720064999999999955e+00 1.042210000000000036e+02 1.791494999999999891e+03
1.239999999999999991e-01 6.998564999999999925e-01 4.838269999999999627e+00 1.044799999999999898e+02 1.791569999999999936e+03
1.250000000000000000e-01 6.998744999999999550e-01 4.901170000000000471e+00 1.046195000000000022e+02 1.791615000000000009e+03
1.260000000000000009e-01 6.998689999999999634e-01 4.907640000000000668e+00 1.046415000000000077e+02 1.791635000000000218e+03
1.270000000000000018e-01 6.998435000000000628e-01 4.859560000000000102e+00 1.045544999999999902e+02 1.791625000000000000e+03
1.280000000000000027e-01 6.997995000000000188e-01 4.761509999999999465e+00 1.043700000000000045e+02 1.791599999999999909e+03
1.290000000000000036e-01 6.997415000000000163e-01 4.620345000000000368e+00 1.041055000000000064e+02 1.791550000000000182e+03
1.300000000000000044e-01 6.996740000000000181e-01 4.444709999999999717e+00 1.037795000000000130e+02 1.791485000000000127e+03
1.310000000000000053e-01 6.995994999999999298e-01 4.244405000000000427e+00 1.034140000000000015e+02 1.791405000000000200e+03
1.320000000000000062e-01 6.995240000000000347e-01 4.029790000000000205e+00 1.030295000000000130e+02 1.791324999999999818e+03
1.330000000000000071e-01 6.994500000000000162e-01 3.811135000000000161e+00 1.026460000000000008e+02 1.791240000000000009e+03
1.340000000000000080e-01 6.993814999999999893e-01 3.598014999999999741e+00 1.022830000000000013e+02 1.791154999999999973e+03
1.350000000000000089e-01 6.993214999999999293e-01 3.398789999999999978e+00 1.019540000000000077e+02 1.791079999999999927e+03
1.360000000000000098e-01 6.992709999999999759e-01 3.220184999999999853e+00 1.016719999999999970e+02 1.791009999999999991e+03
1.370000000000000107e-01 6.992319999999999647e-01 3.066959999999999908e+00 1.014420000000000073e+02 1.790949999999999818e+03
1.380000000000000115e-01 6.992039999999999367e-01 2.941840000000000011e+00 1.012680000000000007e+02 1.790904999999999973e+03
1.390000000000000124e-01 6.991859999999999742e-01 2.845444999999999780e+00 1.011469999999999914e+02 1.790869999999999891e+03
1.400000000000000133e-01 6.991764999999999786e-01 2.776460000000000150e+00 1.010734999999999957e+02 1.790845000000000027e+03
1.410000000000000142e-01 6.991739999999999622e-01 2.731905000000000250e+00 1.010374999999999943e+02 1.790829999999999927e+03
1.420000000000000151e-01 6.991754999999999498e-01 2.707444999999999879e+00 1.010275000000000034e+02 1.790820000000000164e+03
1.430000000000000160e-01 6.991780000000000772e-01 2.697795000000000165e+00 1.010305000000000035e+02 1.790815000000000055e+03
1.440000000000000169e-01 6.991795000000000648e-01 2.697175000000000100e+00 1.010330000000000013e+02 1.790809999999999945e+03
1.450000000000000178e-01 6.991765000000000896e-01 2.699690000000000367e+00 1.010209999999999866e+02 1.790804999999999836e+03
1.459999999999999909e-01 6.991674999999999418e-01 2.699724999999999930e+00 1.009830000000000041e+02 1.790795000000000073e+03
1.469999999999999918e-01 6.991505000000000081e-01 2.692344999999999988e+00 1.009090000000000060e+02 1.790775000000000091e+03
1.479999999999999927e-01 6.991239999999999677e-01 2.673519999999999897e+00 1.007914999999999992e+02 1.790750000000000000e+03
1.489999999999999936e-01 6.990870000000000140e-01 2.640394999999999825e+00 1.006260000000000048e+02 1.790710000000000036e+03
1.499999999999999944e-01 6.990404999999999536e-01 2.591415000000000024e+00 1.004114999999999895e+02 1.790659999999999854e+03
1.509999999999999953e-01 6.989845000000000086e-01 2.526380000000000070e+00 1.001497499999999974e+02 1.790599999999999909e+03
1.519999999999999962e-01 6.989205000000000556e-01 2.446435000000000137e+00 9.984640000000000271e+01 1.790534999999999854e+03
1.529999999999999971e-01 6.988494999999999013e-01 2.353990000000000027e+00 9.950804999999999723e+01 1.790454999999999927e+03
1.539999999999999980e-01 6.987744999999999651e-01 2.252520000000000078e+00 9.914515000000000100e+01 1.790369999999999891e+03
1.549999999999999989e-01 6.986980000000000413e-01 2.146376999999999757e+00 9.876949999999999363e+01 1.790279999999999973e+03
1.559999999999999998e-01 6.986219999999999652e-01 2.040494999999999948e+00 9.839349999999998886e+01 1.790190000000000055e+03
1.570000000000000007e-01 6.985490000000000865e-01 1.940123000000000042e+00 9.803010000000000446e+01 1.790099999999999909e+03
1.580000000000000016e-01 6.984820000000000473e-01 1.850487500000000063e+00 9.769200000000000728e+01 1.790014999999999873e+03
1.590000000000000024e-01 6.984230000000000160e-01 1.776545500000000111e+00 9.739079999999999870e+01 1.789945000000000164e+03
