# t [s], A [cm^2], U [cm/s], P [cPa], c [cm/s]
1.000000000000000021e-03 5.114054999999999573e-01 3.402800000000004432e-03 9.468440000000001078e+01 1.503049999999999955e+03
2.000000000000000042e-03 5.113980000000000192e-01 -9.690149999999999372e-04 9.466364999999998986e+01 1.503049999999999955e+03
3.000000000000000062e-03 5.114369999999999195e-01 7.684634999999999383e-02 9.473754999999999882e+01 1.503069999999999936e+03
4.000000000000000083e-03 5.114800000000000457e-01 1.695074000000000025e-01 9.484749999999999659e+01 1.503105000000000018e+03
5.000000000000000104e-03 5.114735000000000253e-01 1.674530000000000185e-01 9.483705000000000496e+01 1.503105000000000018e+03
6.000000000000000125e-03 5.114279999999999937e-01 8.622250000000000747e-02 9.468349999999999511e+01 1.503065000000000055e+03
7.000000000000000146e-03 5.113834999999999908e-01 -7.340000000000124203e-04 9.446164999999999168e+01 1.503009999999999991e+03
8.000000000000000167e-03 5.113254999999999884e-01 -1.210735000000000006e-01 9.415465000000000373e+01 1.502930000000000064e+03
9.000000000000001055e-03 5.112269999999999870e-01 -3.359400000000000164e-01 9.368434999999999491e+01 1.502800000000000182e+03
1.000000000000000194e-02 5.110810000000000075e-01 -6.564950000000000507e-01 9.300790000000000646e+01 1.502619999999999891e+03
1.099999999999999936e-02 5.108810000000000295e-01 -1.088334999999999830e+00 9.208844999999999459e+01 1.502369999999999891e+03
1.200000000000000025e-02 5.106135000000000534e-01 -1.646790000000000198e+00 9.087579999999999814e+01 1.502034999999999854e+03
1.300000000000000114e-02 5.102794999999999970e-01 -2.312640000000000029e+00 8.935715000000000430e+01 1.501599999999999909e+03
1.400000000000000203e-02 5.099095000000000155e-01 -3.002734999999999932e+00 8.760490000000000066e+01 1.501089999999999918e+03
1.499999999999999944e-02 5.095484999999999598e-01 -3.594289999999999541e+00 8.576654999999999518e+01 1.500539999999999964e+03
1.600000000000000033e-02 5.092369999999999397e-01 -3.977635999999999949e+00 8.400534999999999286e+01 1.499985000000000127e+03
1.700000000000000122e-02 5.089920000000000000e-01 -4.095780249999999789e+00 8.243985000000000696e+01 1.499465000000000146e+03
1.800000000000000211e-02 5.088055000000000216e-01 -3.954251999999999878e+00 8.111305000000000121e+01 1.498990000000000009e+03
1.900000000000000300e-02 5.086530000000000218e-01 -3.607179499999999983e+00 7.999320000000000164e+01 1.498565000000000055e+03
2.000000000000000042e-02 5.085034999999999972e-01 -3.131953499999999835e+00 7.899734999999999729e+01 1.498170000000000073e+03
2.100000000000000130e-02 5.083305000000000184e-01 -2.602723500000000190e+00 7.802530000000000143e+01 1.497789999999999964e+03
2.200000000000000219e-02 5.081195000000000572e-01 -2.069954500000000142e+00 7.699254999999999427e+01 1.497384999999999991e+03
2.299999999999999961e-02 5.078700000000000436e-01 -1.551200000000000134e+00 7.585364999999998759e+01 1.496960000000000036e+03
2.400000000000000050e-02 5.075925000000000020e-01 -1.034904999999999964e+00 7.460755000000000337e+01 1.496509999999999991e+03
2.500000000000000139e-02 5.073019999999999197e-01 -4.944799999999998086e-01 7.328745000000000687e+01 1.496035000000000082e+03
2.600000000000000228e-02 5.070135000000000058e-01 9.410499999999988319e-02 7.193965000000000032e+01 1.495554999999999836e+03
2.700000000000000316e-02 5.067334999999999479e-01 7.378149999999998876e-01 7.060099999999999909e+01 1.495070000000000164e+03
2.800000000000000058e-02 5.064599999999999103e-01 1.419430000000000192e+00 6.928294999999999959e+01 1.494590000000000146e+03
2.900000000000000147e-02 5.061809999999999921e-01 2.098330000000000251e+00 6.796490000000000009e+01 1.494105000000000018e+03
3.000000000000000236e-02 5.058795000000000375e-01 2.717850000000000321e+00 6.659765000000000157e+01 1.493605000000000018e+03
3.099999999999999978e-02 5.055380000000000429e-01 3.216594999999999871e+00 6.511459999999999582e+01 1.493079999999999927e+03
3.200000000000000067e-02 5.051410000000000622e-01 3.541159999999999641e+00 6.344814999999999827e+01 1.492505000000000109e+03
3.300000000000000155e-02 5.046804999999999763e-01 3.657485000000000319e+00 6.154740000000000322e+01 1.491869999999999891e+03
3.400000000000000244e-02 5.041590000000000238e-01 3.558019999999999960e+00 5.939280000000000115e+01 1.491164999999999964e+03
3.500000000000000333e-02 5.035884999999999945e-01 3.263635000000000286e+00 5.700424999999999898e+01 1.490394999999999982e+03
3.600000000000000422e-02 5.029884999999999495e-01 2.819374999999999520e+00 5.444124999999999659e+01 1.489575000000000045e+03
3.700000000000000511e-02 5.023849999999999705e-01 2.286164999999999559e+00 5.179529999999999745e+01 1.488724999999999909e+03
3.799999999999999906e-02 5.018034999999999579e-01 1.730580000000000229e+00 4.917680000000000007e+01 1.487875000000000000e+03
3.899999999999999994e-02 5.012695000000000345e-01 1.215889999999999915e+00 4.670090000000000430e+01 1.487049999999999955e+03
4.000000000000000083e-02 5.008034999999999570e-01 7.950400000000001910e-01 4.447440000000000282e+01 1.486295000000000073e+03
4.100000000000000172e-02 5.004180000000000295e-01 5.073249999999998039e-01 4.258624999999999972e+01 1.485630000000000109e+03
4.200000000000000261e-02 5.001240000000000130e-01 3.778049999999999464e-01 4.110200000000000387e+01 1.485079999999999927e+03
4.300000000000000350e-02 4.999244999999999939e-01 4.190749999999998643e-01 4.006234999999999502e+01 1.484660000000000082e+03
4.400000000000000439e-02 4.998200000000000420e-01 6.344750000000000112e-01 3.948515000000000441e+01 1.484384999999999991e+03
4.499999999999999833e-02 4.998080000000000300e-01 1.021656499999999967e+00 3.936965000000000003e+01 1.484250000000000000e+03
4.599999999999999922e-02 4.998845000000000094e-01 1.575799999999999867e+00 3.970210000000000150e+01 1.484255000000000109e+03
4.700000000000000011e-02 5.000455000000000316e-01 2.291713999999999807e+00 4.046065000000000111e+01 1.484409999999999854e+03
4.800000000000000100e-02 5.002860000000000085e-01 3.164698000000000011e+00 4.161925000000000097e+01 1.484690000000000055e+03
4.900000000000000189e-02 5.006024999999999503e-01 4.190074499999999702e+00 4.315009999999999479e+01 1.485099999999999909e+03
5.000000000000000278e-02 5.009885000000000588e-01 5.361978999999999829e+00 4.502415000000000589e+01 1.485630000000000109e+03
5.100000000000000366e-02 5.014389999999999681e-01 6.671828000000000536e+00 4.721025000000000205e+01 1.486264999999999873e+03
5.200000000000000455e-02 5.019470000000000320e-01 8.107064000000001158e+00 4.967459999999999809e+01 1.487005000000000109e+03
5.300000000000000544e-02 5.025034999999999918e-01 9.650380000000000180e+00 5.237945000000000562e+01 1.487829999999999927e+03
5.399999999999999939e-02 5.030995000000000328e-01 1.128016500000000022e+01 5.528294999999999959e+01 1.488724999999999909e+03
5.500000000000000028e-02 5.037260000000000071e-01 1.297123500000000007e+01 5.833974999999999511e+01 1.489684999999999945e+03
5.600000000000000117e-02 5.043710000000000138e-01 1.469637999999999955e+01 6.150249999999999773e+01 1.490695000000000164e+03
5.700000000000000205e-02 5.050255000000000161e-01 1.642815500000000029e+01 6.472409999999999286e+01 1.491730000000000018e+03
5.800000000000000294e-02 5.056800000000000184e-01 1.814049999999999940e+01 6.795965000000001055e+01 1.492789999999999964e+03
5.900000000000000383e-02 5.063260000000000538e-01 1.981060000000000088e+01 7.116930000000000689e+01 1.493849999999999909e+03
6.000000000000000472e-02 5.069589999999999375e-01 2.141964999999999719e+01 7.431995000000000573e+01 1.494904999999999973e+03
6.099999999999999867e-02 5.075745000000000395e-01 2.295364999999999966e+01 7.738660000000000139e+01 1.495944999999999936e+03
6.199999999999999956e-02 5.081700000000000106e-01 2.440350000000000108e+01 8.035314999999999941e+01 1.496965000000000146e+03
6.300000000000000044e-02 5.087444999999999329e-01 2.576474999999999937e+01 8.321229999999999905e+01 1.497954999999999927e+03
6.400000000000000133e-02 5.093010000000000037e-01 2.703709999999999880e+01 8.596465000000000600e+01 1.498914999999999964e+03
6.500000000000000222e-02 5.098399999999999599e-01 2.822339999999999804e+01 8.861759999999999593e+01 1.499855000000000018e+03
6.600000000000000311e-02 5.103644999999999987e-01 2.932929999999999993e+01 9.118399999999999750e+01 1.500764999999999873e+03
6.700000000000000400e-02 5.108789999999999720e-01 3.036189999999999856e+01 9.368030000000000257e+01 1.501650000000000091e+03
6.800000000000000488e-02 5.113870000000000360e-01 3.132939999999999969e+01 9.612505000000000166e+01 1.502525000000000091e+03
6.900000000000000577e-02 5.118914999999999438e-01 3.224004999999999654e+01 9.853675000000001205e+01 1.503380000000000109e+03
7.000000000000000666e-02 5.123965000000000325e-01 3.310190000000000055e+01 1.009324499999999887e+02 1.504235000000000127e+03
7.100000000000000755e-02 5.129034999999999567e-01 3.392195000000000249e+01 1.033281499999999937e+02 1.505085000000000036e+03
7.200000000000000844e-02 5.134150000000000658e-01 3.470564999999999856e+01 1.057344999999999970e+02 1.505940000000000055e+03
7.300000000000000933e-02 5.139325000000000143e-01 3.545680000000000121e+01 1.081585000000000036e+02 1.506795000000000073e+03
7.399999999999999634e-02 5.144539999999999669e-01 3.617690000000000339e+01 1.106009999999999991e+02 1.507654999999999973e+03
7.499999999999999722e-02 5.149795000000000345e-01 3.686529999999999774e+01 1.130589999999999975e+02 1.508525000000000091e+03
7.599999999999999811e-02 5.155060000000000198e-01 3.751924999999999955e+01 1.155234999999999985e+02 1.509394999999999982e+03
7.699999999999999900e-02 5.160294999999999188e-01 3.813374999999999915e+01 1.179805000000000064e+02 1.510259999999999991e+03
7.799999999999999989e-02 5.165469999999999784e-01 3.870250000000000057e+01 1.204114999999999895e+02 1.511119999999999891e+03
7.900000000000000078e-02 5.170535000000000547e-01 3.921790000000000020e+01 1.227969999999999970e+02 1.511970000000000027e+03
8.000000000000000167e-02 5.175445000000000739e-01 3.967159999999999798e+01 1.251129999999999995e+02 1.512795000000000073e+03
8.100000000000000255e-02 5.180145000000000444e-01 4.005540000000000589e+01 1.273365000000000009e+02 1.513595000000000027e+03
8.200000000000000344e-02 5.184595000000000731e-01 4.036140000000000327e+01 1.294449999999999932e+02 1.514365000000000009e+03
8.300000000000000433e-02 5.188749999999999751e-01 4.058259999999999934e+01 1.314170000000000016e+02 1.515085000000000036e+03
8.400000000000000522e-02 5.192579999999999973e-01 4.071344999999999459e+01 1.332355000000000018e+02 1.515764999999999873e+03
8.500000000000000611e-02 5.196060000000000123e-01 4.074989999999999668e+01 1.348845000000000027e+02 1.516384999999999991e+03
8.600000000000000699e-02 5.199160000000000448e-01 4.068979999999999819e+01 1.363539999999999850e+02 1.516949999999999818e+03
8.700000000000000788e-02 5.201890000000000125e-01 4.053305000000000291e+01 1.376374999999999886e+02 1.517454999999999927e+03
8.800000000000000877e-02 5.204225000000000101e-01 4.028119999999999834e+01 1.387330000000000041e+02 1.517894999999999982e+03
8.899999999999999578e-02 5.206190000000000540e-01 3.993815000000000026e+01 1.396434999999999889e+02 1.518275000000000091e+03
8.999999999999999667e-02 5.207800000000000207e-01 3.950919999999999987e+01 1.403750000000000000e+02 1.518595000000000027e+03
9.099999999999999756e-02 5.209059999999999802e-01 3.900155000000000172e+01 1.409385000000000048e+02 1.518849999999999909e+03
9.199999999999999845e-02 5.210025000000000350e-01 3.842369999999999663e+01 1.413460000000000036e+02 1.519054999999999836e+03
9.299999999999999933e-02 5.210704999999999920e-01 3.778529999999999944e+01 1.416144999999999925e+02 1.519204999999999927e+03
9.400000000000000022e-02 5.211145000000000360e-01 3.709680000000000177e+01 1.417615000000000123e+02 1.519309999999999945e+03
9.500000000000000111e-02 5.211390000000000189e-01 3.636919999999999931e+01 1.418064999999999998e+02 1.519380000000000109e+03
9.600000000000000200e-02 5.211470000000000269e-01 3.561364999999999981e+01 1.417674999999999841e+02 1.519409999999999854e+03
9.700000000000000289e-02 5.211419999999999941e-01 3.484104999999999563e+01 1.416655000000000086e+02 1.519420000000000073e+03
9.800000000000000377e-02 5.211284999999999945e-01 3.406184999999999974e+01 1.415179999999999723e+02 1.519400000000000091e+03
9.900000000000000466e-02 5.211099999999999621e-01 3.328555000000000064e+01 1.413425000000000011e+02 1.519369999999999891e+03
1.000000000000000056e-01 5.210884999999999545e-01 3.252055000000000007e+01 1.411535000000000082e+02 1.519324999999999818e+03
1.010000000000000064e-01 5.210664999999999880e-01 3.177380000000000138e+01 1.409639999999999986e+02 1.519279999999999973e+03
1.020000000000000073e-01 5.210460000000000091e-01 3.105055000000000121e+01 1.407835000000000036e+02 1.519230000000000018e+03
1.030000000000000082e-01 5.210274999999999768e-01 3.035450000000000159e+01 1.406189999999999998e+02 1.519180000000000064e+03
1.040000000000000091e-01 5.210124999999999895e-01 2.968739999999999668e+01 1.404739999999999895e+02 1.519134999999999991e+03
1.050000000000000100e-01 5.210000000000000187e-01 2.904929999999999879e+01 1.403485000000000014e+02 1.519090000000000146e+03
1.059999999999999970e-01 5.209900000000000642e-01 2.843874999999999886e+01 1.402404999999999973e+02 1.519049999999999955e+03
1.069999999999999979e-01 5.209804999999999575e-01 2.785289999999999822e+01 1.401449999999999818e+02 1.519014999999999873e+03
1.079999999999999988e-01 5.209700000000000442e-01 2.728764999999999930e+01 1.400550000000000068e+02 1.518980000000000018e+03
1.089999999999999997e-01 5.209574999999999623e-01 2.673794999999999789e+01 1.399624999999999773e+02 1.518944999999999936e+03
1.100000000000000006e-01 5.209405000000000285e-01 2.619845000000000113e+01 1.398564999999999827e+02 1.518904999999999973e+03
1.110000000000000014e-01 5.209170000000000744e-01 2.566319999999999979e+01 1.397284999999999968e+02 1.518855000000000018e+03
1.120000000000000023e-01 5.208859999999999602e-01 2.512650000000000006e+01 1.395674999999999955e+02 1.518804999999999836e+03
1.130000000000000032e-01 5.208439999999999737e-01 2.458285000000000053e+01 1.393650000000000091e+02 1.518735000000000127e+03
1.140000000000000041e-01 5.207904999999999340e-01 2.402750000000000341e+01 1.391114999999999782e+02 1.518654999999999973e+03
1.150000000000000050e-01 5.207245000000000346e-01 2.345625000000000071e+01 1.388015000000000043e+02 1.518550000000000182e+03
1.160000000000000059e-01 5.206444999999999546e-01 2.286599999999999966e+01 1.384304999999999950e+02 1.518434999999999945e+03
1.170000000000000068e-01 5.205515000000000558e-01 2.225480000000000302e+01 1.379945000000000164e+02 1.518289999999999964e+03
1.180000000000000077e-01 5.204444999999999766e-01 2.162199999999999989e+01 1.374945000000000164e+02 1.518130000000000109e+03
1.190000000000000085e-01 5.203240000000000087e-01 2.096799999999999997e+01 1.369314999999999998e+02 1.517949999999999818e+03
1.200000000000000094e-01 5.201919999999999877e-01 2.029455000000000098e+01 1.363100000000000023e+02 1.517750000000000000e+03
1.209999999999999964e-01 5.200500000000000123e-01 1.960480000000000089e+01 1.356370000000000005e+02 1.517529999999999973e+03
1.219999999999999973e-01 5.198994999999999589e-01 1.890275000000000105e+01 1.349194999999999993e+02 1.517295000000000073e+03
1.229999999999999982e-01 5.197424999999999962e-01 1.819350000000000023e+01 1.341689999999999827e+02 1.517050000000000182e+03
1.239999999999999991e-01 5.195819999999999883e-01 1.748290000000000077e+01 1.333955000000000268e+02 1.516795000000000073e+03
1.250000000000000000e-01 5.194199999999999928e-01 1.677749999999999986e+01 1.326125000000000114e+02 1.516530000000000200e+03
1.260000000000000009e-01 5.192599999999999438e-01 1.608394999999999797e+01 1.318319999999999936e+02 1.516265000000000100e+03
1.270000000000000018e-01 5.191040000000000099e-01 1.540925000000000011e+01 1.310679999999999836e+02 1.516009999999999991e+03
1.280000000000000027e-01 5.189544999999999852e-01 1.476004999999999967e+01 1.303319999999999936e+02 1.515755000000000109e+03
1.290000000000000036e-01 5.188144999999999563e-01 1.414274499999999968e+01 1.296354999999999791e+02 1.515505000000000109e+03
1.300000000000000044e-01 5.186855000000000215e-01 1.356299000000000099e+01 1.289890000000000043e+02 1.515275000000000091e+03
1.310000000000000053e-01 5.185684999999999878e-01 1.302565500000000043e+01 1.284019999999999868e+02 1.515065000000000055e+03
1.320000000000000062e-01 5.184659999999999824e-01 1.253461000000000070e+01 1.278814999999999884e+02 1.514869999999999891e+03
1.330000000000000071e-01 5.183780000000000054e-01 1.209262999999999977e+01 1.274314999999999998e+02 1.514695000000000164e+03
1.340000000000000080e-01 5.183054999999999746e-01 1.170131999999999906e+01 1.270554999999999950e+02 1.514549999999999955e+03
1.350000000000000089e-01 5.182480000000000420e-01 1.136109499999999883e+01 1.267535000000000025e+02 1.514424999999999955e+03
1.360000000000000098e-01 5.182054999999999856e-01 1.107105499999999942e+01 1.265240000000000009e+02 1.514324999999999818e+03
1.370000000000000107e-01 5.181759999999999700e-01 1.082944499999999977e+01 1.263635000000000019e+02 1.514244999999999891e+03
1.380000000000000115e-01 5.181590000000000362e-01 1.063335499999999989e+01 1.262669999999999959e+02 1.514190000000000055e+03
1.390000000000000124e-01 5.181535000000000446e-01 1.047915000000000063e+01 1.262274999999999920e+02 1.514154999999999973e+03
1.400000000000000133e-01 5.181565000000000198e-01 1.036251000000000033e+01 1.262369999999999948e+02 1.514130000000000109e+03
1.410000000000000142e-01 5.181679999999999620e-01 1.027867499999999978e+01 1.262870000000000061e+02 1.514130000000000109e+03
1.420000000000000151e-01 5.181845000000000478e-01 1.022258500000000048e+01 1.263689999999999998e+02 1.514134999999999991e+03
1.430000000000000160e-01 5.182050000000000267e-01 1.018914999999999971e+01 1.264735000000000014e+02 1.514159999999999854e+03
1.440000000000000169e-01 5.182274999999999521e-01 1.017330499999999915e+01 1.265925000000000011e+02 1.514179999999999836e+03
1.450000000000000178e-01 5.182510000000000172e-01 1.017026999999999859e+01 1.267185000000000059e+02 1.514210000000000036e+03
1.459999999999999909e-01 5.182744999999999713e-01 1.017563999999999957e+01 1.268435000000000059e+02 1.514240000000000009e+03
1.469999999999999918e-01 5.182959999999999789e-01 1.018534499999999987e+01 1.269625000000000057e+02 1.514275000000000091e+03
1.479999999999999927e-01 5.183145000000000113e-01 1.019595999999999947e+01 1.270699999999999932e+02 1.514304999999999836e+03
1.489999999999999936e-01 5.183305000000000273e-01 1.020464000000000127e+01 1.271630000000000109e+02 1.514335000000000036e+03
1.499999999999999944e-01 5.183419999999999694e-01 1.020897000000000077e+01 1.272379999999999995e+02 1.514355000000000018e+03
1.509999999999999953e-01 5.183505000000000473e-01 1.020730000000000004e+01 1.272944999999999993e+02 1.514375000000000000e+03
1.519999999999999962e-01 5.183550000000000102e-01 1.019840500000000105e+01 1.273319999999999936e+02 1.514389999999999873e+03
1.529999999999999971e-01 5.183560000000000390e-01 1.018173999999999957e+01 1.273509999999999991e+02 1.514394999999999982e+03
1.539999999999999980e-01 5.183534999999999116e-01 1.015710500000000138e+01 1.273524999999999920e+02 1.514400000000000091e+03
1.549999999999999989e-01 5.183489999999999487e-01 1.012483500000000092e+01 1.273389999999999986e+02 1.514400000000000091e+03
1.559999999999999998e-01 5.183415000000000106e-01 1.008559999999999945e+01 1.273129999999999882e+02 1.514389999999999873e+03
1.570000000000000007e-01 5.183324999999999738e-01 1.004026999999999958e+01 1.272775000000000034e+02 1.514384999999999991e+03
1.580000000000000016e-01 5.183230000000000892e-01 9.990154999999999674e+00 1.272344999999999970e+02 1.514369999999999891e+03
1.590000000000000024e-01 5.183124999999999538e-01 9.936550000000000438e+00 1.271885000000000048e+02 1.514360000000000127e+03
