# t [s], A [cm^2], U [cm/s], P [cPa], c [cm/s]
1.000000000000000021e-03 1.683219999999999994e-01 2.935556500000000013e-01 8.640540000000000020e+01 2.296734999999999673e+03
2.000000000000000042e-03 1.682779999999999831e-01 1.623822500000000169e+00 8.310634999999999195e+01 2.296295000000000073e+03
3.000000000000000062e-03 1.681694999999999995e-01 3.278465999999999880e+00 7.850095000000000312e+01 2.295260000000000218e+03
4.000000000000000083e-03 1.680294999999999983e-01 5.166713999999999807e+00 7.367119999999999891e+01 2.293934999999999945e+03
5.000000000000000104e-03 1.678859999999999797e-01 7.202359999999999651e+00 6.956804999999999950e+01 2.292590000000000146e+03
6.000000000000000125e-03 1.677520000000000122e-01 9.148160000000000736e+00 6.628319999999999368e+01 2.291355000000000018e+03
7.000000000000000146e-03 1.676274999999999848e-01 1.078681000000000090e+01 6.337064999999999770e+01 2.290230000000000018e+03
8.000000000000000167e-03 1.675159999999999982e-01 1.211642499999999956e+01 6.073734999999999928e+01 2.289234999999999673e+03
9.000000000000001055e-03 1.674215000000000009e-01 1.319838500000000181e+01 5.855329999999999302e+01 2.288409999999999854e+03
1.000000000000000194e-02 1.673445000000000071e-01 1.405335000000000001e+01 5.684340000000000259e+01 2.287744999999999891e+03
1.099999999999999936e-02 1.672839999999999883e-01 1.469309999999999938e+01 5.553450000000000131e+01 2.287235000000000127e+03
1.200000000000000025e-02 1.672365000000000101e-01 1.511430000000000007e+01 5.448799999999999955e+01 2.286829999999999927e+03
1.300000000000000114e-02 1.671960000000000113e-01 1.531814999999999927e+01 5.352304999999999779e+01 2.286500000000000000e+03
1.400000000000000203e-02 1.671614999999999907e-01 1.538994999999999891e+01 5.265474999999999994e+01 2.286220000000000255e+03
1.499999999999999944e-02 1.671400000000000108e-01 1.552139999999999986e+01 5.227640000000000242e+01 2.286050000000000182e+03
1.600000000000000033e-02 1.671435000000000004e-01 1.591284999999999883e+01 5.296594999999999942e+01 2.286085000000000036e+03
1.700000000000000122e-02 1.671805000000000097e-01 1.663994999999999891e+01 5.504729999999999990e+01 2.286404999999999745e+03
1.800000000000000211e-02 1.672494999999999954e-01 1.759609999999999985e+01 5.828105000000000047e+01 2.287005000000000109e+03
1.900000000000000300e-02 1.673370000000000135e-01 1.854295000000000115e+01 6.190729999999999933e+01 2.287775000000000091e+03
2.000000000000000042e-02 1.674225000000000019e-01 1.922429999999999950e+01 6.497634999999999650e+01 2.288539999999999964e+03
2.100000000000000130e-02 1.674875000000000114e-01 1.947514999999999930e+01 6.675130000000000052e+01 2.289135000000000218e+03
2.200000000000000219e-02 1.675200000000000022e-01 1.927595000000000169e+01 6.697780000000000200e+01 2.289460000000000036e+03
2.299999999999999961e-02 1.675205000000000166e-01 1.873660000000000281e+01 6.591499999999999204e+01 2.289489999999999782e+03
2.400000000000000050e-02 1.674970000000000070e-01 1.802945000000000064e+01 6.414865000000000350e+01 2.289305000000000291e+03
2.500000000000000139e-02 1.674625000000000141e-01 1.730774999999999864e+01 6.229959999999999809e+01 2.289005000000000109e+03
2.600000000000000228e-02 1.674264999999999781e-01 1.664880000000000138e+01 6.077185000000000059e+01 2.288690000000000055e+03
2.700000000000000316e-02 1.673949999999999882e-01 1.603995000000000104e+01 5.963889999999999958e+01 2.288404999999999745e+03
2.800000000000000058e-02 1.673660000000000148e-01 1.540609999999999857e+01 5.868925000000000125e+01 2.288149999999999636e+03
2.900000000000000147e-02 1.673350000000000115e-01 1.465995000000000026e+01 5.758415000000000106e+01 2.287875000000000000e+03
3.000000000000000236e-02 1.672960000000000003e-01 1.375329999999999941e+01 5.605089999999999861e+01 2.287534999999999854e+03
3.099999999999999978e-02 1.672454999999999914e-01 1.271035000000000004e+01 5.403464999999999918e+01 2.287095000000000255e+03
3.200000000000000067e-02 1.671865000000000157e-01 1.163158999999999921e+01 5.175435000000000230e+01 2.286585000000000036e+03
3.300000000000000155e-02 1.671269999999999978e-01 1.066605999999999987e+01 4.964449999999999363e+01 2.286059999999999945e+03
3.400000000000000244e-02 1.670790000000000053e-01 9.964269999999999072e+00 4.820765000000000100e+01 2.285625000000000000e+03
3.500000000000000333e-02 1.670515000000000194e-01 9.629760000000000986e+00 4.783984999999999843e+01 2.285369999999999891e+03
3.600000000000000422e-02 1.670530000000000070e-01 9.687129999999999797e+00 4.869474999999999909e+01 2.285349999999999909e+03
3.700000000000000511e-02 1.670820000000000083e-01 1.007569499999999962e+01 5.063085000000000235e+01 2.285590000000000146e+03
3.799999999999999906e-02 1.671345000000000192e-01 1.066719499999999954e+01 5.325140000000000384e+01 2.286034999999999854e+03
3.899999999999999994e-02 1.671995000000000009e-01 1.129834999999999923e+01 5.600970000000000226e+01 2.286595000000000255e+03
4.000000000000000083e-02 1.672625000000000084e-01 1.180729999999999968e+01 5.834140000000000015e+01 2.287150000000000091e+03
4.100000000000000172e-02 1.673125000000000029e-01 1.206325000000000003e+01 5.978199999999999648e+01 2.287595000000000255e+03
4.200000000000000261e-02 1.673385000000000011e-01 1.198450000000000060e+01 6.004399999999999693e+01 2.287840000000000146e+03
4.300000000000000350e-02 1.673350000000000115e-01 1.154209999999999958e+01 5.904070000000000107e+01 2.287824999999999818e+03
4.400000000000000439e-02 1.673005000000000186e-01 1.075253999999999976e+01 5.686305000000000121e+01 2.287534999999999854e+03
4.499999999999999833e-02 1.672374999999999834e-01 9.663655000000000328e+00 5.372375000000000256e+01 2.287000000000000000e+03
4.599999999999999922e-02 1.671509999999999940e-01 8.338905000000000456e+00 4.989209999999999923e+01 2.286244999999999891e+03
4.700000000000000011e-02 1.670470000000000010e-01 6.844660000000000188e+00 4.563680000000000092e+01 2.285335000000000036e+03
4.800000000000000100e-02 1.669309999999999961e-01 5.243095000000000283e+00 4.118975000000000364e+01 2.284309999999999945e+03
4.900000000000000189e-02 1.668089999999999851e-01 3.589907499999999807e+00 3.673380000000000223e+01 2.283235000000000127e+03
5.000000000000000278e-02 1.666854999999999865e-01 1.936345000000000205e+00 3.240939999999999799e+01 2.282144999999999982e+03
5.100000000000000366e-02 1.665645000000000042e-01 3.325700000000000323e-01 2.833164999999999978e+01 2.281074999999999818e+03
5.200000000000000455e-02 1.664499999999999869e-01 -1.169385000000000119e+00 2.460904999999999987e+01 2.280050000000000182e+03
5.300000000000000544e-02 1.663450000000000206e-01 -2.514554999999999652e+00 2.135565000000000069e+01 2.279114999999999782e+03
5.399999999999999939e-02 1.662534999999999985e-01 -3.646475000000000133e+00 1.869444999999999979e+01 2.278295000000000073e+03
5.500000000000000028e-02 1.661785000000000068e-01 -4.510685000000000500e+00 1.675099999999999767e+01 2.277619999999999891e+03
5.600000000000000117e-02 1.661239999999999939e-01 -5.059559999999999391e+00 1.564049999999999940e+01 2.277125000000000000e+03
5.700000000000000205e-02 1.660940000000000194e-01 -5.257220000000000226e+00 1.545195000000000007e+01 2.276829999999999927e+03
5.800000000000000294e-02 1.660889999999999866e-01 -5.083474999999999966e+00 1.623430000000000106e+01 2.276765000000000327e+03
5.900000000000000383e-02 1.661115000000000230e-01 -4.536154999999999937e+00 1.798744999999999905e+01 2.276934999999999945e+03
6.000000000000000472e-02 1.661600000000000021e-01 -3.631445000000000256e+00 2.065954999999999941e+01 2.277340000000000146e+03
6.099999999999999867e-02 1.662335000000000063e-01 -2.402416500000000177e+00 2.415080000000000027e+01 2.277970000000000255e+03
6.199999999999999956e-02 1.663304999999999922e-01 -8.962450000000001804e-01 2.832249999999999801e+01 2.278795000000000073e+03
6.300000000000000044e-02 1.664450000000000096e-01 8.295749999999999513e-01 3.300894999999999868e+01 2.279795000000000073e+03
6.400000000000000133e-02 1.665739999999999998e-01 2.711420000000000385e+00 3.803114999999999668e+01 2.280925000000000182e+03
6.500000000000000222e-02 1.667130000000000001e-01 4.683918999999999500e+00 4.321020000000000039e+01 2.282144999999999982e+03
6.600000000000000311e-02 1.668570000000000053e-01 6.684194999999999887e+00 4.838020000000000209e+01 2.283409999999999854e+03
6.700000000000000400e-02 1.670004999999999962e-01 8.655839999999999534e+00 5.339929999999999666e+01 2.284694999999999709e+03
6.800000000000000488e-02 1.671414999999999984e-01 1.055188500000000040e+01 5.815844999999999487e+01 2.285945000000000164e+03
6.900000000000000577e-02 1.672770000000000090e-01 1.233757500000000107e+01 6.258669999999999334e+01 2.287159999999999854e+03
7.000000000000000666e-02 1.674039999999999973e-01 1.399099999999999966e+01 6.665319999999999823e+01 2.288300000000000182e+03
7.100000000000000755e-02 1.675220000000000042e-01 1.550335000000000107e+01 7.036504999999999654e+01 2.289369999999999891e+03
7.200000000000000844e-02 1.676324999999999898e-01 1.687734999999999985e+01 7.376144999999999641e+01 2.290364999999999782e+03
7.300000000000000933e-02 1.677349999999999952e-01 1.812505000000000166e+01 7.690465000000000373e+01 2.291289999999999964e+03
7.399999999999999634e-02 1.678310000000000080e-01 1.926480000000000103e+01 7.987000000000000455e+01 2.292164999999999964e+03
7.499999999999999722e-02 1.679229999999999889e-01 2.031824999999999903e+01 8.273525000000000773e+01 2.293000000000000000e+03
7.599999999999999811e-02 1.680130000000000234e-01 2.130734999999999957e+01 8.557124999999999204e+01 2.293815000000000055e+03
7.699999999999999900e-02 1.681015000000000148e-01 2.225189999999999912e+01 8.843524999999999636e+01 2.294619999999999891e+03
7.799999999999999989e-02 1.681910000000000072e-01 2.316785000000000139e+01 9.136594999999999800e+01 2.295430000000000291e+03
7.900000000000000078e-02 1.682819999999999871e-01 2.406605000000000061e+01 9.438200000000000500e+01 2.296255000000000109e+03
8.000000000000000167e-02 1.683744999999999825e-01 2.495210000000000150e+01 9.748210000000000264e+01 2.297090000000000146e+03
8.100000000000000255e-02 1.684694999999999943e-01 2.582564999999999955e+01 1.006476499999999987e+02 2.297949999999999818e+03
8.200000000000000344e-02 1.685650000000000204e-01 2.668185000000000073e+01 1.038444999999999965e+02 2.298809999999999945e+03
8.300000000000000433e-02 1.686610000000000054e-01 2.751095000000000113e+01 1.070285000000000082e+02 2.299675000000000182e+03
8.400000000000000522e-02 1.687560000000000171e-01 2.830010000000000048e+01 1.101465000000000032e+02 2.300539999999999964e+03
8.500000000000000611e-02 1.688485000000000125e-01 2.903374999999999773e+01 1.131430000000000007e+02 2.301380000000000109e+03
8.600000000000000699e-02 1.689374999999999905e-01 2.969494999999999862e+01 1.159600000000000080e+02 2.302184999999999945e+03
8.700000000000000788e-02 1.690209999999999768e-01 3.026650000000000063e+01 1.185430000000000064e+02 2.302945000000000164e+03
8.800000000000000877e-02 1.690980000000000261e-01 3.073189999999999955e+01 1.208414999999999964e+02 2.303644999999999982e+03
8.899999999999999578e-02 1.691659999999999831e-01 3.107670000000000243e+01 1.228139999999999930e+02 2.304265000000000327e+03
8.999999999999999667e-02 1.692254999999999732e-01 3.128934999999999889e+01 1.244279999999999973e+02 2.304809999999999945e+03
9.099999999999999756e-02 1.692739999999999800e-01 3.136224999999999952e+01 1.256645000000000039e+02 2.305264999999999873e+03
9.199999999999999845e-02 1.693120000000000180e-01 3.129234999999999900e+01 1.265159999999999911e+02 2.305614999999999782e+03
9.299999999999999933e-02 1.693395000000000039e-01 3.108150000000000190e+01 1.269904999999999973e+02 2.305875000000000000e+03
9.400000000000000022e-02 1.693565000000000209e-01 3.073645000000000138e+01 1.271090000000000089e+02 2.306039999999999964e+03
9.500000000000000111e-02 1.693629999999999858e-01 3.026849999999999952e+01 1.269050000000000011e+02 2.306114999999999782e+03
9.600000000000000200e-02 1.693604999999999972e-01 2.969315000000000282e+01 1.264230000000000018e+02 2.306105000000000018e+03
9.700000000000000289e-02 1.693505000000000149e-01 2.902860000000000085e+01 1.257134999999999962e+02 2.306015000000000327e+03
9.800000000000000377e-02 1.693334999999999979e-01 2.829545000000000243e+01 1.248315000000000055e+02 2.305875000000000000e+03
9.900000000000000466e-02 1.693120000000000180e-01 2.751510000000000034e+01 1.238325000000000102e+02 2.305685000000000400e+03
1.000000000000000056e-01 1.692865000000000064e-01 2.670884999999999820e+01 1.227725000000000080e+02 2.305460000000000036e+03
1.010000000000000064e-01 1.692589999999999928e-01 2.589690000000000225e+01 1.217000000000000028e+02 2.305215000000000146e+03
1.020000000000000073e-01 1.692309999999999925e-01 2.509750000000000014e+01 1.206589999999999918e+02 2.304965000000000146e+03
1.030000000000000082e-01 1.692035000000000067e-01 2.432594999999999885e+01 1.196835000000000093e+02 2.304720000000000255e+03
1.040000000000000091e-01 1.691774999999999807e-01 2.359430000000000049e+01 1.187994999999999948e+02 2.304480000000000018e+03
1.050000000000000100e-01 1.691524999999999834e-01 2.291055000000000064e+01 1.180210000000000008e+02 2.304255000000000109e+03
1.059999999999999970e-01 1.691310000000000036e-01 2.227890000000000015e+01 1.173515000000000015e+02 2.304054999999999836e+03
1.069999999999999979e-01 1.691119999999999846e-01 2.169919999999999760e+01 1.167845000000000084e+02 2.303880000000000109e+03
1.079999999999999988e-01 1.690949999999999953e-01 2.116750000000000043e+01 1.163034999999999997e+02 2.303724999999999909e+03
1.089999999999999997e-01 1.690804999999999947e-01 2.067634999999999934e+01 1.158829999999999956e+02 2.303585000000000036e+03
1.100000000000000006e-01 1.690670000000000228e-01 2.021560000000000201e+01 1.154925000000000068e+02 2.303465000000000146e+03
1.110000000000000014e-01 1.690544999999999964e-01 1.977280000000000015e+01 1.150954999999999870e+02 2.303340000000000146e+03
1.120000000000000023e-01 1.690409999999999968e-01 1.933464999999999989e+01 1.146554999999999893e+02 2.303220000000000255e+03
1.130000000000000032e-01 1.690260000000000096e-01 1.888734999999999786e+01 1.141345000000000027e+02 2.303085000000000036e+03
1.140000000000000041e-01 1.690089999999999926e-01 1.841819999999999879e+01 1.135004999999999882e+02 2.302925000000000182e+03
1.150000000000000050e-01 1.689884999999999859e-01 1.791610000000000014e+01 1.127259999999999991e+02 2.302744999999999891e+03
1.160000000000000059e-01 1.689640000000000031e-01 1.737259999999999849e+01 1.117925000000000040e+02 2.302524999999999636e+03
1.170000000000000068e-01 1.689354999999999885e-01 1.678229999999999933e+01 1.106905000000000001e+02 2.302269999999999982e+03
1.180000000000000077e-01 1.689019999999999966e-01 1.614345000000000141e+01 1.094205000000000041e+02 2.301970000000000255e+03
1.190000000000000085e-01 1.688645000000000007e-01 1.545810000000000173e+01 1.079939999999999998e+02 2.301635000000000218e+03
1.200000000000000094e-01 1.688230000000000008e-01 1.473199999999999932e+01 1.064320000000000022e+02 2.301255000000000109e+03
1.209999999999999964e-01 1.687774999999999970e-01 1.397415000000000163e+01 1.047644999999999982e+02 2.300850000000000364e+03
1.219999999999999973e-01 1.687285000000000035e-01 1.319650000000000034e+01 1.030299499999999995e+02 2.300414999999999964e+03
1.229999999999999982e-01 1.686789999999999956e-01 1.241305000000000014e+01 1.012683999999999997e+02 2.299965000000000146e+03
1.239999999999999991e-01 1.686280000000000001e-01 1.163892500000000041e+01 9.952475000000001160e+01 2.299510000000000218e+03
1.250000000000000000e-01 1.685780000000000056e-01 1.088955999999999946e+01 9.784145000000000891e+01 2.299059999999999945e+03
1.260000000000000009e-01 1.685294999999999987e-01 1.017976499999999973e+01 9.625934999999999775e+01 2.298619999999999891e+03
1.270000000000000018e-01 1.684840000000000226e-01 9.522944999999999993e+00 9.481309999999999150e+01 2.298210000000000036e+03
1.280000000000000027e-01 1.684424999999999950e-01 8.930299999999999017e+00 9.353079999999999927e+01 2.297829999999999927e+03
1.290000000000000036e-01 1.684049999999999991e-01 8.410589999999999122e+00 9.243260000000000787e+01 2.297489999999999782e+03
1.300000000000000044e-01 1.683724999999999805e-01 7.969520000000000159e+00 9.153024999999999523e+01 2.297195000000000164e+03
1.310000000000000053e-01 1.683454999999999813e-01 7.609864999999999213e+00 9.082704999999999984e+01 2.296944999999999709e+03
1.320000000000000062e-01 1.683239999999999736e-01 7.331474999999999298e+00 9.031860000000000355e+01 2.296744999999999891e+03
1.330000000000000071e-01 1.683080000000000132e-01 7.131495000000000140e+00 8.999365000000000236e+01 2.296594999999999800e+03
1.340000000000000080e-01 1.682965000000000155e-01 7.004694999999999894e+00 8.983549999999999613e+01 2.296489999999999782e+03
1.350000000000000089e-01 1.682905000000000095e-01 6.943894999999999484e+00 8.982304999999999495e+01 2.296420000000000073e+03
1.360000000000000098e-01 1.682879999999999932e-01 6.940419999999999590e+00 8.993250000000000455e+01 2.296395000000000437e+03
1.370000000000000107e-01 1.682889999999999942e-01 6.984535000000000160e+00 9.013814999999999600e+01 2.296399999999999636e+03
1.380000000000000115e-01 1.682929999999999982e-01 7.065929999999999822e+00 9.041405000000000314e+01 2.296430000000000291e+03
1.390000000000000124e-01 1.682990000000000042e-01 7.174174999999999969e+00 9.073474999999999113e+01 2.296480000000000018e+03
1.400000000000000133e-01 1.683064999999999978e-01 7.299080000000000013e+00 9.107644999999999413e+01 2.296545000000000073e+03
1.410000000000000142e-01 1.683145000000000058e-01 7.431140000000000079e+00 9.141749999999998977e+01 2.296614999999999782e+03
1.420000000000000151e-01 1.683230000000000004e-01 7.561824999999999797e+00 9.173955000000000837e+01 2.296690000000000055e+03
1.430000000000000160e-01 1.683310000000000084e-01 7.683885000000000076e+00 9.202750000000000341e+01 2.296764999999999873e+03
1.440000000000000169e-01 1.683385000000000020e-01 7.791549999999999976e+00 9.227055000000000007e+01 2.296824999999999818e+03
1.450000000000000178e-01 1.683445000000000080e-01 7.880715000000000359e+00 9.246195000000000164e+01 2.296880000000000109e+03
1.459999999999999909e-01 1.683494999999999853e-01 7.948940000000000339e+00 9.259915000000000873e+01 2.296930000000000291e+03
1.469999999999999918e-01 1.683530000000000026e-01 7.995445000000000135e+00 9.268380000000000507e+01 2.296965000000000146e+03
1.479999999999999927e-01 1.683560000000000056e-01 8.020970000000000155e+00 9.272090000000000032e+01 2.296984999999999673e+03
1.489999999999999936e-01 1.683569999999999789e-01 8.027560000000001139e+00 9.271860000000000923e+01 2.297000000000000000e+03
1.499999999999999944e-01 1.683569999999999789e-01 8.018250000000000099e+00 9.268690000000000850e+01 2.297005000000000109e+03
1.509999999999999953e-01 1.683564999999999923e-01 7.996755000000000280e+00 9.263694999999999879e+01 2.297005000000000109e+03
1.519999999999999962e-01 1.683560000000000056e-01 7.967105000000000103e+00 9.258009999999998740e+01 2.296989999999999782e+03
1.529999999999999971e-01 1.683544999999999903e-01 7.933304999999999829e+00 9.252674999999999272e+01 2.296984999999999673e+03
1.539999999999999980e-01 1.683534999999999893e-01 7.899000000000000021e+00 9.248584999999999923e+01 2.296974999999999909e+03
1.549999999999999989e-01 1.683530000000000026e-01 7.867300000000000182e+00 9.246410000000000196e+01 2.296970000000000255e+03
1.559999999999999998e-01 1.683525000000000160e-01 7.840510000000000090e+00 9.246569999999999823e+01 2.296970000000000255e+03
1.570000000000000007e-01 1.683534999999999893e-01 7.820135000000000502e+00 9.249225000000001273e+01 2.296970000000000255e+03
1.580000000000000016e-01 1.683540000000000036e-01 7.806779999999999831e+00 9.254284999999998718e+01 2.296979999999999563e+03
1.590000000000000024e-01 1.683554999999999913e-01 7.800269999999999371e+00 9.261450000000000671e+01 2.296994999999999891e+03
