# t [s], A [cm^2], U [cm/s], P [cPa], c [cm/s]
1.000000000000000021e-03 6.659194999999999975e-01 5.658999999999997366e-03 9.205060000000000286e+01 1.683135000000000218e+03
2.000000000000000042e-03 6.659074999999999855e-01 -2.835530449999999671e-03 9.201794999999999902e+01 1.683130000000000109e+03
3.000000000000000062e-03 6.659669999999999757e-01 1.049449999999999827e-01 9.213604999999999734e+01 1.683159999999999854e+03
4.000000000000000083e-03 6.660140000000001059e-01 2.047127499999999989e-01 9.225825000000000387e+01 1.683190000000000055e+03
5.000000000000000104e-03 6.659739999999999549e-01 1.632677000000000156e-01 9.216379999999999484e+01 1.683170000000000073e+03
6.000000000000000125e-03 6.658984999999999488e-01 5.299249999999999794e-02 9.189900000000000091e+01 1.683105000000000018e+03
7.000000000000000146e-03 6.658334999999999670e-01 -4.895100000000002227e-02 9.157794999999998709e+01 1.683029999999999973e+03
8.000000000000000167e-03 6.657229999999999537e-01 -2.453049999999999953e-01 9.108854999999999791e+01 1.682914999999999964e+03
9.000000000000001055e-03 6.655459999999999710e-01 -5.813249999999999806e-01 9.034109999999999729e+01 1.682744999999999891e+03
1.000000000000000194e-02 6.652974999999999861e-01 -1.056144999999999889e+00 8.929519999999999413e+01 1.682500000000000000e+03
1.099999999999999936e-02 6.649549999999999628e-01 -1.701039999999999885e+00 8.786785000000000423e+01 1.682159999999999854e+03
1.200000000000000025e-02 6.645130000000000203e-01 -2.506425000000000125e+00 8.601914999999999623e+01 1.681720000000000027e+03
1.300000000000000114e-02 6.640254999999999352e-01 -3.349460000000000104e+00 8.387069999999999936e+01 1.681194999999999936e+03
1.400000000000000203e-02 6.635785000000000711e-01 -4.040066500000000005e+00 8.168104999999999905e+01 1.680634999999999991e+03
1.499999999999999944e-02 6.632359999999999367e-01 -4.426286000000000165e+00 7.970914999999999395e+01 1.680110000000000127e+03
1.600000000000000033e-02 6.630065000000000541e-01 -4.459540000000000504e+00 7.809620000000001028e+01 1.679644999999999982e+03
1.700000000000000122e-02 6.628529999999999145e-01 -4.193595000000000184e+00 7.683035000000000991e+01 1.679250000000000000e+03
1.800000000000000211e-02 6.627175000000000704e-01 -3.742415000000000269e+00 7.578120000000001255e+01 1.678900000000000091e+03
1.900000000000000300e-02 6.625455000000000094e-01 -3.226734999999999687e+00 7.477080000000000837e+01 1.678565000000000055e+03
2.000000000000000042e-02 6.623044999999999627e-01 -2.729449500000000306e+00 7.364785000000000537e+01 1.678210000000000036e+03
2.100000000000000130e-02 6.619964999999999877e-01 -2.273247500000000088e+00 7.234120000000000061e+01 1.677820000000000164e+03
2.200000000000000219e-02 6.616480000000000139e-01 -1.826629999999999754e+00 7.087199999999999989e+01 1.677389999999999873e+03
2.299999999999999961e-02 6.612945000000000073e-01 -1.333100000000000174e+00 6.932580000000000098e+01 1.676934999999999945e+03
2.400000000000000050e-02 6.609644999999999548e-01 -7.475050000000000860e-01 6.780134999999999934e+01 1.676490000000000009e+03
2.500000000000000139e-02 6.606659999999999755e-01 -6.323999999999996291e-02 6.636119999999999663e+01 1.676054999999999836e+03
2.600000000000000228e-02 6.603849999999999998e-01 6.779749999999999943e-01 6.500194999999999368e+01 1.675634999999999991e+03
2.700000000000000316e-02 6.600900000000000656e-01 1.393484999999999863e+00 6.365045000000000641e+01 1.675220000000000027e+03
2.800000000000000058e-02 6.597420000000000506e-01 1.979514999999999914e+00 6.218219999999999459e+01 1.674784999999999854e+03
2.900000000000000147e-02 6.593044999999999600e-01 2.337479999999999780e+00 6.045685000000000286e+01 1.674295000000000073e+03
3.000000000000000236e-02 6.587570000000000370e-01 2.400120000000000253e+00 5.836064999999999969e+01 1.673720000000000027e+03
3.099999999999999978e-02 6.581000000000000183e-01 2.150154999999999816e+00 5.584380000000000166e+01 1.673049999999999955e+03
3.200000000000000067e-02 6.573590000000000266e-01 1.625130000000000408e+00 5.294169999999999732e+01 1.672295000000000073e+03
3.300000000000000155e-02 6.565775000000000361e-01 9.071649999999999991e-01 4.977169999999999561e+01 1.671465000000000146e+03
3.400000000000000244e-02 6.558055000000000412e-01 1.023350000000000648e-01 4.650955000000000439e+01 1.670605000000000018e+03
3.500000000000000333e-02 6.550909999999999789e-01 -6.819499999999996120e-01 4.335544999999999760e+01 1.669759999999999991e+03
3.600000000000000422e-02 6.544740000000000002e-01 -1.354744999999999422e+00 4.050070000000000192e+01 1.668974999999999909e+03
3.700000000000000511e-02 6.539809999999999235e-01 -1.851315000000000044e+00 3.810264999999999702e+01 1.668289999999999964e+03
3.799999999999999906e-02 6.536260000000000403e-01 -2.134970000000000034e+00 3.627094999999999914e+01 1.667740000000000009e+03
3.899999999999999994e-02 6.534104999999998942e-01 -2.192823999999999884e+00 3.506539999999999679e+01 1.667340000000000146e+03
4.000000000000000083e-02 6.533309999999999951e-01 -2.028124000000000038e+00 3.450169999999999959e+01 1.667105000000000018e+03
4.100000000000000172e-02 6.533789999999999321e-01 -1.651600000000000179e+00 3.456409999999999627e+01 1.667034999999999854e+03
4.200000000000000261e-02 6.535459999999999603e-01 -1.074135000000000062e+00 3.521875000000000000e+01 1.667125000000000000e+03
4.300000000000000350e-02 6.538245000000000307e-01 -3.024599999999999511e-01 3.642620000000000147e+01 1.667365000000000009e+03
4.400000000000000439e-02 6.542099999999999582e-01 6.614400000000002500e-01 3.814829999999999899e+01 1.667755000000000109e+03
4.499999999999999833e-02 6.546974999999999323e-01 1.817674999999999930e+00 4.035054999999999836e+01 1.668280000000000200e+03
4.599999999999999922e-02 6.552820000000000311e-01 3.164044999999999774e+00 4.299940000000000140e+01 1.668929999999999836e+03
4.700000000000000011e-02 6.559544999999999959e-01 4.691740000000000244e+00 4.605734999999999957e+01 1.669700000000000045e+03
4.800000000000000100e-02 6.567065000000000818e-01 6.382340000000000124e+00 4.947809999999999775e+01 1.670570000000000164e+03
4.900000000000000189e-02 6.575204999999999522e-01 8.207187999999998596e+00 5.320409999999999684e+01 1.671539999999999964e+03
5.000000000000000278e-02 6.583809999999999940e-01 1.012907650000000004e+01 5.716655000000000086e+01 1.672575000000000045e+03
5.100000000000000366e-02 6.592689999999999939e-01 1.210510999999999981e+01 6.128834999999999411e+01 1.673664999999999964e+03
5.200000000000000455e-02 6.601664999999999894e-01 1.409102999999999994e+01 6.548919999999999675e+01 1.674795000000000073e+03
5.300000000000000544e-02 6.610555000000000181e-01 1.604474000000000089e+01 6.969134999999999991e+01 1.675934999999999945e+03
5.399999999999999939e-02 6.619234999999999980e-01 1.792987000000000108e+01 7.382545000000000357e+01 1.677079999999999927e+03
5.500000000000000028e-02 6.627594999999999459e-01 1.971770000000000067e+01 7.783509999999999707e+01 1.678200000000000045e+03
5.600000000000000117e-02 6.635579999999999812e-01 2.138804999999999978e+01 8.167949999999999022e+01 1.679285000000000082e+03
5.700000000000000205e-02 6.643155000000000587e-01 2.292940000000000111e+01 8.533445000000000391e+01 1.680329999999999927e+03
5.800000000000000294e-02 6.650335000000000552e-01 2.433755000000000024e+01 8.879160000000000252e+01 1.681329999999999927e+03
5.900000000000000383e-02 6.657144999999999868e-01 2.561460000000000292e+01 9.205629999999999313e+01 1.682284999999999854e+03
6.000000000000000472e-02 6.663634999999999975e-01 2.676729999999999876e+01 9.514520000000000266e+01 1.683190000000000055e+03
6.099999999999999867e-02 6.669855000000000089e-01 2.780575000000000330e+01 9.808250000000001023e+01 1.684059999999999945e+03
6.199999999999999956e-02 6.675880000000000702e-01 2.874199999999999733e+01 1.008969500000000039e+02 1.684894999999999982e+03
6.300000000000000044e-02 6.681770000000000209e-01 2.958910000000000196e+01 1.036190500000000014e+02 1.685699999999999818e+03
6.400000000000000133e-02 6.687575000000000047e-01 3.035969999999999658e+01 1.062789999999999964e+02 1.686490000000000009e+03
6.500000000000000222e-02 6.693355000000000832e-01 3.106530000000000058e+01 1.089014999999999986e+02 1.687264999999999873e+03
6.600000000000000311e-02 6.699124999999999108e-01 3.171509999999999962e+01 1.115060000000000002e+02 1.688029999999999973e+03
6.700000000000000400e-02 6.704909999999999481e-01 3.231520000000000437e+01 1.141045000000000016e+02 1.688795000000000073e+03
6.800000000000000488e-02 6.710694999999999855e-01 3.286830000000000496e+01 1.166980000000000075e+02 1.689550000000000182e+03
6.900000000000000577e-02 6.716459999999999653e-01 3.337345000000000539e+01 1.192800000000000011e+02 1.690304999999999836e+03
7.000000000000000666e-02 6.722144999999999371e-01 3.382644999999999413e+01 1.218344999999999914e+02 1.691049999999999955e+03
7.100000000000000755e-02 6.727704999999999380e-01 3.422044999999999959e+01 1.243379999999999939e+02 1.691784999999999854e+03
7.200000000000000844e-02 6.733065000000000300e-01 3.454694999999999538e+01 1.267620000000000005e+02 1.692500000000000000e+03
7.300000000000000933e-02 6.738154999999999006e-01 3.479659999999999798e+01 1.290749999999999886e+02 1.693180000000000064e+03
7.399999999999999634e-02 6.742915000000000436e-01 3.496054999999999779e+01 1.312460000000000093e+02 1.693829999999999927e+03
7.499999999999999722e-02 6.747279999999999944e-01 3.503085000000000093e+01 1.332439999999999998e+02 1.694434999999999945e+03
7.599999999999999811e-02 6.751194999999999835e-01 3.500135000000000218e+01 1.350450000000000159e+02 1.694984999999999900e+03
7.699999999999999900e-02 6.754629999999999246e-01 3.486804999999999666e+01 1.366265000000000214e+02 1.695474999999999909e+03
7.799999999999999989e-02 6.757560000000000233e-01 3.462950000000000017e+01 1.379759999999999991e+02 1.695904999999999973e+03
7.900000000000000078e-02 6.759969999999999590e-01 3.428670000000000329e+01 1.390855000000000246e+02 1.696269999999999982e+03
8.000000000000000167e-02 6.761869999999999825e-01 3.384335000000000093e+01 1.399544999999999959e+02 1.696570000000000164e+03
8.100000000000000255e-02 6.763274999999999704e-01 3.330559999999999832e+01 1.405894999999999868e+02 1.696799999999999955e+03
8.200000000000000344e-02 6.764215000000000089e-01 3.268179999999999552e+01 1.410015000000000214e+02 1.696965000000000146e+03
8.300000000000000433e-02 6.764725000000000321e-01 3.198249999999999815e+01 1.412094999999999914e+02 1.697075000000000045e+03
8.400000000000000522e-02 6.764870000000000605e-01 3.121979999999999933e+01 1.412359999999999900e+02 1.697130000000000109e+03
8.500000000000000611e-02 6.764695000000000569e-01 3.040740000000000265e+01 1.411049999999999898e+02 1.697130000000000109e+03
8.600000000000000699e-02 6.764265000000000416e-01 2.955955000000000155e+01 1.408460000000000036e+02 1.697099999999999909e+03
8.700000000000000788e-02 6.763634999999998954e-01 2.869100000000000250e+01 1.404890000000000043e+02 1.697030000000000200e+03
8.800000000000000877e-02 6.762880000000000003e-01 2.781624999999999659e+01 1.400625000000000000e+02 1.696934999999999945e+03
8.899999999999999578e-02 6.762040000000000273e-01 2.694894999999999996e+01 1.395960000000000036e+02 1.696825000000000045e+03
8.999999999999999667e-02 6.761190000000000255e-01 2.610119999999999862e+01 1.391145000000000209e+02 1.696700000000000045e+03
9.099999999999999756e-02 6.760355000000000114e-01 2.528320000000000078e+01 1.386415000000000077e+02 1.696579999999999927e+03
9.199999999999999845e-02 6.759585000000000177e-01 2.450274999999999892e+01 1.381954999999999814e+02 1.696460000000000036e+03
9.299999999999999933e-02 6.758895000000000319e-01 2.376500000000000057e+01 1.377894999999999754e+02 1.696344999999999800e+03
9.400000000000000022e-02 6.758290000000000131e-01 2.307225000000000037e+01 1.374314999999999998e+02 1.696235000000000127e+03
9.500000000000000111e-02 6.757779999999999898e-01 2.242410000000000281e+01 1.371245000000000118e+02 1.696139999999999873e+03
9.600000000000000200e-02 6.757355000000000445e-01 2.181770000000000209e+01 1.368670000000000186e+02 1.696059999999999945e+03
9.700000000000000289e-02 6.756995000000000084e-01 2.124774999999999991e+01 1.366504999999999939e+02 1.695990000000000009e+03
9.800000000000000377e-02 6.756670000000000176e-01 2.070745000000000147e+01 1.364655000000000200e+02 1.695920000000000073e+03
9.900000000000000466e-02 6.756360000000000143e-01 2.018860000000000099e+01 1.362984999999999900e+02 1.695865000000000009e+03
1.000000000000000056e-01 6.756020000000000358e-01 1.968200000000000216e+01 1.361334999999999980e+02 1.695809999999999945e+03
1.010000000000000064e-01 6.755619999999999958e-01 1.917849999999999966e+01 1.359549999999999841e+02 1.695755000000000109e+03
1.020000000000000073e-01 6.755134999999999890e-01 1.866895000000000238e+01 1.357475000000000023e+02 1.695690000000000055e+03
1.030000000000000082e-01 6.754529999999999701e-01 1.814489999999999981e+01 1.354954999999999927e+02 1.695619999999999891e+03
1.040000000000000091e-01 6.753789999999999516e-01 1.759895000000000209e+01 1.351870000000000118e+02 1.695529999999999973e+03
1.050000000000000100e-01 6.752879999999999994e-01 1.702540000000000120e+01 1.348109999999999786e+02 1.695430000000000064e+03
1.059999999999999970e-01 6.751810000000000311e-01 1.642014999999999958e+01 1.343619999999999948e+02 1.695305000000000064e+03
1.069999999999999979e-01 6.750570000000000181e-01 1.578109999999999857e+01 1.338360000000000127e+02 1.695170000000000073e+03
1.079999999999999988e-01 6.749165000000000303e-01 1.510855000000000103e+01 1.332344999999999970e+02 1.695005000000000109e+03
1.089999999999999997e-01 6.747615000000000141e-01 1.440474999999999994e+01 1.325635000000000048e+02 1.694825000000000045e+03
1.100000000000000006e-01 6.745950000000000557e-01 1.367403499999999994e+01 1.318309999999999889e+02 1.694635000000000218e+03
1.110000000000000014e-01 6.744194999999999496e-01 1.292263499999999965e+01 1.310504999999999995e+02 1.694424999999999955e+03
1.120000000000000023e-01 6.742384999999999629e-01 1.215853500000000054e+01 1.302369999999999948e+02 1.694204999999999927e+03
1.130000000000000032e-01 6.740565000000000584e-01 1.139064499999999924e+01 1.294085000000000036e+02 1.693980000000000018e+03
1.140000000000000041e-01 6.738779999999999770e-01 1.062892500000000062e+01 1.285840000000000032e+02 1.693750000000000000e+03
1.150000000000000050e-01 6.737059999999999160e-01 9.883420000000000982e+00 1.277835000000000036e+02 1.693525000000000091e+03
1.160000000000000059e-01 6.735459999999999781e-01 9.164075000000000415e+00 1.270245000000000033e+02 1.693315000000000055e+03
1.170000000000000068e-01 6.734010000000000273e-01 8.480235000000000412e+00 1.263264999999999958e+02 1.693110000000000127e+03
1.180000000000000077e-01 6.732739999999999281e-01 7.840160000000000906e+00 1.257039999999999935e+02 1.692930000000000064e+03
1.190000000000000085e-01 6.731670000000000709e-01 7.250594999999999679e+00 1.251684999999999945e+02 1.692764999999999873e+03
1.200000000000000094e-01 6.730819999999999581e-01 6.716625000000000512e+00 1.247305000000000064e+02 1.692625000000000000e+03
1.209999999999999964e-01 6.730190000000000339e-01 6.241384999999999295e+00 1.243924999999999983e+02 1.692519999999999982e+03
1.219999999999999973e-01 6.729785000000000350e-01 5.826040000000000774e+00 1.241570000000000107e+02 1.692434999999999945e+03
1.229999999999999982e-01 6.729585000000000150e-01 5.469759999999999955e+00 1.240200000000000102e+02 1.692380000000000109e+03
1.239999999999999991e-01 6.729579999999999451e-01 5.169890000000000541e+00 1.239745000000000061e+02 1.692345000000000027e+03
1.250000000000000000e-01 6.729735000000000023e-01 4.922139999999999738e+00 1.240100000000000051e+02 1.692335000000000036e+03
1.260000000000000009e-01 6.730024999999999480e-01 4.720879999999999299e+00 1.241144999999999925e+02 1.692344999999999800e+03
1.270000000000000018e-01 6.730419999999999181e-01 4.559474999999999945e+00 1.242725000000000080e+02 1.692375000000000000e+03
1.280000000000000027e-01 6.730874999999999497e-01 4.430619999999999337e+00 1.244685000000000059e+02 1.692420000000000073e+03
1.290000000000000036e-01 6.731359999999999566e-01 4.326705000000000467e+00 1.246864999999999952e+02 1.692465000000000146e+03
1.300000000000000044e-01 6.731849999999999223e-01 4.240135000000000431e+00 1.249110000000000014e+02 1.692519999999999982e+03
1.310000000000000053e-01 6.732299999999999951e-01 4.163634999999999309e+00 1.251264999999999930e+02 1.692570000000000164e+03
1.320000000000000062e-01 6.732694999999999652e-01 4.090495000000000658e+00 1.253205000000000098e+02 1.692619999999999891e+03
1.330000000000000071e-01 6.733014999999999972e-01 4.014750000000000263e+00 1.254814999999999969e+02 1.692664999999999964e+03
1.340000000000000080e-01 6.733234999999999637e-01 3.931360000000000188e+00 1.256009999999999991e+02 1.692695000000000164e+03
1.350000000000000089e-01 6.733344999999999470e-01 3.836280000000000356e+00 1.256719999999999970e+02 1.692720000000000027e+03
1.360000000000000098e-01 6.733339999999999881e-01 3.726534999999999709e+00 1.256899999999999977e+02 1.692730000000000018e+03
1.370000000000000107e-01 6.733225000000000460e-01 3.600210000000000132e+00 1.256535000000000082e+02 1.692720000000000027e+03
1.380000000000000115e-01 6.732985000000000220e-01 3.456430000000000113e+00 1.255619999999999976e+02 1.692704999999999927e+03
1.390000000000000124e-01 6.732639999999999736e-01 3.295284999999999798e+00 1.254184999999999945e+02 1.692670000000000073e+03
1.400000000000000133e-01 6.732199999999999296e-01 3.117764999999999898e+00 1.252255000000000109e+02 1.692625000000000000e+03
1.410000000000000142e-01 6.731670000000000709e-01 2.925615000000000077e+00 1.249890000000000043e+02 1.692565000000000055e+03
1.420000000000000151e-01 6.731065000000000520e-01 2.721225000000000005e+00 1.247150000000000034e+02 1.692494999999999891e+03
1.430000000000000160e-01 6.730399999999999716e-01 2.507429999999999826e+00 1.244099999999999966e+02 1.692414999999999964e+03
1.440000000000000169e-01 6.729689999999999284e-01 2.287409999999999943e+00 1.240810000000000031e+02 1.692329999999999927e+03
1.450000000000000178e-01 6.728954999999999798e-01 2.064453000000000316e+00 1.237349999999999994e+02 1.692240000000000009e+03
1.459999999999999909e-01 6.728199999999999736e-01 1.841847999999999930e+00 1.233785000000000025e+02 1.692139999999999873e+03
1.469999999999999918e-01 6.727449999999999264e-01 1.622694499999999929e+00 1.230175000000000125e+02 1.692045000000000073e+03
1.479999999999999927e-01 6.726699999999999902e-01 1.409777499999999906e+00 1.226585000000000036e+02 1.691944999999999936e+03
1.489999999999999936e-01 6.725970000000000004e-01 1.205479999999999885e+00 1.223034999999999997e+02 1.691845000000000027e+03
1.499999999999999944e-01 6.725250000000000394e-01 1.011670899999999929e+00 1.219565000000000055e+02 1.691750000000000000e+03
1.509999999999999953e-01 6.724559999999999427e-01 8.296945000000000014e-01 1.216189999999999998e+02 1.691654999999999973e+03
1.519999999999999962e-01 6.723889999999999034e-01 6.603565000000000129e-01 1.212920000000000016e+02 1.691554999999999836e+03
1.529999999999999971e-01 6.723239999999999217e-01 5.039400000000000546e-01 1.209749999999999943e+02 1.691465000000000146e+03
1.539999999999999980e-01 6.722600000000000797e-01 3.602949999999999764e-01 1.206664999999999992e+02 1.691375000000000000e+03
1.549999999999999989e-01 6.721975000000000033e-01 2.288969999999999616e-01 1.203644999999999925e+02 1.691289999999999964e+03
1.559999999999999998e-01 6.721349999999999270e-01 1.089465000000000017e-01 1.200660000000000025e+02 1.691199999999999818e+03
1.570000000000000007e-01 6.720725000000000726e-01 -5.080000000000084448e-04 1.197694999999999936e+02 1.691119999999999891e+03
1.580000000000000016e-01 6.720090000000000785e-01 -1.004929999999999990e-01 1.194710000000000036e+02 1.691029999999999973e+03
1.590000000000000024e-01 6.719450000000000145e-01 -1.920124999999999749e-01 1.191694999999999993e+02 1.690945000000000164e+03
