# t [s], A [cm^2], U [cm/s], P [cPa], c [cm/s]
1.000000000000000021e-03 1.245229999999999948e-01 3.274670000000000081e-01 9.783969999999999345e+01 1.937855000000000018e+03
2.000000000000000042e-03 1.244974999999999832e-01 1.856718000000000313e+00 9.469110000000000582e+01 1.937485000000000127e+03
3.000000000000000062e-03 1.244145000000000112e-01 3.723536999999999875e+00 9.051890000000000214e+01 1.936349999999999909e+03
4.000000000000000083e-03 1.242939999999999878e-01 5.798977500000000340e+00 8.594954999999998790e+01 1.934720000000000027e+03
5.000000000000000104e-03 1.241575000000000040e-01 8.024259999999999948e+00 8.175130000000000052e+01 1.932900000000000091e+03
6.000000000000000125e-03 1.240214999999999929e-01 1.026925500000000113e+01 7.825000000000000000e+01 1.931099999999999909e+03
7.000000000000000146e-03 1.238915000000000016e-01 1.235626499999999872e+01 7.531340000000000146e+01 1.929400000000000091e+03
8.000000000000000167e-03 1.237695000000000045e-01 1.417832500000000095e+01 7.269865000000000066e+01 1.927835000000000036e+03
9.000000000000001055e-03 1.236579999999999901e-01 1.573999999999999844e+01 7.036064999999999259e+01 1.926424999999999955e+03
1.000000000000000194e-02 1.235594999999999888e-01 1.707620000000000005e+01 6.836490000000000578e+01 1.925195000000000164e+03
1.099999999999999936e-02 1.234750000000000014e-01 1.820360000000000156e+01 6.672194999999999254e+01 1.924150000000000091e+03
1.200000000000000025e-02 1.234039999999999998e-01 1.913194999999999979e+01 6.538949999999999818e+01 1.923275000000000091e+03
1.300000000000000114e-02 1.233454999999999968e-01 1.986865000000000236e+01 6.430615000000000236e+01 1.922565000000000055e+03
1.400000000000000203e-02 1.232969999999999899e-01 2.041639999999999944e+01 6.338835000000000264e+01 1.921985000000000127e+03
1.499999999999999944e-02 1.232550000000000034e-01 2.079260000000000019e+01 6.256654999999999944e+01 1.921500000000000000e+03
1.600000000000000033e-02 1.232199999999999962e-01 2.105765000000000242e+01 6.187194999999999823e+01 1.921094999999999800e+03
1.700000000000000122e-02 1.231944999999999985e-01 2.131510000000000105e+01 6.147884999999999422e+01 1.920805000000000064e+03
1.800000000000000211e-02 1.231825000000000003e-01 2.167495000000000260e+01 6.163795000000000357e+01 1.920674999999999955e+03
1.900000000000000300e-02 1.231895000000000073e-01 2.220325000000000060e+01 6.253535000000000821e+01 1.920769999999999982e+03
2.000000000000000042e-02 1.232149999999999912e-01 2.289045000000000130e+01 6.417114999999999725e+01 1.921094999999999800e+03
2.100000000000000130e-02 1.232589999999999936e-01 2.365435000000000088e+01 6.632509999999999195e+01 1.921644999999999982e+03
2.200000000000000219e-02 1.233130000000000059e-01 2.437150000000000105e+01 6.861975000000001046e+01 1.922324999999999818e+03
2.299999999999999961e-02 1.233694999999999931e-01 2.492049999999999699e+01 7.064154999999999518e+01 1.923034999999999854e+03
2.400000000000000050e-02 1.234185000000000004e-01 2.521875000000000000e+01 7.206510000000000105e+01 1.923664999999999964e+03
2.500000000000000139e-02 1.234549999999999953e-01 2.524204999999999899e+01 7.273625000000001251e+01 1.924144999999999982e+03
2.600000000000000228e-02 1.234750000000000014e-01 2.502309999999999945e+01 7.269204999999999472e+01 1.924430000000000064e+03
2.700000000000000316e-02 1.234810000000000074e-01 2.463255000000000194e+01 7.211955000000000382e+01 1.924529999999999973e+03
2.800000000000000058e-02 1.234755000000000019e-01 2.415209999999999724e+01 7.127594999999999459e+01 1.924480000000000018e+03
2.900000000000000147e-02 1.234645000000000048e-01 2.364904999999999902e+01 7.040130000000000621e+01 1.924349999999999909e+03
3.000000000000000236e-02 1.234505000000000047e-01 2.316019999999999968e+01 6.965255000000000507e+01 1.924184999999999945e+03
3.099999999999999978e-02 1.234374999999999917e-01 2.268880000000000052e+01 6.907605000000000928e+01 1.924025000000000091e+03
3.200000000000000067e-02 1.234254999999999936e-01 2.221240000000000236e+01 6.861904999999998722e+01 1.923869999999999891e+03
3.300000000000000155e-02 1.234130000000000088e-01 2.169760000000000133e+01 6.817005000000000337e+01 1.923724999999999909e+03
3.400000000000000244e-02 1.233994999999999953e-01 2.111675000000000324e+01 6.761185000000000400e+01 1.923555000000000064e+03
3.500000000000000333e-02 1.233819999999999917e-01 2.046140000000000114e+01 6.687004999999999200e+01 1.923345000000000027e+03
3.600000000000000422e-02 1.233594999999999969e-01 1.974934999999999974e+01 6.594530000000000314e+01 1.923075000000000045e+03
3.700000000000000511e-02 1.233335000000000126e-01 1.902360000000000184e+01 6.492060000000000741e+01 1.922759999999999991e+03
3.799999999999999906e-02 1.233069999999999999e-01 1.834425000000000239e+01 6.394395000000000095e+01 1.922425000000000182e+03
3.899999999999999994e-02 1.232824999999999893e-01 1.777490000000000236e+01 6.319185000000000230e+01 1.922119999999999891e+03
4.000000000000000083e-02 1.232644999999999991e-01 1.736809999999999832e+01 6.282450000000000045e+01 1.921889999999999873e+03
4.100000000000000172e-02 1.232565000000000049e-01 1.715350000000000108e+01 6.294539999999999935e+01 1.921780000000000200e+03
4.200000000000000261e-02 1.232600000000000084e-01 1.713139999999999930e+01 6.357529999999999859e+01 1.921809999999999945e+03
4.300000000000000350e-02 1.232759999999999967e-01 1.727230000000000132e+01 6.464574999999999250e+01 1.921994999999999891e+03
4.400000000000000439e-02 1.233019999999999949e-01 1.752309999999999945e+01 6.601205000000000211e+01 1.922304999999999836e+03
4.499999999999999833e-02 1.233350000000000002e-01 1.781625000000000014e+01 6.748050000000000637e+01 1.922710000000000036e+03
4.599999999999999922e-02 1.233700000000000074e-01 1.808024999999999949e+01 6.884154999999999802e+01 1.923144999999999982e+03
4.700000000000000011e-02 1.234029999999999988e-01 1.825019999999999953e+01 6.990274999999999750e+01 1.923545000000000073e+03
4.800000000000000100e-02 1.234289999999999971e-01 1.827479999999999905e+01 7.051415000000000077e+01 1.923869999999999891e+03
4.900000000000000189e-02 1.234445000000000126e-01 1.812069999999999936e+01 7.058379999999999654e+01 1.924070000000000164e+03
5.000000000000000278e-02 1.234465000000000007e-01 1.777345000000000041e+01 7.008105000000000473e+01 1.924099999999999909e+03
5.100000000000000366e-02 1.234340000000000021e-01 1.723550000000000182e+01 6.903040000000000020e+01 1.923960000000000036e+03
5.200000000000000455e-02 1.234085000000000043e-01 1.652254999999999896e+01 6.749869999999999948e+01 1.923650000000000091e+03
5.300000000000000544e-02 1.233699999999999936e-01 1.565965000000000096e+01 6.557935000000000514e+01 1.923180000000000064e+03
5.399999999999999939e-02 1.233200000000000129e-01 1.467684999999999995e+01 6.337715000000000032e+01 1.922565000000000055e+03
5.500000000000000028e-02 1.232614999999999961e-01 1.360650000000000048e+01 6.099630000000000507e+01 1.921849999999999909e+03
5.600000000000000117e-02 1.231980000000000020e-01 1.248146999999999984e+01 5.853385000000000105e+01 1.921054999999999836e+03
5.700000000000000205e-02 1.231299999999999895e-01 1.133416000000000068e+01 5.607620000000000005e+01 1.920210000000000036e+03
5.800000000000000294e-02 1.230610000000000037e-01 1.019690500000000100e+01 5.370060000000000144e+01 1.919349999999999909e+03
5.900000000000000383e-02 1.229925000000000046e-01 9.102130000000000720e+00 5.147755000000000081e+01 1.918500000000000000e+03
6.000000000000000472e-02 1.229280000000000095e-01 8.082819999999999894e+00 4.947395000000000209e+01 1.917690000000000055e+03
6.099999999999999867e-02 1.228680000000000050e-01 7.172259999999999636e+00 4.775584999999999525e+01 1.916940000000000055e+03
6.199999999999999956e-02 1.228154999999999941e-01 6.403730000000000366e+00 4.638870000000000005e+01 1.916284999999999854e+03
6.300000000000000044e-02 1.227724999999999927e-01 5.809309999999999974e+00 4.543630000000000280e+01 1.915735000000000127e+03
6.400000000000000133e-02 1.227409999999999890e-01 5.418434999999999668e+00 4.495799999999999841e+01 1.915329999999999927e+03
6.500000000000000222e-02 1.227219999999999978e-01 5.256254999999999455e+00 4.500504999999999711e+01 1.915079999999999927e+03
6.600000000000000311e-02 1.227175000000000071e-01 5.341985000000000205e+00 4.561599999999999966e+01 1.915014999999999873e+03
6.700000000000000400e-02 1.227294999999999914e-01 5.687640000000000029e+00 4.681340000000000146e+01 1.915139999999999873e+03
6.800000000000000488e-02 1.227574999999999916e-01 6.297105000000000175e+00 4.860110000000000241e+01 1.915474999999999909e+03
6.900000000000000577e-02 1.228024999999999950e-01 7.165874999999999773e+00 5.096330000000000382e+01 1.916015000000000100e+03
7.000000000000000666e-02 1.228640000000000010e-01 8.281295000000000073e+00 5.386475000000000080e+01 1.916755000000000109e+03
7.100000000000000755e-02 1.229414999999999952e-01 9.623329999999999274e+00 5.725355000000000416e+01 1.917695000000000164e+03
7.200000000000000844e-02 1.230330000000000035e-01 1.116592999999999947e+01 6.106374999999999886e+01 1.918825000000000045e+03
7.300000000000000933e-02 1.231379999999999975e-01 1.287822999999999851e+01 6.522010000000000218e+01 1.920119999999999891e+03
7.399999999999999634e-02 1.232535000000000158e-01 1.472654999999999959e+01 6.964190000000000680e+01 1.921550000000000182e+03
7.499999999999999722e-02 1.233780000000000016e-01 1.667589999999999861e+01 7.424819999999999709e+01 1.923095000000000027e+03
7.599999999999999811e-02 1.235089999999999938e-01 1.869180000000000064e+01 7.896169999999999334e+01 1.924740000000000009e+03
7.699999999999999900e-02 1.236450000000000049e-01 2.074154999999999660e+01 8.371235000000000070e+01 1.926434999999999945e+03
7.799999999999999989e-02 1.237830000000000041e-01 2.279554999999999865e+01 8.844055000000000177e+01 1.928179999999999836e+03
7.900000000000000078e-02 1.239230000000000054e-01 2.482874999999999943e+01 9.309874999999999545e+01 1.929934999999999945e+03
8.000000000000000167e-02 1.240620000000000056e-01 2.682055000000000078e+01 9.765420000000000300e+01 1.931695000000000164e+03
8.100000000000000255e-02 1.241990000000000038e-01 2.875585000000000235e+01 1.020857499999999902e+02 1.933440000000000055e+03
8.200000000000000344e-02 1.243334999999999996e-01 3.062460000000000093e+01 1.063866500000000030e+02 1.935155000000000200e+03
8.300000000000000433e-02 1.244664999999999938e-01 3.242154999999999632e+01 1.105614999999999952e+02 1.936845000000000027e+03
8.400000000000000522e-02 1.245954999999999979e-01 3.414549999999999841e+01 1.146219999999999999e+02 1.938509999999999991e+03
8.500000000000000611e-02 1.247225000000000000e-01 3.579865000000000208e+01 1.185879999999999939e+02 1.940135000000000218e+03
8.600000000000000699e-02 1.248469999999999996e-01 3.738524999999999920e+01 1.224815000000000111e+02 1.941735000000000127e+03
8.700000000000000788e-02 1.249695000000000111e-01 3.891094999999999970e+01 1.263239999999999839e+02 1.943319999999999936e+03
8.800000000000000877e-02 1.250910000000000077e-01 4.038134999999999764e+01 1.301345000000000027e+02 1.944884999999999991e+03
8.899999999999999578e-02 1.252115000000000034e-01 4.180160000000000053e+01 1.339284999999999854e+02 1.946444999999999936e+03
8.999999999999999667e-02 1.253309999999999980e-01 4.317535000000000167e+01 1.377124999999999773e+02 1.947994999999999891e+03
9.099999999999999756e-02 1.254500000000000060e-01 4.450454999999999472e+01 1.414894999999999925e+02 1.949539999999999964e+03
9.199999999999999845e-02 1.255689999999999862e-01 4.578875000000000028e+01 1.452535000000000025e+02 1.951079999999999927e+03
9.299999999999999933e-02 1.256869999999999932e-01 4.702555000000000263e+01 1.489895000000000209e+02 1.952615000000000009e+03
9.400000000000000022e-02 1.258039999999999992e-01 4.821030000000000371e+01 1.526795000000000186e+02 1.954139999999999873e+03
9.500000000000000111e-02 1.259200000000000041e-01 4.933644999999999925e+01 1.562994999999999948e+02 1.955644999999999982e+03
9.600000000000000200e-02 1.260330000000000061e-01 5.039610000000000412e+01 1.598220000000000027e+02 1.957130000000000109e+03
9.700000000000000289e-02 1.261440000000000061e-01 5.138030000000000541e+01 1.632164999999999964e+02 1.958574999999999818e+03
9.800000000000000377e-02 1.262504999999999877e-01 5.227949999999999875e+01 1.664544999999999959e+02 1.959974999999999909e+03
9.900000000000000466e-02 1.263529999999999931e-01 5.308404999999999774e+01 1.695049999999999955e+02 1.961319999999999936e+03
1.000000000000000056e-01 1.264500000000000068e-01 5.378490000000000038e+01 1.723425000000000011e+02 1.962599999999999909e+03
1.010000000000000064e-01 1.265415000000000012e-01 5.437369999999999948e+01 1.749424999999999955e+02 1.963799999999999955e+03
1.020000000000000073e-01 1.266255000000000019e-01 5.484340000000000259e+01 1.772849999999999966e+02 1.964914999999999964e+03
1.030000000000000082e-01 1.267024999999999957e-01 5.518859999999999388e+01 1.793534999999999968e+02 1.965934999999999945e+03
1.040000000000000091e-01 1.267714999999999814e-01 5.540569999999999595e+01 1.811394999999999982e+02 1.966855000000000018e+03
1.050000000000000100e-01 1.268325000000000147e-01 5.549320000000000164e+01 1.826374999999999886e+02 1.967664999999999964e+03
1.059999999999999970e-01 1.268854999999999844e-01 5.545194999999999652e+01 1.838475000000000250e+02 1.968369999999999891e+03
1.069999999999999979e-01 1.269295000000000007e-01 5.528504999999999825e+01 1.847760000000000105e+02 1.968965000000000146e+03
1.079999999999999988e-01 1.269649999999999945e-01 5.499784999999999968e+01 1.854350000000000023e+02 1.969445000000000164e+03
1.089999999999999997e-01 1.269929999999999948e-01 5.459799999999999898e+01 1.858405000000000200e+02 1.969829999999999927e+03
1.100000000000000006e-01 1.270129999999999870e-01 5.409494999999999720e+01 1.860140000000000100e+02 1.970110000000000127e+03
1.110000000000000014e-01 1.270260000000000000e-01 5.349989999999999668e+01 1.859795000000000016e+02 1.970295000000000073e+03
1.120000000000000023e-01 1.270330000000000070e-01 5.282529999999999859e+01 1.857640000000000100e+02 1.970394999999999982e+03
1.130000000000000032e-01 1.270334999999999936e-01 5.208449999999999847e+01 1.853965000000000032e+02 1.970410000000000082e+03
1.140000000000000041e-01 1.270295000000000174e-01 5.129115000000000180e+01 1.849064999999999941e+02 1.970369999999999891e+03
1.150000000000000050e-01 1.270209999999999950e-01 5.045889999999999986e+01 1.843215000000000146e+02 1.970264999999999873e+03
1.160000000000000059e-01 1.270089999999999830e-01 4.960089999999999577e+01 1.836694999999999993e+02 1.970119999999999891e+03
1.170000000000000068e-01 1.269945000000000102e-01 4.872929999999999495e+01 1.829735000000000014e+02 1.969934999999999945e+03
1.180000000000000077e-01 1.269784999999999942e-01 4.785504999999999853e+01 1.822565000000000168e+02 1.969720000000000027e+03
1.190000000000000085e-01 1.269605000000000039e-01 4.698735000000000639e+01 1.815344999999999800e+02 1.969490000000000009e+03
1.200000000000000094e-01 1.269419999999999993e-01 4.613389999999999702e+01 1.808215000000000146e+02 1.969250000000000000e+03
1.209999999999999964e-01 1.269230000000000080e-01 4.530024999999999835e+01 1.801254999999999882e+02 1.969000000000000000e+03
1.219999999999999973e-01 1.269035000000000024e-01 4.449014999999999986e+01 1.794519999999999982e+02 1.968744999999999891e+03
1.229999999999999982e-01 1.268845000000000112e-01 4.370555000000000234e+01 1.788014999999999759e+02 1.968494999999999891e+03
1.239999999999999991e-01 1.268660000000000065e-01 4.294630000000000081e+01 1.781694999999999993e+02 1.968244999999999891e+03
1.250000000000000000e-01 1.268470000000000153e-01 4.221085000000000065e+01 1.775509999999999877e+02 1.968000000000000000e+03
1.260000000000000009e-01 1.268285000000000107e-01 4.149609999999999843e+01 1.769364999999999952e+02 1.967750000000000000e+03
1.270000000000000018e-01 1.268100000000000060e-01 4.079800000000000182e+01 1.763145000000000095e+02 1.967500000000000000e+03
1.280000000000000027e-01 1.267909999999999870e-01 4.011135000000000161e+01 1.756725000000000136e+02 1.967250000000000000e+03
1.290000000000000036e-01 1.267714999999999814e-01 3.943059999999999832e+01 1.749979999999999905e+02 1.966985000000000127e+03
1.300000000000000044e-01 1.267510000000000026e-01 3.874994999999999834e+01 1.742769999999999868e+02 1.966715000000000146e+03
1.310000000000000053e-01 1.267285000000000217e-01 3.806360000000000099e+01 1.734984999999999786e+02 1.966420000000000073e+03
1.320000000000000062e-01 1.267044999999999977e-01 3.736620000000000630e+01 1.726504999999999939e+02 1.966110000000000127e+03
1.330000000000000071e-01 1.266795000000000004e-01 3.665294999999999703e+01 1.717245000000000061e+02 1.965775000000000091e+03
1.340000000000000080e-01 1.266510000000000136e-01 3.592009999999999792e+01 1.707144999999999868e+02 1.965404999999999973e+03
1.350000000000000089e-01 1.266214999999999979e-01 3.516490000000000293e+01 1.696165000000000020e+02 1.965015000000000100e+03
1.360000000000000098e-01 1.265884999999999927e-01 3.438575000000000159e+01 1.684289999999999736e+02 1.964579999999999927e+03
1.370000000000000107e-01 1.265529999999999988e-01 3.358270000000000266e+01 1.671550000000000011e+02 1.964119999999999891e+03
1.380000000000000115e-01 1.265155000000000030e-01 3.275695000000000334e+01 1.658009999999999877e+02 1.963634999999999991e+03
1.390000000000000124e-01 1.264754999999999907e-01 3.191114999999999924e+01 1.643754999999999882e+02 1.963110000000000127e+03
1.400000000000000133e-01 1.264335000000000042e-01 3.104939999999999856e+01 1.628899999999999864e+02 1.962559999999999945e+03
1.410000000000000142e-01 1.263894999999999880e-01 3.017685000000000173e+01 1.613595000000000255e+02 1.961994999999999891e+03
1.420000000000000151e-01 1.263440000000000119e-01 2.929974999999999952e+01 1.597990000000000066e+02 1.961400000000000091e+03
1.430000000000000160e-01 1.262980000000000214e-01 2.842515000000000214e+01 1.582280000000000086e+02 1.960799999999999955e+03
1.440000000000000169e-01 1.262510000000000021e-01 2.756050000000000111e+01 1.566645000000000039e+02 1.960190000000000055e+03
1.450000000000000178e-01 1.262044999999999972e-01 2.671365000000000123e+01 1.551270000000000095e+02 1.959574999999999818e+03
1.459999999999999909e-01 1.261579999999999924e-01 2.589229999999999876e+01 1.536340000000000146e+02 1.958974999999999909e+03
1.469999999999999918e-01 1.261125000000000163e-01 2.510379999999999967e+01 1.522029999999999745e+02 1.958380000000000109e+03
1.479999999999999927e-01 1.260685000000000000e-01 2.435495000000000232e+01 1.508489999999999895e+02 1.957805000000000064e+03
1.489999999999999936e-01 1.260270000000000001e-01 2.365145000000000053e+01 1.495844999999999914e+02 1.957259999999999991e+03
1.499999999999999944e-01 1.259875000000000023e-01 2.299830000000000041e+01 1.484200000000000159e+02 1.956744999999999891e+03
1.509999999999999953e-01 1.259504999999999930e-01 2.239904999999999902e+01 1.473625000000000114e+02 1.956259999999999991e+03
1.519999999999999962e-01 1.259170000000000011e-01 2.185600000000000165e+01 1.464155000000000086e+02 1.955815000000000055e+03
1.529999999999999971e-01 1.258859999999999979e-01 2.137010000000000076e+01 1.455810000000000173e+02 1.955404999999999973e+03
1.539999999999999980e-01 1.258579999999999977e-01 2.094115000000000038e+01 1.448569999999999993e+02 1.955039999999999964e+03
1.549999999999999989e-01 1.258330000000000004e-01 2.056765000000000043e+01 1.442384999999999877e+02 1.954710000000000036e+03
1.559999999999999998e-01 1.258114999999999928e-01 2.024705000000000155e+01 1.437180000000000177e+02 1.954429999999999836e+03
1.570000000000000007e-01 1.257929999999999882e-01 1.997589999999999932e+01 1.432889999999999873e+02 1.954180000000000064e+03
1.580000000000000016e-01 1.257769999999999999e-01 1.974989999999999668e+01 1.429399999999999977e+02 1.953965000000000146e+03
1.590000000000000024e-01 1.257635000000000003e-01 1.956434999999999746e+01 1.426610000000000014e+02 1.953785000000000082e+03
