# t [s], A [cm^2], U [cm/s], P [cPa], c [cm/s]
1.000000000000000021e-03 1.762829999999999953e-01 3.036958999999999631e-01 1.038000000000000114e+02 2.351324999999999818e+03
2.000000000000000042e-03 1.762255000000000071e-01 1.895136500000000224e+00 9.988155000000000427e+01 2.350710000000000036e+03
3.000000000000000062e-03 1.760869999999999935e-01 3.915760500000000199e+00 9.424545000000000528e+01 2.349305000000000291e+03
4.000000000000000083e-03 1.759094999999999964e-01 6.235524500000000359e+00 8.823134999999999195e+01 2.347524999999999636e+03
5.000000000000000104e-03 1.757289999999999963e-01 8.729710000000000747e+00 8.302750000000000341e+01 2.345730000000000018e+03
6.000000000000000125e-03 1.755609999999999948e-01 1.110015500000000088e+01 7.878719999999999857e+01 2.344095000000000255e+03
7.000000000000000146e-03 1.754054999999999920e-01 1.308297999999999917e+01 7.502410000000000423e+01 2.342619999999999891e+03
8.000000000000000167e-03 1.752690000000000081e-01 1.467964999999999876e+01 7.167470000000000141e+01 2.341340000000000146e+03
9.000000000000001055e-03 1.751544999999999908e-01 1.595844999999999914e+01 6.892945000000000277e+01 2.340289999999999964e+03
1.000000000000000194e-02 1.750634999999999830e-01 1.695120000000000005e+01 6.680500000000000682e+01 2.339460000000000036e+03
1.099999999999999936e-02 1.749944999999999973e-01 1.769105000000000061e+01 6.524054999999999893e+01 2.338835000000000036e+03
1.200000000000000025e-02 1.749419999999999864e-01 1.818189999999999884e+01 6.407699999999999818e+01 2.338375000000000000e+03
1.300000000000000114e-02 1.748999999999999999e-01 1.842539999999999978e+01 6.307415000000000305e+01 2.338010000000000218e+03
1.400000000000000203e-02 1.748660000000000214e-01 1.853280000000000172e+01 6.225119999999999720e+01 2.337724999999999909e+03
1.499999999999999944e-02 1.748509999999999787e-01 1.874425000000000097e+01 6.210540000000000305e+01 2.337605000000000018e+03
1.600000000000000033e-02 1.748684999999999823e-01 1.928869999999999862e+01 6.330879999999999797e+01 2.337770000000000437e+03
1.700000000000000122e-02 1.749269999999999992e-01 2.021640000000000015e+01 6.613245000000000573e+01 2.338305000000000291e+03
1.800000000000000211e-02 1.750200000000000089e-01 2.134844999999999970e+01 7.011289999999999623e+01 2.339159999999999854e+03
1.900000000000000300e-02 1.751254999999999895e-01 2.236800000000000210e+01 7.420040000000000191e+01 2.340144999999999982e+03
2.000000000000000042e-02 1.752170000000000116e-01 2.297910000000000252e+01 7.724684999999999491e+01 2.341030000000000200e+03
2.100000000000000130e-02 1.752739999999999854e-01 2.303790000000000049e+01 7.851845000000000141e+01 2.341605000000000018e+03
2.200000000000000219e-02 1.752890000000000004e-01 2.259725000000000250e+01 7.796795000000000186e+01 2.341789999999999964e+03
2.299999999999999961e-02 1.752684999999999937e-01 2.185535000000000139e+01 7.616614999999998759e+01 2.341630000000000109e+03
2.400000000000000050e-02 1.752289999999999959e-01 2.104865000000000208e+01 7.396869999999999834e+01 2.341275000000000091e+03
2.500000000000000139e-02 1.751870000000000094e-01 2.034550000000000125e+01 7.211199999999999477e+01 2.340880000000000109e+03
2.600000000000000228e-02 1.751535000000000175e-01 1.978894999999999982e+01 7.092905000000000371e+01 2.340559999999999945e+03
2.700000000000000316e-02 1.751304999999999945e-01 1.930330000000000013e+01 7.028589999999999804e+01 2.340329999999999927e+03
2.800000000000000058e-02 1.751099999999999879e-01 1.874974999999999881e+01 6.972585000000000832e+01 2.340140000000000327e+03
2.900000000000000147e-02 1.750829999999999886e-01 1.800384999999999991e+01 6.873085000000000377e+01 2.339894999999999982e+03
3.000000000000000236e-02 1.750404999999999878e-01 1.702234999999999943e+01 6.698909999999999343e+01 2.339505000000000109e+03
3.099999999999999978e-02 1.749809999999999977e-01 1.587659999999999982e+01 6.456610000000000582e+01 2.338960000000000036e+03
3.200000000000000067e-02 1.749120000000000119e-01 1.473695000000000022e+01 6.191289999999999338e+01 2.338320000000000164e+03
3.300000000000000155e-02 1.748480000000000034e-01 1.381589999999999918e+01 5.971080000000000609e+01 2.337720000000000255e+03
3.400000000000000244e-02 1.748049999999999882e-01 1.329410000000000025e+01 5.861930000000000263e+01 2.337295000000000073e+03
3.500000000000000333e-02 1.747950000000000059e-01 1.325905000000000022e+01 5.903674999999999784e+01 2.337175000000000182e+03
3.600000000000000422e-02 1.748230000000000062e-01 1.367934999999999945e+01 6.096359999999999957e+01 2.337399999999999636e+03
3.700000000000000511e-02 1.748839999999999839e-01 1.441719999999999935e+01 6.400589999999999691e+01 2.337940000000000055e+03
3.799999999999999906e-02 1.749650000000000094e-01 1.526965000000000039e+01 6.749694999999999823e+01 2.338679999999999836e+03
3.899999999999999994e-02 1.750484999999999958e-01 1.602035000000000053e+01 7.068090000000000828e+01 2.339454999999999927e+03
4.000000000000000083e-02 1.751179999999999959e-01 1.648644999999999783e+01 7.289374999999999716e+01 2.340114999999999782e+03
4.100000000000000172e-02 1.751590000000000091e-01 1.654919999999999902e+01 7.369530000000000314e+01 2.340519999999999982e+03
4.200000000000000261e-02 1.751624999999999988e-01 1.616460000000000008e+01 7.292500000000001137e+01 2.340585000000000036e+03
4.300000000000000350e-02 1.751280000000000059e-01 1.535494999999999877e+01 7.068269999999999698e+01 2.340289999999999964e+03
4.400000000000000439e-02 1.750585000000000058e-01 1.418854999999999933e+01 6.725364999999999327e+01 2.339654999999999745e+03
4.499999999999999833e-02 1.749605000000000188e-01 1.275497999999999976e+01 6.300974999999999682e+01 2.338755000000000109e+03
4.599999999999999922e-02 1.748429999999999984e-01 1.114493000000000045e+01 5.831889999999999930e+01 2.337664999999999964e+03
4.700000000000000011e-02 1.747144999999999948e-01 9.437900000000000844e+00 5.348659999999999570e+01 2.336469999999999800e+03
4.800000000000000100e-02 1.745815000000000006e-01 7.699215000000000586e+00 4.873519999999999897e+01 2.335224999999999909e+03
4.900000000000000189e-02 1.744499999999999940e-01 5.984040000000000248e+00 4.421569999999999823e+01 2.333989999999999782e+03
5.000000000000000278e-02 1.743234999999999923e-01 4.343798000000000492e+00 4.003799999999999670e+01 2.332800000000000182e+03
5.100000000000000366e-02 1.742059999999999997e-01 2.832479000000000191e+00 3.630330000000000013e+01 2.331694999999999709e+03
5.200000000000000455e-02 1.741019999999999790e-01 1.509535000000000071e+00 3.312734999999999985e+01 2.330704999999999927e+03
5.300000000000000544e-02 1.740140000000000020e-01 4.386650000000000826e-01 3.064705000000000013e+01 2.329864999999999782e+03
5.399999999999999939e-02 1.739479999999999915e-01 -3.170149999999999357e-01 2.901249999999999574e+01 2.329225000000000364e+03
5.500000000000000028e-02 1.739064999999999916e-01 -7.019974999999999410e-01 2.836614999999999753e+01 2.328810000000000400e+03
5.600000000000000117e-02 1.738939999999999930e-01 -6.755234999999999435e-01 2.881900000000000261e+01 2.328670000000000073e+03
5.700000000000000205e-02 1.739129999999999843e-01 -2.171060000000000212e-01 3.042940000000000111e+01 2.328815000000000055e+03
5.800000000000000294e-02 1.739640000000000075e-01 6.706750000000000211e-01 3.319055000000000177e+01 2.329260000000000218e+03
5.900000000000000383e-02 1.740470000000000073e-01 1.962362999999999857e+00 3.702824999999999989e+01 2.330005000000000109e+03
6.000000000000000472e-02 1.741595000000000226e-01 3.612340000000000106e+00 4.180835000000000434e+01 2.331025000000000091e+03
6.099999999999999867e-02 1.742970000000000075e-01 5.559180000000000454e+00 4.735079999999999956e+01 2.332295000000000073e+03
6.199999999999999956e-02 1.744545000000000123e-01 7.730859999999999843e+00 5.344675000000000153e+01 2.333755000000000109e+03
6.300000000000000044e-02 1.746280000000000054e-01 1.004998999999999931e+01 5.987655000000000172e+01 2.335364999999999782e+03
6.400000000000000133e-02 1.748095000000000065e-01 1.243933999999999962e+01 6.642644999999998845e+01 2.337065000000000055e+03
6.500000000000000222e-02 1.749944999999999973e-01 1.482659999999999911e+01 7.290344999999999231e+01 2.338805000000000291e+03
6.600000000000000311e-02 1.751774999999999860e-01 1.714904999999999902e+01 7.914820000000000277e+01 2.340539999999999964e+03
6.700000000000000400e-02 1.753549999999999831e-01 1.935719999999999885e+01 8.504474999999999341e+01 2.342224999999999909e+03
6.800000000000000488e-02 1.755240000000000133e-01 2.141734999999999900e+01 9.052649999999999864e+01 2.343829999999999927e+03
6.900000000000000577e-02 1.756820000000000048e-01 2.331264999999999787e+01 9.557800000000000296e+01 2.345350000000000364e+03
7.000000000000000666e-02 1.758299999999999863e-01 2.504230000000000089e+01 1.002292499999999933e+02 2.346769999999999982e+03
7.100000000000000755e-02 1.759684999999999999e-01 2.661890000000000001e+01 1.045483499999999992e+02 2.348100000000000364e+03
7.200000000000000844e-02 1.760990000000000055e-01 2.806519999999999726e+01 1.086274999999999977e+02 2.349360000000000127e+03
7.300000000000000933e-02 1.762239999999999918e-01 2.940915000000000035e+01 1.125680000000000121e+02 2.350565000000000055e+03
7.399999999999999634e-02 1.763460000000000027e-01 3.067999999999999972e+01 1.164660000000000082e+02 2.351739999999999782e+03
7.499999999999999722e-02 1.764669999999999850e-01 3.190429999999999922e+01 1.204014999999999986e+02 2.352909999999999854e+03
7.599999999999999811e-02 1.765895000000000103e-01 3.310300000000000153e+01 1.244284999999999854e+02 2.354085000000000036e+03
7.699999999999999900e-02 1.767134999999999956e-01 3.428955000000000553e+01 1.285720000000000027e+02 2.355279999999999745e+03
7.799999999999999989e-02 1.768405000000000116e-01 3.546940000000000026e+01 1.328290000000000077e+02 2.356500000000000000e+03
7.900000000000000078e-02 1.769705000000000028e-01 3.663989999999999725e+01 1.371680000000000064e+02 2.357744999999999891e+03
8.000000000000000167e-02 1.771010000000000084e-01 3.779129999999999967e+01 1.415384999999999991e+02 2.359000000000000000e+03
8.100000000000000255e-02 1.772314999999999863e-01 3.890819999999999368e+01 1.458725000000000023e+02 2.360260000000000218e+03
8.200000000000000344e-02 1.773599999999999899e-01 3.997074999999999534e+01 1.500955000000000155e+02 2.361500000000000000e+03
8.300000000000000433e-02 1.774840000000000029e-01 4.095674999999999955e+01 1.541274999999999977e+02 2.362704999999999927e+03
8.400000000000000522e-02 1.776030000000000109e-01 4.184290000000000020e+01 1.578915000000000077e+02 2.363849999999999909e+03
8.500000000000000611e-02 1.777130000000000098e-01 4.260690000000000310e+01 1.613165000000000191e+02 2.364920000000000073e+03
8.600000000000000699e-02 1.778124999999999845e-01 4.322840000000000060e+01 1.643425000000000011e+02 2.365894999999999982e+03
8.700000000000000788e-02 1.779009999999999758e-01 4.369084999999999752e+01 1.669219999999999970e+02 2.366755000000000109e+03
8.800000000000000877e-02 1.779764999999999819e-01 4.398229999999999507e+01 1.690219999999999914e+02 2.367494999999999891e+03
8.899999999999999578e-02 1.780380000000000018e-01 4.409664999999999679e+01 1.706289999999999907e+02 2.368105000000000018e+03
8.999999999999999667e-02 1.780855000000000077e-01 4.403395000000000437e+01 1.717464999999999975e+02 2.368579999999999927e+03
9.099999999999999756e-02 1.781194999999999862e-01 4.380089999999999861e+01 1.723960000000000150e+02 2.368925000000000182e+03
9.199999999999999845e-02 1.781399999999999928e-01 4.341004999999999825e+01 1.726154999999999973e+02 2.369140000000000327e+03
9.299999999999999933e-02 1.781490000000000018e-01 4.287945000000000562e+01 1.724574999999999818e+02 2.369239999999999782e+03
9.400000000000000022e-02 1.781475000000000142e-01 4.223125000000000284e+01 1.719850000000000136e+02 2.369235000000000127e+03
9.500000000000000111e-02 1.781369999999999898e-01 4.149049999999999727e+01 1.712669999999999959e+02 2.369144999999999982e+03
9.600000000000000200e-02 1.781194999999999862e-01 4.068349999999999511e+01 1.703739999999999952e+02 2.368984999999999673e+03
9.700000000000000289e-02 1.780975000000000197e-01 3.983669999999999334e+01 1.693760000000000048e+02 2.368784999999999854e+03
9.800000000000000377e-02 1.780720000000000081e-01 3.897494999999999976e+01 1.683354999999999961e+02 2.368539999999999964e+03
9.900000000000000466e-02 1.780454999999999954e-01 3.812064999999999770e+01 1.673079999999999927e+02 2.368284999999999854e+03
1.000000000000000056e-01 1.780184999999999962e-01 3.729294999999999760e+01 1.663380000000000223e+02 2.368029999999999745e+03
1.010000000000000064e-01 1.779930000000000123e-01 3.650654999999999717e+01 1.654590000000000032e+02 2.367779999999999745e+03
1.020000000000000073e-01 1.779695000000000027e-01 3.577145000000000152e+01 1.646915000000000191e+02 2.367550000000000182e+03
1.030000000000000082e-01 1.779489999999999961e-01 3.509274999999999523e+01 1.640405000000000086e+02 2.367345000000000255e+03
1.040000000000000091e-01 1.779304999999999914e-01 3.447015000000000384e+01 1.635004999999999882e+02 2.367164999999999964e+03
1.050000000000000100e-01 1.779149999999999898e-01 3.389855000000000018e+01 1.630515000000000043e+02 2.367015000000000327e+03
1.059999999999999970e-01 1.779020000000000046e-01 3.336844999999999573e+01 1.626620000000000061e+02 2.366875000000000000e+03
1.069999999999999979e-01 1.778895000000000060e-01 3.286655000000000371e+01 1.622940000000000111e+02 2.366750000000000000e+03
1.079999999999999988e-01 1.778770000000000073e-01 3.237695000000000078e+01 1.619005000000000223e+02 2.366635000000000218e+03
1.089999999999999997e-01 1.778635000000000077e-01 3.188255000000000194e+01 1.614350000000000023e+02 2.366494999999999891e+03
1.100000000000000006e-01 1.778474999999999917e-01 3.136594999999999800e+01 1.608489999999999895e+02 2.366340000000000146e+03
1.110000000000000014e-01 1.778274999999999995e-01 3.081130000000000280e+01 1.601014999999999873e+02 2.366150000000000091e+03
1.120000000000000023e-01 1.778029999999999888e-01 3.020519999999999783e+01 1.591589999999999918e+02 2.365920000000000073e+03
1.130000000000000032e-01 1.777730000000000143e-01 2.953764999999999930e+01 1.579984999999999786e+02 2.365630000000000109e+03
1.140000000000000041e-01 1.777370000000000061e-01 2.880330000000000013e+01 1.566100000000000136e+02 2.365284999999999854e+03
1.150000000000000050e-01 1.776945000000000052e-01 2.800150000000000006e+01 1.549979999999999905e+02 2.364885000000000218e+03
1.160000000000000059e-01 1.776464999999999850e-01 2.713660000000000139e+01 1.531814999999999998e+02 2.364420000000000073e+03
1.170000000000000068e-01 1.775919999999999999e-01 2.621779999999999688e+01 1.511915000000000191e+02 2.363904999999999745e+03
1.180000000000000077e-01 1.775339999999999974e-01 2.525849999999999795e+01 1.490704999999999814e+02 2.363350000000000364e+03
1.190000000000000085e-01 1.774724999999999775e-01 2.427544999999999931e+01 1.468704999999999927e+02 2.362760000000000218e+03
1.200000000000000094e-01 1.774084999999999968e-01 2.328784999999999883e+01 1.446465000000000032e+02 2.362149999999999636e+03
1.209999999999999964e-01 1.773444999999999883e-01 2.231569999999999965e+01 1.424579999999999984e+02 2.361534999999999854e+03
1.219999999999999973e-01 1.772819999999999951e-01 2.137910000000000110e+01 1.403605000000000018e+02 2.360930000000000291e+03
1.229999999999999982e-01 1.772225000000000050e-01 2.049680000000000035e+01 1.384050000000000011e+02 2.360355000000000018e+03
1.239999999999999991e-01 1.771665000000000045e-01 1.968489999999999895e+01 1.366340000000000146e+02 2.359814999999999600e+03
1.250000000000000000e-01 1.771155000000000090e-01 1.895645000000000024e+01 1.350805000000000007e+02 2.359324999999999818e+03
1.260000000000000009e-01 1.770709999999999784e-01 1.832070000000000221e+01 1.337660000000000196e+02 2.358889999999999873e+03
1.270000000000000018e-01 1.770329999999999959e-01 1.778289999999999793e+01 1.327005000000000052e+02 2.358515000000000327e+03
1.280000000000000027e-01 1.770025000000000071e-01 1.734430000000000049e+01 1.318824999999999932e+02 2.358210000000000036e+03
1.290000000000000036e-01 1.769780000000000242e-01 1.700250000000000128e+01 1.313015000000000043e+02 2.357970000000000255e+03
1.300000000000000044e-01 1.769600000000000062e-01 1.675185000000000102e+01 1.309390000000000214e+02 2.357789999999999964e+03
1.310000000000000053e-01 1.769485000000000086e-01 1.658409999999999940e+01 1.307699999999999818e+02 2.357664999999999964e+03
1.320000000000000062e-01 1.769425000000000026e-01 1.648890000000000100e+01 1.307655000000000030e+02 2.357600000000000364e+03
1.330000000000000071e-01 1.769405000000000006e-01 1.645475000000000065e+01 1.308949999999999818e+02 2.357574999999999818e+03
1.340000000000000080e-01 1.769419999999999882e-01 1.646924999999999883e+01 1.311250000000000000e+02 2.357590000000000146e+03
1.350000000000000089e-01 1.769470000000000209e-01 1.651980000000000004e+01 1.314259999999999877e+02 2.357630000000000109e+03
1.360000000000000098e-01 1.769540000000000002e-01 1.659430000000000049e+01 1.317674999999999841e+02 2.357689999999999600e+03
1.370000000000000107e-01 1.769625000000000226e-01 1.668124999999999858e+01 1.321235000000000070e+02 2.357769999999999982e+03
1.380000000000000115e-01 1.769709999999999894e-01 1.677045000000000030e+01 1.324705000000000155e+02 2.357850000000000364e+03
1.390000000000000124e-01 1.769795000000000118e-01 1.685309999999999775e+01 1.327895000000000039e+02 2.357930000000000291e+03
1.400000000000000133e-01 1.769875000000000198e-01 1.692210000000000036e+01 1.330665000000000191e+02 2.358010000000000218e+03
1.410000000000000142e-01 1.769944999999999991e-01 1.697234999999999872e+01 1.332909999999999968e+02 2.358074999999999818e+03
1.420000000000000151e-01 1.770005000000000051e-01 1.700065000000000026e+01 1.334590000000000032e+02 2.358130000000000109e+03
1.430000000000000160e-01 1.770045000000000091e-01 1.700600000000000023e+01 1.335704999999999814e+02 2.358175000000000182e+03
1.440000000000000169e-01 1.770074999999999843e-01 1.698899999999999721e+01 1.336309999999999718e+02 2.358204999999999927e+03
1.450000000000000178e-01 1.770089999999999997e-01 1.695220000000000127e+01 1.336479999999999961e+02 2.358219999999999800e+03
1.459999999999999909e-01 1.770100000000000007e-01 1.689939999999999998e+01 1.336340000000000146e+02 2.358230000000000018e+03
1.469999999999999918e-01 1.770094999999999863e-01 1.683530000000000015e+01 1.336034999999999968e+02 2.358235000000000127e+03
1.479999999999999927e-01 1.770094999999999863e-01 1.676504999999999868e+01 1.335699999999999932e+02 2.358230000000000018e+03
1.489999999999999936e-01 1.770094999999999863e-01 1.669399999999999906e+01 1.335480000000000018e+02 2.358225000000000364e+03
1.499999999999999944e-01 1.770089999999999997e-01 1.662679999999999936e+01 1.335489999999999782e+02 2.358230000000000018e+03
1.509999999999999953e-01 1.770100000000000007e-01 1.656750000000000256e+01 1.335829999999999984e+02 2.358239999999999782e+03
1.519999999999999962e-01 1.770114999999999883e-01 1.651910000000000167e+01 1.336550000000000011e+02 2.358255000000000109e+03
1.529999999999999971e-01 1.770144999999999913e-01 1.648329999999999984e+01 1.337680000000000007e+02 2.358275000000000091e+03
1.539999999999999980e-01 1.770180000000000087e-01 1.646069999999999922e+01 1.339205000000000041e+02 2.358309999999999945e+03
1.549999999999999989e-01 1.770224999999999993e-01 1.645070000000000121e+01 1.341084999999999923e+02 2.358355000000000018e+03
1.559999999999999998e-01 1.770284999999999775e-01 1.645179999999999865e+01 1.343240000000000123e+02 2.358404999999999745e+03
1.570000000000000007e-01 1.770349999999999979e-01 1.646160000000000068e+01 1.345600000000000023e+02 2.358470000000000255e+03
1.580000000000000016e-01 1.770415000000000183e-01 1.647744999999999749e+01 1.348070000000000164e+02 2.358534999999999854e+03
1.590000000000000024e-01 1.770484999999999975e-01 1.649624999999999986e+01 1.350550000000000068e+02 2.358595000000000255e+03
