# t [s], A [cm^2], U [cm/s], P [cPa], c [cm/s]
1.000000000000000021e-03 6.936344999999999317e-01 5.652000000000004243e-03 9.022239999999999327e+01 1.696579999999999927e+03
2.000000000000000042e-03 6.936229999999999896e-01 -1.558640000000000025e-03 9.018885000000000218e+01 1.696574999999999818e+03
3.000000000000000062e-03 6.936900000000000288e-01 1.172957000000000027e-01 9.031985000000000241e+01 1.696599999999999909e+03
4.000000000000000083e-03 6.937349999999999905e-01 2.145418499999999784e-01 9.043655000000001110e+01 1.696625000000000000e+03
5.000000000000000104e-03 6.936830000000000496e-01 1.574280000000000124e-01 9.031094999999999118e+01 1.696605000000000018e+03
6.000000000000000125e-03 6.936010000000000231e-01 4.100299999999995615e-02 9.001904999999999291e+01 1.696545000000000073e+03
7.000000000000000146e-03 6.935270000000000046e-01 -7.380050000000004662e-02 8.966175000000001205e+01 1.696470000000000027e+03
8.000000000000000167e-03 6.933949999999999836e-01 -3.051150000000000251e-01 8.910120000000000573e+01 1.696355000000000018e+03
9.000000000000001055e-03 6.931875000000000675e-01 -6.868849999999999678e-01 8.825390000000000157e+01 1.696190000000000055e+03
1.000000000000000194e-02 6.929009999999999891e-01 -1.218960000000000043e+00 8.707595000000000596e+01 1.695950000000000045e+03
1.099999999999999936e-02 6.925075000000000536e-01 -1.933634999999999993e+00 8.547910000000000252e+01 1.695630000000000109e+03
1.200000000000000025e-02 6.920129999999999892e-01 -2.801919999999999966e+00 8.344675000000000864e+01 1.695204999999999927e+03
1.300000000000000114e-02 6.914875000000000327e-01 -3.672495000000000065e+00 8.114605000000000246e+01 1.694714999999999918e+03
1.400000000000000203e-02 6.910250000000000004e-01 -4.341867500000000213e+00 7.887075000000000102e+01 1.694210000000000036e+03
1.499999999999999944e-02 6.906849999999999934e-01 -4.667405500000000096e+00 7.688415000000000532e+01 1.693740000000000009e+03
1.600000000000000033e-02 6.904660000000000242e-01 -4.623689999999999856e+00 7.530419999999999447e+01 1.693345000000000027e+03
1.700000000000000122e-02 6.903179999999999872e-01 -4.288800000000000168e+00 7.408310000000000173e+01 1.693005000000000109e+03
1.800000000000000211e-02 6.901755000000000528e-01 -3.793080000000000229e+00 7.305789999999998940e+01 1.692710000000000036e+03
1.900000000000000300e-02 6.899815000000000254e-01 -3.261060000000000070e+00 7.203329999999999700e+01 1.692414999999999964e+03
2.000000000000000042e-02 6.897109999999999630e-01 -2.766628499999999935e+00 7.086209999999999809e+01 1.692099999999999909e+03
2.100000000000000130e-02 6.893745000000000012e-01 -2.315774999999999917e+00 6.949469999999999459e+01 1.691750000000000000e+03
2.200000000000000219e-02 6.890064999999999662e-01 -1.862160000000000037e+00 6.797929999999999495e+01 1.691365000000000009e+03
2.299999999999999961e-02 6.886459999999999804e-01 -1.345320000000000071e+00 6.641835000000000377e+01 1.690974999999999909e+03
2.400000000000000050e-02 6.883155000000000800e-01 -7.305500000000002547e-01 6.490654999999999575e+01 1.690590000000000146e+03
2.500000000000000139e-02 6.880150000000000432e-01 -3.325000000000022382e-02 6.348110000000000497e+01 1.690214999999999918e+03
2.600000000000000228e-02 6.877159999999999940e-01 6.782149999999997902e-01 6.209895000000000209e+01 1.689855000000000018e+03
2.700000000000000316e-02 6.873759999999999870e-01 1.297965000000000035e+00 6.064415000000000333e+01 1.689474999999999909e+03
2.800000000000000058e-02 6.869499999999999496e-01 1.709660000000000180e+00 5.895964999999999634e+01 1.689054999999999836e+03
2.900000000000000147e-02 6.864025000000000265e-01 1.817640000000000366e+00 5.689365000000000094e+01 1.688565000000000055e+03
3.000000000000000236e-02 6.857219999999999427e-01 1.573820000000000441e+00 5.434834999999999638e+01 1.687985000000000127e+03
3.099999999999999978e-02 6.849239999999999773e-01 9.917950000000002042e-01 5.131475000000000364e+01 1.687304999999999836e+03
3.200000000000000067e-02 6.840485000000000593e-01 1.431599999999999540e-01 4.788374999999999915e+01 1.686539999999999964e+03
3.300000000000000155e-02 6.831519999999999815e-01 -8.616900000000002890e-01 4.422800000000000153e+01 1.685715000000000146e+03
3.400000000000000244e-02 6.822930000000000383e-01 -1.899924999999999642e+00 4.056680000000000064e+01 1.684880000000000109e+03
3.500000000000000333e-02 6.815204999999999735e-01 -2.859809999999999519e+00 3.712474999999999881e+01 1.684085000000000036e+03
3.600000000000000422e-02 6.808724999999999916e-01 -3.656375000000000153e+00 3.409745000000000203e+01 1.683355000000000018e+03
3.700000000000000511e-02 6.803695000000000714e-01 -4.236799999999999677e+00 3.162989999999999924e+01 1.682735000000000127e+03
3.799999999999999906e-02 6.800180000000000113e-01 -4.578117999999999910e+00 2.980865000000000009e+01 1.682250000000000000e+03
3.899999999999999994e-02 6.798155000000000170e-01 -4.679294999999999760e+00 2.866554999999999964e+01 1.681910000000000082e+03
4.000000000000000083e-02 6.797530000000000516e-01 -4.551529999999999632e+00 2.819034999999999869e+01 1.681724999999999909e+03
4.100000000000000172e-02 6.798189999999999511e-01 -4.208874999999999922e+00 2.834655000000000058e+01 1.681675000000000182e+03
4.200000000000000261e-02 6.800040000000000529e-01 -3.661937999999999693e+00 2.908699999999999974e+01 1.681775000000000091e+03
4.300000000000000350e-02 6.803019999999999623e-01 -2.915694999999999926e+00 3.036460000000000292e+01 1.681994999999999891e+03
4.400000000000000439e-02 6.807054999999999634e-01 -1.971375000000000099e+00 3.213685000000000258e+01 1.682345000000000027e+03
4.499999999999999833e-02 6.812089999999999534e-01 -8.309299999999999464e-01 3.436455000000000126e+01 1.682804999999999836e+03
4.599999999999999922e-02 6.818049999999999944e-01 4.978000000000002423e-01 3.700674999999999670e+01 1.683360000000000127e+03
4.700000000000000011e-02 6.824820000000000331e-01 1.997339999999999893e+00 4.001510000000000389e+01 1.684009999999999991e+03
4.800000000000000100e-02 6.832240000000000535e-01 3.639149999999999885e+00 4.332999999999999829e+01 1.684740000000000009e+03
4.900000000000000189e-02 6.840129999999999821e-01 5.384764999999999802e+00 4.687989999999999924e+01 1.685534999999999854e+03
5.000000000000000278e-02 6.848294999999999799e-01 7.189219999999999722e+00 5.058405000000000484e+01 1.686375000000000000e+03
5.100000000000000366e-02 6.856519999999999282e-01 9.005184499999998593e+00 5.435725000000000051e+01 1.687240000000000009e+03
5.200000000000000455e-02 6.864630000000000454e-01 1.078749999999999964e+01 5.811699999999999733e+01 1.688115000000000009e+03
5.300000000000000544e-02 6.872475000000000112e-01 1.249713999999999992e+01 6.178955000000000553e+01 1.688980000000000018e+03
5.399999999999999939e-02 6.879939999999999944e-01 1.410355500000000006e+01 6.531544999999999845e+01 1.689825000000000045e+03
5.500000000000000028e-02 6.886965000000000447e-01 1.558601999999999954e+01 6.865260000000000673e+01 1.690640000000000100e+03
5.600000000000000117e-02 6.893519999999999648e-01 1.693345000000000056e+01 7.177800000000000580e+01 1.691409999999999854e+03
5.700000000000000205e-02 6.899634999999999518e-01 1.814314999999999856e+01 7.468610000000001037e+01 1.692139999999999873e+03
5.800000000000000294e-02 6.905339999999999812e-01 1.921965000000000146e+01 7.738734999999999786e+01 1.692820000000000164e+03
5.900000000000000383e-02 6.910705000000000320e-01 2.017264999999999731e+01 7.990440000000000964e+01 1.693465000000000146e+03
6.000000000000000472e-02 6.915805000000000424e-01 2.101590000000000202e+01 8.226895000000000380e+01 1.694075000000000045e+03
6.099999999999999867e-02 6.920725000000000904e-01 2.176520000000000010e+01 8.451814999999999145e+01 1.694650000000000091e+03
6.199999999999999956e-02 6.925544999999999618e-01 2.243759999999999977e+01 8.669105000000000416e+01 1.695210000000000036e+03
6.300000000000000044e-02 6.930344999999999978e-01 2.304994999999999905e+01 8.882560000000000855e+01 1.695750000000000000e+03
6.400000000000000133e-02 6.935189999999999966e-01 2.361759999999999948e+01 9.095525000000000659e+01 1.696295000000000073e+03
6.500000000000000222e-02 6.940129999999999910e-01 2.415330000000000155e+01 9.310660000000000025e+01 1.696835000000000036e+03
6.600000000000000311e-02 6.945179999999999687e-01 2.466595000000000226e+01 9.529654999999999632e+01 1.697384999999999991e+03
6.700000000000000400e-02 6.950349999999999584e-01 2.516009999999999991e+01 9.753145000000000664e+01 1.697934999999999945e+03
6.800000000000000488e-02 6.955599999999999561e-01 2.563575000000000159e+01 9.980570000000000164e+01 1.698505000000000109e+03
6.900000000000000577e-02 6.960895000000000277e-01 2.608830000000000027e+01 1.021032000000000011e+02 1.699069999999999936e+03
7.000000000000000666e-02 6.966155000000000541e-01 2.650965000000000060e+01 1.043975000000000080e+02 1.699639999999999873e+03
7.100000000000000755e-02 6.971304999999999863e-01 2.688909999999999911e+01 1.066574999999999989e+02 1.700200000000000045e+03
7.200000000000000844e-02 6.976264999999999272e-01 2.721430000000000149e+01 1.088444999999999965e+02 1.700750000000000000e+03
7.300000000000000933e-02 6.980939999999999923e-01 2.747305000000000064e+01 1.109205000000000041e+02 1.701264999999999873e+03
7.399999999999999634e-02 6.985250000000000625e-01 2.765364999999999895e+01 1.128489999999999895e+02 1.701759999999999991e+03
7.499999999999999722e-02 6.989140000000000352e-01 2.774645000000000294e+01 1.145970000000000084e+02 1.702210000000000036e+03
7.599999999999999811e-02 6.992555000000000298e-01 2.774374999999999858e+01 1.161375000000000028e+02 1.702619999999999891e+03
7.699999999999999900e-02 6.995454999999999313e-01 2.764090000000000202e+01 1.174495000000000005e+02 1.702970000000000027e+03
7.799999999999999989e-02 6.997809999999999864e-01 2.743589999999999662e+01 1.185210000000000008e+02 1.703269999999999982e+03
7.900000000000000078e-02 6.999630000000000019e-01 2.712980000000000302e+01 1.193474999999999966e+02 1.703509999999999991e+03
8.000000000000000167e-02 7.000925000000000065e-01 2.672664999999999935e+01 1.199320000000000022e+02 1.703690000000000055e+03
8.100000000000000255e-02 7.001724999999999755e-01 2.623335000000000150e+01 1.202839999999999918e+02 1.703815000000000055e+03
8.200000000000000344e-02 7.002059999999999951e-01 2.565939999999999799e+01 1.204224999999999994e+02 1.703894999999999982e+03
8.300000000000000433e-02 7.001994999999999747e-01 2.501655000000000229e+01 1.203685000000000116e+02 1.703920000000000073e+03
8.400000000000000522e-02 7.001580000000000581e-01 2.431839999999999691e+01 1.201500000000000057e+02 1.703894999999999982e+03
8.500000000000000611e-02 7.000899999999999901e-01 2.357999999999999829e+01 1.197974999999999994e+02 1.703844999999999800e+03
8.600000000000000699e-02 7.000014999999999432e-01 2.281690000000000040e+01 1.193445000000000107e+02 1.703759999999999991e+03
8.700000000000000788e-02 6.999009999999999954e-01 2.204479999999999862e+01 1.188234999999999957e+02 1.703659999999999854e+03
8.800000000000000877e-02 6.997934999999999572e-01 2.127870000000000061e+01 1.182659999999999911e+02 1.703545000000000073e+03
8.899999999999999578e-02 6.996854999999999603e-01 2.053205000000000169e+01 1.177040000000000077e+02 1.703420000000000073e+03
8.999999999999999667e-02 6.995839999999999836e-01 1.981649999999999778e+01 1.171614999999999895e+02 1.703295000000000073e+03
9.099999999999999756e-02 6.994915000000000438e-01 1.914090000000000202e+01 1.166614999999999895e+02 1.703174999999999955e+03
9.199999999999999845e-02 6.994114999999999638e-01 1.851129999999999853e+01 1.162179999999999893e+02 1.703065000000000055e+03
9.299999999999999933e-02 6.993449999999999944e-01 1.793079999999999785e+01 1.158425000000000011e+02 1.702969999999999800e+03
9.400000000000000022e-02 6.992925000000000946e-01 1.739920000000000044e+01 1.155374999999999943e+02 1.702889999999999873e+03
9.500000000000000111e-02 6.992529999999999024e-01 1.691359999999999886e+01 1.153009999999999877e+02 1.702820000000000164e+03
9.600000000000000200e-02 6.992240000000000677e-01 1.646875000000000000e+01 1.151250000000000000e+02 1.702764999999999873e+03
9.700000000000000289e-02 6.992035000000000888e-01 1.605700000000000216e+01 1.149969999999999999e+02 1.702719999999999800e+03
9.800000000000000377e-02 6.991864999999999331e-01 1.566939999999999955e+01 1.149029999999999916e+02 1.702690000000000055e+03
9.900000000000000466e-02 6.991700000000000692e-01 1.529584999999999972e+01 1.148239999999999981e+02 1.702660000000000082e+03
1.000000000000000056e-01 6.991494999999999793e-01 1.492605000000000004e+01 1.147415000000000020e+02 1.702634999999999991e+03
1.010000000000000064e-01 6.991214999999999513e-01 1.454964999999999975e+01 1.146370000000000005e+02 1.702599999999999909e+03
1.020000000000000073e-01 6.990825000000000511e-01 1.415709999999999980e+01 1.144929999999999950e+02 1.702565000000000055e+03
1.030000000000000082e-01 6.990285000000000526e-01 1.374039999999999928e+01 1.142940000000000111e+02 1.702514999999999873e+03
1.040000000000000091e-01 6.989589999999999970e-01 1.329289999999999949e+01 1.140284999999999940e+02 1.702454999999999927e+03
1.050000000000000100e-01 6.988720000000000487e-01 1.281043500000000002e+01 1.136895000000000095e+02 1.702375000000000000e+03
1.059999999999999970e-01 6.987670000000000270e-01 1.229109499999999855e+01 1.132729999999999961e+02 1.702284999999999854e+03
1.069999999999999979e-01 6.986470000000000180e-01 1.173553499999999872e+01 1.127814999999999941e+02 1.702174999999999955e+03
1.079999999999999988e-01 6.985114999999999519e-01 1.114709500000000020e+01 1.122220000000000084e+02 1.702045000000000073e+03
1.089999999999999997e-01 6.983660000000000423e-01 1.053124500000000019e+01 1.116055000000000064e+02 1.701909999999999854e+03
1.100000000000000006e-01 6.982129999999999725e-01 9.895814999999998918e+00 1.109489999999999981e+02 1.701759999999999991e+03
1.110000000000000014e-01 6.980580000000000673e-01 9.250194999999999723e+00 1.102699999999999960e+02 1.701599999999999909e+03
1.120000000000000023e-01 6.979044999999999277e-01 8.604995000000000616e+00 1.095904999999999916e+02 1.701440000000000055e+03
1.130000000000000032e-01 6.977590000000000181e-01 7.971474999999999866e+00 1.089329999999999927e+02 1.701284999999999854e+03
1.140000000000000041e-01 6.976260000000000794e-01 7.360884999999999678e+00 1.083195000000000050e+02 1.701134999999999991e+03
1.150000000000000050e-01 6.975105000000000333e-01 6.783985000000000376e+00 1.077719999999999914e+02 1.701005000000000109e+03
1.160000000000000059e-01 6.974150000000000071e-01 6.250410000000000466e+00 1.073079999999999927e+02 1.700884999999999991e+03
1.170000000000000068e-01 6.973439999999999639e-01 5.768254999999999910e+00 1.069445000000000050e+02 1.700789999999999964e+03
1.180000000000000077e-01 6.972979999999999734e-01 5.343675000000000175e+00 1.066924999999999955e+02 1.700715000000000146e+03
1.190000000000000085e-01 6.972800000000000109e-01 4.980629999999999669e+00 1.065579999999999927e+02 1.700664999999999964e+03
1.200000000000000094e-01 6.972880000000000189e-01 4.680749999999999744e+00 1.065434999999999945e+02 1.700650000000000091e+03
1.209999999999999964e-01 6.973210000000000797e-01 4.443389999999999951e+00 1.066460000000000008e+02 1.700659999999999854e+03
1.219999999999999973e-01 6.973780000000000534e-01 4.265710000000000335e+00 1.068584999999999923e+02 1.700690000000000055e+03
1.229999999999999982e-01 6.974560000000000759e-01 4.142989999999999284e+00 1.071689999999999969e+02 1.700750000000000000e+03
1.239999999999999991e-01 6.975504999999999622e-01 4.068910000000000693e+00 1.075630000000000024e+02 1.700824999999999818e+03
1.250000000000000000e-01 6.976580000000000004e-01 4.035970000000000724e+00 1.080245000000000033e+02 1.700924999999999955e+03
1.260000000000000009e-01 6.977744999999999642e-01 4.035924999999999763e+00 1.085339999999999918e+02 1.701029999999999973e+03
1.270000000000000018e-01 6.978960000000000719e-01 4.060150000000000148e+00 1.090730000000000075e+02 1.701150000000000091e+03
1.280000000000000027e-01 6.980184999999999862e-01 4.100080000000000169e+00 1.096239999999999952e+02 1.701275000000000091e+03
1.290000000000000036e-01 6.981384999999999952e-01 4.147515000000000285e+00 1.101689999999999969e+02 1.701400000000000091e+03
1.300000000000000044e-01 6.982519999999999838e-01 4.194924999999999571e+00 1.106935000000000002e+02 1.701525000000000091e+03
1.310000000000000053e-01 6.983574999999999644e-01 4.235649999999999693e+00 1.111844999999999999e+02 1.701644999999999982e+03
1.320000000000000062e-01 6.984524999999999206e-01 4.264100000000000001e+00 1.116299999999999955e+02 1.701750000000000000e+03
1.330000000000000071e-01 6.985354999999999759e-01 4.275805000000000078e+00 1.120240000000000009e+02 1.701849999999999909e+03
1.340000000000000080e-01 6.986059999999999492e-01 4.267500000000000071e+00 1.123599999999999994e+02 1.701934999999999945e+03
1.350000000000000089e-01 6.986635000000001039e-01 4.237104999999999677e+00 1.126364999999999981e+02 1.702009999999999991e+03
1.360000000000000098e-01 6.987079999999999957e-01 4.183659999999999712e+00 1.128524999999999920e+02 1.702065000000000055e+03
1.370000000000000107e-01 6.987399999999999167e-01 4.107305000000000206e+00 1.130105000000000075e+02 1.702115000000000009e+03
1.380000000000000115e-01 6.987609999999999655e-01 4.009104999999999919e+00 1.131134999999999877e+02 1.702144999999999982e+03
1.390000000000000124e-01 6.987714999999999899e-01 3.890934999999999810e+00 1.131670000000000016e+02 1.702170000000000073e+03
1.400000000000000133e-01 6.987734999999999363e-01 3.755345000000000155e+00 1.131774999999999949e+02 1.702184999999999945e+03
1.410000000000000142e-01 6.987685000000000146e-01 3.605349999999999611e+00 1.131504999999999939e+02 1.702184999999999945e+03
1.420000000000000151e-01 6.987570000000000725e-01 3.444259999999999877e+00 1.130945000000000107e+02 1.702175000000000182e+03
1.430000000000000160e-01 6.987419999999999742e-01 3.275500000000000078e+00 1.130150000000000006e+02 1.702164999999999964e+03
1.440000000000000169e-01 6.987235000000000529e-01 3.102425000000000210e+00 1.129199999999999875e+02 1.702144999999999982e+03
1.450000000000000178e-01 6.987039999999999917e-01 2.928149999999999586e+00 1.128135000000000048e+02 1.702130000000000109e+03
1.459999999999999909e-01 6.986829999999999430e-01 2.755440000000000111e+00 1.127009999999999934e+02 1.702105000000000018e+03
1.469999999999999918e-01 6.986624999999999641e-01 2.586545000000000094e+00 1.125865000000000009e+02 1.702079999999999927e+03
1.479999999999999927e-01 6.986410000000000675e-01 2.423189999999999955e+00 1.124705000000000013e+02 1.702054999999999836e+03
1.489999999999999936e-01 6.986204999999999776e-01 2.266544999999999810e+00 1.123555000000000064e+02 1.702029999999999973e+03
1.499999999999999944e-01 6.985995000000000399e-01 2.117189999999999905e+00 1.122404999999999973e+02 1.702000000000000000e+03
1.509999999999999953e-01 6.985779999999999212e-01 1.975225000000000009e+00 1.121250000000000000e+02 1.701974999999999909e+03
1.519999999999999962e-01 6.985555000000001069e-01 1.840320000000000178e+00 1.120054999999999978e+02 1.701945000000000164e+03
1.529999999999999971e-01 6.985310000000000130e-01 1.711840000000000028e+00 1.118810000000000002e+02 1.701914999999999964e+03
1.539999999999999980e-01 6.985044999999999726e-01 1.588929999999999954e+00 1.117469999999999999e+02 1.701884999999999991e+03
1.549999999999999989e-01 6.984744999999999981e-01 1.470666000000000029e+00 1.116020000000000039e+02 1.701849999999999909e+03
1.559999999999999998e-01 6.984409999999999785e-01 1.356141499999999889e+00 1.114424999999999955e+02 1.701809999999999945e+03
1.570000000000000007e-01 6.984034999999999549e-01 1.244558500000000123e+00 1.112659999999999911e+02 1.701769999999999982e+03
1.580000000000000016e-01 6.983614999999999684e-01 1.135305500000000078e+00 1.110720000000000027e+02 1.701724999999999909e+03
1.590000000000000024e-01 6.983154999999999779e-01 1.028005499999999905e+00 1.108589999999999947e+02 1.701674999999999955e+03
