# t [s], A [cm^2], U [cm/s], P [cPa], c [cm/s]
1.000000000000000021e-03 1.446355000000000002e-01 3.764929999999999666e-01 1.020672999999999888e+02 1.794764999999999873e+03
2.000000000000000042e-03 1.446104999999999752e-01 2.019535999999999998e+00 9.887250000000000227e+01 1.794490000000000009e+03
3.000000000000000062e-03 1.445120000000000016e-01 3.994676499999999741e+00 9.480705000000000382e+01 1.793480000000000018e+03
4.000000000000000083e-03 1.443645000000000067e-01 6.161941500000000183e+00 9.038384999999999536e+01 1.791990000000000009e+03
5.000000000000000104e-03 1.441935000000000022e-01 8.465090000000000003e+00 8.630160000000000764e+01 1.790275000000000091e+03
6.000000000000000125e-03 1.440174999999999927e-01 1.079227500000000006e+01 8.288284999999999059e+01 1.788525000000000091e+03
7.000000000000000146e-03 1.438475000000000170e-01 1.298976500000000023e+01 8.005649999999999977e+01 1.786859999999999900e+03
8.000000000000000167e-03 1.436864999999999948e-01 1.494816499999999948e+01 7.760960000000000036e+01 1.785295000000000073e+03
9.000000000000001055e-03 1.435374999999999845e-01 1.664874999999999972e+01 7.544464999999999577e+01 1.783875000000000000e+03
1.000000000000000194e-02 1.434039999999999759e-01 1.811755000000000138e+01 7.358490000000000464e+01 1.782610000000000127e+03
1.099999999999999936e-02 1.432865000000000111e-01 1.937294999999999945e+01 7.204384999999999195e+01 1.781519999999999982e+03
1.200000000000000025e-02 1.431864999999999943e-01 2.042329999999999757e+01 7.078640000000000043e+01 1.780595000000000027e+03
1.300000000000000114e-02 1.431020000000000070e-01 2.127720000000000056e+01 6.976179999999999382e+01 1.779820000000000164e+03
1.400000000000000203e-02 1.430315000000000059e-01 2.194310000000000116e+01 6.891525000000000034e+01 1.779180000000000064e+03
1.499999999999999944e-02 1.429715000000000014e-01 2.243229999999999791e+01 6.819200000000000728e+01 1.778650000000000091e+03
1.600000000000000033e-02 1.429214999999999791e-01 2.277449999999999974e+01 6.757099999999999795e+01 1.778210000000000036e+03
1.700000000000000122e-02 1.428809999999999802e-01 2.302964999999999662e+01 6.710994999999999777e+01 1.777865000000000009e+03
1.800000000000000211e-02 1.428524999999999934e-01 2.328059999999999974e+01 6.694910000000000139e+01 1.777625000000000000e+03
1.900000000000000300e-02 1.428399999999999948e-01 2.360589999999999833e+01 6.725544999999999618e+01 1.777525000000000091e+03
2.000000000000000042e-02 1.428470000000000018e-01 2.404974999999999952e+01 6.813765000000000782e+01 1.777610000000000127e+03
2.100000000000000130e-02 1.428745000000000154e-01 2.460484999999999900e+01 6.958050000000000068e+01 1.777884999999999991e+03
2.200000000000000219e-02 1.429219999999999935e-01 2.521549999999999869e+01 7.143000000000000682e+01 1.778324999999999818e+03
2.299999999999999961e-02 1.429825000000000124e-01 2.579630000000000223e+01 7.343115000000000236e+01 1.778900000000000091e+03
2.400000000000000050e-02 1.430484999999999951e-01 2.625929999999999964e+01 7.529845000000000255e+01 1.779525000000000091e+03
2.500000000000000139e-02 1.431115000000000026e-01 2.653709999999999880e+01 7.679015000000001123e+01 1.780135000000000218e+03
2.600000000000000228e-02 1.431655000000000011e-01 2.659785000000000110e+01 7.776234999999999786e+01 1.780654999999999973e+03
2.700000000000000316e-02 1.432060000000000000e-01 2.644819999999999993e+01 7.819039999999999679e+01 1.781059999999999945e+03
2.800000000000000058e-02 1.432315000000000116e-01 2.612515000000000143e+01 7.815540000000000020e+01 1.781319999999999936e+03
2.900000000000000147e-02 1.432444999999999968e-01 2.568144999999999811e+01 7.780530000000000257e+01 1.781460000000000036e+03
3.000000000000000236e-02 1.432470000000000132e-01 2.516995000000000005e+01 7.730504999999999427e+01 1.781505000000000109e+03
3.099999999999999978e-02 1.432434999999999958e-01 2.463044999999999973e+01 7.679214999999999236e+01 1.781480000000000018e+03
3.200000000000000067e-02 1.432375000000000176e-01 2.408364999999999867e+01 7.634825000000000728e+01 1.781434999999999945e+03
3.300000000000000155e-02 1.432299999999999962e-01 2.353170000000000073e+01 7.599215000000000941e+01 1.781369999999999891e+03
3.400000000000000244e-02 1.432229999999999892e-01 2.296349999999999980e+01 7.569145000000000323e+01 1.781304999999999836e+03
3.500000000000000333e-02 1.432149999999999812e-01 2.236359999999999815e+01 7.538710000000000377e+01 1.781239999999999782e+03
3.600000000000000422e-02 1.432054999999999856e-01 2.172115000000000151e+01 7.502094999999999914e+01 1.781150000000000091e+03
3.700000000000000511e-02 1.431919999999999860e-01 2.103645000000000209e+01 7.456029999999999802e+01 1.781034999999999854e+03
3.799999999999999906e-02 1.431759999999999977e-01 2.032430000000000092e+01 7.401249999999998863e+01 1.780889999999999873e+03
3.899999999999999994e-02 1.431574999999999931e-01 1.961329999999999885e+01 7.342785000000000650e+01 1.780724999999999909e+03
4.000000000000000083e-02 1.431385000000000018e-01 1.894125000000000014e+01 7.289064999999999372e+01 1.780545000000000073e+03
4.100000000000000172e-02 1.431209999999999982e-01 1.834825000000000017e+01 7.250059999999999150e+01 1.780384999999999991e+03
4.200000000000000261e-02 1.431089999999999862e-01 1.786860000000000070e+01 7.235065000000000168e+01 1.780275000000000091e+03
4.300000000000000350e-02 1.431044999999999956e-01 1.752445000000000164e+01 7.250594999999999857e+01 1.780224999999999909e+03
4.400000000000000439e-02 1.431100000000000150e-01 1.732094999999999985e+01 7.298810000000000286e+01 1.780265000000000100e+03
4.499999999999999833e-02 1.431255000000000166e-01 1.724504999999999910e+01 7.376949999999999363e+01 1.780405000000000200e+03
4.599999999999999922e-02 1.431505000000000138e-01 1.726760000000000161e+01 7.477585000000000548e+01 1.780630000000000109e+03
4.700000000000000011e-02 1.431835000000000191e-01 1.734734999999999872e+01 7.589785000000000537e+01 1.780930000000000064e+03
4.800000000000000100e-02 1.432200000000000140e-01 1.743674999999999997e+01 7.700700000000000500e+01 1.781264999999999873e+03
4.900000000000000189e-02 1.432574999999999821e-01 1.748794999999999789e+01 7.797380000000001132e+01 1.781605000000000018e+03
5.000000000000000278e-02 1.432904999999999873e-01 1.745824999999999960e+01 7.868365000000000009e+01 1.781914999999999964e+03
5.100000000000000366e-02 1.433165000000000133e-01 1.731360000000000099e+01 7.904919999999999902e+01 1.782159999999999854e+03
5.200000000000000455e-02 1.433320000000000149e-01 1.703119999999999834e+01 7.901695000000000846e+01 1.782304999999999836e+03
5.300000000000000544e-02 1.433344999999999758e-01 1.659984999999999999e+01 7.856879999999999598e+01 1.782335000000000036e+03
5.399999999999999939e-02 1.433234999999999926e-01 1.601914999999999978e+01 7.771869999999999834e+01 1.782240000000000009e+03
5.500000000000000028e-02 1.432990000000000097e-01 1.529790000000000028e+01 7.650639999999999930e+01 1.782009999999999991e+03
5.600000000000000117e-02 1.432609999999999995e-01 1.445204999999999984e+01 7.498969999999999914e+01 1.781659999999999854e+03
5.700000000000000205e-02 1.432110000000000050e-01 1.350234999999999985e+01 7.323669999999999902e+01 1.781204999999999927e+03
5.800000000000000294e-02 1.431514999999999871e-01 1.247300000000000075e+01 7.131969999999999743e+01 1.780654999999999973e+03
5.900000000000000383e-02 1.430845000000000034e-01 1.139018499999999889e+01 6.931040000000000134e+01 1.780029999999999973e+03
6.000000000000000472e-02 1.430120000000000002e-01 1.028137000000000079e+01 6.727774999999999750e+01 1.779360000000000127e+03
6.099999999999999867e-02 1.429369999999999807e-01 9.174749999999999517e+00 6.528674999999999784e+01 1.778659999999999854e+03
6.199999999999999956e-02 1.428619999999999890e-01 8.099209999999999354e+00 6.339914999999999168e+01 1.777960000000000036e+03
6.300000000000000044e-02 1.427879999999999983e-01 7.083969999999998990e+00 6.167365000000000208e+01 1.777275000000000091e+03
6.400000000000000133e-02 1.427194999999999991e-01 6.158445000000000391e+00 6.016700000000000159e+01 1.776625000000000000e+03
6.500000000000000222e-02 1.426569999999999783e-01 5.351594999999999658e+00 5.893370000000000175e+01 1.776039999999999964e+03
6.600000000000000311e-02 1.426034999999999942e-01 4.691330000000000666e+00 5.802559999999999718e+01 1.775534999999999854e+03
6.700000000000000400e-02 1.425609999999999933e-01 4.203590000000000160e+00 5.749040000000000106e+01 1.775134999999999991e+03
6.800000000000000488e-02 1.425314999999999777e-01 3.911274999999999835e+00 5.736990000000000123e+01 1.774849999999999909e+03
6.900000000000000577e-02 1.425174999999999914e-01 3.833269999999999733e+00 5.769790000000000418e+01 1.774710000000000036e+03
7.000000000000000666e-02 1.425195000000000212e-01 3.983450000000000379e+00 5.849769999999999470e+01 1.774715000000000146e+03
7.100000000000000755e-02 1.425394999999999857e-01 4.369939999999999714e+00 5.978079999999999927e+01 1.774884999999999991e+03
7.200000000000000844e-02 1.425770000000000093e-01 4.994629999999999903e+00 6.154545000000000243e+01 1.775215000000000146e+03
7.300000000000000933e-02 1.426335000000000242e-01 5.853015000000000079e+00 6.377649999999999864e+01 1.775724999999999909e+03
7.399999999999999634e-02 1.427070000000000005e-01 6.934414999999999552e+00 6.644584999999999297e+01 1.776400000000000091e+03
7.499999999999999722e-02 1.427990000000000093e-01 8.222459999999999880e+00 6.951370000000000005e+01 1.777240000000000009e+03
7.599999999999999811e-02 1.429070000000000062e-01 9.695885000000000531e+00 7.293064999999999998e+01 1.778230000000000018e+03
7.699999999999999900e-02 1.430294999999999761e-01 1.132947500000000041e+01 7.664035000000001219e+01 1.779364999999999782e+03
7.799999999999999989e-02 1.431649999999999867e-01 1.309542000000000073e+01 8.058204999999999529e+01 1.780619999999999891e+03
7.900000000000000078e-02 1.433115000000000083e-01 1.496410000000000018e+01 8.469380000000001019e+01 1.781980000000000018e+03
8.000000000000000167e-02 1.434655000000000236e-01 1.690579999999999927e+01 8.891505000000000791e+01 1.783429999999999836e+03
8.100000000000000255e-02 1.436270000000000047e-01 1.889124999999999943e+01 9.318919999999999959e+01 1.784940000000000055e+03
8.200000000000000344e-02 1.437924999999999898e-01 2.089305000000000234e+01 9.746549999999999159e+01 1.786494999999999891e+03
8.300000000000000433e-02 1.439604999999999912e-01 2.288640000000000185e+01 1.017017000000000024e+02 1.788075000000000045e+03
8.400000000000000522e-02 1.441284999999999927e-01 2.484960000000000235e+01 1.058634500000000003e+02 1.789670000000000073e+03
8.500000000000000611e-02 1.442964999999999942e-01 2.676469999999999771e+01 1.099254999999999995e+02 1.791259999999999991e+03
8.600000000000000699e-02 1.444619999999999793e-01 2.861755000000000138e+01 1.138729999999999905e+02 1.792835000000000036e+03
8.700000000000000788e-02 1.446244999999999892e-01 3.039775000000000205e+01 1.176989999999999981e+02 1.794389999999999873e+03
8.800000000000000877e-02 1.447840000000000238e-01 3.209879999999999711e+01 1.214035000000000082e+02 1.795914999999999964e+03
8.899999999999999578e-02 1.449400000000000133e-01 3.371724999999999994e+01 1.249939999999999998e+02 1.797409999999999854e+03
8.999999999999999667e-02 1.450919999999999987e-01 3.525244999999999607e+01 1.284819999999999993e+02 1.798875000000000000e+03
9.099999999999999756e-02 1.452404999999999946e-01 3.670589999999999975e+01 1.318799999999999955e+02 1.800309999999999945e+03
9.199999999999999845e-02 1.453865000000000018e-01 3.808055000000000234e+01 1.352044999999999959e+02 1.801715000000000146e+03
9.299999999999999933e-02 1.455290000000000195e-01 3.938025000000000375e+01 1.384689999999999941e+02 1.803099999999999909e+03
9.400000000000000022e-02 1.456695000000000073e-01 4.060895000000000010e+01 1.416859999999999786e+02 1.804460000000000036e+03
9.500000000000000111e-02 1.458079999999999932e-01 4.177029999999999887e+01 1.448640000000000043e+02 1.805809999999999945e+03
9.600000000000000200e-02 1.459445000000000048e-01 4.286714999999999520e+01 1.480084999999999980e+02 1.807139999999999873e+03
9.700000000000000289e-02 1.460799999999999876e-01 4.390120000000000289e+01 1.511194999999999879e+02 1.808454999999999927e+03
9.800000000000000377e-02 1.462134999999999962e-01 4.487290000000000134e+01 1.541929999999999836e+02 1.809759999999999991e+03
9.900000000000000466e-02 1.463455000000000172e-01 4.578135000000000332e+01 1.572199999999999989e+02 1.811049999999999955e+03
1.000000000000000056e-01 1.464759999999999951e-01 4.662409999999999854e+01 1.601879999999999882e+02 1.812320000000000164e+03
1.010000000000000064e-01 1.466034999999999977e-01 4.739775000000000205e+01 1.630825000000000102e+02 1.813569999999999936e+03
1.020000000000000073e-01 1.467279999999999973e-01 4.809765000000000157e+01 1.658849999999999909e+02 1.814795000000000073e+03
1.030000000000000082e-01 1.468495000000000217e-01 4.871849999999999881e+01 1.685759999999999934e+02 1.815985000000000127e+03
1.040000000000000091e-01 1.469664999999999999e-01 4.925464999999999804e+01 1.711354999999999791e+02 1.817134999999999991e+03
1.050000000000000100e-01 1.470790000000000153e-01 4.970029999999999859e+01 1.735449999999999875e+02 1.818240000000000009e+03
1.059999999999999970e-01 1.471854999999999969e-01 5.004980000000000473e+01 1.757855000000000132e+02 1.819289999999999964e+03
1.069999999999999979e-01 1.472855000000000136e-01 5.029814999999999969e+01 1.778405000000000200e+02 1.820279999999999973e+03
1.079999999999999988e-01 1.473790000000000100e-01 5.044105000000000416e+01 1.796965000000000146e+02 1.821204999999999927e+03
1.089999999999999997e-01 1.474644999999999984e-01 5.047509999999999764e+01 1.813430000000000177e+02 1.822055000000000064e+03
1.100000000000000006e-01 1.475420000000000065e-01 5.039835000000000065e+01 1.827704999999999984e+02 1.822824999999999818e+03
1.110000000000000014e-01 1.476109999999999922e-01 5.021005000000000251e+01 1.839764999999999873e+02 1.823515000000000100e+03
1.120000000000000023e-01 1.476715000000000111e-01 4.991100000000000136e+01 1.849594999999999914e+02 1.824119999999999891e+03
1.130000000000000032e-01 1.477235000000000076e-01 4.950365000000000038e+01 1.857214999999999918e+02 1.824639999999999873e+03
1.140000000000000041e-01 1.477660000000000085e-01 4.899169999999999447e+01 1.862694999999999936e+02 1.825075000000000045e+03
1.150000000000000050e-01 1.478005000000000013e-01 4.838070000000000448e+01 1.866125000000000114e+02 1.825425000000000182e+03
1.160000000000000059e-01 1.478264999999999996e-01 4.767749999999999488e+01 1.867634999999999934e+02 1.825694999999999936e+03
1.170000000000000068e-01 1.478439999999999754e-01 4.689020000000000010e+01 1.867375000000000114e+02 1.825880000000000109e+03
1.180000000000000077e-01 1.478550000000000142e-01 4.602814999999999657e+01 1.865509999999999877e+02 1.825994999999999891e+03
1.190000000000000085e-01 1.478585000000000038e-01 4.510144999999999982e+01 1.862245000000000061e+02 1.826034999999999854e+03
1.200000000000000094e-01 1.478555000000000008e-01 4.412089999999999890e+01 1.857764999999999986e+02 1.826019999999999982e+03
1.209999999999999964e-01 1.478475000000000206e-01 4.309765000000000157e+01 1.852289999999999850e+02 1.825945000000000164e+03
1.219999999999999973e-01 1.478340000000000209e-01 4.204264999999999475e+01 1.846019999999999754e+02 1.825825000000000045e+03
1.229999999999999982e-01 1.478170000000000039e-01 4.096705000000000041e+01 1.839150000000000205e+02 1.825664999999999964e+03
1.239999999999999991e-01 1.477964999999999973e-01 3.988094999999999857e+01 1.831859999999999786e+02 1.825465000000000146e+03
1.250000000000000000e-01 1.477740000000000165e-01 3.879399999999999693e+01 1.824314999999999998e+02 1.825244999999999891e+03
1.260000000000000009e-01 1.477490000000000192e-01 3.771459999999999724e+01 1.816659999999999968e+02 1.825000000000000000e+03
1.270000000000000018e-01 1.477225000000000066e-01 3.665010000000000190e+01 1.809004999999999939e+02 1.824744999999999891e+03
1.280000000000000027e-01 1.476954999999999796e-01 3.560635000000000616e+01 1.801435000000000173e+02 1.824480000000000018e+03
1.290000000000000036e-01 1.476679999999999937e-01 3.458794999999999931e+01 1.794010000000000105e+02 1.824204999999999927e+03
1.300000000000000044e-01 1.476399999999999935e-01 3.359785000000000110e+01 1.786764999999999759e+02 1.823934999999999945e+03
1.310000000000000053e-01 1.476119999999999932e-01 3.263770000000000238e+01 1.779689999999999941e+02 1.823660000000000082e+03
1.320000000000000062e-01 1.475845000000000073e-01 3.170785000000000053e+01 1.772764999999999986e+02 1.823384999999999991e+03
1.330000000000000071e-01 1.475569999999999937e-01 3.080724999999999625e+01 1.765949999999999989e+02 1.823110000000000127e+03
1.340000000000000080e-01 1.475295000000000079e-01 2.993399999999999750e+01 1.759175000000000182e+02 1.822840000000000146e+03
1.350000000000000089e-01 1.475020000000000220e-01 2.908505000000000251e+01 1.752365000000000066e+02 1.822559999999999945e+03
1.360000000000000098e-01 1.474739999999999940e-01 2.825685000000000002e+01 1.745434999999999945e+02 1.822284999999999854e+03
1.370000000000000107e-01 1.474455000000000071e-01 2.744529999999999959e+01 1.738294999999999959e+02 1.822005000000000109e+03
1.380000000000000115e-01 1.474159999999999915e-01 2.664594999999999914e+01 1.730854999999999961e+02 1.821710000000000036e+03
1.390000000000000124e-01 1.473855000000000026e-01 2.585435000000000016e+01 1.723020000000000209e+02 1.821404999999999973e+03
1.400000000000000133e-01 1.473534999999999984e-01 2.506620000000000203e+01 1.714714999999999918e+02 1.821090000000000146e+03
1.410000000000000142e-01 1.473200000000000065e-01 2.427734999999999843e+01 1.705875000000000057e+02 1.820755000000000109e+03
1.420000000000000151e-01 1.472844999999999849e-01 2.348445000000000249e+01 1.696440000000000055e+02 1.820405000000000200e+03
1.430000000000000160e-01 1.472465000000000024e-01 2.268455000000000155e+01 1.686370000000000005e+02 1.820034999999999854e+03
1.440000000000000169e-01 1.472060000000000035e-01 2.187555000000000049e+01 1.675645000000000095e+02 1.819639999999999873e+03
1.450000000000000178e-01 1.471635000000000026e-01 2.105615000000000236e+01 1.664269999999999925e+02 1.819215000000000146e+03
1.459999999999999909e-01 1.471184999999999854e-01 2.022605000000000075e+01 1.652255000000000109e+02 1.818775000000000091e+03
1.469999999999999918e-01 1.470699999999999785e-01 1.938584999999999781e+01 1.639650000000000034e+02 1.818305000000000064e+03
1.479999999999999927e-01 1.470199999999999840e-01 1.853694999999999737e+01 1.626494999999999891e+02 1.817815000000000055e+03
1.489999999999999936e-01 1.469679999999999875e-01 1.768205000000000027e+01 1.612889999999999873e+02 1.817305000000000064e+03
1.499999999999999944e-01 1.469135000000000024e-01 1.682430000000000092e+01 1.598905000000000030e+02 1.816780000000000200e+03
1.509999999999999953e-01 1.468579999999999885e-01 1.596774999999999878e+01 1.584654999999999916e+02 1.816230000000000018e+03
1.519999999999999962e-01 1.468005000000000004e-01 1.511710000000000065e+01 1.570264999999999986e+02 1.815674999999999955e+03
1.529999999999999971e-01 1.467424999999999979e-01 1.427745000000000175e+01 1.555844999999999914e+02 1.815110000000000127e+03
1.539999999999999980e-01 1.466839999999999811e-01 1.345439999999999969e+01 1.541524999999999750e+02 1.814535000000000082e+03
1.549999999999999989e-01 1.466255000000000197e-01 1.265344999999999942e+01 1.527439999999999998e+02 1.813970000000000027e+03
1.559999999999999998e-01 1.465675000000000172e-01 1.188015000000000043e+01 1.513704999999999927e+02 1.813404999999999973e+03
1.570000000000000007e-01 1.465110000000000023e-01 1.113987499999999997e+01 1.500439999999999827e+02 1.812844999999999800e+03
1.580000000000000016e-01 1.464554999999999885e-01 1.043755499999999969e+01 1.487744999999999891e+02 1.812304999999999836e+03
1.590000000000000024e-01 1.464019999999999766e-01 9.777509999999999479e+00 1.475715000000000146e+02 1.811784999999999854e+03
