# t [s], A [cm^2], U [cm/s], P [cPa], c [cm/s]
1.000000000000000021e-03 1.469799999999999995e-01 2.659734999999999738e-01 1.006133000000000095e+02 1.825039999999999964e+03
2.000000000000000042e-03 1.469564999999999899e-01 1.767053500000000055e+00 9.772984999999999900e+01 1.824779999999999973e+03
3.000000000000000062e-03 1.468615000000000059e-01 3.622951500000000102e+00 9.394444999999998913e+01 1.823815000000000055e+03
4.000000000000000083e-03 1.467179999999999873e-01 5.682326299999999719e+00 8.965364999999999895e+01 1.822360000000000127e+03
5.000000000000000104e-03 1.465494999999999992e-01 7.893064999999999998e+00 8.553669999999999618e+01 1.820680000000000064e+03
6.000000000000000125e-03 1.463760000000000061e-01 1.015896000000000043e+01 8.198359999999999559e+01 1.818970000000000027e+03
7.000000000000000146e-03 1.462074999999999902e-01 1.233192999999999984e+01 7.900800000000000978e+01 1.817325000000000045e+03
8.000000000000000167e-03 1.460480000000000111e-01 1.428488000000000113e+01 7.642340000000000089e+01 1.815795000000000073e+03
9.000000000000001055e-03 1.459004999999999885e-01 1.597895000000000110e+01 7.411199999999999477e+01 1.814394999999999982e+03
1.000000000000000194e-02 1.457674999999999943e-01 1.743614999999999782e+01 7.209264999999999191e+01 1.813144999999999982e+03
1.099999999999999936e-02 1.456514999999999893e-01 1.867989999999999995e+01 7.040094999999999459e+01 1.812070000000000164e+03
1.200000000000000025e-02 1.455525000000000013e-01 1.972234999999999872e+01 6.902455000000000496e+01 1.811164999999999964e+03
1.300000000000000114e-02 1.454695000000000016e-01 2.057345000000000113e+01 6.792374999999999829e+01 1.810410000000000082e+03
1.400000000000000203e-02 1.454015000000000168e-01 2.124074999999999847e+01 6.704524999999999579e+01 1.809800000000000182e+03
1.499999999999999944e-02 1.453455000000000163e-01 2.172990000000000066e+01 6.632200000000000273e+01 1.809309999999999945e+03
1.600000000000000033e-02 1.452990000000000115e-01 2.206050000000000111e+01 6.570489999999999498e+01 1.808909999999999854e+03
1.700000000000000122e-02 1.452614999999999879e-01 2.228350000000000009e+01 6.521670000000000300e+01 1.808590000000000146e+03
1.800000000000000211e-02 1.452344999999999886e-01 2.247984999999999900e+01 6.497579999999999245e+01 1.808369999999999891e+03
1.900000000000000300e-02 1.452225000000000044e-01 2.273645000000000138e+01 6.515520000000000778e+01 1.808275000000000091e+03
2.000000000000000042e-02 1.452289999999999970e-01 2.311260000000000048e+01 6.589669999999999561e+01 1.808355000000000018e+03
2.100000000000000130e-02 1.452569999999999972e-01 2.361694999999999922e+01 6.723095000000000709e+01 1.808625000000000000e+03
2.200000000000000219e-02 1.453049999999999897e-01 2.420439999999999969e+01 6.904349999999999454e+01 1.809069999999999936e+03
2.299999999999999961e-02 1.453674999999999828e-01 2.479245000000000232e+01 7.109870000000000800e+01 1.809650000000000091e+03
2.400000000000000050e-02 1.454364999999999963e-01 2.528819999999999979e+01 7.310495000000000232e+01 1.810305000000000064e+03
2.500000000000000139e-02 1.455039999999999945e-01 2.561485000000000056e+01 7.479364999999999952e+01 1.810950000000000045e+03
2.600000000000000228e-02 1.455625000000000113e-01 2.573000000000000043e+01 7.598359999999999559e+01 1.811509999999999991e+03
2.700000000000000316e-02 1.456069999999999864e-01 2.563235000000000241e+01 7.661469999999999914e+01 1.811949999999999818e+03
2.800000000000000058e-02 1.456365000000000021e-01 2.535510000000000019e+01 7.674434999999999718e+01 1.812240000000000009e+03
2.900000000000000147e-02 1.456514999999999893e-01 2.495230000000000103e+01 7.651330000000000098e+01 1.812404999999999973e+03
3.000000000000000236e-02 1.456565000000000221e-01 2.448080000000000211e+01 7.609434999999999150e+01 1.812465000000000146e+03
3.099999999999999978e-02 1.456549999999999789e-01 2.398530000000000229e+01 7.564185000000000514e+01 1.812465000000000146e+03
3.200000000000000067e-02 1.456505000000000161e-01 2.348979999999999890e+01 7.525534999999999286e+01 1.812429999999999836e+03
3.300000000000000155e-02 1.456459999999999977e-01 2.299609999999999843e+01 7.496510000000000673e+01 1.812389999999999873e+03
3.400000000000000244e-02 1.456410000000000204e-01 2.248924999999999841e+01 7.473980000000000246e+01 1.812349999999999909e+03
3.500000000000000333e-02 1.456350000000000144e-01 2.194689999999999941e+01 7.451015000000001010e+01 1.812299999999999955e+03
3.600000000000000422e-02 1.456270000000000064e-01 2.135000000000000142e+01 7.420000000000000284e+01 1.812224999999999909e+03
3.700000000000000511e-02 1.456155000000000088e-01 2.069134999999999991e+01 7.375634999999999764e+01 1.812125000000000000e+03
3.799999999999999906e-02 1.455989999999999784e-01 1.998114999999999952e+01 7.317040000000000077e+01 1.811980000000000018e+03
3.899999999999999994e-02 1.455779999999999852e-01 1.924749999999999872e+01 7.248564999999999259e+01 1.811789999999999964e+03
4.000000000000000083e-02 1.455555000000000043e-01 1.853194999999999837e+01 7.179189999999999827e+01 1.811585000000000036e+03
4.100000000000000172e-02 1.455325000000000091e-01 1.788214999999999932e+01 7.120650000000000546e+01 1.811375000000000000e+03
4.200000000000000261e-02 1.455150000000000055e-01 1.734244999999999948e+01 7.084900000000000375e+01 1.811210000000000036e+03
4.300000000000000350e-02 1.455049999999999955e-01 1.694519999999999982e+01 7.081475000000000364e+01 1.811110000000000127e+03
4.400000000000000439e-02 1.455055000000000098e-01 1.670434999999999803e+01 7.115370000000000061e+01 1.811110000000000127e+03
4.499999999999999833e-02 1.455174999999999941e-01 1.661325000000000074e+01 7.185970000000000368e+01 1.811210000000000036e+03
4.599999999999999922e-02 1.455420000000000047e-01 1.664580000000000126e+01 7.287004999999999200e+01 1.811425000000000182e+03
4.700000000000000011e-02 1.455754999999999966e-01 1.676050000000000040e+01 7.407654999999999745e+01 1.811724999999999909e+03
4.800000000000000100e-02 1.456155000000000088e-01 1.690720000000000312e+01 7.534239999999999782e+01 1.812090000000000146e+03
4.900000000000000189e-02 1.456574999999999953e-01 1.703385000000000105e+01 7.652275000000000205e+01 1.812474999999999909e+03
5.000000000000000278e-02 1.456970000000000209e-01 1.709254999999999924e+01 7.748435000000000628e+01 1.812839999999999918e+03
5.100000000000000366e-02 1.457295000000000118e-01 1.704455000000000098e+01 7.812055000000000859e+01 1.813144999999999982e+03
5.200000000000000455e-02 1.457525000000000071e-01 1.686299999999999955e+01 7.836099999999999000e+01 1.813365000000000009e+03
5.300000000000000544e-02 1.457629999999999759e-01 1.653340000000000032e+01 7.817449999999999477e+01 1.813460000000000036e+03
5.399999999999999939e-02 1.457585000000000131e-01 1.605330000000000013e+01 7.756630000000001246e+01 1.813429999999999836e+03
5.500000000000000028e-02 1.457410000000000094e-01 1.542964999999999876e+01 7.657130000000000791e+01 1.813275000000000091e+03
5.600000000000000117e-02 1.457090000000000052e-01 1.467699999999999960e+01 7.524505000000000621e+01 1.812990000000000009e+03
5.700000000000000205e-02 1.456649999999999889e-01 1.381439999999999912e+01 7.365455000000000041e+01 1.812585000000000036e+03
5.800000000000000294e-02 1.456109999999999904e-01 1.286335000000000051e+01 7.187030000000000030e+01 1.812085000000000036e+03
5.900000000000000383e-02 1.455480000000000107e-01 1.184696999999999889e+01 6.996084999999999354e+01 1.811509999999999991e+03
6.000000000000000472e-02 1.454799999999999982e-01 1.078865000000000052e+01 6.799009999999999820e+01 1.810880000000000109e+03
6.099999999999999867e-02 1.454079999999999817e-01 9.712220000000000297e+00 6.601605000000000700e+01 1.810210000000000036e+03
6.199999999999999956e-02 1.453345000000000053e-01 8.641769999999999285e+00 6.409225000000000705e+01 1.809525000000000091e+03
6.300000000000000044e-02 1.452610000000000012e-01 7.602235000000000298e+00 6.226919999999999789e+01 1.808849999999999909e+03
6.400000000000000133e-02 1.451905000000000001e-01 6.619164999999999743e+00 6.059619999999999607e+01 1.808190000000000055e+03
6.500000000000000222e-02 1.451244999999999896e-01 5.718830000000000524e+00 5.912239999999999895e+01 1.807575000000000045e+03
6.600000000000000311e-02 1.450649999999999995e-01 4.927624999999999922e+00 5.789710000000000178e+01 1.807019999999999982e+03
6.700000000000000400e-02 1.450139999999999763e-01 4.271354999999999791e+00 5.696860000000000213e+01 1.806535000000000082e+03
6.800000000000000488e-02 1.449739999999999918e-01 3.774199999999999999e+00 5.638280000000000314e+01 1.806155000000000200e+03
6.900000000000000577e-02 1.449459999999999915e-01 3.457555000000000156e+00 5.618025000000000091e+01 1.805884999999999991e+03
7.000000000000000666e-02 1.449320000000000053e-01 3.338915000000000077e+00 5.639400000000000546e+01 1.805740000000000009e+03
7.100000000000000755e-02 1.449329999999999785e-01 3.430855000000000210e+00 5.704664999999999964e+01 1.805740000000000009e+03
7.200000000000000844e-02 1.449509999999999965e-01 3.740274999999999572e+00 5.814905000000000257e+01 1.805884999999999991e+03
7.300000000000000933e-02 1.449854999999999894e-01 4.268004999999999605e+00 5.969845000000000113e+01 1.806194999999999936e+03
7.399999999999999634e-02 1.450369999999999993e-01 5.008704999999999963e+00 6.167870000000000630e+01 1.806650000000000091e+03
7.499999999999999722e-02 1.451049999999999840e-01 5.951175000000000104e+00 6.406100000000000705e+01 1.807264999999999873e+03
7.599999999999999811e-02 1.451890000000000125e-01 7.078954999999999664e+00 6.680539999999999168e+01 1.808025000000000091e+03
7.699999999999999900e-02 1.452864999999999851e-01 8.371164999999999523e+00 6.986269999999998959e+01 1.808925000000000182e+03
7.799999999999999989e-02 1.453975000000000128e-01 9.803544999999999732e+00 7.317769999999998731e+01 1.809945000000000164e+03
7.900000000000000078e-02 1.455194999999999961e-01 1.134953499999999948e+01 7.669174999999999898e+01 1.811065000000000055e+03
8.000000000000000167e-02 1.456500000000000017e-01 1.298159000000000063e+01 8.034544999999999959e+01 1.812275000000000091e+03
8.100000000000000255e-02 1.457880000000000009e-01 1.467205000000000048e+01 8.408180000000000121e+01 1.813555000000000064e+03
8.200000000000000344e-02 1.459305000000000185e-01 1.639440000000000097e+01 8.784825000000000728e+01 1.814880000000000109e+03
8.300000000000000433e-02 1.460750000000000104e-01 1.812415000000000020e+01 9.159880000000001132e+01 1.816235000000000127e+03
8.400000000000000522e-02 1.462215000000000042e-01 1.983930000000000149e+01 9.529544999999998822e+01 1.817610000000000127e+03
8.500000000000000611e-02 1.463669999999999971e-01 2.152139999999999986e+01 9.890919999999999845e+01 1.818980000000000018e+03
8.600000000000000699e-02 1.465110000000000023e-01 2.315534999999999854e+01 1.024194499999999977e+02 1.820339999999999918e+03
8.700000000000000788e-02 1.466525000000000190e-01 2.472975000000000279e+01 1.058157999999999959e+02 1.821675000000000182e+03
8.800000000000000877e-02 1.467910000000000048e-01 2.623684999999999690e+01 1.090944999999999965e+02 1.822990000000000009e+03
8.899999999999999578e-02 1.469254999999999867e-01 2.767190000000000083e+01 1.122589999999999861e+02 1.824275000000000091e+03
8.999999999999999667e-02 1.470565000000000067e-01 2.903320000000000078e+01 1.153185000000000002e+02 1.825519999999999982e+03
9.099999999999999756e-02 1.471844999999999959e-01 3.032104999999999961e+01 1.182845000000000084e+02 1.826744999999999891e+03
9.199999999999999845e-02 1.473085000000000089e-01 3.153739999999999810e+01 1.211724999999999994e+02 1.827934999999999945e+03
9.299999999999999933e-02 1.474305000000000199e-01 3.268524999999999636e+01 1.239944999999999879e+02 1.829105000000000018e+03
9.400000000000000022e-02 1.475495000000000001e-01 3.376774999999999949e+01 1.267635000000000076e+02 1.830250000000000000e+03
9.500000000000000111e-02 1.476669999999999927e-01 3.478820000000000334e+01 1.294884999999999877e+02 1.831380000000000109e+03
9.600000000000000200e-02 1.477819999999999967e-01 3.574915000000000020e+01 1.321769999999999925e+02 1.832490000000000009e+03
9.700000000000000289e-02 1.478959999999999997e-01 3.665225000000000222e+01 1.348290000000000077e+02 1.833585000000000036e+03
9.800000000000000377e-02 1.480080000000000007e-01 3.749804999999999922e+01 1.374440000000000168e+02 1.834670000000000073e+03
9.900000000000000466e-02 1.481184999999999863e-01 3.828614999999999924e+01 1.400149999999999864e+02 1.835735000000000127e+03
1.000000000000000056e-01 1.482269999999999976e-01 3.901470000000000482e+01 1.425314999999999941e+02 1.836784999999999854e+03
1.010000000000000064e-01 1.483335000000000070e-01 3.968110000000000070e+01 1.449820000000000277e+02 1.837815000000000055e+03
1.020000000000000073e-01 1.484369999999999856e-01 4.028159999999999741e+01 1.473499999999999943e+02 1.838824999999999818e+03
1.030000000000000082e-01 1.485374999999999890e-01 4.081194999999999595e+01 1.496204999999999927e+02 1.839800000000000182e+03
1.040000000000000091e-01 1.486339999999999884e-01 4.126739999999999498e+01 1.517750000000000057e+02 1.840740000000000009e+03
1.050000000000000100e-01 1.487264999999999837e-01 4.164310000000000400e+01 1.537969999999999970e+02 1.841639999999999873e+03
1.059999999999999970e-01 1.488140000000000018e-01 4.193415000000000248e+01 1.556700000000000159e+02 1.842494999999999891e+03
1.069999999999999979e-01 1.488955000000000140e-01 4.213609999999999900e+01 1.573790000000000191e+02 1.843289999999999964e+03
1.079999999999999988e-01 1.489709999999999923e-01 4.224500000000000455e+01 1.589110000000000014e+02 1.844025000000000091e+03
1.089999999999999997e-01 1.490390000000000048e-01 4.225775000000000148e+01 1.602555000000000121e+02 1.844699999999999818e+03
1.100000000000000006e-01 1.491009999999999835e-01 4.217215000000000202e+01 1.614039999999999964e+02 1.845304999999999836e+03
1.110000000000000014e-01 1.491544999999999954e-01 4.198700000000000188e+01 1.623505000000000109e+02 1.845835000000000036e+03
1.120000000000000023e-01 1.492005000000000137e-01 4.170260000000000389e+01 1.630949999999999989e+02 1.846289999999999964e+03
1.130000000000000032e-01 1.492384999999999962e-01 4.132040000000000646e+01 1.636365000000000123e+02 1.846670000000000073e+03
1.140000000000000041e-01 1.492689999999999850e-01 4.084329999999999927e+01 1.639805000000000064e+02 1.846974999999999909e+03
1.150000000000000050e-01 1.492910000000000070e-01 4.027580000000000382e+01 1.641340000000000146e+02 1.847204999999999927e+03
1.160000000000000059e-01 1.493054999999999799e-01 3.962349999999999994e+01 1.641074999999999875e+02 1.847349999999999909e+03
1.170000000000000068e-01 1.493125000000000147e-01 3.889360000000000639e+01 1.639144999999999754e+02 1.847434999999999945e+03
1.180000000000000077e-01 1.493130000000000013e-01 3.809414999999999907e+01 1.635704999999999814e+02 1.847450000000000045e+03
1.190000000000000085e-01 1.493074999999999819e-01 3.723430000000000462e+01 1.630944999999999823e+02 1.847404999999999973e+03
1.200000000000000094e-01 1.492959999999999843e-01 3.632394999999999641e+01 1.625035000000000025e+02 1.847299999999999955e+03
1.209999999999999964e-01 1.492795000000000094e-01 3.537335000000000207e+01 1.618185000000000002e+02 1.847150000000000091e+03
1.219999999999999973e-01 1.492589999999999750e-01 3.439280000000000115e+01 1.610595000000000141e+02 1.846954999999999927e+03
1.229999999999999982e-01 1.492344999999999922e-01 3.339260000000000161e+01 1.602450000000000045e+02 1.846724999999999909e+03
1.239999999999999991e-01 1.492074999999999929e-01 3.238259999999999650e+01 1.593944999999999936e+02 1.846465000000000146e+03
1.250000000000000000e-01 1.491784999999999917e-01 3.137185000000000201e+01 1.585224999999999795e+02 1.846184999999999945e+03
1.260000000000000009e-01 1.491474999999999884e-01 3.036860000000000070e+01 1.576449999999999818e+02 1.845889999999999873e+03
1.270000000000000018e-01 1.491155000000000119e-01 2.938000000000000256e+01 1.567729999999999961e+02 1.845585000000000036e+03
1.280000000000000027e-01 1.490835000000000077e-01 2.841185000000000116e+01 1.559155000000000086e+02 1.845275000000000091e+03
1.290000000000000036e-01 1.490509999999999891e-01 2.746875000000000000e+01 1.550790000000000077e+02 1.844954999999999927e+03
1.300000000000000044e-01 1.490190000000000126e-01 2.655380000000000251e+01 1.542675000000000125e+02 1.844644999999999982e+03
1.310000000000000053e-01 1.489874999999999949e-01 2.566884999999999906e+01 1.534809999999999945e+02 1.844335000000000036e+03
1.320000000000000062e-01 1.489564999999999917e-01 2.481435000000000102e+01 1.527180000000000177e+02 1.844034999999999854e+03
1.330000000000000071e-01 1.489254999999999884e-01 2.398965000000000103e+01 1.519744999999999777e+02 1.843735000000000127e+03
1.340000000000000080e-01 1.488955000000000140e-01 2.319279999999999831e+01 1.512445000000000164e+02 1.843440000000000055e+03
1.350000000000000089e-01 1.488655000000000117e-01 2.242110000000000269e+01 1.505199999999999818e+02 1.843150000000000091e+03
1.360000000000000098e-01 1.488360000000000238e-01 2.167105000000000103e+01 1.497930000000000064e+02 1.842855000000000018e+03
1.370000000000000107e-01 1.488055000000000072e-01 2.093870000000000076e+01 1.490550000000000068e+02 1.842565000000000055e+03
1.380000000000000115e-01 1.487749999999999906e-01 2.021954999999999814e+01 1.482944999999999993e+02 1.842259999999999991e+03
1.390000000000000124e-01 1.487435000000000007e-01 1.950905000000000200e+01 1.475029999999999859e+02 1.841954999999999927e+03
1.400000000000000133e-01 1.487110000000000098e-01 1.880284999999999940e+01 1.466725000000000136e+02 1.841639999999999873e+03
1.410000000000000142e-01 1.486775000000000180e-01 1.809660000000000224e+01 1.457944999999999993e+02 1.841309999999999945e+03
1.420000000000000151e-01 1.486414999999999820e-01 1.738664999999999949e+01 1.448634999999999877e+02 1.840964999999999918e+03
1.430000000000000160e-01 1.486040000000000139e-01 1.666979999999999862e+01 1.438729999999999905e+02 1.840595000000000027e+03
1.440000000000000169e-01 1.485640000000000016e-01 1.594365000000000165e+01 1.428209999999999980e+02 1.840210000000000036e+03
1.450000000000000178e-01 1.485215000000000007e-01 1.520659999999999812e+01 1.417069999999999936e+02 1.839799999999999955e+03
1.459999999999999909e-01 1.484769999999999979e-01 1.445809999999999995e+01 1.405310000000000059e+02 1.839369999999999891e+03
1.469999999999999918e-01 1.484304999999999930e-01 1.369850000000000101e+01 1.392969999999999970e+02 1.838925000000000182e+03
1.479999999999999927e-01 1.483809999999999851e-01 1.292914999999999992e+01 1.380099999999999909e+02 1.838450000000000045e+03
1.489999999999999936e-01 1.483300000000000174e-01 1.215239000000000047e+01 1.366779999999999973e+02 1.837954999999999927e+03
1.499999999999999944e-01 1.482769999999999921e-01 1.137153999999999954e+01 1.353095000000000141e+02 1.837445000000000164e+03
1.509999999999999953e-01 1.482224999999999793e-01 1.059063000000000088e+01 1.339155000000000086e+02 1.836925000000000182e+03
1.519999999999999962e-01 1.481669999999999932e-01 9.814444999999999197e+00 1.325074999999999932e+02 1.836384999999999991e+03
1.529999999999999971e-01 1.481105000000000060e-01 9.048239999999999839e+00 1.310989999999999895e+02 1.835844999999999800e+03
1.539999999999999980e-01 1.480540000000000189e-01 8.297699999999998965e+00 1.297040000000000077e+02 1.835304999999999836e+03
1.549999999999999989e-01 1.479980000000000184e-01 7.568645000000000067e+00 1.283344999999999914e+02 1.834764999999999873e+03
1.559999999999999998e-01 1.479420000000000179e-01 6.866805000000000270e+00 1.270039999999999907e+02 1.834230000000000018e+03
1.570000000000000007e-01 1.478880000000000194e-01 6.197705000000000020e+00 1.257249999999999943e+02 1.833704999999999927e+03
1.580000000000000016e-01 1.478349999999999942e-01 5.566474999999999618e+00 1.245074999999999932e+02 1.833199999999999818e+03
1.590000000000000024e-01 1.477844999999999853e-01 4.977640000000000065e+00 1.233624999999999972e+02 1.832714999999999918e+03
