# t [s], A [cm^2], U [cm/s], P [cPa], c [cm/s]
1.000000000000000021e-03 1.525389999999999802e-01 2.525430000000000175e-01 1.029615000000000009e+02 1.940174999999999955e+03
2.000000000000000042e-03 1.525064999999999893e-01 1.785782500000000050e+00 9.991694999999999993e+01 1.939829999999999927e+03
3.000000000000000062e-03 1.523990000000000067e-01 3.705060999999999716e+00 9.573869999999999436e+01 1.938740000000000009e+03
4.000000000000000083e-03 1.522415000000000018e-01 5.855856649999999775e+00 9.099125000000000796e+01 1.937179999999999836e+03
5.000000000000000104e-03 1.520634999999999903e-01 8.175919999999999632e+00 8.648875000000001023e+01 1.935434999999999945e+03
6.000000000000000125e-03 1.518849999999999922e-01 1.053828999999999994e+01 8.265744999999999720e+01 1.933700000000000045e+03
7.000000000000000146e-03 1.517159999999999898e-01 1.275335499999999911e+01 7.944735000000000014e+01 1.932079999999999927e+03
8.000000000000000167e-03 1.515579999999999983e-01 1.468344000000000094e+01 7.661750000000000682e+01 1.930594999999999800e+03
9.000000000000001055e-03 1.514150000000000218e-01 1.631490000000000151e+01 7.409300000000000352e+01 1.929269999999999982e+03
1.000000000000000194e-02 1.512894999999999934e-01 1.768585000000000207e+01 7.194344999999999857e+01 1.928125000000000000e+03
1.099999999999999936e-02 1.511839999999999851e-01 1.882079999999999842e+01 7.020069999999999766e+01 1.927170000000000073e+03
1.200000000000000025e-02 1.510974999999999957e-01 1.973655000000000115e+01 6.883735000000000070e+01 1.926394999999999982e+03
1.300000000000000114e-02 1.510285000000000100e-01 2.044784999999999897e+01 6.780169999999999675e+01 1.925785000000000082e+03
1.400000000000000203e-02 1.509735000000000105e-01 2.096030000000000015e+01 6.701024999999999920e+01 1.925315000000000055e+03
1.499999999999999944e-02 1.509304999999999952e-01 2.128405000000000058e+01 6.636705000000000609e+01 1.924950000000000045e+03
1.600000000000000033e-02 1.508955000000000157e-01 2.146730000000000160e+01 6.585099999999999909e+01 1.924664999999999964e+03
1.700000000000000122e-02 1.508724999999999927e-01 2.160904999999999987e+01 6.558885000000000787e+01 1.924480000000000018e+03
1.800000000000000211e-02 1.508649999999999991e-01 2.182939999999999969e+01 6.582059999999999889e+01 1.924434999999999945e+03
1.900000000000000300e-02 1.508800000000000141e-01 2.221645000000000181e+01 6.676744999999999663e+01 1.924585000000000036e+03
2.000000000000000042e-02 1.509205000000000130e-01 2.278409999999999869e+01 6.849014999999999986e+01 1.924954999999999927e+03
2.100000000000000130e-02 1.509834999999999927e-01 2.346439999999999770e+01 7.082200000000000273e+01 1.925535000000000082e+03
2.200000000000000219e-02 1.510620000000000018e-01 2.413400000000000034e+01 7.340655000000000996e+01 1.926255000000000109e+03
2.299999999999999961e-02 1.511434999999999862e-01 2.465915000000000035e+01 7.581034999999999968e+01 1.927010000000000218e+03
2.400000000000000050e-02 1.512169999999999903e-01 2.493854999999999933e+01 7.765739999999999554e+01 1.927700000000000045e+03
2.500000000000000139e-02 1.512739999999999918e-01 2.493095000000000283e+01 7.873320000000001073e+01 1.928250000000000000e+03
2.600000000000000228e-02 1.513089999999999991e-01 2.465964999999999918e+01 7.902715000000000600e+01 1.928599999999999909e+03
2.700000000000000316e-02 1.513240000000000141e-01 2.419604999999999961e+01 7.870664999999999623e+01 1.928769999999999982e+03
2.800000000000000058e-02 1.513240000000000141e-01 2.363080000000000069e+01 7.804019999999999868e+01 1.928785000000000082e+03
2.900000000000000147e-02 1.513150000000000051e-01 2.304399999999999693e+01 7.730160000000000764e+01 1.928715000000000146e+03
3.000000000000000236e-02 1.513035000000000074e-01 2.248345000000000127e+01 7.668800000000000239e+01 1.928615000000000009e+03
3.099999999999999978e-02 1.512930000000000108e-01 2.195720000000000027e+01 7.627625000000000455e+01 1.928519999999999982e+03
3.200000000000000067e-02 1.512850000000000028e-01 2.143965000000000032e+01 7.602365000000000350e+01 1.928444999999999936e+03
3.300000000000000155e-02 1.512780000000000236e-01 2.088755000000000095e+01 7.580555000000001087e+01 1.928384999999999991e+03
3.400000000000000244e-02 1.512685000000000002e-01 2.025945000000000107e+01 7.547290000000000987e+01 1.928299999999999955e+03
3.500000000000000333e-02 1.512534999999999852e-01 1.953369999999999962e+01 7.491219999999999857e+01 1.928164999999999964e+03
3.600000000000000422e-02 1.512310000000000043e-01 1.871934999999999860e+01 7.409024999999999750e+01 1.927965000000000146e+03
3.700000000000000511e-02 1.512014999999999887e-01 1.785845000000000127e+01 7.307335000000000491e+01 1.927704999999999927e+03
3.799999999999999906e-02 1.511684999999999834e-01 1.701820000000000022e+01 7.201660000000001105e+01 1.927404999999999973e+03
3.899999999999999994e-02 1.511365000000000069e-01 1.627645000000000053e+01 7.112649999999999295e+01 1.927119999999999891e+03
4.000000000000000083e-02 1.511124999999999829e-01 1.570339999999999847e+01 7.060935000000000628e+01 1.926884999999999991e+03
4.100000000000000172e-02 1.511009999999999853e-01 1.534569999999999901e+01 7.061929999999999552e+01 1.926769999999999982e+03
4.200000000000000261e-02 1.511060000000000181e-01 1.521630000000000038e+01 7.122034999999999627e+01 1.926805000000000064e+03
4.300000000000000350e-02 1.511290000000000133e-01 1.529209999999999958e+01 7.237085000000000434e+01 1.926994999999999891e+03
4.400000000000000439e-02 1.511675000000000102e-01 1.551914999999999978e+01 7.393215000000000714e+01 1.927335000000000036e+03
4.499999999999999833e-02 1.512169999999999903e-01 1.582290000000000063e+01 7.569599999999999795e+01 1.927775000000000091e+03
4.599999999999999922e-02 1.512715000000000032e-01 1.612109999999999843e+01 7.742279999999999518e+01 1.928269999999999982e+03
4.700000000000000011e-02 1.513240000000000141e-01 1.633620000000000161e+01 7.888150000000000261e+01 1.928744999999999891e+03
4.800000000000000100e-02 1.513674999999999882e-01 1.640474999999999994e+01 7.988290000000000646e+01 1.929154999999999973e+03
4.900000000000000189e-02 1.513970000000000038e-01 1.628394999999999726e+01 8.030134999999999934e+01 1.929430000000000064e+03
5.000000000000000278e-02 1.514089999999999880e-01 1.595279999999999987e+01 8.008299999999999841e+01 1.929550000000000182e+03
5.100000000000000366e-02 1.514010000000000078e-01 1.541090000000000160e+01 7.924110000000000298e+01 1.929494999999999891e+03
5.200000000000000455e-02 1.513734999999999942e-01 1.467379999999999995e+01 7.784225000000000705e+01 1.929255000000000109e+03
5.300000000000000544e-02 1.513285000000000047e-01 1.376795000000000080e+01 7.598750000000001137e+01 1.928849999999999909e+03
5.399999999999999939e-02 1.512680000000000136e-01 1.272574999999999967e+01 7.379320000000001301e+01 1.928300000000000182e+03
5.500000000000000028e-02 1.511959999999999971e-01 1.158122999999999969e+01 7.137529999999999575e+01 1.927650000000000091e+03
5.600000000000000117e-02 1.511149999999999993e-01 1.036796000000000006e+01 6.883905000000000030e+01 1.926909999999999854e+03
5.700000000000000205e-02 1.510285000000000100e-01 9.117940000000000822e+00 6.627495000000000402e+01 1.926119999999999891e+03
5.800000000000000294e-02 1.509405000000000052e-01 7.862190000000000012e+00 6.375920000000000698e+01 1.925309999999999945e+03
5.900000000000000383e-02 1.508519999999999861e-01 6.631230000000000402e+00 6.135795000000000243e+01 1.924500000000000000e+03
6.000000000000000472e-02 1.507669999999999844e-01 5.456435000000000812e+00 5.913230000000000075e+01 1.923715000000000146e+03
6.099999999999999867e-02 1.506870000000000154e-01 4.370320000000000427e+00 5.714239999999999498e+01 1.922980000000000018e+03
6.199999999999999956e-02 1.506149999999999989e-01 3.406503999999999976e+00 5.545069999999999766e+01 1.922304999999999836e+03
6.300000000000000044e-02 1.505525000000000058e-01 2.598880499999999927e+00 5.412115000000000009e+01 1.921730000000000018e+03
6.400000000000000133e-02 1.505029999999999979e-01 1.980119999999999880e+00 5.321765000000000612e+01 1.921264999999999873e+03
6.500000000000000222e-02 1.504679999999999906e-01 1.579753499999999811e+00 5.279945000000000022e+01 1.920929999999999836e+03
6.600000000000000311e-02 1.504500000000000004e-01 1.422215000000000007e+00 5.291635000000000133e+01 1.920750000000000000e+03
6.700000000000000400e-02 1.504510000000000014e-01 1.525015000000000009e+00 5.360389999999999588e+01 1.920735000000000127e+03
6.800000000000000488e-02 1.504719999999999946e-01 1.897394999999999943e+00 5.487904999999999944e+01 1.920909999999999854e+03
6.900000000000000577e-02 1.505134999999999945e-01 2.539604999999999890e+00 5.673810000000000286e+01 1.921264999999999873e+03
7.000000000000000666e-02 1.505745000000000000e-01 3.442804999999999893e+00 5.915619999999999834e+01 1.921809999999999945e+03
7.100000000000000755e-02 1.506564999999999988e-01 4.589640000000000164e+00 6.208850000000000335e+01 1.922534999999999854e+03
7.200000000000000844e-02 1.507560000000000011e-01 5.955330000000000013e+00 6.547310000000000230e+01 1.923429999999999836e+03
7.300000000000000933e-02 1.508720000000000061e-01 7.509079999999999089e+00 6.923515000000000441e+01 1.924480000000000018e+03
7.399999999999999634e-02 1.510015000000000107e-01 9.215754999999999697e+00 7.329140000000001010e+01 1.925659999999999854e+03
7.499999999999999722e-02 1.511429999999999996e-01 1.103776500000000027e+01 7.755480000000000018e+01 1.926944999999999936e+03
7.599999999999999811e-02 1.512924999999999964e-01 1.293664000000000058e+01 8.193935000000000457e+01 1.928315000000000055e+03
7.699999999999999900e-02 1.514469999999999983e-01 1.487484999999999857e+01 8.636435000000000173e+01 1.929740000000000009e+03
7.799999999999999989e-02 1.516049999999999898e-01 1.681735000000000113e+01 9.075775000000000148e+01 1.931194999999999936e+03
7.900000000000000078e-02 1.517630000000000090e-01 1.873284999999999911e+01 9.505925000000000580e+01 1.932660000000000082e+03
8.000000000000000167e-02 1.519185000000000119e-01 2.059474999999999767e+01 9.922229999999998995e+01 1.934110000000000127e+03
8.100000000000000255e-02 1.520714999999999983e-01 2.238210000000000122e+01 1.032149500000000018e+02 1.935534999999999854e+03
8.200000000000000344e-02 1.522189999999999932e-01 2.407954999999999757e+01 1.070203500000000076e+02 1.936920000000000073e+03
8.300000000000000433e-02 1.523615000000000108e-01 2.567779999999999774e+01 1.106355000000000075e+02 1.938255000000000109e+03
8.400000000000000522e-02 1.524980000000000224e-01 2.717255000000000109e+01 1.140690000000000026e+02 1.939539999999999964e+03
8.500000000000000611e-02 1.526290000000000147e-01 2.856405000000000172e+01 1.173389999999999986e+02 1.940779999999999973e+03
8.600000000000000699e-02 1.527545000000000153e-01 2.985625000000000284e+01 1.204699999999999989e+02 1.941970000000000027e+03
8.700000000000000788e-02 1.528765000000000263e-01 3.105550000000000210e+01 1.234890000000000043e+02 1.943119999999999891e+03
8.800000000000000877e-02 1.529935000000000045e-01 3.216955000000000098e+01 1.264230000000000018e+02 1.944230000000000018e+03
8.899999999999999578e-02 1.531085000000000085e-01 3.320629999999999882e+01 1.292964999999999804e+02 1.945320000000000164e+03
8.999999999999999667e-02 1.532205000000000095e-01 3.417320000000000135e+01 1.321285000000000025e+02 1.946394999999999982e+03
9.099999999999999756e-02 1.533315000000000095e-01 3.507625000000000171e+01 1.349304999999999950e+02 1.947444999999999936e+03
9.199999999999999845e-02 1.534404999999999797e-01 3.591965000000000430e+01 1.377084999999999866e+02 1.948485000000000127e+03
9.299999999999999933e-02 1.535484999999999767e-01 3.670565000000000566e+01 1.404594999999999914e+02 1.949515000000000100e+03
9.400000000000000022e-02 1.536549999999999860e-01 3.743404999999999916e+01 1.431744999999999948e+02 1.950529999999999973e+03
9.500000000000000111e-02 1.537604999999999944e-01 3.810280000000000200e+01 1.458374999999999773e+02 1.951529999999999973e+03
9.600000000000000200e-02 1.538634999999999864e-01 3.870805000000000007e+01 1.484279999999999973e+02 1.952509999999999991e+03
9.700000000000000289e-02 1.539630000000000165e-01 3.924429999999999552e+01 1.509234999999999900e+02 1.953470000000000027e+03
9.800000000000000377e-02 1.540590000000000015e-01 3.970524999999999949e+01 1.532980000000000018e+02 1.954389999999999873e+03
9.900000000000000466e-02 1.541514999999999969e-01 4.008375000000000199e+01 1.555254999999999939e+02 1.955269999999999982e+03
1.000000000000000056e-01 1.542379999999999862e-01 4.037265000000000015e+01 1.575805000000000007e+02 1.956099999999999909e+03
1.010000000000000064e-01 1.543184999999999973e-01 4.056490000000000151e+01 1.594399999999999977e+02 1.956875000000000000e+03
1.020000000000000073e-01 1.543915000000000148e-01 4.065420000000000300e+01 1.610835000000000150e+02 1.957579999999999927e+03
1.030000000000000082e-01 1.544570000000000110e-01 4.063530000000000086e+01 1.624939999999999998e+02 1.958215000000000146e+03
1.040000000000000091e-01 1.545139999999999847e-01 4.050435000000000230e+01 1.636589999999999918e+02 1.958769999999999982e+03
1.050000000000000100e-01 1.545620000000000049e-01 4.025900000000000034e+01 1.645695000000000050e+02 1.959244999999999891e+03
1.059999999999999970e-01 1.546015000000000028e-01 3.989894999999999925e+01 1.652224999999999966e+02 1.959625000000000000e+03
1.069999999999999979e-01 1.546315000000000051e-01 3.942610000000000525e+01 1.656214999999999975e+02 1.959920000000000073e+03
1.079999999999999988e-01 1.546520000000000117e-01 3.884425000000000239e+01 1.657724999999999795e+02 1.960130000000000109e+03
1.089999999999999997e-01 1.546635000000000093e-01 3.815975000000000250e+01 1.656879999999999882e+02 1.960255000000000109e+03
1.100000000000000006e-01 1.546669999999999989e-01 3.738065000000000282e+01 1.653870000000000005e+02 1.960295000000000073e+03
1.110000000000000014e-01 1.546620000000000217e-01 3.651725000000000421e+01 1.648890000000000100e+02 1.960259999999999991e+03
1.120000000000000023e-01 1.546494999999999953e-01 3.558109999999999928e+01 1.642210000000000036e+02 1.960154999999999973e+03
1.130000000000000032e-01 1.546310000000000184e-01 3.458520000000000039e+01 1.634094999999999800e+02 1.959985000000000127e+03
1.140000000000000041e-01 1.546064999999999801e-01 3.354325000000000045e+01 1.624830000000000041e+02 1.959759999999999991e+03
1.150000000000000050e-01 1.545775000000000066e-01 3.246909999999999741e+01 1.614710000000000036e+02 1.959494999999999891e+03
1.160000000000000059e-01 1.545455000000000023e-01 3.137669999999999959e+01 1.604019999999999868e+02 1.959190000000000055e+03
1.170000000000000068e-01 1.545104999999999951e-01 3.027924999999999756e+01 1.593025000000000091e+02 1.958860000000000127e+03
1.180000000000000077e-01 1.544734999999999858e-01 2.918884999999999863e+01 1.581959999999999980e+02 1.958509999999999991e+03
1.190000000000000085e-01 1.544360000000000177e-01 2.811639999999999873e+01 1.571030000000000086e+02 1.958155000000000200e+03
1.200000000000000094e-01 1.543979999999999797e-01 2.707104999999999961e+01 1.560395000000000039e+02 1.957795000000000073e+03
1.209999999999999964e-01 1.543609999999999982e-01 2.605995000000000061e+01 1.550180000000000007e+02 1.957440000000000055e+03
1.219999999999999973e-01 1.543245000000000033e-01 2.508854999999999791e+01 1.540464999999999804e+02 1.957090000000000146e+03
1.229999999999999982e-01 1.542890000000000095e-01 2.415984999999999872e+01 1.531265000000000214e+02 1.956750000000000000e+03
1.239999999999999991e-01 1.542554999999999898e-01 2.327515000000000001e+01 1.522574999999999932e+02 1.956429999999999836e+03
1.250000000000000000e-01 1.542229999999999990e-01 2.243359999999999843e+01 1.514345000000000141e+02 1.956115000000000009e+03
1.260000000000000009e-01 1.541919999999999957e-01 2.163255000000000194e+01 1.506490000000000009e+02 1.955819999999999936e+03
1.270000000000000018e-01 1.541619999999999935e-01 2.086789999999999878e+01 1.498880000000000052e+02 1.955525000000000091e+03
1.280000000000000027e-01 1.541325000000000056e-01 2.013419999999999987e+01 1.491380000000000052e+02 1.955239999999999782e+03
1.290000000000000036e-01 1.541035000000000044e-01 1.942499999999999716e+01 1.483845000000000027e+02 1.954960000000000036e+03
1.300000000000000044e-01 1.540739999999999887e-01 1.873329999999999984e+01 1.476109999999999900e+02 1.954675000000000182e+03
1.310000000000000053e-01 1.540440000000000142e-01 1.805170000000000030e+01 1.468004999999999995e+02 1.954384999999999991e+03
1.320000000000000062e-01 1.540124999999999966e-01 1.737304999999999922e+01 1.459389999999999930e+02 1.954085000000000036e+03
1.330000000000000071e-01 1.539794999999999914e-01 1.669059999999999988e+01 1.450120000000000005e+02 1.953765000000000100e+03
1.340000000000000080e-01 1.539440000000000253e-01 1.599834999999999852e+01 1.440095000000000027e+02 1.953429999999999836e+03
1.350000000000000089e-01 1.539055000000000006e-01 1.529139999999999944e+01 1.429214999999999804e+02 1.953065000000000055e+03
1.360000000000000098e-01 1.538645000000000151e-01 1.456619999999999848e+01 1.417450000000000045e+02 1.952674999999999955e+03
1.370000000000000107e-01 1.538204999999999989e-01 1.382069999999999865e+01 1.404775000000000205e+02 1.952264999999999873e+03
1.380000000000000115e-01 1.537735000000000074e-01 1.305444999999999922e+01 1.391220000000000141e+02 1.951815000000000055e+03
1.390000000000000124e-01 1.537229999999999985e-01 1.226875500000000052e+01 1.376845000000000141e+02 1.951340000000000146e+03
1.400000000000000133e-01 1.536704999999999877e-01 1.146649999999999991e+01 1.361759999999999877e+02 1.950835000000000036e+03
1.410000000000000142e-01 1.536144999999999872e-01 1.065224999999999866e+01 1.346090000000000089e+02 1.950315000000000055e+03
1.420000000000000151e-01 1.535569999999999991e-01 9.831879999999999953e+00 1.330004999999999882e+02 1.949769999999999982e+03
1.430000000000000160e-01 1.534975000000000089e-01 9.012385000000000090e+00 1.313694999999999879e+02 1.949214999999999918e+03
1.440000000000000169e-01 1.534379999999999911e-01 8.201779999999999404e+00 1.297355000000000018e+02 1.948644999999999982e+03
1.450000000000000178e-01 1.533774999999999999e-01 7.408529999999999838e+00 1.281204999999999927e+02 1.948075000000000045e+03
1.459999999999999909e-01 1.533174999999999955e-01 6.641260000000000829e+00 1.265434999999999945e+02 1.947509999999999991e+03
1.469999999999999918e-01 1.532594999999999930e-01 5.908475000000000144e+00 1.250264999999999986e+02 1.946960000000000036e+03
1.479999999999999927e-01 1.532024999999999915e-01 5.218175000000000452e+00 1.235865000000000009e+02 1.946420000000000073e+03
1.489999999999999936e-01 1.531484999999999930e-01 4.577539999999999942e+00 1.222394999999999925e+02 1.945905000000000200e+03
1.499999999999999944e-01 1.530974999999999975e-01 3.992669999999999941e+00 1.209985000000000070e+02 1.945420000000000073e+03
1.509999999999999953e-01 1.530495000000000050e-01 3.468374999999999986e+00 1.198735000000000070e+02 1.944974999999999909e+03
1.519999999999999962e-01 1.530064999999999897e-01 3.008049999999999891e+00 1.188709999999999951e+02 1.944554999999999836e+03
1.529999999999999971e-01 1.529670000000000196e-01 2.613604999999999734e+00 1.179925000000000068e+02 1.944180000000000064e+03
1.539999999999999980e-01 1.529320000000000124e-01 2.285425000000000040e+00 1.172384999999999877e+02 1.943845000000000027e+03
1.549999999999999989e-01 1.529014999999999957e-01 2.022475500000000093e+00 1.166055000000000064e+02 1.943549999999999955e+03
1.559999999999999998e-01 1.528750000000000109e-01 1.822347999999999857e+00 1.160859999999999985e+02 1.943295000000000073e+03
1.570000000000000007e-01 1.528530000000000166e-01 1.681468500000000033e+00 1.156709999999999923e+02 1.943075000000000045e+03
1.580000000000000016e-01 1.528345000000000120e-01 1.595235500000000028e+00 1.153499999999999943e+02 1.942894999999999982e+03
1.590000000000000024e-01 1.528189999999999826e-01 1.558242000000000127e+00 1.151115000000000066e+02 1.942744999999999891e+03
