# t [s], A [cm^2], U [cm/s], P [cPa], c [cm/s]
1.000000000000000021e-03 1.976835000000000120e-01 3.467156500000000419e-01 9.726920000000001210e+01 2.256619999999999891e+03
2.000000000000000042e-03 1.976165000000000005e-01 1.941049000000000024e+00 9.345284999999999798e+01 2.256045000000000073e+03
3.000000000000000062e-03 1.974579999999999946e-01 3.926822500000000105e+00 8.807245000000000346e+01 2.254739999999999782e+03
4.000000000000000083e-03 1.972555000000000003e-01 6.190931499999999588e+00 8.245445000000000846e+01 2.253090000000000146e+03
5.000000000000000104e-03 1.970514999999999906e-01 8.611449999999999605e+00 7.770320000000000960e+01 2.251440000000000055e+03
6.000000000000000125e-03 1.968614999999999948e-01 1.089246499999999962e+01 7.388800000000000523e+01 2.249934999999999945e+03
7.000000000000000146e-03 1.966875000000000151e-01 1.278642499999999949e+01 7.050700000000000500e+01 2.248585000000000036e+03
8.000000000000000167e-03 1.965339999999999865e-01 1.430669999999999931e+01 6.750010000000000332e+01 2.247414999999999964e+03
9.000000000000001055e-03 1.964064999999999839e-01 1.552390000000000114e+01 6.505199999999999250e+01 2.246460000000000036e+03
1.000000000000000194e-02 1.963044999999999929e-01 1.646630000000000038e+01 6.316660000000000252e+01 2.245704999999999927e+03
1.099999999999999936e-02 1.962269999999999848e-01 1.716554999999999964e+01 6.178085000000000093e+01 2.245135000000000218e+03
1.200000000000000025e-02 1.961690000000000100e-01 1.763109999999999999e+01 6.076435000000000741e+01 2.244720000000000255e+03
1.300000000000000114e-02 1.961220000000000185e-01 1.786399999999999721e+01 5.990420000000000300e+01 2.244394999999999982e+03
1.400000000000000203e-02 1.960854999999999959e-01 1.796025000000000205e+01 5.919495000000000573e+01 2.244139999999999873e+03
1.499999999999999944e-02 1.960675000000000057e-01 1.814405000000000001e+01 5.907435000000000258e+01 2.244029999999999745e+03
1.600000000000000033e-02 1.960859999999999825e-01 1.864610000000000056e+01 6.018980000000000530e+01 2.244170000000000073e+03
1.700000000000000122e-02 1.961510000000000198e-01 1.953750000000000142e+01 6.286169999999999902e+01 2.244654999999999745e+03
1.800000000000000211e-02 1.962575000000000014e-01 2.066239999999999810e+01 6.672294999999999732e+01 2.245454999999999927e+03
1.900000000000000300e-02 1.963830000000000020e-01 2.170989999999999753e+01 7.079939999999999145e+01 2.246409999999999854e+03
2.000000000000000042e-02 1.964965000000000184e-01 2.236424999999999841e+01 7.394200000000000728e+01 2.247295000000000073e+03
2.100000000000000130e-02 1.965709999999999957e-01 2.244405000000000072e+01 7.533334999999999582e+01 2.247894999999999982e+03
2.200000000000000219e-02 1.965930000000000177e-01 2.196640000000000015e+01 7.480789999999998940e+01 2.248105000000000018e+03
2.299999999999999961e-02 1.965679999999999927e-01 2.111565000000000225e+01 7.285175000000000978e+01 2.247949999999999818e+03
2.400000000000000050e-02 1.965129999999999932e-01 2.014274999999999949e+01 7.031900000000000261e+01 2.247550000000000182e+03
2.500000000000000139e-02 1.964509999999999867e-01 1.925309999999999988e+01 6.803005000000000280e+01 2.247079999999999927e+03
2.600000000000000228e-02 1.963980000000000170e-01 1.853365000000000151e+01 6.645114999999999839e+01 2.246664999999999964e+03
2.700000000000000316e-02 1.963595000000000201e-01 1.794355000000000189e+01 6.557770000000000721e+01 2.246364999999999782e+03
2.800000000000000058e-02 1.963320000000000065e-01 1.735869999999999891e+01 6.503175000000000239e+01 2.246144999999999982e+03
2.900000000000000147e-02 1.963035000000000196e-01 1.664474999999999838e+01 6.429505000000000337e+01 2.245925000000000182e+03
3.000000000000000236e-02 1.962619999999999920e-01 1.572714999999999996e+01 6.297204999999999586e+01 2.245625000000000000e+03
3.099999999999999978e-02 1.962030000000000163e-01 1.463390000000000057e+01 6.098355000000000103e+01 2.245185000000000400e+03
3.200000000000000067e-02 1.961304999999999854e-01 1.349660000000000082e+01 5.862470000000000425e+01 2.244639999999999873e+03
3.300000000000000155e-02 1.960574999999999957e-01 1.250935000000000130e+01 5.646875000000000000e+01 2.244079999999999927e+03
3.400000000000000244e-02 1.960014999999999952e-01 1.186190000000000033e+01 5.515780000000000172e+01 2.243639999999999873e+03
3.500000000000000333e-02 1.959779999999999855e-01 1.167520000000000024e+01 5.516955000000000098e+01 2.243440000000000055e+03
3.600000000000000422e-02 1.959974999999999912e-01 1.196199999999999974e+01 5.664724999999999966e+01 2.243554999999999836e+03
3.700000000000000511e-02 1.960580000000000100e-01 1.262340000000000018e+01 5.935004999999999598e+01 2.243989999999999782e+03
3.799999999999999906e-02 1.961479999999999890e-01 1.347755000000000081e+01 6.272289999999999566e+01 2.244649999999999636e+03
3.899999999999999994e-02 1.962490000000000068e-01 1.430560000000000009e+01 6.604815000000000680e+01 2.245414999999999964e+03
4.000000000000000083e-02 1.963409999999999878e-01 1.490094999999999992e+01 6.862045000000000528e+01 2.246114999999999782e+03
4.100000000000000172e-02 1.964039999999999953e-01 1.510679999999999978e+01 6.989570000000000505e+01 2.246614999999999782e+03
4.200000000000000261e-02 1.964250000000000163e-01 1.483719999999999928e+01 6.957980000000000587e+01 2.246795000000000073e+03
4.300000000000000350e-02 1.963975000000000026e-01 1.407920000000000016e+01 6.764670000000000982e+01 2.246609999999999673e+03
4.400000000000000439e-02 1.963209999999999955e-01 1.287957000000000107e+01 6.429505000000000337e+01 2.246055000000000291e+03
4.499999999999999833e-02 1.962035000000000029e-01 1.132370500000000035e+01 5.986599999999999966e+01 2.245175000000000182e+03
4.599999999999999922e-02 1.960540000000000060e-01 9.513450000000000628e+00 5.475289999999999679e+01 2.244055000000000291e+03
4.700000000000000011e-02 1.958840000000000026e-01 7.549760000000000026e+00 4.932744999999999891e+01 2.242769999999999982e+03
4.800000000000000100e-02 1.957039999999999891e-01 5.523820499999999356e+00 4.389654999999999774e+01 2.241395000000000437e+03
4.900000000000000189e-02 1.955224999999999880e-01 3.514974999999999739e+00 3.869270000000000209e+01 2.240010000000000218e+03
5.000000000000000278e-02 1.953475000000000072e-01 1.593834999999999891e+00 3.388765000000000072e+01 2.238675000000000182e+03
5.100000000000000366e-02 1.951844999999999830e-01 -1.729549999999999699e-01 2.961785000000000068e+01 2.237429999999999836e+03
5.200000000000000455e-02 1.950395000000000045e-01 -1.719265000000000043e+00 2.600860000000000127e+01 2.236309999999999945e+03
5.300000000000000544e-02 1.949174999999999935e-01 -2.978894500000000001e+00 2.318755000000000166e+01 2.235364999999999782e+03
5.399999999999999939e-02 1.948230000000000239e-01 -3.888284999999999769e+00 2.128580000000000183e+01 2.234625000000000000e+03
5.500000000000000028e-02 1.947610000000000174e-01 -4.391770000000000174e+00 2.042620000000000147e+01 2.234125000000000000e+03
5.600000000000000117e-02 1.947349999999999914e-01 -4.447849999999999859e+00 2.070530000000000115e+01 2.233900000000000091e+03
5.700000000000000205e-02 1.947490000000000054e-01 -4.034715000000000273e+00 2.217435000000000045e+01 2.233975000000000364e+03
5.800000000000000294e-02 1.948030000000000039e-01 -3.153655000000000097e+00 2.482569999999999766e+01 2.234350000000000364e+03
5.900000000000000383e-02 1.948969999999999869e-01 -1.829638499999999945e+00 2.858785000000000309e+01 2.235034999999999854e+03
6.000000000000000472e-02 1.950275000000000203e-01 -1.091299999999999493e-01 3.332985000000000042e+01 2.236000000000000000e+03
6.099999999999999867e-02 1.951910000000000034e-01 1.944099999999999939e+00 3.887369999999999948e+01 2.237219999999999800e+03
6.199999999999999956e-02 1.953809999999999991e-01 4.254244500000000428e+00 4.501050000000000040e+01 2.238650000000000091e+03
6.300000000000000044e-02 1.955899999999999861e-01 6.738879999999999981e+00 5.151789999999999736e+01 2.240230000000000018e+03
6.400000000000000133e-02 1.958119999999999861e-01 9.314230000000000231e+00 5.817620000000000147e+01 2.241914999999999964e+03
6.500000000000000222e-02 1.960394999999999777e-01 1.189963999999999977e+01 6.478155000000000996e+01 2.243654999999999745e+03
6.600000000000000311e-02 1.962659999999999960e-01 1.442182999999999993e+01 7.115689999999999316e+01 2.245394999999999982e+03
6.700000000000000400e-02 1.964850000000000207e-01 1.681864999999999810e+01 7.716100000000000136e+01 2.247085000000000036e+03
6.800000000000000488e-02 1.966930000000000067e-01 1.904214999999999947e+01 8.269534999999999059e+01 2.248694999999999709e+03
6.900000000000000577e-02 1.968864999999999921e-01 2.106109999999999971e+01 8.770855000000000246e+01 2.250199999999999818e+03
7.000000000000000666e-02 1.970640000000000169e-01 2.286185000000000045e+01 9.219759999999999422e+01 2.251585000000000036e+03
7.100000000000000755e-02 1.972254999999999980e-01 2.444810000000000016e+01 9.620509999999998740e+01 2.252849999999999909e+03
7.200000000000000844e-02 1.973714999999999775e-01 2.583879999999999910e+01 9.981265000000000498e+01 2.254005000000000109e+03
7.300000000000000933e-02 1.975065000000000015e-01 2.706479999999999819e+01 1.031276000000000010e+02 2.255065000000000055e+03
7.399999999999999634e-02 1.976330000000000031e-01 2.816445000000000221e+01 1.062734999999999985e+02 2.256064999999999600e+03
7.499999999999999722e-02 1.977544999999999997e-01 2.917900000000000205e+01 1.093714999999999975e+02 2.257019999999999982e+03
7.599999999999999811e-02 1.978749999999999953e-01 3.014799999999999969e+01 1.125310000000000059e+02 2.257965000000000146e+03
7.699999999999999900e-02 1.979974999999999929e-01 3.110529999999999973e+01 1.158359999999999985e+02 2.258930000000000291e+03
7.799999999999999989e-02 1.981244999999999812e-01 3.207600000000000051e+01 1.193404999999999916e+02 2.259920000000000073e+03
7.900000000000000078e-02 1.982575000000000032e-01 3.307489999999999952e+01 1.230620000000000118e+02 2.260960000000000036e+03
8.000000000000000167e-02 1.983969999999999900e-01 3.410590000000000543e+01 1.269860000000000042e+02 2.262050000000000182e+03
8.100000000000000255e-02 1.985414999999999819e-01 3.516205000000000069e+01 1.310660000000000025e+02 2.263179999999999836e+03
8.200000000000000344e-02 1.986904999999999921e-01 3.622729999999999961e+01 1.352319999999999993e+02 2.264340000000000146e+03
8.300000000000000433e-02 1.988409999999999900e-01 3.727799999999999869e+01 1.393949999999999818e+02 2.265519999999999982e+03
8.400000000000000522e-02 1.989900000000000002e-01 3.828565000000000396e+01 1.434580000000000268e+02 2.266684999999999945e+03
8.500000000000000611e-02 1.991350000000000064e-01 3.921875000000000000e+01 1.473215000000000146e+02 2.267819999999999709e+03
8.600000000000000699e-02 1.992720000000000047e-01 4.004579999999999984e+01 1.508904999999999745e+02 2.268900000000000091e+03
8.700000000000000788e-02 1.993984999999999785e-01 4.073720000000000141e+01 1.540794999999999959e+02 2.269894999999999982e+03
8.800000000000000877e-02 1.995104999999999795e-01 4.126739999999999498e+01 1.568204999999999814e+02 2.270784999999999854e+03
8.899999999999999578e-02 1.996080000000000076e-01 4.161629999999999541e+01 1.590629999999999882e+02 2.271560000000000400e+03
8.999999999999999667e-02 1.996880000000000044e-01 4.177084999999999582e+01 1.607775000000000034e+02 2.272199999999999818e+03
9.099999999999999756e-02 1.997504999999999975e-01 4.172560000000000002e+01 1.619565000000000055e+02 2.272699999999999818e+03
9.199999999999999845e-02 1.997939999999999994e-01 4.148274999999999579e+01 1.626129999999999995e+02 2.273065000000000055e+03
9.299999999999999933e-02 1.998199999999999976e-01 4.105245000000000033e+01 1.627814999999999941e+02 2.273284999999999854e+03
9.400000000000000022e-02 1.998294999999999932e-01 4.045149999999999579e+01 1.625124999999999886e+02 2.273375000000000000e+03
9.500000000000000111e-02 1.998245000000000160e-01 3.970270000000000010e+01 1.618700000000000045e+02 2.273345000000000255e+03
9.600000000000000200e-02 1.998070000000000124e-01 3.883289999999999509e+01 1.609270000000000209e+02 2.273219999999999800e+03
9.700000000000000289e-02 1.997784999999999977e-01 3.787215000000000487e+01 1.597620000000000005e+02 2.273010000000000218e+03
9.800000000000000377e-02 1.997424999999999895e-01 3.685125000000000028e+01 1.584524999999999864e+02 2.272734999999999673e+03
9.900000000000000466e-02 1.997015000000000040e-01 3.580095000000000027e+01 1.570749999999999886e+02 2.272420000000000073e+03
1.000000000000000056e-01 1.996574999999999878e-01 3.475014999999999787e+01 1.556970000000000027e+02 2.272085000000000036e+03
1.010000000000000064e-01 1.996140000000000136e-01 3.372450000000000614e+01 1.543774999999999977e+02 2.271739999999999782e+03
1.020000000000000073e-01 1.995709999999999984e-01 3.274589999999999890e+01 1.531655000000000086e+02 2.271404999999999745e+03
1.030000000000000082e-01 1.995315000000000005e-01 3.183115000000000094e+01 1.520955000000000155e+02 2.271090000000000146e+03
1.040000000000000091e-01 1.994960000000000067e-01 3.099154999999999660e+01 1.511864999999999952e+02 2.270809999999999945e+03
1.050000000000000100e-01 1.994655000000000178e-01 3.023260000000000147e+01 1.504455000000000098e+02 2.270565000000000055e+03
1.059999999999999970e-01 1.994400000000000062e-01 2.955385000000000062e+01 1.498640000000000043e+02 2.270359999999999673e+03
1.069999999999999979e-01 1.994194999999999995e-01 2.894930000000000092e+01 1.494194999999999993e+02 2.270185000000000400e+03
1.079999999999999988e-01 1.994024999999999825e-01 2.840775000000000006e+01 1.490769999999999982e+02 2.270055000000000291e+03
1.089999999999999997e-01 1.993889999999999829e-01 2.791385000000000005e+01 1.487944999999999993e+02 2.269940000000000055e+03
1.100000000000000006e-01 1.993759999999999977e-01 2.744914999999999949e+01 1.485199999999999818e+02 2.269835000000000036e+03
1.110000000000000014e-01 1.993634999999999990e-01 2.699350000000000094e+01 1.481999999999999886e+02 2.269734999999999673e+03
1.120000000000000023e-01 1.993489999999999984e-01 2.652639999999999887e+01 1.477824999999999989e+02 2.269614999999999782e+03
1.130000000000000032e-01 1.993309999999999804e-01 2.602834999999999965e+01 1.472185000000000059e+02 2.269470000000000255e+03
1.140000000000000041e-01 1.993074999999999986e-01 2.548239999999999839e+01 1.464675000000000011e+02 2.269284999999999854e+03
1.150000000000000050e-01 1.992774999999999963e-01 2.487525000000000119e+01 1.455004999999999882e+02 2.269054999999999836e+03
1.160000000000000059e-01 1.992404999999999871e-01 2.419829999999999970e+01 1.443000000000000114e+02 2.268769999999999982e+03
1.170000000000000068e-01 1.991954999999999976e-01 2.344800000000000040e+01 1.428650000000000091e+02 2.268420000000000073e+03
1.180000000000000077e-01 1.991430000000000144e-01 2.262655000000000172e+01 1.412079999999999984e+02 2.268015000000000327e+03
1.190000000000000085e-01 1.990834999999999966e-01 2.174130000000000251e+01 1.393564999999999827e+02 2.267550000000000182e+03
1.200000000000000094e-01 1.990175000000000138e-01 2.080485000000000184e+01 1.373500000000000227e+02 2.267039999999999964e+03
1.209999999999999964e-01 1.989465000000000261e-01 1.983364999999999867e+01 1.352384999999999877e+02 2.266489999999999782e+03
1.219999999999999973e-01 1.988725000000000076e-01 1.884740000000000038e+01 1.330774999999999864e+02 2.265914999999999964e+03
1.229999999999999982e-01 1.987970000000000015e-01 1.786755000000000138e+01 1.309279999999999973e+02 2.265329999999999927e+03
1.239999999999999991e-01 1.987220000000000097e-01 1.691605000000000203e+01 1.288495000000000061e+02 2.264750000000000000e+03
1.250000000000000000e-01 1.986505000000000076e-01 1.601409999999999911e+01 1.268965000000000032e+02 2.264179999999999836e+03
1.260000000000000009e-01 1.985824999999999951e-01 1.518094999999999928e+01 1.251185000000000116e+02 2.263650000000000091e+03
1.270000000000000018e-01 1.985204999999999886e-01 1.443269999999999875e+01 1.235545000000000044e+02 2.263164999999999964e+03
1.280000000000000027e-01 1.984660000000000035e-01 1.378190000000000026e+01 1.222334999999999923e+02 2.262730000000000018e+03
1.290000000000000036e-01 1.984190000000000120e-01 1.323670000000000080e+01 1.211719999999999970e+02 2.262359999999999673e+03
1.300000000000000044e-01 1.983820000000000028e-01 1.280109999999999992e+01 1.203745000000000118e+02 2.262059999999999945e+03
1.310000000000000053e-01 1.983524999999999872e-01 1.247435000000000116e+01 1.198354999999999961e+02 2.261819999999999709e+03
1.320000000000000062e-01 1.983324999999999949e-01 1.225220000000000020e+01 1.195390000000000015e+02 2.261655000000000200e+03
1.330000000000000071e-01 1.983199999999999963e-01 1.212650000000000006e+01 1.194600000000000080e+02 2.261555000000000291e+03
1.340000000000000080e-01 1.983155000000000057e-01 1.208640000000000114e+01 1.195679999999999978e+02 2.261505000000000109e+03
1.350000000000000089e-01 1.983169999999999933e-01 1.211880000000000024e+01 1.198284999999999911e+02 2.261505000000000109e+03
1.360000000000000098e-01 1.983234999999999859e-01 1.220914999999999928e+01 1.202044999999999959e+02 2.261555000000000291e+03
1.370000000000000107e-01 1.983334999999999959e-01 1.234220000000000006e+01 1.206580000000000013e+02 2.261630000000000109e+03
1.380000000000000115e-01 1.983469999999999955e-01 1.250264999999999915e+01 1.211525000000000034e+02 2.261725000000000364e+03
1.390000000000000124e-01 1.983619999999999828e-01 1.267590000000000039e+01 1.216544999999999987e+02 2.261840000000000146e+03
1.400000000000000133e-01 1.983774999999999844e-01 1.284844999999999970e+01 1.221330000000000098e+02 2.261960000000000036e+03
1.410000000000000142e-01 1.983920000000000128e-01 1.300830000000000020e+01 1.225629999999999882e+02 2.262069999999999709e+03
1.420000000000000151e-01 1.984055000000000124e-01 1.314555000000000007e+01 1.229240000000000066e+02 2.262175000000000182e+03
1.430000000000000160e-01 1.984170000000000100e-01 1.325260000000000105e+01 1.232014999999999958e+02 2.262260000000000218e+03
1.440000000000000169e-01 1.984250000000000180e-01 1.332430000000000092e+01 1.233875000000000028e+02 2.262329999999999927e+03
1.450000000000000178e-01 1.984310000000000240e-01 1.335790000000000077e+01 1.234789999999999992e+02 2.262380000000000109e+03
1.459999999999999909e-01 1.984334999999999849e-01 1.335324999999999918e+01 1.234795000000000016e+02 2.262404999999999745e+03
1.469999999999999918e-01 1.984334999999999849e-01 1.331230000000000047e+01 1.233979999999999961e+02 2.262409999999999854e+03
1.479999999999999927e-01 1.984309999999999963e-01 1.323910000000000053e+01 1.232469999999999999e+02 2.262390000000000327e+03
1.489999999999999936e-01 1.984259999999999913e-01 1.313925000000000054e+01 1.230430000000000064e+02 2.262355000000000018e+03
1.499999999999999944e-01 1.984194999999999987e-01 1.301940000000000097e+01 1.228034999999999997e+02 2.262305000000000291e+03
1.509999999999999953e-01 1.984119999999999773e-01 1.288670000000000115e+01 1.225469999999999970e+02 2.262250000000000000e+03
1.519999999999999962e-01 1.984040000000000248e-01 1.274840000000000018e+01 1.222920000000000016e+02 2.262190000000000055e+03
1.529999999999999971e-01 1.983960000000000168e-01 1.261134999999999984e+01 1.220550000000000068e+02 2.262125000000000000e+03
1.539999999999999980e-01 1.983884999999999954e-01 1.248150000000000048e+01 1.218485000000000014e+02 2.262070000000000164e+03
1.549999999999999989e-01 1.983820000000000028e-01 1.236364999999999981e+01 1.216825000000000045e+02 2.262019999999999982e+03
1.559999999999999998e-01 1.983769999999999978e-01 1.226135000000000019e+01 1.215630000000000024e+02 2.261980000000000018e+03
1.570000000000000007e-01 1.983730000000000215e-01 1.217644999999999911e+01 1.214909999999999997e+02 2.261949999999999818e+03
1.580000000000000016e-01 1.983710000000000195e-01 1.210960000000000036e+01 1.214660000000000082e+02 2.261930000000000291e+03
1.590000000000000024e-01 1.983699999999999908e-01 1.206009999999999849e+01 1.214819999999999993e+02 2.261920000000000073e+03
