# t [s], A [cm^2], U [cm/s], P [cPa], c [cm/s]
1.000000000000000021e-03 5.781804999999999861e-01 3.925350000000001061e-03 9.149604999999999677e+01 1.566130000000000109e+03
2.000000000000000042e-03 5.781720000000000192e-01 -1.638965000000000040e-03 9.147180000000000177e+01 1.566125000000000000e+03
3.000000000000000062e-03 5.782190000000000385e-01 8.639940000000001508e-02 9.155989999999999895e+01 1.566150000000000091e+03
4.000000000000000083e-03 5.782650000000000290e-01 1.817446000000000061e-01 9.167510000000000048e+01 1.566179999999999836e+03
5.000000000000000104e-03 5.782484999999999431e-01 1.684573500000000057e-01 9.164209999999999923e+01 1.566170000000000073e+03
6.000000000000000125e-03 5.781920000000000393e-01 7.671600000000000641e-02 9.145404999999999518e+01 1.566130000000000109e+03
7.000000000000000146e-03 5.781399999999999872e-01 -1.400299999999998768e-02 9.120274999999999466e+01 1.566074999999999818e+03
8.000000000000000167e-03 5.780665000000000386e-01 -1.545255000000000378e-01 9.084565000000000623e+01 1.565985000000000127e+03
9.000000000000001055e-03 5.779414999999999969e-01 -4.062750000000000528e-01 9.029474999999999341e+01 1.565855000000000018e+03
1.000000000000000194e-02 5.777605000000000102e-01 -7.749149999999999094e-01 8.950879999999999370e+01 1.565670000000000073e+03
1.099999999999999936e-02 5.775120000000000253e-01 -1.273020000000000040e+00 8.843919999999999959e+01 1.565414999999999964e+03
1.200000000000000025e-02 5.771824999999999317e-01 -1.913485000000000102e+00 8.703265000000000384e+01 1.565070000000000164e+03
1.300000000000000114e-02 5.767845000000000333e-01 -2.650875000000000092e+00 8.530594999999999573e+01 1.564639999999999873e+03
1.400000000000000203e-02 5.763679999999999914e-01 -3.367614999999999803e+00 8.338495000000000346e+01 1.564139999999999873e+03
1.499999999999999944e-02 5.759889999999999732e-01 -3.923885499999999471e+00 8.146004999999999541e+01 1.563630000000000109e+03
1.600000000000000033e-02 5.756850000000000023e-01 -4.220123650000000559e+00 7.970335000000000036e+01 1.563134999999999991e+03
1.700000000000000122e-02 5.754590000000000538e-01 -4.228554499999999550e+00 7.820795000000001096e+01 1.562690000000000055e+03
1.800000000000000211e-02 5.752884999999999804e-01 -3.988376500000000213e+00 7.697124999999999773e+01 1.562295000000000073e+03
1.900000000000000300e-02 5.751364999999999394e-01 -3.579230000000000356e+00 7.591460000000000719e+01 1.561934999999999945e+03
2.000000000000000042e-02 5.749664999999999360e-01 -3.088451000000000057e+00 7.492314999999999259e+01 1.561589999999999918e+03
2.100000000000000130e-02 5.747560000000000446e-01 -2.582721700000000009e+00 7.388894999999999413e+01 1.561240000000000009e+03
2.200000000000000219e-02 5.744979999999999531e-01 -2.091774500000000092e+00 7.274520000000001119e+01 1.560875000000000000e+03
2.299999999999999961e-02 5.742035000000000888e-01 -1.608259999999999801e+00 7.147999999999998977e+01 1.560480000000000018e+03
2.400000000000000050e-02 5.738929999999999865e-01 -1.102370000000000294e+00 7.012760000000000105e+01 1.560059999999999945e+03
2.500000000000000139e-02 5.735844999999999416e-01 -5.434849999999999959e-01 6.874264999999999759e+01 1.559630000000000109e+03
2.600000000000000228e-02 5.732880000000000198e-01 8.045500000000016527e-02 6.737129999999999086e+01 1.559200000000000045e+03
2.700000000000000316e-02 5.730009999999999826e-01 7.525150000000000450e-01 6.602845000000000653e+01 1.558775000000000091e+03
2.800000000000000058e-02 5.727090000000000236e-01 1.426684999999999981e+00 6.468840000000000146e+01 1.558345000000000027e+03
2.900000000000000147e-02 5.723890000000000366e-01 2.036650000000000293e+00 6.328869999999999152e+01 1.557905000000000200e+03
3.000000000000000236e-02 5.720180000000000264e-01 2.510044999999999860e+00 6.174519999999999698e+01 1.557434999999999945e+03
3.099999999999999978e-02 5.715755000000000141e-01 2.784589999999999677e+00 5.997344999999999970e+01 1.556909999999999854e+03
3.200000000000000067e-02 5.710524999999999629e-01 2.822345000000000326e+00 5.791205000000000069e+01 1.556319999999999936e+03
3.300000000000000155e-02 5.704525000000000290e-01 2.618665000000000020e+00 5.554169999999999874e+01 1.555654999999999973e+03
3.400000000000000244e-02 5.697944999999999816e-01 2.203070000000000306e+00 5.289395000000000380e+01 1.554924999999999955e+03
3.500000000000000333e-02 5.691045000000000131e-01 1.632899999999999796e+00 5.004945000000000022e+01 1.554134999999999991e+03
3.600000000000000422e-02 5.684164999999999912e-01 9.816300000000000026e-01 4.712489999999999668e+01 1.553324999999999818e+03
3.700000000000000511e-02 5.677619999999999889e-01 3.256199999999997985e-01 4.425530000000000541e+01 1.552514999999999873e+03
3.799999999999999906e-02 5.671705000000000219e-01 -2.666599999999998971e-01 4.157484999999999786e+01 1.551744999999999891e+03
3.899999999999999994e-02 5.666629999999999168e-01 -7.416449999999996656e-01 3.920145000000000124e+01 1.551034999999999854e+03
4.000000000000000083e-02 5.662534999999999652e-01 -1.063314999999999788e+00 3.722644999999999982e+01 1.550429999999999836e+03
4.100000000000000172e-02 5.659490000000000354e-01 -1.212145000000000028e+00 3.571059999999999945e+01 1.549940000000000055e+03
4.200000000000000261e-02 5.657510000000000039e-01 -1.181524999999999936e+00 3.468469999999999942e+01 1.549574999999999818e+03
4.300000000000000350e-02 5.656570000000000764e-01 -9.730814999999999326e-01 3.415484999999999616e+01 1.549335000000000036e+03
4.400000000000000439e-02 5.656619999999999981e-01 -5.921355000000000368e-01 3.410904999999999632e+01 1.549239999999999782e+03
4.499999999999999833e-02 5.657619999999999871e-01 -4.426999999999992053e-02 3.452469999999999573e+01 1.549269999999999982e+03
4.599999999999999922e-02 5.659505000000000230e-01 6.662949999999999706e-01 3.537420000000000186e+01 1.549429999999999836e+03
4.700000000000000011e-02 5.662240000000000606e-01 1.536594999999999933e+00 3.662855000000000416e+01 1.549704999999999927e+03
4.800000000000000100e-02 5.665769999999999973e-01 2.563309999999999533e+00 3.825854999999999961e+01 1.550095000000000027e+03
4.900000000000000189e-02 5.670040000000000635e-01 3.740635000000000154e+00 4.023355000000000103e+01 1.550585000000000036e+03
5.000000000000000278e-02 5.674989999999999757e-01 5.058250000000000135e+00 4.252004999999999768e+01 1.551175000000000182e+03
5.100000000000000366e-02 5.680515000000000425e-01 6.499984000000000428e+00 4.507954999999999757e+01 1.551845000000000027e+03
5.200000000000000455e-02 5.686525000000000052e-01 8.043913999999999120e+00 4.786789999999999878e+01 1.552585000000000036e+03
5.300000000000000544e-02 5.692884999999999751e-01 9.663074999999999193e+00 5.083550000000000324e+01 1.553389999999999873e+03
5.399999999999999939e-02 5.699480000000000102e-01 1.132718500000000006e+01 5.392900000000000205e+01 1.554235000000000127e+03
5.500000000000000028e-02 5.706189999999999873e-01 1.300525500000000001e+01 5.709385000000000332e+01 1.555119999999999891e+03
5.600000000000000117e-02 5.712895000000000056e-01 1.466738499999999945e+01 6.027754999999999797e+01 1.556014999999999873e+03
5.700000000000000205e-02 5.719499999999999584e-01 1.628717999999999932e+01 6.343255000000000621e+01 1.556914999999999964e+03
5.800000000000000294e-02 5.725934999999999775e-01 1.784284999999999854e+01 6.651945000000000618e+01 1.557809999999999945e+03
5.900000000000000383e-02 5.732150000000000301e-01 1.931840000000000046e+01 6.950829999999999131e+01 1.558684999999999945e+03
6.000000000000000472e-02 5.738109999999999600e-01 2.070360000000000156e+01 7.237980000000000302e+01 1.559539999999999964e+03
6.099999999999999867e-02 5.743819999999999482e-01 2.199369999999999692e+01 7.512550000000000239e+01 1.560365000000000009e+03
6.199999999999999956e-02 5.749290000000000234e-01 2.318865000000000265e+01 7.774649999999999750e+01 1.561160000000000082e+03
6.300000000000000044e-02 5.754555000000000087e-01 2.429244999999999877e+01 8.025220000000000198e+01 1.561929999999999836e+03
6.400000000000000133e-02 5.759649999999999492e-01 2.531184999999999974e+01 8.265860000000000696e+01 1.562664999999999964e+03
6.500000000000000222e-02 5.764629999999999477e-01 2.625570000000000093e+01 8.498584999999999923e+01 1.563384999999999991e+03
6.600000000000000311e-02 5.769530000000000491e-01 2.713380000000000081e+01 8.725645000000000095e+01 1.564085000000000036e+03
6.700000000000000400e-02 5.774405000000000232e-01 2.795620000000000260e+01 8.949330000000000496e+01 1.564780000000000200e+03
6.800000000000000488e-02 5.779289999999999150e-01 2.873230000000000217e+01 9.171750000000000114e+01 1.565460000000000036e+03
6.900000000000000577e-02 5.784219999999999917e-01 2.947050000000000125e+01 9.394710000000000605e+01 1.566144999999999982e+03
7.000000000000000666e-02 5.789214999999999778e-01 3.017715000000000103e+01 9.619565000000000055e+01 1.566835000000000036e+03
7.100000000000000755e-02 5.794285000000000130e-01 3.085629999999999740e+01 9.847015000000000384e+01 1.567529999999999973e+03
7.200000000000000844e-02 5.799419999999999575e-01 3.150959999999999894e+01 1.007727999999999895e+02 1.568230000000000018e+03
7.300000000000000933e-02 5.804610000000000047e-01 3.213600000000000279e+01 1.030983999999999980e+02 1.568929999999999836e+03
7.399999999999999634e-02 5.809815000000000396e-01 3.273179999999999978e+01 1.054350000000000023e+02 1.569644999999999982e+03
7.499999999999999722e-02 5.815000000000000169e-01 3.329140000000000299e+01 1.077669999999999959e+02 1.570349999999999909e+03
7.599999999999999811e-02 5.820115000000000149e-01 3.380734999999999957e+01 1.100730000000000075e+02 1.571050000000000182e+03
7.699999999999999900e-02 5.825099999999999723e-01 3.427125000000000199e+01 1.123284999999999911e+02 1.571744999999999891e+03
7.799999999999999989e-02 5.829904999999999671e-01 3.467430000000000234e+01 1.145090000000000003e+02 1.572414999999999964e+03
7.900000000000000078e-02 5.834470000000000489e-01 3.500794999999999391e+01 1.165889999999999986e+02 1.573059999999999945e+03
8.000000000000000167e-02 5.838754999999999917e-01 3.526434999999999320e+01 1.185444999999999993e+02 1.573675000000000182e+03
8.100000000000000255e-02 5.842720000000000136e-01 3.543694999999999595e+01 1.203549999999999898e+02 1.574244999999999891e+03
8.200000000000000344e-02 5.846320000000000405e-01 3.552080000000000126e+01 1.220024999999999977e+02 1.574775000000000091e+03
8.300000000000000433e-02 5.849530000000000562e-01 3.551265000000000072e+01 1.234739999999999895e+02 1.575259999999999991e+03
8.400000000000000522e-02 5.852350000000000607e-01 3.541134999999999877e+01 1.247604999999999933e+02 1.575690000000000055e+03
8.500000000000000611e-02 5.854764999999999553e-01 3.521769999999999357e+01 1.258584999999999923e+02 1.576065000000000055e+03
8.600000000000000699e-02 5.856784999999999908e-01 3.493465000000000487e+01 1.267690000000000055e+02 1.576384999999999991e+03
8.700000000000000788e-02 5.858419999999999739e-01 3.456685000000000230e+01 1.274975000000000023e+02 1.576650000000000091e+03
8.800000000000000877e-02 5.859695000000000320e-01 3.412095000000000056e+01 1.280534999999999854e+02 1.576865000000000009e+03
8.899999999999999578e-02 5.860640000000000294e-01 3.360510000000000019e+01 1.284510000000000218e+02 1.577034999999999854e+03
8.999999999999999667e-02 5.861290000000000111e-01 3.302870000000000061e+01 1.287044999999999959e+02 1.577155000000000200e+03
9.099999999999999756e-02 5.861684999999999812e-01 3.240225000000000222e+01 1.288340000000000032e+02 1.577244999999999891e+03
9.199999999999999845e-02 5.861864999999999437e-01 3.173689999999999856e+01 1.288584999999999923e+02 1.577284999999999854e+03
9.299999999999999933e-02 5.861879999999999313e-01 3.104400000000000404e+01 1.287990000000000066e+02 1.577309999999999945e+03
9.400000000000000022e-02 5.861770000000000591e-01 3.033480000000000132e+01 1.286765000000000043e+02 1.577305000000000064e+03
9.500000000000000111e-02 5.861574999999999980e-01 2.962020000000000053e+01 1.285114999999999839e+02 1.577284999999999854e+03
9.600000000000000200e-02 5.861330000000000151e-01 2.890979999999999706e+01 1.283204999999999814e+02 1.577244999999999891e+03
9.700000000000000289e-02 5.861070000000000446e-01 2.821219999999999928e+01 1.281210000000000093e+02 1.577204999999999927e+03
9.800000000000000377e-02 5.860819999999999919e-01 2.753439999999999799e+01 1.279254999999999995e+02 1.577159999999999854e+03
9.900000000000000466e-02 5.860594999999999555e-01 2.688145000000000095e+01 1.277445000000000022e+02 1.577115000000000009e+03
1.000000000000000056e-01 5.860404999999999642e-01 2.625650000000000261e+01 1.275835000000000150e+02 1.577065000000000055e+03
1.010000000000000064e-01 5.860259999999999359e-01 2.566100000000000136e+01 1.274459999999999980e+02 1.577029999999999973e+03
1.020000000000000073e-01 5.860149999999999526e-01 2.509434999999999860e+01 1.273319999999999936e+02 1.576994999999999891e+03
1.030000000000000082e-01 5.860054999999999570e-01 2.455429999999999779e+01 1.272365000000000066e+02 1.576960000000000036e+03
1.040000000000000091e-01 5.859980000000000189e-01 2.403719999999999857e+01 1.271544999999999987e+02 1.576934999999999945e+03
1.050000000000000100e-01 5.859889999999999821e-01 2.353819999999999979e+01 1.270759999999999934e+02 1.576904999999999973e+03
1.059999999999999970e-01 5.859765000000000112e-01 2.305174999999999841e+01 1.269920000000000044e+02 1.576875000000000000e+03
1.069999999999999979e-01 5.859585000000000488e-01 2.257164999999999822e+01 1.268909999999999911e+02 1.576845000000000027e+03
1.079999999999999988e-01 5.859315000000000495e-01 2.209159999999999968e+01 1.267605000000000075e+02 1.576809999999999945e+03
1.089999999999999997e-01 5.858955000000000135e-01 2.160564999999999714e+01 1.265914999999999964e+02 1.576755000000000109e+03
1.100000000000000006e-01 5.858464999999999367e-01 2.110810000000000031e+01 1.263725000000000023e+02 1.576694999999999936e+03
1.110000000000000014e-01 5.857844999999999303e-01 2.059434999999999860e+01 1.260965000000000060e+02 1.576615000000000009e+03
1.120000000000000023e-01 5.857075000000000475e-01 2.006049999999999756e+01 1.257560000000000002e+02 1.576525000000000091e+03
1.130000000000000032e-01 5.856144999999999268e-01 1.950410000000000110e+01 1.253474999999999966e+02 1.576409999999999854e+03
1.140000000000000041e-01 5.855069999999999997e-01 1.892389999999999972e+01 1.248689999999999998e+02 1.576279999999999973e+03
1.150000000000000050e-01 5.853840000000000154e-01 1.832035000000000124e+01 1.243234999999999957e+02 1.576125000000000000e+03
1.160000000000000059e-01 5.852475000000000316e-01 1.769500000000000028e+01 1.237139999999999986e+02 1.575954999999999927e+03
1.170000000000000068e-01 5.850999999999999535e-01 1.705114999999999981e+01 1.230469999999999970e+02 1.575769999999999982e+03
1.180000000000000077e-01 5.849419999999999620e-01 1.639320000000000022e+01 1.223319999999999936e+02 1.575569999999999936e+03
1.190000000000000085e-01 5.847774999999999501e-01 1.572689999999999877e+01 1.215805000000000007e+02 1.575355000000000018e+03
1.200000000000000094e-01 5.846095000000000041e-01 1.505865000000000009e+01 1.208064999999999998e+02 1.575134999999999991e+03
1.209999999999999964e-01 5.844400000000000706e-01 1.439567999999999870e+01 1.200219999999999914e+02 1.574909999999999854e+03
1.219999999999999973e-01 5.842729999999999313e-01 1.374570500000000095e+01 1.192434999999999974e+02 1.574679999999999836e+03
1.229999999999999982e-01 5.841119999999999646e-01 1.311636000000000024e+01 1.184849999999999994e+02 1.574454999999999927e+03
1.239999999999999991e-01 5.839594999999999647e-01 1.251510000000000034e+01 1.177614999999999981e+02 1.574240000000000009e+03
1.250000000000000000e-01 5.838185000000000180e-01 1.194883499999999898e+01 1.170865000000000009e+02 1.574039999999999964e+03
1.260000000000000009e-01 5.836915000000000298e-01 1.142366999999999955e+01 1.164714999999999918e+02 1.573845000000000027e+03
1.270000000000000018e-01 5.835799999999999876e-01 1.094472000000000023e+01 1.159260000000000019e+02 1.573670000000000073e+03
1.280000000000000027e-01 5.834850000000000314e-01 1.051589500000000044e+01 1.154574999999999960e+02 1.573519999999999982e+03
1.290000000000000036e-01 5.834080000000000377e-01 1.013974500000000134e+01 1.150705000000000098e+02 1.573389999999999873e+03
1.300000000000000044e-01 5.833494999999999653e-01 9.817389999999999617e+00 1.147675000000000125e+02 1.573284999999999854e+03
1.310000000000000053e-01 5.833085000000000075e-01 9.548645000000000493e+00 1.145485000000000042e+02 1.573199999999999818e+03
1.320000000000000062e-01 5.832840000000000247e-01 9.331894999999999385e+00 1.144095000000000084e+02 1.573134999999999991e+03
1.330000000000000071e-01 5.832749999999999879e-01 9.164414999999999978e+00 1.143460000000000036e+02 1.573095000000000027e+03
1.340000000000000080e-01 5.832800000000000207e-01 9.042469999999999786e+00 1.143504999999999967e+02 1.573074999999999818e+03
1.350000000000000089e-01 5.832960000000000367e-01 8.961364999999998915e+00 1.144140000000000015e+02 1.573075000000000045e+03
1.360000000000000098e-01 5.833224999999999660e-01 8.915884999999999394e+00 1.145275000000000034e+02 1.573089999999999918e+03
1.370000000000000107e-01 5.833559999999999857e-01 8.900465000000000515e+00 1.146804999999999950e+02 1.573119999999999891e+03
1.380000000000000115e-01 5.833945000000000380e-01 8.909299999999999997e+00 1.148619999999999948e+02 1.573154999999999973e+03
1.390000000000000124e-01 5.834365000000000245e-01 8.936664999999999637e+00 1.150625000000000000e+02 1.573200000000000045e+03
1.400000000000000133e-01 5.834795000000000398e-01 8.977055000000000007e+00 1.152724999999999937e+02 1.573250000000000000e+03
1.410000000000000142e-01 5.835219999999999851e-01 9.025344999999999729e+00 1.154830000000000041e+02 1.573309999999999945e+03
1.420000000000000151e-01 5.835624999999999840e-01 9.076909999999999812e+00 1.156864999999999952e+02 1.573359999999999900e+03
1.430000000000000160e-01 5.836000000000000076e-01 9.127724999999999866e+00 1.158774999999999977e+02 1.573410000000000082e+03
1.440000000000000169e-01 5.836329999999999574e-01 9.174405000000000143e+00 1.160510000000000019e+02 1.573454999999999927e+03
1.450000000000000178e-01 5.836620000000000141e-01 9.214254999999999640e+00 1.162044999999999959e+02 1.573500000000000000e+03
1.459999999999999909e-01 5.836864999999999970e-01 9.245269999999999655e+00 1.163350000000000080e+02 1.573539999999999964e+03
1.469999999999999918e-01 5.837054999999999882e-01 9.266130000000000422e+00 1.164424999999999955e+02 1.573575000000000045e+03
1.479999999999999927e-01 5.837209999999999344e-01 9.276154999999999262e+00 1.165275000000000034e+02 1.573605000000000018e+03
1.489999999999999936e-01 5.837309999999999999e-01 9.275265000000000981e+00 1.165909999999999940e+02 1.573625000000000000e+03
1.499999999999999944e-01 5.837379999999999791e-01 9.263899999999999579e+00 1.166355000000000075e+02 1.573639999999999873e+03
1.509999999999999953e-01 5.837430000000000119e-01 9.242929999999999424e+00 1.166645000000000039e+02 1.573655000000000200e+03
1.519999999999999962e-01 5.837449999999999584e-01 9.213635000000000019e+00 1.166809999999999974e+02 1.573664999999999964e+03
1.529999999999999971e-01 5.837455000000000283e-01 9.177599999999999980e+00 1.166889999999999930e+02 1.573670000000000073e+03
1.539999999999999980e-01 5.837455000000000283e-01 9.136490000000000222e+00 1.166920000000000073e+02 1.573674999999999955e+03
1.549999999999999989e-01 5.837459999999999871e-01 9.092185000000000628e+00 1.166935000000000002e+02 1.573679999999999836e+03
1.559999999999999998e-01 5.837475000000000858e-01 9.046414999999999651e+00 1.166970000000000027e+02 1.573679999999999836e+03
1.570000000000000007e-01 5.837499999999999911e-01 9.000989999999999824e+00 1.167055000000000007e+02 1.573684999999999945e+03
1.580000000000000016e-01 5.837555000000000938e-01 8.957329999999998904e+00 1.167220000000000084e+02 1.573690000000000055e+03
1.590000000000000024e-01 5.837620000000000031e-01 8.916850000000000165e+00 1.167480000000000047e+02 1.573694999999999936e+03
