# t [s], A [cm^2], U [cm/s], P [cPa], c [cm/s]
1.000000000000000021e-03 1.535779999999999923e-01 2.841184999999999961e-01 8.723914999999999509e+01 1.971695000000000164e+03
2.000000000000000042e-03 1.535455000000000014e-01 1.655792500000000000e+00 8.437209999999998900e+01 1.971365000000000009e+03
3.000000000000000062e-03 1.534480000000000011e-01 3.341001499999999957e+00 8.048640000000000327e+01 1.970414999999999964e+03
4.000000000000000083e-03 1.533090000000000008e-01 5.227307999999999844e+00 7.622495000000000687e+01 1.969079999999999927e+03
5.000000000000000104e-03 1.531560000000000143e-01 7.262719999999999843e+00 7.234454999999999814e+01 1.967615000000000009e+03
6.000000000000000125e-03 1.530054999999999887e-01 9.313660000000000494e+00 6.914709999999999468e+01 1.966195000000000164e+03
7.000000000000000146e-03 1.528625000000000123e-01 1.119461000000000084e+01 6.646030000000000371e+01 1.964875000000000000e+03
8.000000000000000167e-03 1.527295000000000180e-01 1.280685000000000073e+01 6.403755000000001019e+01 1.963660000000000082e+03
9.000000000000001055e-03 1.526095000000000090e-01 1.417025999999999897e+01 6.187210000000000321e+01 1.962575000000000045e+03
1.000000000000000194e-02 1.525055000000000160e-01 1.532219999999999871e+01 6.004699999999999704e+01 1.961650000000000091e+03
1.099999999999999936e-02 1.524169999999999969e-01 1.627689999999999770e+01 5.856515000000000271e+01 1.960875000000000000e+03
1.200000000000000025e-02 1.523444999999999938e-01 1.704404999999999859e+01 5.737989999999999924e+01 1.960244999999999891e+03
1.300000000000000114e-02 1.522855000000000181e-01 1.763000000000000256e+01 5.642484999999999928e+01 1.959735000000000127e+03
1.400000000000000203e-02 1.522364999999999968e-01 1.803614999999999924e+01 5.560705000000000098e+01 1.959319999999999936e+03
1.499999999999999944e-02 1.521945000000000103e-01 1.828784999999999883e+01 5.486599999999999966e+01 1.958974999999999909e+03
1.600000000000000033e-02 1.521609999999999907e-01 1.846499999999999986e+01 5.427915000000000134e+01 1.958694999999999936e+03
1.700000000000000122e-02 1.521390000000000242e-01 1.869095000000000084e+01 5.408590000000000231e+01 1.958525000000000091e+03
1.800000000000000211e-02 1.521369999999999945e-01 1.907929999999999993e+01 5.457269999999999754e+01 1.958525000000000091e+03
1.900000000000000300e-02 1.521604999999999763e-01 1.967609999999999815e+01 5.589650000000000318e+01 1.958730000000000018e+03
2.000000000000000042e-02 1.522084999999999966e-01 2.043384999999999962e+01 5.796359999999999957e+01 1.959155000000000200e+03
2.100000000000000130e-02 1.522755000000000081e-01 2.122925000000000040e+01 6.043135000000000190e+01 1.959755000000000109e+03
2.200000000000000219e-02 1.523499999999999854e-01 2.190990000000000038e+01 6.281960000000000122e+01 1.960420000000000073e+03
2.299999999999999961e-02 1.524189999999999989e-01 2.234689999999999799e+01 6.466995000000000005e+01 1.961045000000000073e+03
2.400000000000000050e-02 1.524709999999999954e-01 2.247344999999999970e+01 6.568585000000000207e+01 1.961534999999999854e+03
2.500000000000000139e-02 1.525009999999999977e-01 2.229715000000000202e+01 6.580369999999999209e+01 1.961829999999999927e+03
2.600000000000000228e-02 1.525084999999999913e-01 2.188700000000000045e+01 6.518059999999999832e+01 1.961920000000000073e+03
2.700000000000000316e-02 1.524975000000000080e-01 2.134194999999999709e+01 6.411225000000000307e+01 1.961840000000000146e+03
2.800000000000000058e-02 1.524754999999999860e-01 2.075565000000000282e+01 6.291970000000000596e+01 1.961664999999999964e+03
2.900000000000000147e-02 1.524500000000000022e-01 2.018925000000000125e+01 6.184709999999999752e+01 1.961434999999999945e+03
3.000000000000000236e-02 1.524249999999999772e-01 1.966044999999999732e+01 6.100379999999999825e+01 1.961214999999999918e+03
3.099999999999999978e-02 1.524030000000000107e-01 1.914855000000000018e+01 6.036015000000000441e+01 1.961014999999999873e+03
3.200000000000000067e-02 1.523825000000000041e-01 1.861180000000000234e+01 5.978950000000000387e+01 1.960829999999999927e+03
3.300000000000000155e-02 1.523605000000000098e-01 1.800914999999999822e+01 5.913504999999999967e+01 1.960639999999999873e+03
3.400000000000000244e-02 1.523340000000000249e-01 1.732014999999999816e+01 5.827880000000000393e+01 1.960404999999999973e+03
3.500000000000000333e-02 1.523009999999999919e-01 1.655699999999999861e+01 5.719219999999999970e+01 1.960119999999999891e+03
3.600000000000000422e-02 1.522629999999999817e-01 1.576600000000000001e+01 5.595520000000000493e+01 1.959784999999999854e+03
3.700000000000000511e-02 1.522229999999999972e-01 1.501864999999999917e+01 5.474044999999999561e+01 1.959429999999999836e+03
3.799999999999999906e-02 1.521854999999999736e-01 1.439460000000000051e+01 5.376870000000000260e+01 1.959095000000000027e+03
3.899999999999999994e-02 1.521585000000000021e-01 1.396180000000000021e+01 5.324889999999999901e+01 1.958845000000000027e+03
4.000000000000000083e-02 1.521450000000000025e-01 1.376014999999999944e+01 5.332200000000000273e+01 1.958714999999999918e+03
4.100000000000000172e-02 1.521500000000000075e-01 1.379155000000000086e+01 5.402254999999999541e+01 1.958744999999999891e+03
4.200000000000000261e-02 1.521724999999999883e-01 1.401950000000000074e+01 5.526805000000000234e+01 1.958930000000000064e+03
4.300000000000000350e-02 1.522104999999999986e-01 1.437635000000000041e+01 5.687489999999999668e+01 1.959250000000000000e+03
4.400000000000000439e-02 1.522570000000000034e-01 1.477580000000000027e+01 5.859470000000000312e+01 1.959659999999999854e+03
4.499999999999999833e-02 1.523065000000000113e-01 1.512790000000000035e+01 6.015975000000000250e+01 1.960095000000000027e+03
4.599999999999999922e-02 1.523510000000000142e-01 1.535180000000000078e+01 6.132704999999999984e+01 1.960490000000000009e+03
4.700000000000000011e-02 1.523835000000000051e-01 1.538560000000000016e+01 6.191264999999999930e+01 1.960784999999999854e+03
4.800000000000000100e-02 1.523984999999999923e-01 1.519164999999999921e+01 6.181029999999999802e+01 1.960930000000000064e+03
4.900000000000000189e-02 1.523935000000000151e-01 1.475689999999999813e+01 6.099519999999999698e+01 1.960894999999999982e+03
5.000000000000000278e-02 1.523670000000000024e-01 1.408994999999999820e+01 5.951350000000000051e+01 1.960670000000000073e+03
5.100000000000000366e-02 1.523204999999999976e-01 1.321550000000000047e+01 5.746340000000000003e+01 1.960264999999999873e+03
5.200000000000000455e-02 1.522554999999999881e-01 1.216859000000000002e+01 5.497294999999999732e+01 1.959695000000000164e+03
5.300000000000000544e-02 1.521759999999999780e-01 1.098925000000000018e+01 5.217940000000000111e+01 1.958994999999999891e+03
5.399999999999999939e-02 1.520854999999999846e-01 9.718455000000000510e+00 4.921394999999999698e+01 1.958190000000000055e+03
5.500000000000000028e-02 1.519880000000000120e-01 8.396270000000001232e+00 4.619344999999999857e+01 1.957324999999999818e+03
5.600000000000000117e-02 1.518869999999999942e-01 7.061105000000000409e+00 4.321790000000000020e+01 1.956424999999999955e+03
5.700000000000000205e-02 1.517859999999999765e-01 5.750019999999999243e+00 4.037279999999999802e+01 1.955525000000000091e+03
5.800000000000000294e-02 1.516874999999999751e-01 4.499514999999999709e+00 3.773409999999999798e+01 1.954644999999999982e+03
5.900000000000000383e-02 1.515949999999999798e-01 3.346102500000000202e+00 3.537274999999999636e+01 1.953815000000000055e+03
6.000000000000000472e-02 1.515110000000000068e-01 2.326261999999999830e+00 3.335804999999999865e+01 1.953059999999999945e+03
6.099999999999999867e-02 1.514380000000000170e-01 1.475757000000000208e+00 3.175850000000000151e+01 1.952404999999999973e+03
6.199999999999999956e-02 1.513784999999999992e-01 8.282294999999999519e-01 3.064000000000000057e+01 1.951865000000000009e+03
6.300000000000000044e-02 1.513355000000000117e-01 4.133740000000000192e-01 3.006184999999999974e+01 1.951464999999999918e+03
6.400000000000000133e-02 1.513100000000000001e-01 2.549584999999999768e-01 3.007195000000000107e+01 1.951224999999999909e+03
6.500000000000000222e-02 1.513049999999999951e-01 3.690339999999999732e-01 3.070179999999999865e+01 1.951160000000000082e+03
6.600000000000000311e-02 1.513205000000000244e-01 7.626163499999999429e-01 3.196235000000000070e+01 1.951279999999999973e+03
6.700000000000000400e-02 1.513575000000000059e-01 1.433027150000000027e+00 3.384199999999999875e+01 1.951590000000000146e+03
6.800000000000000488e-02 1.514159999999999950e-01 2.367997499999999977e+00 3.630620000000000402e+01 1.952090000000000146e+03
6.900000000000000577e-02 1.514944999999999764e-01 3.546390500000000223e+00 3.929935000000000400e+01 1.952769999999999982e+03
7.000000000000000666e-02 1.515914999999999901e-01 4.939560000000000173e+00 4.274849999999999994e+01 1.953615000000000009e+03
7.100000000000000755e-02 1.517045000000000199e-01 6.513055000000000483e+00 4.656795000000000329e+01 1.954610000000000127e+03
7.200000000000000844e-02 1.518309999999999937e-01 8.228529999999999234e+00 5.066445000000000221e+01 1.955730000000000018e+03
7.300000000000000933e-02 1.519685000000000064e-01 1.004576999999999920e+01 5.494304999999999950e+01 1.956944999999999936e+03
7.399999999999999634e-02 1.521135000000000126e-01 1.192468500000000020e+01 5.931154999999999688e+01 1.958240000000000009e+03
7.499999999999999722e-02 1.522634999999999961e-01 1.382713000000000036e+01 6.368585000000000207e+01 1.959574999999999818e+03
7.599999999999999811e-02 1.524150000000000227e-01 1.571845000000000070e+01 6.799334999999999241e+01 1.960934999999999945e+03
7.699999999999999900e-02 1.525660000000000072e-01 1.756909999999999883e+01 7.217589999999999861e+01 1.962289999999999964e+03
7.799999999999999989e-02 1.527145000000000030e-01 1.935529999999999973e+01 7.619219999999999970e+01 1.963630000000000109e+03
7.900000000000000078e-02 1.528585000000000083e-01 2.105984999999999729e+01 8.001779999999999404e+01 1.964940000000000055e+03
8.000000000000000167e-02 1.529979999999999951e-01 2.267255000000000109e+01 8.364565000000000339e+01 1.966199999999999818e+03
8.100000000000000255e-02 1.531314999999999760e-01 2.418929999999999936e+01 8.708379999999999654e+01 1.967414999999999964e+03
8.200000000000000344e-02 1.532594999999999930e-01 2.561184999999999690e+01 9.035329999999999018e+01 1.968590000000000146e+03
8.300000000000000433e-02 1.533824999999999772e-01 2.694675000000000153e+01 9.348489999999999611e+01 1.969715000000000146e+03
8.400000000000000522e-02 1.535015000000000129e-01 2.820390000000000086e+01 9.651509999999998968e+01 1.970799999999999955e+03
8.500000000000000611e-02 1.536175000000000179e-01 2.939524999999999721e+01 9.948144999999999527e+01 1.971860000000000127e+03
8.600000000000000699e-02 1.537304999999999922e-01 3.053340000000000032e+01 1.024213000000000022e+02 1.972905000000000200e+03
8.700000000000000788e-02 1.538434999999999941e-01 3.163034999999999997e+01 1.053650000000000091e+02 1.973940000000000055e+03
8.800000000000000877e-02 1.539554999999999951e-01 3.269639999999999702e+01 1.083365000000000009e+02 1.974970000000000027e+03
8.899999999999999578e-02 1.540684999999999971e-01 3.373949999999999960e+01 1.113509999999999991e+02 1.976009999999999991e+03
8.999999999999999667e-02 1.541825000000000001e-01 3.476429999999999865e+01 1.144120000000000061e+02 1.977055000000000064e+03
9.099999999999999756e-02 1.542975000000000041e-01 3.577235000000000298e+01 1.175149999999999864e+02 1.978110000000000127e+03
9.199999999999999845e-02 1.544139999999999957e-01 3.676179999999999382e+01 1.206444999999999936e+02 1.979180000000000064e+03
9.299999999999999933e-02 1.545300000000000007e-01 3.772780000000000200e+01 1.237785000000000082e+02 1.980250000000000000e+03
9.400000000000000022e-02 1.546465000000000201e-01 3.866264999999999930e+01 1.268889999999999958e+02 1.981325000000000045e+03
9.500000000000000111e-02 1.547620000000000107e-01 3.955680000000000263e+01 1.299415000000000191e+02 1.982389999999999873e+03
9.600000000000000200e-02 1.548749999999999849e-01 4.039880000000000138e+01 1.329014999999999986e+02 1.983430000000000064e+03
9.700000000000000289e-02 1.549854999999999983e-01 4.117660000000000053e+01 1.357325000000000159e+02 1.984445000000000164e+03
9.800000000000000377e-02 1.550910000000000066e-01 4.187785000000000224e+01 1.383990000000000009e+02 1.985420000000000073e+03
9.900000000000000466e-02 1.551905000000000090e-01 4.249060000000000059e+01 1.408679999999999950e+02 1.986349999999999909e+03
1.000000000000000056e-01 1.552840000000000054e-01 4.300400000000000489e+01 1.431119999999999948e+02 1.987215000000000146e+03
1.010000000000000064e-01 1.553694999999999937e-01 4.340864999999999441e+01 1.451064999999999827e+02 1.988015000000000100e+03
1.020000000000000073e-01 1.554464999999999875e-01 4.369729999999999848e+01 1.468340000000000032e+02 1.988730000000000018e+03
1.030000000000000082e-01 1.555145000000000000e-01 4.386499999999999488e+01 1.482819999999999823e+02 1.989365000000000009e+03
1.040000000000000091e-01 1.555725000000000025e-01 4.390959999999999752e+01 1.494480000000000075e+02 1.989914999999999964e+03
1.050000000000000100e-01 1.556214999999999959e-01 4.383174999999999955e+01 1.503335000000000150e+02 1.990375000000000000e+03
1.059999999999999970e-01 1.556599999999999928e-01 4.363500000000000512e+01 1.509480000000000075e+02 1.990744999999999891e+03
1.069999999999999979e-01 1.556894999999999807e-01 4.332564999999999600e+01 1.513075000000000045e+02 1.991025000000000091e+03
1.079999999999999988e-01 1.557095000000000007e-01 4.291250000000000142e+01 1.514329999999999927e+02 1.991224999999999909e+03
1.089999999999999997e-01 1.557209999999999983e-01 4.240645000000000664e+01 1.513509999999999991e+02 1.991345000000000027e+03
1.100000000000000006e-01 1.557260000000000033e-01 4.182045000000000101e+01 1.510910000000000082e+02 1.991389999999999873e+03
1.110000000000000014e-01 1.557230000000000003e-01 4.116835000000000377e+01 1.506845000000000141e+02 1.991380000000000109e+03
1.120000000000000023e-01 1.557149999999999923e-01 4.046470000000000056e+01 1.501639999999999873e+02 1.991315000000000055e+03
1.130000000000000032e-01 1.557025000000000214e-01 3.972429999999999950e+01 1.495614999999999952e+02 1.991199999999999818e+03
1.140000000000000041e-01 1.556865000000000054e-01 3.896139999999999759e+01 1.489074999999999989e+02 1.991059999999999945e+03
1.150000000000000050e-01 1.556679999999999731e-01 3.818930000000000291e+01 1.482300000000000182e+02 1.990894999999999982e+03
1.160000000000000059e-01 1.556474999999999942e-01 3.741995000000000005e+01 1.475509999999999877e+02 1.990710000000000036e+03
1.170000000000000068e-01 1.556265000000000009e-01 3.666349999999999909e+01 1.468910000000000196e+02 1.990519999999999982e+03
1.180000000000000077e-01 1.556059999999999943e-01 3.592815000000000225e+01 1.462640000000000100e+02 1.990329999999999927e+03
1.190000000000000085e-01 1.555850000000000011e-01 3.521989999999999554e+01 1.456800000000000068e+02 1.990134999999999991e+03
1.200000000000000094e-01 1.555660000000000098e-01 3.454245000000000232e+01 1.451424999999999841e+02 1.989954999999999927e+03
1.209999999999999964e-01 1.555475000000000052e-01 3.389730000000000132e+01 1.446510000000000105e+02 1.989784999999999854e+03
1.219999999999999973e-01 1.555294999999999872e-01 3.328374999999999773e+01 1.441999999999999886e+02 1.989619999999999891e+03
1.229999999999999982e-01 1.555134999999999990e-01 3.269904999999999973e+01 1.437805000000000177e+02 1.989465000000000146e+03
1.239999999999999991e-01 1.554979999999999973e-01 3.213895000000000124e+01 1.433795000000000073e+02 1.989315000000000055e+03
1.250000000000000000e-01 1.554824999999999957e-01 3.159754999999999825e+01 1.429809999999999945e+02 1.989170000000000073e+03
1.260000000000000009e-01 1.554675000000000085e-01 3.106799999999999784e+01 1.425685000000000002e+02 1.989025000000000091e+03
1.270000000000000018e-01 1.554514999999999925e-01 3.054290000000000305e+01 1.421250000000000000e+02 1.988880000000000109e+03
1.280000000000000027e-01 1.554345000000000032e-01 3.001450000000000173e+01 1.416315000000000168e+02 1.988720000000000027e+03
1.290000000000000036e-01 1.554154999999999842e-01 2.947540000000000049e+01 1.410720000000000027e+02 1.988545000000000073e+03
1.300000000000000044e-01 1.553944999999999910e-01 2.891870000000000118e+01 1.404325000000000045e+02 1.988349999999999909e+03
1.310000000000000053e-01 1.553709999999999813e-01 2.833845000000000169e+01 1.397009999999999934e+02 1.988134999999999991e+03
1.320000000000000062e-01 1.553444999999999965e-01 2.773010000000000019e+01 1.388695000000000164e+02 1.987890000000000100e+03
1.330000000000000071e-01 1.553144999999999942e-01 2.709060000000000201e+01 1.379329999999999927e+02 1.987609999999999900e+03
1.340000000000000080e-01 1.552810000000000024e-01 2.641870000000000118e+01 1.368924999999999841e+02 1.987304999999999836e+03
1.350000000000000089e-01 1.552439999999999931e-01 2.571484999999999843e+01 1.357520000000000095e+02 1.986965000000000146e+03
1.360000000000000098e-01 1.552034999999999942e-01 2.498150000000000048e+01 1.345199999999999818e+02 1.986595000000000027e+03
1.370000000000000107e-01 1.551600000000000201e-01 2.422290000000000276e+01 1.332099999999999795e+02 1.986194999999999936e+03
1.380000000000000115e-01 1.551135000000000153e-01 2.344490000000000052e+01 1.318380000000000223e+02 1.985769999999999982e+03
1.390000000000000124e-01 1.550655000000000228e-01 2.265480000000000160e+01 1.304234999999999900e+02 1.985329999999999927e+03
1.400000000000000133e-01 1.550150000000000139e-01 2.186100000000000065e+01 1.289884999999999877e+02 1.984875000000000000e+03
1.410000000000000142e-01 1.549645000000000050e-01 2.107254999999999967e+01 1.275554999999999950e+02 1.984404999999999973e+03
1.420000000000000151e-01 1.549135000000000095e-01 2.029905000000000115e+01 1.261469999999999914e+02 1.983934999999999945e+03
1.430000000000000160e-01 1.548634999999999873e-01 1.954994999999999905e+01 1.247870000000000061e+02 1.983469999999999800e+03
1.440000000000000169e-01 1.548144999999999938e-01 1.883429999999999893e+01 1.234950000000000045e+02 1.983019999999999982e+03
1.450000000000000178e-01 1.547675000000000023e-01 1.816035000000000110e+01 1.222909999999999968e+02 1.982585000000000036e+03
1.459999999999999909e-01 1.547229999999999994e-01 1.753524999999999778e+01 1.211905000000000001e+02 1.982179999999999836e+03
1.469999999999999918e-01 1.546819999999999862e-01 1.696499999999999986e+01 1.202044999999999959e+02 1.981804999999999836e+03
1.479999999999999927e-01 1.546449999999999769e-01 1.645380000000000109e+01 1.193429999999999893e+02 1.981460000000000036e+03
1.489999999999999936e-01 1.546119999999999994e-01 1.600440000000000040e+01 1.186090000000000089e+02 1.981150000000000091e+03
1.499999999999999944e-01 1.545834999999999848e-01 1.561795000000000044e+01 1.180040000000000049e+02 1.980880000000000109e+03
1.509999999999999953e-01 1.545590000000000019e-01 1.529385000000000083e+01 1.175254999999999939e+02 1.980650000000000091e+03
1.519999999999999962e-01 1.545389999999999819e-01 1.503024999999999878e+01 1.171664999999999992e+02 1.980460000000000036e+03
1.529999999999999971e-01 1.545225000000000071e-01 1.482375000000000043e+01 1.169184999999999945e+02 1.980309999999999945e+03
1.539999999999999980e-01 1.545104999999999951e-01 1.466990000000000016e+01 1.167704999999999984e+02 1.980195000000000164e+03
1.549999999999999989e-01 1.545024999999999871e-01 1.456350000000000122e+01 1.167100000000000080e+02 1.980110000000000127e+03
1.559999999999999998e-01 1.544969999999999954e-01 1.449845000000000006e+01 1.167229999999999990e+02 1.980055000000000064e+03
1.570000000000000007e-01 1.544945000000000068e-01 1.446845000000000070e+01 1.167955000000000041e+02 1.980025000000000091e+03
1.580000000000000016e-01 1.544939999999999924e-01 1.446679999999999922e+01 1.169134999999999991e+02 1.980019999999999982e+03
1.590000000000000024e-01 1.544949999999999934e-01 1.448695000000000022e+01 1.170630000000000024e+02 1.980029999999999973e+03
