# t [s], A [cm^2], U [cm/s], P [cPa], c [cm/s]
1.000000000000000021e-03 1.550175000000000025e-01 3.140315000000000190e-01 9.977439999999999998e+01 1.993675000000000182e+03
2.000000000000000042e-03 1.549764999999999893e-01 1.910154499999999755e+00 9.648489999999999611e+01 1.993235000000000127e+03
3.000000000000000062e-03 1.548574999999999813e-01 3.883475499999999858e+00 9.194495000000000573e+01 1.992014999999999873e+03
4.000000000000000083e-03 1.546915000000000096e-01 6.096180500000000002e+00 8.694995000000000118e+01 1.990340000000000146e+03
5.000000000000000104e-03 1.545110000000000094e-01 8.476255000000000095e+00 8.240735000000000809e+01 1.988535000000000082e+03
6.000000000000000125e-03 1.543350000000000000e-01 1.085383500000000012e+01 7.866455000000000553e+01 1.986789999999999964e+03
7.000000000000000146e-03 1.541699999999999737e-01 1.300637499999999847e+01 7.551404999999999745e+01 1.985190000000000055e+03
8.000000000000000167e-03 1.540179999999999882e-01 1.482605000000000040e+01 7.268899999999999295e+01 1.983734999999999900e+03
9.000000000000001055e-03 1.538829999999999920e-01 1.634329999999999927e+01 7.020690000000000452e+01 1.982470000000000027e+03
1.000000000000000194e-02 1.537675000000000014e-01 1.760125000000000028e+01 6.815819999999999368e+01 1.981400000000000091e+03
1.099999999999999936e-02 1.536730000000000040e-01 1.862015000000000242e+01 6.653669999999999618e+01 1.980525000000000091e+03
1.200000000000000025e-02 1.535969999999999835e-01 1.942074999999999818e+01 6.529540000000000077e+01 1.979840000000000146e+03
1.300000000000000114e-02 1.535380000000000078e-01 2.001590000000000202e+01 6.436185000000000400e+01 1.979309999999999945e+03
1.400000000000000203e-02 1.534909999999999886e-01 2.040850000000000009e+01 6.361889999999999645e+01 1.978900000000000091e+03
1.499999999999999944e-02 1.534535000000000204e-01 2.063235000000000241e+01 6.299114999999999753e+01 1.978579999999999927e+03
1.600000000000000033e-02 1.534260000000000068e-01 2.078985000000000127e+01 6.258315000000000339e+01 1.978349999999999909e+03
1.700000000000000122e-02 1.534145000000000092e-01 2.103075000000000117e+01 6.269055000000000177e+01 1.978269999999999982e+03
1.800000000000000211e-02 1.534274999999999944e-01 2.147960000000000136e+01 6.363459999999999894e+01 1.978400000000000091e+03
1.900000000000000300e-02 1.534699999999999953e-01 2.216610000000000014e+01 6.553945000000000221e+01 1.978795000000000073e+03
2.000000000000000042e-02 1.535389999999999810e-01 2.300394999999999968e+01 6.820605000000000473e+01 1.979445000000000164e+03
2.100000000000000130e-02 1.536254999999999982e-01 2.382479999999999976e+01 7.115104999999999791e+01 1.980250000000000000e+03
2.200000000000000219e-02 1.537135000000000029e-01 2.444405000000000072e+01 7.377485000000000070e+01 1.981079999999999927e+03
2.299999999999999961e-02 1.537870000000000070e-01 2.472660000000000124e+01 7.556940000000000168e+01 1.981800000000000182e+03
2.400000000000000050e-02 1.538364999999999871e-01 2.462794999999999845e+01 7.627854999999999563e+01 1.982295000000000073e+03
2.500000000000000139e-02 1.538565000000000071e-01 2.419810000000000016e+01 7.595510000000000161e+01 1.982514999999999873e+03
2.600000000000000228e-02 1.538515000000000021e-01 2.355310000000000059e+01 7.490545000000000186e+01 1.982494999999999891e+03
2.700000000000000316e-02 1.538295000000000079e-01 2.282754999999999868e+01 7.355519999999999925e+01 1.982309999999999945e+03
2.800000000000000058e-02 1.538014999999999799e-01 2.212904999999999944e+01 7.229489999999999839e+01 1.982055000000000064e+03
2.900000000000000147e-02 1.537749999999999950e-01 2.150975000000000037e+01 7.136244999999999550e+01 1.981805000000000064e+03
3.000000000000000236e-02 1.537540000000000018e-01 2.096150000000000091e+01 7.079734999999999445e+01 1.981605000000000018e+03
3.099999999999999978e-02 1.537390000000000145e-01 2.043220000000000169e+01 7.046744999999999948e+01 1.981460000000000036e+03
3.200000000000000067e-02 1.537255000000000149e-01 1.985389999999999944e+01 7.014805000000001201e+01 1.981335000000000036e+03
3.300000000000000155e-02 1.537089999999999845e-01 1.917310000000000159e+01 6.962024999999999864e+01 1.981179999999999836e+03
3.400000000000000244e-02 1.536845000000000017e-01 1.837429999999999808e+01 6.875755000000000905e+01 1.980960000000000036e+03
3.500000000000000333e-02 1.536514999999999964e-01 1.749054999999999893e+01 6.757814999999999372e+01 1.980654999999999973e+03
3.600000000000000422e-02 1.536115000000000119e-01 1.659864999999999924e+01 6.624779999999999802e+01 1.980289999999999964e+03
3.700000000000000511e-02 1.535704999999999987e-01 1.580010000000000048e+01 6.503650000000000375e+01 1.979909999999999854e+03
3.799999999999999906e-02 1.535374999999999934e-01 1.519460000000000122e+01 6.424150000000000205e+01 1.979595000000000027e+03
3.899999999999999994e-02 1.535195000000000032e-01 1.485399999999999920e+01 6.410339999999999350e+01 1.979414999999999964e+03
4.000000000000000083e-02 1.535219999999999918e-01 1.480389999999999873e+01 6.473860000000000525e+01 1.979414999999999964e+03
4.100000000000000172e-02 1.535469999999999891e-01 1.501739999999999853e+01 6.610745000000000005e+01 1.979625000000000000e+03
4.200000000000000261e-02 1.535914999999999919e-01 1.542129999999999868e+01 6.802189999999998804e+01 1.980030000000000200e+03
4.300000000000000350e-02 1.536500000000000088e-01 1.591140000000000043e+01 7.018625000000000114e+01 1.980565000000000055e+03
4.400000000000000439e-02 1.537144999999999762e-01 1.637184999999999846e+01 7.225700000000000500e+01 1.981150000000000091e+03
4.499999999999999833e-02 1.537729999999999930e-01 1.669435000000000002e+01 7.390574999999999761e+01 1.981710000000000036e+03
4.599999999999999922e-02 1.538189999999999835e-01 1.679315000000000069e+01 7.487135000000000673e+01 1.982144999999999982e+03
4.700000000000000011e-02 1.538435000000000219e-01 1.661384999999999934e+01 7.499305000000001087e+01 1.982384999999999991e+03
4.800000000000000100e-02 1.538424999999999931e-01 1.613575000000000159e+01 7.422050000000000125e+01 1.982394999999999982e+03
4.900000000000000189e-02 1.538160000000000083e-01 1.536839999999999939e+01 7.260394999999999754e+01 1.982155000000000200e+03
5.000000000000000278e-02 1.537630000000000108e-01 1.434425000000000061e+01 7.026949999999999363e+01 1.981680000000000064e+03
5.100000000000000366e-02 1.536879999999999913e-01 1.311058500000000038e+01 6.738739999999999952e+01 1.980990000000000009e+03
5.200000000000000455e-02 1.535954999999999959e-01 1.172080000000000055e+01 6.414199999999999591e+01 1.980134999999999991e+03
5.300000000000000544e-02 1.534905000000000019e-01 1.022917999999999950e+01 6.070825000000000671e+01 1.979155000000000200e+03
5.399999999999999939e-02 1.533785000000000009e-01 8.687034999999999840e+00 5.723819999999999908e+01 1.978110000000000127e+03
5.500000000000000028e-02 1.532629999999999826e-01 7.142234999999999445e+00 5.385725000000000051e+01 1.977029999999999973e+03
5.600000000000000117e-02 1.531494999999999940e-01 5.639395000000000380e+00 5.066750000000000398e+01 1.975964999999999918e+03
5.700000000000000205e-02 1.530404999999999960e-01 4.221453499999999970e+00 4.775515000000000043e+01 1.974940000000000055e+03
5.800000000000000294e-02 1.529395000000000060e-01 2.930771500000000085e+00 4.519825000000000159e+01 1.973989999999999782e+03
5.900000000000000383e-02 1.528499999999999859e-01 1.809426499999999827e+00 4.307240000000000180e+01 1.973144999999999982e+03
6.000000000000000472e-02 1.527749999999999941e-01 8.984900000000001219e-01 4.145264999999999844e+01 1.972425000000000182e+03
6.099999999999999867e-02 1.527169999999999916e-01 2.362950000000000328e-01 4.041159999999999997e+01 1.971865000000000009e+03
6.199999999999999956e-02 1.526780000000000082e-01 -1.439855000000000440e-01 4.001404999999999745e+01 1.971480000000000018e+03
6.300000000000000044e-02 1.526609999999999912e-01 -2.170033299999999943e-01 4.031064999999999543e+01 1.971299999999999955e+03
6.400000000000000133e-02 1.526679999999999982e-01 3.246850000000001124e-02 4.133065000000000566e+01 1.971339999999999918e+03
6.500000000000000222e-02 1.526984999999999870e-01 6.079530000000000767e-01 4.307720000000000482e+01 1.971605000000000018e+03
6.600000000000000311e-02 1.527540000000000009e-01 1.500678499999999804e+00 4.552445000000000164e+01 1.972099999999999909e+03
6.700000000000000400e-02 1.528339999999999976e-01 2.690073449999999866e+00 4.861839999999999407e+01 1.972815000000000055e+03
6.800000000000000488e-02 1.529349999999999876e-01 4.145145499999999927e+00 5.228040000000000020e+01 1.973744999999999891e+03
6.900000000000000577e-02 1.530559999999999976e-01 5.826539999999999608e+00 5.641240000000000521e+01 1.974855000000000018e+03
7.000000000000000666e-02 1.531935000000000102e-01 7.689000000000000057e+00 6.090404999999999802e+01 1.976125000000000000e+03
7.100000000000000755e-02 1.533440000000000081e-01 9.683869999999998868e+00 6.563965000000000316e+01 1.977530000000000200e+03
7.200000000000000844e-02 1.535030000000000006e-01 1.176163500000000006e+01 7.050479999999998881e+01 1.979019999999999982e+03
7.300000000000000933e-02 1.536690000000000000e-01 1.387406000000000006e+01 7.539230000000000587e+01 1.980574999999999818e+03
7.399999999999999634e-02 1.538364999999999871e-01 1.597635000000000005e+01 8.020695000000000618e+01 1.982154999999999973e+03
7.499999999999999722e-02 1.540030000000000010e-01 1.802890000000000015e+01 8.486945000000000050e+01 1.983730000000000018e+03
7.599999999999999811e-02 1.541655000000000109e-01 1.999875000000000114e+01 8.931929999999999836e+01 1.985275000000000091e+03
7.699999999999999900e-02 1.543225000000000013e-01 2.186064999999999969e+01 9.351640000000000441e+01 1.986775000000000091e+03
7.799999999999999989e-02 1.544729999999999992e-01 2.359779999999999944e+01 9.744249999999999545e+01 1.988210000000000036e+03
7.900000000000000078e-02 1.546150000000000024e-01 2.520195000000000007e+01 1.010987499999999955e+02 1.989574999999999818e+03
8.000000000000000167e-02 1.547489999999999977e-01 2.667285000000000039e+01 1.045056000000000012e+02 1.990865000000000009e+03
8.100000000000000255e-02 1.548754999999999993e-01 2.801745000000000019e+01 1.076984999999999957e+02 1.992079999999999927e+03
8.200000000000000344e-02 1.549949999999999939e-01 2.924834999999999852e+01 1.107245000000000061e+02 1.993244999999999891e+03
8.300000000000000433e-02 1.551099999999999979e-01 3.038204999999999956e+01 1.136345000000000027e+02 1.994355000000000018e+03
8.400000000000000522e-02 1.552204999999999835e-01 3.143710000000000093e+01 1.164825000000000017e+02 1.995430000000000064e+03
8.500000000000000611e-02 1.553295000000000092e-01 3.243220000000000169e+01 1.193179999999999978e+02 1.996490000000000009e+03
8.600000000000000699e-02 1.554375000000000062e-01 3.338439999999999941e+01 1.221804999999999950e+02 1.997539999999999964e+03
8.700000000000000788e-02 1.555460000000000176e-01 3.430790000000000362e+01 1.250999999999999943e+02 1.998590000000000146e+03
8.800000000000000877e-02 1.556565000000000032e-01 3.521260000000000190e+01 1.280914999999999964e+02 1.999660000000000082e+03
8.899999999999999578e-02 1.557685000000000042e-01 3.610389999999999588e+01 1.311560000000000059e+02 2.000740000000000009e+03
8.999999999999999667e-02 1.558820000000000205e-01 3.698219999999999885e+01 1.342824999999999989e+02 2.001845000000000027e+03
9.099999999999999756e-02 1.559975000000000112e-01 3.784329999999999927e+01 1.374445000000000050e+02 2.002965000000000146e+03
9.199999999999999845e-02 1.561134999999999884e-01 3.867875000000000085e+01 1.406064999999999827e+02 2.004085000000000036e+03
9.299999999999999933e-02 1.562290000000000068e-01 3.947665000000000646e+01 1.437274999999999920e+02 2.005204999999999927e+03
9.400000000000000022e-02 1.563424999999999954e-01 4.022274999999999778e+01 1.467599999999999909e+02 2.006309999999999945e+03
9.500000000000000111e-02 1.564530000000000087e-01 4.090109999999999957e+01 1.496539999999999964e+02 2.007384999999999991e+03
9.600000000000000200e-02 1.565584999999999893e-01 4.149550000000000693e+01 1.523639999999999759e+02 2.008414999999999964e+03
9.700000000000000289e-02 1.566575000000000051e-01 4.199020000000000152e+01 1.548449999999999989e+02 2.009384999999999991e+03
9.800000000000000377e-02 1.567490000000000272e-01 4.237089999999999890e+01 1.570590000000000259e+02 2.010275000000000091e+03
9.900000000000000466e-02 1.568309999999999982e-01 4.262539999999999907e+01 1.589755000000000109e+02 2.011090000000000146e+03
1.000000000000000056e-01 1.569029999999999869e-01 4.274439999999999884e+01 1.605720000000000027e+02 2.011799999999999955e+03
1.010000000000000064e-01 1.569645000000000068e-01 4.272194999999999965e+01 1.618354999999999961e+02 2.012404999999999973e+03
1.020000000000000073e-01 1.570139999999999869e-01 4.255559999999999832e+01 1.627615000000000123e+02 2.012904999999999973e+03
1.030000000000000082e-01 1.570524999999999838e-01 4.224689999999999657e+01 1.633559999999999945e+02 2.013289999999999964e+03
1.040000000000000091e-01 1.570794999999999830e-01 4.180114999999999981e+01 1.636324999999999932e+02 2.013565000000000055e+03
1.050000000000000100e-01 1.570954999999999990e-01 4.122705000000000553e+01 1.636150000000000091e+02 2.013735000000000127e+03
1.059999999999999970e-01 1.571009999999999907e-01 4.053679999999999950e+01 1.633319999999999936e+02 2.013804999999999836e+03
1.069999999999999979e-01 1.570975000000000010e-01 3.974509999999999366e+01 1.628190000000000168e+02 2.013779999999999973e+03
1.079999999999999988e-01 1.570860000000000034e-01 3.886880000000000024e+01 1.621150000000000091e+02 2.013680000000000064e+03
1.089999999999999997e-01 1.570664999999999978e-01 3.792609999999999815e+01 1.612609999999999957e+02 2.013505000000000109e+03
1.100000000000000006e-01 1.570425000000000015e-01 3.693585000000000207e+01 1.602984999999999900e+02 2.013275000000000091e+03
1.110000000000000014e-01 1.570135000000000003e-01 3.591679999999999495e+01 1.592674999999999841e+02 2.013005000000000109e+03
1.120000000000000023e-01 1.569825000000000248e-01 3.488685000000000258e+01 1.582065000000000055e+02 2.012700000000000045e+03
1.130000000000000032e-01 1.569490000000000052e-01 3.386249999999999716e+01 1.571479999999999961e+02 2.012380000000000109e+03
1.140000000000000041e-01 1.569145000000000123e-01 3.285829999999999984e+01 1.561204999999999927e+02 2.012049999999999955e+03
1.150000000000000050e-01 1.568815000000000071e-01 3.188644999999999996e+01 1.551469999999999914e+02 2.011724999999999909e+03
1.160000000000000059e-01 1.568490000000000162e-01 3.095640000000000214e+01 1.542425000000000068e+02 2.011410000000000082e+03
1.170000000000000068e-01 1.568184999999999996e-01 3.007460000000000022e+01 1.534170000000000016e+02 2.011110000000000127e+03
1.180000000000000077e-01 1.567899999999999849e-01 2.924470000000000169e+01 1.526734999999999900e+02 2.010829999999999927e+03
1.190000000000000085e-01 1.567635000000000001e-01 2.846724999999999994e+01 1.520080000000000098e+02 2.010570000000000164e+03
1.200000000000000094e-01 1.567394999999999761e-01 2.773995000000000033e+01 1.514110000000000014e+02 2.010329999999999927e+03
1.209999999999999964e-01 1.567169999999999952e-01 2.705814999999999770e+01 1.508684999999999832e+02 2.010110000000000127e+03
1.219999999999999973e-01 1.566970000000000030e-01 2.641469999999999985e+01 1.503609999999999900e+02 2.009904999999999973e+03
1.229999999999999982e-01 1.566770000000000107e-01 2.580100000000000193e+01 1.498659999999999854e+02 2.009704999999999927e+03
1.239999999999999991e-01 1.566580000000000195e-01 2.520705000000000240e+01 1.493605000000000018e+02 2.009519999999999982e+03
1.250000000000000000e-01 1.566374999999999851e-01 2.462229999999999919e+01 1.488190000000000168e+02 2.009319999999999936e+03
1.260000000000000009e-01 1.566164999999999918e-01 2.403594999999999970e+01 1.482185000000000059e+02 2.009115000000000009e+03
1.270000000000000018e-01 1.565934999999999966e-01 2.343800000000000239e+01 1.475364999999999895e+02 2.008884999999999991e+03
1.280000000000000027e-01 1.565679999999999850e-01 2.281915000000000049e+01 1.467540000000000191e+02 2.008630000000000109e+03
1.290000000000000036e-01 1.565389999999999837e-01 2.217184999999999917e+01 1.458564999999999827e+02 2.008355000000000018e+03
1.300000000000000044e-01 1.565059999999999785e-01 2.149054999999999893e+01 1.448354999999999961e+02 2.008034999999999854e+03
1.310000000000000053e-01 1.564690000000000247e-01 2.077179999999999893e+01 1.436860000000000070e+02 2.007679999999999836e+03
1.320000000000000062e-01 1.564280000000000115e-01 2.001494999999999891e+01 1.424114999999999895e+02 2.007279999999999973e+03
1.330000000000000071e-01 1.563824999999999799e-01 1.922165000000000035e+01 1.410199999999999818e+02 2.006839999999999918e+03
1.340000000000000080e-01 1.563335000000000141e-01 1.839639999999999986e+01 1.395260000000000105e+02 2.006369999999999891e+03
1.350000000000000089e-01 1.562804999999999889e-01 1.754570000000000007e+01 1.379490000000000123e+02 2.005860000000000127e+03
1.360000000000000098e-01 1.562255000000000171e-01 1.667844999999999800e+01 1.363140000000000214e+02 2.005325000000000045e+03
1.370000000000000107e-01 1.561680000000000013e-01 1.580509999999999948e+01 1.346469999999999914e+02 2.004775000000000091e+03
1.380000000000000115e-01 1.561099999999999988e-01 1.493725000000000058e+01 1.329784999999999968e+02 2.004214999999999918e+03
1.390000000000000124e-01 1.560509999999999953e-01 1.408719999999999928e+01 1.313394999999999868e+02 2.003644999999999982e+03
1.400000000000000133e-01 1.559929999999999928e-01 1.326725000000000065e+01 1.297574999999999932e+02 2.003085000000000036e+03
1.410000000000000142e-01 1.559369999999999923e-01 1.248930000000000007e+01 1.282624999999999886e+02 2.002545000000000073e+03
1.420000000000000151e-01 1.558835000000000082e-01 1.176436999999999955e+01 1.268780000000000143e+02 2.002025000000000091e+03
1.430000000000000160e-01 1.558340000000000003e-01 1.110183499999999945e+01 1.256255000000000166e+02 2.001545000000000073e+03
1.440000000000000169e-01 1.557890000000000108e-01 1.050933999999999990e+01 1.245199999999999960e+02 2.001099999999999909e+03
1.450000000000000178e-01 1.557479999999999976e-01 9.992535000000000167e+00 1.235734999999999957e+02 2.000704999999999927e+03
1.459999999999999909e-01 1.557129999999999903e-01 9.554804999999999993e+00 1.227915000000000134e+02 2.000355000000000018e+03
1.469999999999999918e-01 1.556830000000000158e-01 9.197340000000000515e+00 1.221724999999999994e+02 2.000059999999999945e+03
1.479999999999999927e-01 1.556580000000000186e-01 8.919119999999999493e+00 1.217139999999999986e+02 1.999815000000000055e+03
1.489999999999999936e-01 1.556389999999999996e-01 8.717035000000000977e+00 1.214050000000000011e+02 1.999625000000000000e+03
1.499999999999999944e-01 1.556250000000000133e-01 8.586235000000000284e+00 1.212334999999999923e+02 1.999484999999999900e+03
1.509999999999999953e-01 1.556159999999999766e-01 8.520324999999999704e+00 1.211834999999999951e+02 1.999389999999999873e+03
1.519999999999999962e-01 1.556109999999999993e-01 8.511744999999999450e+00 1.212369999999999948e+02 1.999329999999999927e+03
1.529999999999999971e-01 1.556095000000000117e-01 8.552070000000000505e+00 1.213755000000000024e+02 1.999315000000000055e+03
1.539999999999999980e-01 1.556115000000000137e-01 8.632349999999998857e+00 1.215784999999999911e+02 1.999324999999999818e+03
1.549999999999999989e-01 1.556159999999999766e-01 8.743480000000001695e+00 1.218275000000000006e+02 1.999360000000000127e+03
1.559999999999999998e-01 1.556219999999999826e-01 8.876474999999999227e+00 1.221039999999999992e+02 1.999414999999999964e+03
1.570000000000000007e-01 1.556294999999999762e-01 9.022739999999998872e+00 1.223905000000000030e+02 1.999485000000000127e+03
1.580000000000000016e-01 1.556374999999999842e-01 9.174320000000001585e+00 1.226730000000000018e+02 1.999559999999999945e+03
1.590000000000000024e-01 1.556454999999999922e-01 9.324089999999999989e+00 1.229380000000000024e+02 1.999634999999999991e+03
