# t [s], A [cm^2], U [cm/s], P [cPa], c [cm/s]
1.000000000000000021e-03 7.750205000000000011e-01 6.002150000000004704e-03 1.043524999999999920e+02 1.696994999999999891e+03
2.000000000000000042e-03 7.750079999999999192e-01 -2.142521499999999832e-03 1.043234999999999957e+02 1.696985000000000127e+03
3.000000000000000062e-03 7.750699999999999257e-01 9.055784999999999529e-02 1.044310000000000116e+02 1.697009999999999991e+03
4.000000000000000083e-03 7.751265000000000516e-01 1.851494499999999932e-01 1.045564999999999998e+02 1.697039999999999964e+03
5.000000000000000104e-03 7.750954999999999373e-01 1.604740000000000055e-01 1.044979999999999905e+02 1.697029999999999973e+03
6.000000000000000125e-03 7.750215000000000298e-01 6.773700000000001942e-02 1.042785000000000082e+02 1.696985000000000127e+03
7.000000000000000146e-03 7.749595000000000233e-01 -1.465900000000003311e-02 1.040074999999999932e+02 1.696934999999999945e+03
8.000000000000000167e-03 7.748619999999999397e-01 -1.628700000000000148e-01 1.036075000000000017e+02 1.696855000000000018e+03
9.000000000000001055e-03 7.746950000000000225e-01 -4.338899999999998869e-01 1.029830000000000041e+02 1.696740000000000009e+03
1.000000000000000194e-02 7.744504999999999306e-01 -8.382399999999999851e-01 1.020805000000000007e+02 1.696569999999999936e+03
1.099999999999999936e-02 7.741055000000000019e-01 -1.399799999999999933e+00 1.008249500000000012e+02 1.696325000000000045e+03
1.200000000000000025e-02 7.736560000000000104e-01 -2.110184999999999977e+00 9.917704999999999416e+01 1.696005000000000109e+03
1.300000000000000114e-02 7.731464999999999588e-01 -2.873984999999999790e+00 9.722010000000000218e+01 1.695609999999999900e+03
1.400000000000000203e-02 7.726549999999999807e-01 -3.538900000000000379e+00 9.515125000000000455e+01 1.695179999999999836e+03
1.499999999999999944e-02 7.722435000000000827e-01 -3.973951999999999707e+00 9.317904999999998950e+01 1.694755000000000109e+03
1.600000000000000033e-02 7.719274999999999887e-01 -4.122500999999999749e+00 9.143610000000001037e+01 1.694355000000000018e+03
1.700000000000000122e-02 7.716834999999999667e-01 -4.006312499999999943e+00 8.994214999999999804e+01 1.693990000000000009e+03
1.800000000000000211e-02 7.714635000000000797e-01 -3.697276999999999703e+00 8.862579999999999814e+01 1.693654999999999973e+03
1.900000000000000300e-02 7.712229999999999919e-01 -3.279802499999999732e+00 8.737149999999999750e+01 1.693325000000000045e+03
2.000000000000000042e-02 7.709319999999999506e-01 -2.818876500000000007e+00 8.607165000000000532e+01 1.692990000000000009e+03
2.100000000000000130e-02 7.705859999999999932e-01 -2.342294000000000320e+00 8.466444999999998799e+01 1.692639999999999873e+03
2.200000000000000219e-02 7.702004999999999546e-01 -1.840980000000000061e+00 8.314855000000000018e+01 1.692264999999999873e+03
2.299999999999999961e-02 7.698019999999999863e-01 -1.285380000000000189e+00 8.156945000000000334e+01 1.691875000000000000e+03
2.400000000000000050e-02 7.694130000000000136e-01 -6.493499999999998717e-01 7.998839999999999861e+01 1.691480000000000018e+03
2.500000000000000139e-02 7.690420000000000034e-01 6.948500000000024102e-02 7.844774999999999920e+01 1.691095000000000027e+03
2.600000000000000228e-02 7.686794999999999600e-01 8.402049999999998686e-01 7.694745000000000346e+01 1.690714999999999918e+03
2.700000000000000316e-02 7.683014999999999706e-01 1.601664999999999894e+00 7.543880000000000052e+01 1.690329999999999927e+03
2.800000000000000058e-02 7.678750000000000853e-01 2.275280000000000413e+00 7.383514999999999873e+01 1.689934999999999945e+03
2.900000000000000147e-02 7.673689999999999678e-01 2.783409999999999940e+00 7.203565000000000396e+01 1.689500000000000000e+03
3.000000000000000236e-02 7.667650000000000299e-01 3.068125000000000213e+00 6.995400000000000773e+01 1.689019999999999982e+03
3.099999999999999978e-02 7.660610000000001030e-01 3.105324999999999669e+00 6.754619999999999891e+01 1.688474999999999909e+03
3.200000000000000067e-02 7.652744999999999687e-01 2.910195000000000309e+00 6.482689999999999486e+01 1.687869999999999891e+03
3.300000000000000155e-02 7.644394999999999385e-01 2.532175000000000509e+00 6.187089999999999890e+01 1.687215000000000146e+03
3.400000000000000244e-02 7.635979999999999990e-01 2.042455000000000354e+00 5.880015000000000214e+01 1.686534999999999854e+03
3.500000000000000333e-02 7.627935000000000132e-01 1.518069999999999364e+00 5.576084999999999781e+01 1.685855000000000018e+03
3.600000000000000422e-02 7.620620000000000172e-01 1.028574999999999573e+00 5.290005000000000024e+01 1.685199999999999818e+03
3.700000000000000511e-02 7.614300000000000512e-01 6.272449999999998305e-01 5.034539999999999793e+01 1.684605000000000018e+03
3.799999999999999906e-02 7.609139999999999793e-01 3.485849999999999227e-01 4.819360000000000355e+01 1.684085000000000036e+03
3.899999999999999994e-02 7.605210000000000026e-01 2.102400000000002045e-01 4.650695000000000334e+01 1.683660000000000082e+03
4.000000000000000083e-02 7.602510000000000101e-01 2.180100000000000371e-01 4.531595000000000084e+01 1.683335000000000036e+03
4.100000000000000172e-02 7.601010000000000266e-01 3.718350000000000266e-01 4.462715000000000032e+01 1.683119999999999891e+03
4.200000000000000261e-02 7.600679999999999659e-01 6.709976000000000829e-01 4.443250000000000455e+01 1.683019999999999982e+03
4.300000000000000350e-02 7.601485000000000047e-01 1.117420499999999928e+00 4.471719999999999828e+01 1.683019999999999982e+03
4.400000000000000439e-02 7.603409999999999336e-01 1.716351500000000030e+00 4.546549999999999869e+01 1.683130000000000109e+03
4.499999999999999833e-02 7.606439999999999868e-01 2.474804999999999922e+00 4.666250000000000142e+01 1.683345000000000027e+03
4.599999999999999922e-02 7.610554999999999959e-01 3.398469500000000032e+00 4.829260000000000019e+01 1.683655000000000200e+03
4.700000000000000011e-02 7.615715000000000678e-01 4.488370500000000263e+00 5.033644999999999925e+01 1.684070000000000164e+03
4.800000000000000100e-02 7.621839999999999726e-01 5.738247499999999945e+00 5.276689999999999259e+01 1.684565000000000055e+03
4.900000000000000189e-02 7.628825000000000189e-01 7.133327999999999669e+00 5.554699999999999704e+01 1.685144999999999982e+03
5.000000000000000278e-02 7.636524999999999563e-01 8.650805000000000078e+00 5.862874999999999659e+01 1.685804999999999836e+03
5.100000000000000366e-02 7.644779999999999909e-01 1.026148000000000060e+01 6.195480000000000587e+01 1.686519999999999982e+03
5.200000000000000455e-02 7.653419999999999668e-01 1.193239999999999945e+01 6.546144999999999925e+01 1.687284999999999854e+03
5.300000000000000544e-02 7.662260000000000737e-01 1.362999999999999901e+01 6.908310000000000173e+01 1.688085000000000036e+03
5.399999999999999939e-02 7.671160000000000201e-01 1.532262000000000057e+01 7.275665000000000759e+01 1.688910000000000082e+03
5.500000000000000028e-02 7.679990000000000983e-01 1.698288499999999956e+01 7.642595000000000027e+01 1.689740000000000009e+03
5.600000000000000117e-02 7.688654999999999795e-01 1.858895000000000053e+01 8.004484999999999673e+01 1.690569999999999936e+03
5.700000000000000205e-02 7.697089999999999765e-01 2.012519999999999953e+01 8.357925000000000182e+01 1.691389999999999873e+03
5.800000000000000294e-02 7.705275000000000318e-01 2.158174999999999955e+01 8.700759999999999650e+01 1.692190000000000055e+03
5.900000000000000383e-02 7.713200000000000056e-01 2.295425000000000182e+01 9.032019999999999982e+01 1.692980000000000018e+03
6.000000000000000472e-02 7.720879999999999965e-01 2.424214999999999876e+01 9.351715000000000089e+01 1.693740000000000009e+03
6.099999999999999867e-02 7.728349999999999387e-01 2.544839999999999947e+01 9.660784999999999911e+01 1.694480000000000018e+03
6.199999999999999956e-02 7.735655000000000170e-01 2.657770000000000010e+01 9.960609999999999786e+01 1.695199999999999818e+03
6.300000000000000044e-02 7.742824999999999847e-01 2.763579999999999970e+01 1.025289999999999964e+02 1.695909999999999854e+03
6.400000000000000133e-02 7.749904999999999156e-01 2.862865000000000038e+01 1.053937999999999988e+02 1.696599999999999909e+03
6.500000000000000222e-02 7.756935000000000358e-01 2.956119999999999948e+01 1.082160000000000082e+02 1.697284999999999854e+03
6.600000000000000311e-02 7.763929999999999998e-01 3.043730000000000047e+01 1.110090000000000003e+02 1.697954999999999927e+03
6.700000000000000400e-02 7.770890000000000297e-01 3.125900000000000034e+01 1.137789999999999964e+02 1.698625000000000000e+03
6.800000000000000488e-02 7.777815000000000145e-01 3.202635000000000076e+01 1.165264999999999986e+02 1.699289999999999964e+03
6.900000000000000577e-02 7.784680000000000488e-01 3.273714999999999975e+01 1.192479999999999905e+02 1.699945000000000164e+03
7.000000000000000666e-02 7.791440000000000587e-01 3.338794999999999646e+01 1.219320000000000022e+02 1.700599999999999909e+03
7.100000000000000755e-02 7.798065000000000691e-01 3.397355000000000302e+01 1.245635000000000048e+02 1.701235000000000127e+03
7.200000000000000844e-02 7.804499999999999771e-01 3.448829999999999529e+01 1.271225000000000023e+02 1.701860000000000127e+03
7.300000000000000933e-02 7.810690000000000133e-01 3.492634999999999934e+01 1.295889999999999986e+02 1.702460000000000036e+03
7.399999999999999634e-02 7.816579999999999639e-01 3.528215000000000146e+01 1.319424999999999955e+02 1.703045000000000073e+03
7.499999999999999722e-02 7.822120000000000184e-01 3.555105000000000359e+01 1.341610000000000014e+02 1.703590000000000146e+03
7.599999999999999811e-02 7.827279999999999793e-01 3.572944999999999993e+01 1.362280000000000086e+02 1.704109999999999900e+03
7.699999999999999900e-02 7.832019999999999538e-01 3.581499999999999773e+01 1.381274999999999977e+02 1.704585000000000036e+03
7.799999999999999989e-02 7.836324999999999541e-01 3.580679999999999552e+01 1.398485000000000014e+02 1.705025000000000091e+03
7.900000000000000078e-02 7.840160000000000462e-01 3.570524999999999949e+01 1.413820000000000050e+02 1.705424999999999955e+03
8.000000000000000167e-02 7.843535000000000368e-01 3.551214999999999833e+01 1.427239999999999895e+02 1.705779999999999973e+03
8.100000000000000255e-02 7.846435000000000493e-01 3.523054999999999382e+01 1.438739999999999952e+02 1.706090000000000146e+03
8.200000000000000344e-02 7.848889999999999478e-01 3.486509999999999820e+01 1.448350000000000080e+02 1.706360000000000127e+03
8.300000000000000433e-02 7.850900000000000656e-01 3.442170000000000130e+01 1.456145000000000209e+02 1.706579999999999927e+03
8.400000000000000522e-02 7.852494999999999337e-01 3.390769999999999840e+01 1.462210000000000036e+02 1.706759999999999991e+03
8.500000000000000611e-02 7.853719999999999590e-01 3.333169999999999789e+01 1.466695000000000277e+02 1.706900000000000091e+03
8.600000000000000699e-02 7.854594999999999771e-01 3.270329999999999870e+01 1.469745000000000061e+02 1.707009999999999991e+03
8.700000000000000788e-02 7.855185000000000084e-01 3.203310000000000457e+01 1.471545000000000130e+02 1.707079999999999927e+03
8.800000000000000877e-02 7.855529999999999458e-01 3.133220000000000027e+01 1.472295000000000016e+02 1.707125000000000000e+03
8.899999999999999578e-02 7.855680000000000440e-01 3.061169999999999902e+01 1.472189999999999941e+02 1.707154999999999973e+03
8.999999999999999667e-02 7.855674999999999741e-01 2.988244999999999862e+01 1.471435000000000173e+02 1.707154999999999973e+03
9.099999999999999756e-02 7.855579999999999785e-01 2.915420000000000300e+01 1.470225000000000080e+02 1.707144999999999982e+03
9.199999999999999845e-02 7.855415000000000036e-01 2.843574999999999875e+01 1.468729999999999905e+02 1.707125000000000000e+03
9.299999999999999933e-02 7.855220000000000535e-01 2.773395000000000010e+01 1.467104999999999961e+02 1.707099999999999909e+03
9.400000000000000022e-02 7.855019999999999225e-01 2.705395000000000039e+01 1.465455000000000041e+02 1.707069999999999936e+03
9.500000000000000111e-02 7.854820000000000135e-01 2.639864999999999995e+01 1.463855000000000075e+02 1.707035000000000082e+03
9.600000000000000200e-02 7.854630000000000223e-01 2.576914999999999978e+01 1.462350000000000136e+02 1.707000000000000000e+03
9.700000000000000289e-02 7.854444999999999899e-01 2.516450000000000031e+01 1.460939999999999941e+02 1.706970000000000027e+03
9.800000000000000377e-02 7.854250000000000398e-01 2.458204999999999885e+01 1.459599999999999795e+02 1.706934999999999945e+03
9.900000000000000466e-02 7.854034999999999211e-01 2.401790000000000092e+01 1.458254999999999768e+02 1.706900000000000091e+03
1.000000000000000056e-01 7.853769999999999918e-01 2.346709999999999852e+01 1.456834999999999809e+02 1.706869999999999891e+03
1.010000000000000064e-01 7.853440000000000420e-01 2.292419999999999902e+01 1.455250000000000057e+02 1.706829999999999927e+03
1.020000000000000073e-01 7.853010000000000268e-01 2.238315000000000055e+01 1.453389999999999986e+02 1.706784999999999854e+03
1.030000000000000082e-01 7.852464999999999584e-01 2.183834999999999837e+01 1.451165000000000020e+02 1.706735000000000127e+03
1.040000000000000091e-01 7.851785000000000014e-01 2.128434999999999988e+01 1.448475000000000250e+02 1.706675000000000182e+03
1.050000000000000100e-01 7.850954999999999462e-01 2.071669999999999945e+01 1.445244999999999891e+02 1.706599999999999909e+03
1.059999999999999970e-01 7.849954999999999572e-01 2.013165000000000049e+01 1.441435000000000173e+02 1.706514999999999873e+03
1.069999999999999979e-01 7.848794999999999522e-01 1.952689999999999770e+01 1.436984999999999957e+02 1.706414999999999964e+03
1.079999999999999988e-01 7.847470000000000834e-01 1.890125000000000099e+01 1.431909999999999741e+02 1.706300000000000182e+03
1.089999999999999997e-01 7.845999999999999641e-01 1.825520000000000209e+01 1.426225000000000023e+02 1.706174999999999955e+03
1.100000000000000006e-01 7.844385000000000385e-01 1.759065000000000012e+01 1.419985000000000070e+02 1.706034999999999854e+03
1.110000000000000014e-01 7.842660000000000187e-01 1.691094999999999970e+01 1.413265000000000100e+02 1.705884999999999991e+03
1.120000000000000023e-01 7.840854999999999908e-01 1.622074999999999889e+01 1.406175000000000068e+02 1.705724999999999909e+03
1.130000000000000032e-01 7.839000000000000412e-01 1.552580000000000027e+01 1.398840000000000146e+02 1.705555000000000064e+03
1.140000000000000041e-01 7.837145000000000916e-01 1.483295000000000030e+01 1.391405000000000030e+02 1.705389999999999873e+03
1.150000000000000050e-01 7.835315000000000474e-01 1.414952500000000057e+01 1.384019999999999868e+02 1.705214999999999918e+03
1.160000000000000059e-01 7.833559999999999413e-01 1.348309500000000050e+01 1.376850000000000023e+02 1.705050000000000182e+03
1.170000000000000068e-01 7.831909999999999705e-01 1.284121000000000024e+01 1.370049999999999955e+02 1.704889999999999873e+03
1.180000000000000077e-01 7.830405000000000282e-01 1.223106500000000096e+01 1.363760000000000048e+02 1.704740000000000009e+03
1.190000000000000085e-01 7.829075000000000895e-01 1.165915499999999838e+01 1.358129999999999882e+02 1.704599999999999909e+03
1.200000000000000094e-01 7.827945000000000597e-01 1.113082999999999956e+01 1.353245000000000005e+02 1.704474999999999909e+03
1.209999999999999964e-01 7.827030000000000376e-01 1.065034999999999954e+01 1.349205000000000041e+02 1.704375000000000000e+03
1.219999999999999973e-01 7.826345000000000107e-01 1.022049999999999947e+01 1.346055000000000064e+02 1.704285000000000082e+03
1.229999999999999982e-01 7.825889999999999791e-01 9.842715000000000103e+00 1.343820000000000050e+02 1.704224999999999909e+03
1.239999999999999991e-01 7.825649999999999551e-01 9.516759999999999664e+00 1.342500000000000000e+02 1.704174999999999955e+03
1.250000000000000000e-01 7.825619999999999798e-01 9.241144999999999499e+00 1.342044999999999959e+02 1.704150000000000091e+03
1.260000000000000009e-01 7.825785000000000657e-01 9.013030000000000541e+00 1.342400000000000091e+02 1.704144999999999982e+03
1.270000000000000018e-01 7.826109999999999456e-01 8.828570000000000917e+00 1.343470000000000084e+02 1.704154999999999973e+03
1.280000000000000027e-01 7.826579999999999648e-01 8.683040000000000092e+00 1.345165000000000077e+02 1.704180000000000064e+03
1.290000000000000036e-01 7.827155000000000085e-01 8.571175000000000210e+00 1.347359999999999900e+02 1.704219999999999800e+03
1.300000000000000044e-01 7.827815000000000190e-01 8.487404999999998978e+00 1.349939999999999998e+02 1.704264999999999873e+03
1.310000000000000053e-01 7.828530000000000211e-01 8.426095000000000113e+00 1.352789999999999964e+02 1.704319999999999936e+03
1.320000000000000062e-01 7.829264999999999697e-01 8.381759999999999877e+00 1.355785000000000196e+02 1.704384999999999991e+03
1.330000000000000071e-01 7.830010000000000581e-01 8.349264999999999048e+00 1.358840000000000146e+02 1.704450000000000045e+03
1.340000000000000080e-01 7.830734999999999779e-01 8.323969999999999203e+00 1.361854999999999905e+02 1.704509999999999991e+03
1.350000000000000089e-01 7.831429999999999225e-01 8.301784999999998860e+00 1.364749999999999943e+02 1.704579999999999927e+03
1.360000000000000098e-01 7.832069999999999865e-01 8.279270000000000351e+00 1.367475000000000023e+02 1.704639999999999873e+03
1.370000000000000107e-01 7.832660000000000178e-01 8.253655000000000186e+00 1.369979999999999905e+02 1.704695000000000164e+03
1.380000000000000115e-01 7.833190000000000985e-01 8.222820000000000462e+00 1.372245000000000061e+02 1.704750000000000000e+03
1.390000000000000124e-01 7.833660000000000068e-01 8.185264999999999347e+00 1.374239999999999782e+02 1.704799999999999955e+03
1.400000000000000133e-01 7.834065000000000056e-01 8.140114999999999768e+00 1.375980000000000132e+02 1.704845000000000027e+03
1.410000000000000142e-01 7.834410000000000540e-01 8.086990000000000123e+00 1.377464999999999975e+02 1.704880000000000109e+03
1.420000000000000151e-01 7.834704999999999586e-01 8.025999999999999801e+00 1.378715000000000259e+02 1.704909999999999854e+03
1.430000000000000160e-01 7.834955000000000114e-01 7.957655000000000811e+00 1.379750000000000227e+02 1.704940000000000055e+03
1.440000000000000169e-01 7.835159999999999902e-01 7.882770000000000721e+00 1.380600000000000023e+02 1.704964999999999918e+03
1.450000000000000178e-01 7.835334999999999939e-01 7.802405000000000257e+00 1.381295000000000073e+02 1.704980000000000018e+03
1.459999999999999909e-01 7.835484999999999811e-01 7.717774999999999608e+00 1.381864999999999952e+02 1.705000000000000000e+03
1.469999999999999918e-01 7.835620000000000918e-01 7.630164999999999864e+00 1.382344999999999970e+02 1.705014999999999873e+03
1.479999999999999927e-01 7.835734999999999228e-01 7.540849999999999831e+00 1.382754999999999939e+02 1.705025000000000091e+03
1.489999999999999936e-01 7.835849999999999760e-01 7.451039999999999885e+00 1.383114999999999952e+02 1.705039999999999964e+03
1.499999999999999944e-01 7.835955000000000004e-01 7.361829999999999430e+00 1.383449999999999989e+02 1.705049999999999955e+03
1.509999999999999953e-01 7.836060000000000247e-01 7.274115000000000109e+00 1.383770000000000095e+02 1.705054999999999836e+03
1.519999999999999962e-01 7.836170000000000080e-01 7.188604999999999912e+00 1.384089999999999918e+02 1.705070000000000164e+03
1.529999999999999971e-01 7.836274999999999213e-01 7.105780000000000207e+00 1.384399999999999977e+02 1.705075000000000045e+03
1.539999999999999980e-01 7.836385000000000156e-01 7.025919999999999277e+00 1.384705000000000155e+02 1.705085000000000036e+03
1.549999999999999989e-01 7.836480000000000112e-01 6.949104999999999421e+00 1.384995000000000118e+02 1.705090000000000146e+03
1.559999999999999998e-01 7.836575000000000069e-01 6.875249999999999417e+00 1.385260000000000105e+02 1.705099999999999909e+03
1.570000000000000007e-01 7.836659999999999737e-01 6.804170000000000051e+00 1.385489999999999782e+02 1.705105000000000018e+03
1.580000000000000016e-01 7.836724999999999941e-01 6.735599999999999810e+00 1.385670000000000073e+02 1.705110000000000127e+03
1.590000000000000024e-01 7.836775000000000269e-01 6.669270000000000032e+00 1.385784999999999911e+02 1.705110000000000127e+03
