# t [s], A [cm^2], U [cm/s], P [cPa], c [cm/s]
1.000000000000000021e-03 5.474849999999999994e-01 3.823750000000000759e-03 9.386965000000000714e+01 1.470644999999999982e+03
2.000000000000000042e-03 5.474769999999999914e-01 -2.057649300000000039e-03 9.385155000000000314e+01 1.470644999999999982e+03
3.000000000000000062e-03 5.475019999999999332e-01 4.303764999999999674e-02 9.389194999999999425e+01 1.470654999999999973e+03
4.000000000000000083e-03 5.475510000000000099e-01 1.322821999999999887e-01 9.399545000000000528e+01 1.470679999999999836e+03
5.000000000000000104e-03 5.475630000000000219e-01 1.650044500000000247e-01 9.403294999999999959e+01 1.470690000000000055e+03
6.000000000000000125e-03 5.475280000000000147e-01 1.135869999999999935e-01 9.394354999999998768e+01 1.470675000000000182e+03
7.000000000000000146e-03 5.474824999999999831e-01 4.075499999999998568e-02 9.378079999999999927e+01 1.470639999999999873e+03
8.000000000000000167e-03 5.474419999999999842e-01 -2.797149999999998249e-02 9.358365000000000578e+01 1.470590000000000146e+03
9.000000000000001055e-03 5.473789999999999489e-01 -1.464249999999999718e-01 9.330074999999999363e+01 1.470529999999999973e+03
1.000000000000000194e-02 5.472770000000000135e-01 -3.479149999999999743e-01 9.288105000000000189e+01 1.470434999999999945e+03
1.099999999999999936e-02 5.471325000000000216e-01 -6.358300000000000063e-01 9.229800000000000182e+01 1.470299999999999955e+03
1.200000000000000025e-02 5.469370000000000065e-01 -1.021279999999999966e+00 9.151529999999999632e+01 1.470125000000000000e+03
1.300000000000000114e-02 5.466794999999999849e-01 -1.513064999999999882e+00 9.049545000000000528e+01 1.469880000000000109e+03
1.400000000000000203e-02 5.463679999999999648e-01 -2.082995000000000374e+00 8.924195000000000277e+01 1.469585000000000036e+03
1.499999999999999944e-02 5.460325000000000317e-01 -2.656500000000000306e+00 8.782144999999999868e+01 1.469240000000000009e+03
1.600000000000000033e-02 5.457100000000000284e-01 -3.139025000000000176e+00 8.634415000000001328e+01 1.468865000000000009e+03
1.700000000000000122e-02 5.454309999999999992e-01 -3.453164999999999818e+00 8.492009999999999081e+01 1.468490000000000009e+03
1.800000000000000211e-02 5.452044999999999808e-01 -3.561911999999999967e+00 8.362309999999999377e+01 1.468134999999999991e+03
1.900000000000000300e-02 5.450209999999999777e-01 -3.471566499999999778e+00 8.247539999999999338e+01 1.467800000000000182e+03
2.000000000000000042e-02 5.448604999999999698e-01 -3.220371000000000095e+00 8.145214999999998895e+01 1.467485000000000127e+03
2.100000000000000130e-02 5.446975000000000566e-01 -2.861082899999999984e+00 8.049844999999999118e+01 1.467190000000000055e+03
2.200000000000000219e-02 5.445134999999999836e-01 -2.443925500000000195e+00 7.955060000000000286e+01 1.466884999999999991e+03
2.299999999999999961e-02 5.442970000000000308e-01 -2.003654999999999742e+00 7.855649999999999977e+01 1.466575000000000045e+03
2.400000000000000050e-02 5.440469999999999473e-01 -1.553394999999999859e+00 7.748924999999999841e+01 1.466250000000000000e+03
2.500000000000000139e-02 5.437739999999999796e-01 -1.086384999999999934e+00 7.635134999999999650e+01 1.465904999999999973e+03
2.600000000000000228e-02 5.434909999999999464e-01 -5.843800000000001216e-01 7.516819999999999879e+01 1.465549999999999955e+03
2.700000000000000316e-02 5.432105000000000405e-01 -2.926500000000009649e-02 7.397560000000000002e+01 1.465190000000000055e+03
2.800000000000000058e-02 5.429405000000000481e-01 5.863899999999997448e-01 7.280449999999999022e+01 1.464835000000000036e+03
2.900000000000000147e-02 5.426809999999999690e-01 1.252960000000000074e+00 7.166910000000000025e+01 1.464485000000000127e+03
3.000000000000000236e-02 5.424240000000000173e-01 1.942735000000000101e+00 7.056104999999999450e+01 1.464134999999999991e+03
3.099999999999999978e-02 5.421564999999999301e-01 2.613665000000000127e+00 6.944960000000000377e+01 1.463789999999999964e+03
3.200000000000000067e-02 5.418629999999999836e-01 3.216674999999999951e+00 6.828815000000000168e+01 1.463434999999999945e+03
3.300000000000000155e-02 5.415280000000000094e-01 3.704600000000000115e+00 6.702450000000000330e+01 1.463059999999999945e+03
3.400000000000000244e-02 5.411420000000000119e-01 4.041145000000000209e+00 6.561315000000000452e+01 1.462654999999999973e+03
3.500000000000000333e-02 5.407035000000000036e-01 4.207844999999999835e+00 6.402670000000000528e+01 1.462210000000000036e+03
3.600000000000000422e-02 5.402185000000000459e-01 4.207544999999999646e+00 6.226425000000000409e+01 1.461724999999999909e+03
3.700000000000000511e-02 5.397005000000000274e-01 4.063715000000000188e+00 6.035419999999999874e+01 1.461210000000000036e+03
3.799999999999999906e-02 5.391690000000000094e-01 3.815459999999999852e+00 5.835150000000000148e+01 1.460670000000000073e+03
3.899999999999999994e-02 5.386480000000000157e-01 3.510894999999999655e+00 5.632979999999999876e+01 1.460119999999999891e+03
4.000000000000000083e-02 5.381584999999999841e-01 3.199235000000000273e+00 5.437215000000000487e+01 1.459585000000000036e+03
4.100000000000000172e-02 5.377184999999999881e-01 2.924955000000000194e+00 5.256045000000000300e+01 1.459079999999999927e+03
4.200000000000000261e-02 5.373445000000000027e-01 2.723804999999999588e+00 5.096790000000000020e+01 1.458619999999999891e+03
4.300000000000000350e-02 5.370455000000000645e-01 2.621145000000000280e+00 4.965344999999999942e+01 1.458224999999999909e+03
4.400000000000000439e-02 5.368275000000000130e-01 2.632609999999999673e+00 4.865939999999999799e+01 1.457914999999999964e+03
4.499999999999999833e-02 5.366914999999999880e-01 2.766010499999999706e+00 4.801194999999999879e+01 1.457690000000000055e+03
4.599999999999999922e-02 5.366385000000000183e-01 3.024019999999999708e+00 4.772310000000000230e+01 1.457554999999999836e+03
4.700000000000000011e-02 5.366670000000000051e-01 3.406880000000000130e+00 4.779460000000000264e+01 1.457515000000000100e+03
4.800000000000000100e-02 5.367755000000000720e-01 3.914595000000000269e+00 4.822119999999999607e+01 1.457569999999999936e+03
4.900000000000000189e-02 5.369614999999999805e-01 4.548199999999999577e+00 4.899420000000000641e+01 1.457724999999999909e+03
5.000000000000000278e-02 5.372234999999999649e-01 5.309929999999999595e+00 5.010365000000000180e+01 1.457970000000000027e+03
5.100000000000000366e-02 5.375609999999999555e-01 6.202519999999999811e+00 5.153860000000000241e+01 1.458304999999999836e+03
5.200000000000000455e-02 5.379720000000000057e-01 7.227854999999999919e+00 5.328744999999999976e+01 1.458730000000000018e+03
5.300000000000000544e-02 5.384535000000000293e-01 8.385305000000000675e+00 5.533639999999999759e+01 1.459244999999999891e+03
5.399999999999999939e-02 5.390015000000000223e-01 9.670354999999998924e+00 5.766809999999999548e+01 1.459835000000000036e+03
5.500000000000000028e-02 5.396100000000000341e-01 1.107399999999999984e+01 6.026044999999999874e+01 1.460500000000000000e+03
5.600000000000000117e-02 5.402715000000000156e-01 1.258214000000000077e+01 6.308579999999999899e+01 1.461235000000000127e+03
5.700000000000000205e-02 5.409775000000000000e-01 1.417652500000000160e+01 6.611124999999999829e+01 1.462029999999999973e+03
5.800000000000000294e-02 5.417190000000000616e-01 1.583539999999999992e+01 6.929939999999999145e+01 1.462880000000000109e+03
5.900000000000000383e-02 5.424845000000000361e-01 1.753507499999999908e+01 7.260974999999999113e+01 1.463769999999999982e+03
6.000000000000000472e-02 5.432645000000000390e-01 1.925122499999999803e+01 7.600065000000000737e+01 1.464690000000000055e+03
6.099999999999999867e-02 5.440494999999999637e-01 2.096054999999999779e+01 7.943144999999999811e+01 1.465630000000000109e+03
6.199999999999999956e-02 5.448309999999999542e-01 2.264160000000000039e+01 8.286410000000000764e+01 1.466585000000000036e+03
6.300000000000000044e-02 5.456030000000000602e-01 2.427595000000000169e+01 8.626509999999998968e+01 1.467529999999999973e+03
6.400000000000000133e-02 5.463590000000000391e-01 2.584860000000000113e+01 8.960644999999999527e+01 1.468474999999999909e+03
6.500000000000000222e-02 5.470960000000000267e-01 2.734799999999999898e+01 9.286735000000000184e+01 1.469409999999999854e+03
6.600000000000000311e-02 5.478110000000000479e-01 2.876624999999999943e+01 9.603100000000000591e+01 1.470320000000000164e+03
6.700000000000000400e-02 5.485035000000000327e-01 3.009829999999999828e+01 9.908965000000000600e+01 1.471210000000000036e+03
6.800000000000000488e-02 5.491730000000000222e-01 3.134205000000000041e+01 1.020391999999999939e+02 1.472069999999999936e+03
6.900000000000000577e-02 5.498214999999999630e-01 3.249739999999999895e+01 1.048805499999999995e+02 1.472909999999999854e+03
7.000000000000000666e-02 5.504485000000000072e-01 3.356595000000000084e+01 1.076186500000000024e+02 1.473719999999999800e+03
7.100000000000000755e-02 5.510574999999999779e-01 3.455060000000000286e+01 1.102605000000000075e+02 1.474505000000000109e+03
7.200000000000000844e-02 5.516495000000000148e-01 3.545485000000000042e+01 1.128149999999999977e+02 1.475265000000000100e+03
7.300000000000000933e-02 5.522270000000000234e-01 3.628249999999999886e+01 1.152914999999999992e+02 1.476015000000000100e+03
7.399999999999999634e-02 5.527910000000000323e-01 3.703735000000000355e+01 1.176984999999999957e+02 1.476735000000000127e+03
7.499999999999999722e-02 5.533434999999999881e-01 3.772270000000000323e+01 1.200430000000000064e+02 1.477434999999999945e+03
7.599999999999999811e-02 5.538855000000000306e-01 3.834135000000000559e+01 1.223309999999999889e+02 1.478130000000000109e+03
7.699999999999999900e-02 5.544154999999999500e-01 3.889504999999999768e+01 1.245644999999999953e+02 1.478800000000000182e+03
7.799999999999999989e-02 5.549349999999999561e-01 3.938469999999999516e+01 1.267450000000000045e+02 1.479454999999999927e+03
7.900000000000000078e-02 5.554415000000000324e-01 3.981034999999999968e+01 1.288689999999999998e+02 1.480099999999999909e+03
8.000000000000000167e-02 5.559335000000000804e-01 4.017090000000000316e+01 1.309314999999999998e+02 1.480724999999999909e+03
8.100000000000000255e-02 5.564089999999999314e-01 4.046490000000000009e+01 1.329250000000000114e+02 1.481324999999999818e+03
8.200000000000000344e-02 5.568664999999999310e-01 4.069039999999999679e+01 1.348399999999999750e+02 1.481914999999999964e+03
8.300000000000000433e-02 5.573019999999999641e-01 4.084525000000000006e+01 1.366674999999999898e+02 1.482474999999999909e+03
8.400000000000000522e-02 5.577145000000000019e-01 4.092754999999999654e+01 1.383954999999999984e+02 1.483005000000000109e+03
8.500000000000000611e-02 5.581004999999999994e-01 4.093564999999999543e+01 1.400149999999999864e+02 1.483505000000000109e+03
8.600000000000000699e-02 5.584584999999999688e-01 4.086849999999999739e+01 1.415165000000000077e+02 1.483974999999999909e+03
8.700000000000000788e-02 5.587870000000000337e-01 4.072570000000000334e+01 1.428904999999999745e+02 1.484409999999999854e+03
8.800000000000000877e-02 5.590844999999999843e-01 4.050769999999999982e+01 1.441320000000000050e+02 1.484809999999999945e+03
8.899999999999999578e-02 5.593494999999999440e-01 4.021564999999999657e+01 1.452359999999999900e+02 1.485175000000000182e+03
8.999999999999999667e-02 5.595820000000000238e-01 3.985155000000000314e+01 1.461990000000000123e+02 1.485490000000000009e+03
9.099999999999999756e-02 5.597830000000000306e-01 3.941825000000000045e+01 1.470219999999999914e+02 1.485775000000000091e+03
9.199999999999999845e-02 5.599509999999999765e-01 3.891935000000000144e+01 1.477049999999999841e+02 1.486014999999999873e+03
9.299999999999999933e-02 5.600884999999999891e-01 3.835909999999999798e+01 1.482524999999999977e+02 1.486210000000000036e+03
9.400000000000000022e-02 5.601964999999999861e-01 3.774264999999999759e+01 1.486694999999999993e+02 1.486369999999999891e+03
9.500000000000000111e-02 5.602759999999999962e-01 3.707574999999999932e+01 1.489625000000000057e+02 1.486494999999999891e+03
9.600000000000000200e-02 5.603299999999999947e-01 3.636469999999999914e+01 1.491410000000000196e+02 1.486585000000000036e+03
9.700000000000000289e-02 5.603595000000000104e-01 3.561639999999999873e+01 1.492144999999999868e+02 1.486644999999999982e+03
9.800000000000000377e-02 5.603679999999999772e-01 3.483814999999999884e+01 1.491945000000000050e+02 1.486670000000000073e+03
9.900000000000000466e-02 5.603584999999999816e-01 3.403759999999999764e+01 1.490930000000000177e+02 1.486670000000000073e+03
1.000000000000000056e-01 5.603335000000000399e-01 3.322245000000000203e+01 1.489225000000000136e+02 1.486654999999999973e+03
1.010000000000000064e-01 5.602960000000000163e-01 3.240030000000000143e+01 1.486965000000000146e+02 1.486609999999999900e+03
1.020000000000000073e-01 5.602485000000000381e-01 3.157845000000000368e+01 1.484269999999999925e+02 1.486554999999999836e+03
1.030000000000000082e-01 5.601945000000000396e-01 3.076370000000000005e+01 1.481270000000000095e+02 1.486485000000000127e+03
1.040000000000000091e-01 5.601365000000000371e-01 2.996205000000000140e+01 1.478079999999999927e+02 1.486404999999999973e+03
1.050000000000000100e-01 5.600754999999999484e-01 2.917859999999999943e+01 1.474800000000000182e+02 1.486320000000000164e+03
1.059999999999999970e-01 5.600144999999999706e-01 2.841730000000000089e+01 1.471514999999999986e+02 1.486235000000000127e+03
1.069999999999999979e-01 5.599545000000000217e-01 2.768080000000000140e+01 1.468294999999999959e+02 1.486144999999999982e+03
1.079999999999999988e-01 5.598954999999999904e-01 2.697050000000000125e+01 1.465184999999999889e+02 1.486055000000000064e+03
1.089999999999999997e-01 5.598389999999999755e-01 2.628645000000000209e+01 1.462214999999999918e+02 1.485970000000000027e+03
1.100000000000000006e-01 5.597845000000000182e-01 2.562760000000000105e+01 1.459379999999999882e+02 1.485884999999999991e+03
1.110000000000000014e-01 5.597309999999999786e-01 2.499159999999999826e+01 1.456675000000000182e+02 1.485800000000000182e+03
1.120000000000000023e-01 5.596769999999999801e-01 2.437534999999999741e+01 1.454064999999999941e+02 1.485724999999999909e+03
1.130000000000000032e-01 5.596235000000000515e-01 2.377479999999999905e+01 1.451510000000000105e+02 1.485644999999999982e+03
1.140000000000000041e-01 5.595670000000000366e-01 2.318554999999999922e+01 1.448940000000000055e+02 1.485570000000000164e+03
1.150000000000000050e-01 5.595075000000000465e-01 2.260285000000000011e+01 1.446299999999999955e+02 1.485484999999999900e+03
1.160000000000000059e-01 5.594430000000000236e-01 2.202179999999999893e+01 1.443530000000000086e+02 1.485404999999999973e+03
1.170000000000000068e-01 5.593719999999999803e-01 2.143769999999999953e+01 1.440554999999999950e+02 1.485315000000000055e+03
1.180000000000000077e-01 5.592930000000000401e-01 2.084615000000000151e+01 1.437319999999999993e+02 1.485219999999999800e+03
1.190000000000000085e-01 5.592055000000000220e-01 2.024324999999999974e+01 1.433765000000000214e+02 1.485119999999999891e+03
1.200000000000000094e-01 5.591089999999999671e-01 1.962579999999999814e+01 1.429850000000000136e+02 1.485009999999999991e+03
1.209999999999999964e-01 5.590019999999999989e-01 1.899125000000000085e+01 1.425544999999999902e+02 1.484889999999999873e+03
1.219999999999999973e-01 5.588854999999999240e-01 1.833800000000000097e+01 1.420824999999999818e+02 1.484755000000000109e+03
1.229999999999999982e-01 5.587590000000000057e-01 1.766535000000000011e+01 1.415695000000000050e+02 1.484615000000000009e+03
1.239999999999999991e-01 5.586225000000000218e-01 1.697354999999999947e+01 1.410169999999999959e+02 1.484460000000000036e+03
1.250000000000000000e-01 5.584780000000000300e-01 1.626355000000000217e+01 1.404259999999999877e+02 1.484299999999999955e+03
1.260000000000000009e-01 5.583259999999999890e-01 1.553764999999999930e+01 1.398019999999999925e+02 1.484125000000000000e+03
1.270000000000000018e-01 5.581690000000000262e-01 1.479850000000000065e+01 1.391499999999999773e+02 1.483945000000000164e+03
1.280000000000000027e-01 5.580069999999999197e-01 1.404981499999999883e+01 1.384774999999999920e+02 1.483759999999999991e+03
1.290000000000000036e-01 5.578440000000000065e-01 1.329578500000000041e+01 1.377899999999999920e+02 1.483570000000000164e+03
1.300000000000000044e-01 5.576794999999999947e-01 1.254115000000000002e+01 1.370970000000000084e+02 1.483369999999999891e+03
1.310000000000000053e-01 5.575170000000000403e-01 1.179094500000000068e+01 1.364069999999999823e+02 1.483179999999999836e+03
1.320000000000000062e-01 5.573584999999999789e-01 1.105042500000000061e+01 1.357280000000000086e+02 1.482989999999999782e+03
1.330000000000000071e-01 5.572065000000000490e-01 1.032485999999999926e+01 1.350690000000000168e+02 1.482795000000000073e+03
1.340000000000000080e-01 5.570614999999999872e-01 9.619260000000000588e+00 1.344379999999999882e+02 1.482615000000000009e+03
1.350000000000000089e-01 5.569260000000000321e-01 8.938489999999999824e+00 1.338425000000000011e+02 1.482445000000000164e+03
1.360000000000000098e-01 5.568015000000000603e-01 8.286910000000000664e+00 1.332895000000000039e+02 1.482279999999999973e+03
1.370000000000000107e-01 5.566885000000000305e-01 7.668255000000000265e+00 1.327839999999999918e+02 1.482125000000000000e+03
1.380000000000000115e-01 5.565884999999999305e-01 7.085564999999999891e+00 1.323300000000000125e+02 1.481990000000000009e+03
1.390000000000000124e-01 5.565014999999999823e-01 6.541169999999999263e+00 1.319310000000000116e+02 1.481860000000000127e+03
1.400000000000000133e-01 5.564275000000000748e-01 6.036514999999999631e+00 1.315885000000000105e+02 1.481755000000000109e+03
1.410000000000000142e-01 5.563669999999999449e-01 5.572199999999999598e+00 1.313009999999999877e+02 1.481654999999999973e+03
1.420000000000000151e-01 5.563190000000000079e-01 5.147985000000000255e+00 1.310679999999999836e+02 1.481575000000000045e+03
1.430000000000000160e-01 5.562819999999999432e-01 4.762809999999999988e+00 1.308859999999999957e+02 1.481509999999999991e+03
1.440000000000000169e-01 5.562559999999999727e-01 4.414895000000000458e+00 1.307500000000000000e+02 1.481460000000000036e+03
1.450000000000000178e-01 5.562389999999999279e-01 4.101799999999999891e+00 1.306564999999999941e+02 1.481414999999999964e+03
1.459999999999999909e-01 5.562289999999999734e-01 3.820574999999999832e+00 1.305980000000000132e+02 1.481384999999999991e+03
1.469999999999999918e-01 5.562255000000000393e-01 3.567854999999999777e+00 1.305674999999999955e+02 1.481369999999999891e+03
1.479999999999999927e-01 5.562259999999999982e-01 3.340030000000000054e+00 1.305590000000000259e+02 1.481355000000000018e+03
1.489999999999999936e-01 5.562289999999999734e-01 3.133340000000000014e+00 1.305640000000000214e+02 1.481344999999999800e+03
1.499999999999999944e-01 5.562319999999999487e-01 2.944065000000000154e+00 1.305769999999999982e+02 1.481335000000000036e+03
1.509999999999999953e-01 5.562354999999999938e-01 2.768575000000000230e+00 1.305900000000000034e+02 1.481335000000000036e+03
1.519999999999999962e-01 5.562369999999999814e-01 2.603485000000000049e+00 1.305975000000000250e+02 1.481329999999999927e+03
1.529999999999999971e-01 5.562354999999999938e-01 2.445730000000000182e+00 1.305944999999999823e+02 1.481325000000000045e+03
1.539999999999999980e-01 5.562300000000000022e-01 2.292615000000000069e+00 1.305765000000000100e+02 1.481320000000000164e+03
1.549999999999999989e-01 5.562199999999999367e-01 2.141880000000000006e+00 1.305394999999999754e+02 1.481305000000000064e+03
1.559999999999999998e-01 5.562044999999999906e-01 1.991705000000000059e+00 1.304819999999999993e+02 1.481289999999999964e+03
1.570000000000000007e-01 5.561840000000000117e-01 1.840739999999999821e+00 1.304014999999999986e+02 1.481259999999999991e+03
1.580000000000000016e-01 5.561585000000000001e-01 1.688080000000000025e+00 1.302980000000000018e+02 1.481235000000000127e+03
1.590000000000000024e-01 5.561274999999999968e-01 1.533230499999999941e+00 1.301714999999999804e+02 1.481199999999999818e+03
