# t [s], A [cm^2], U [cm/s], P [cPa], c [cm/s]
1.000000000000000021e-03 7.678504999999999914e-01 7.947499999999996234e-03 1.084060000000000059e+02 1.830105000000000018e+03
2.000000000000000042e-03 7.678430000000000533e-01 1.052229999999999832e-02 1.083704999999999927e+02 1.830099999999999909e+03
3.000000000000000062e-03 7.679380000000000095e-01 1.816874500000000003e-01 1.085799999999999983e+02 1.830139999999999873e+03
4.000000000000000083e-03 7.679510000000000502e-01 2.448980000000000046e-01 1.086295000000000073e+02 1.830154999999999973e+03
5.000000000000000104e-03 7.678329999999999878e-01 9.505550000000001498e-02 1.082734999999999985e+02 1.830085000000000036e+03
6.000000000000000125e-03 7.677320000000000810e-01 -4.591000000000000636e-02 1.077990000000000066e+02 1.829985000000000127e+03
7.000000000000000146e-03 7.675760000000000360e-01 -2.998849999999999572e-01 1.070960000000000036e+02 1.829845000000000027e+03
8.000000000000000167e-03 7.673049999999999038e-01 -7.814949999999999397e-01 1.059565000000000055e+02 1.829619999999999891e+03
9.000000000000001055e-03 7.669379999999998976e-01 -1.448020000000000085e+00 1.043636999999999944e+02 1.829300000000000182e+03
1.000000000000000194e-02 7.664299999999999446e-01 -2.350255000000000205e+00 1.021798500000000018e+02 1.828855000000000018e+03
1.099999999999999936e-02 7.657665000000000166e-01 -3.477079999999999504e+00 9.932544999999998936e+01 1.828269999999999982e+03
1.200000000000000025e-02 7.650704999999999867e-01 -4.575887499999999442e+00 9.609905000000000541e+01 1.827590000000000146e+03
1.300000000000000114e-02 7.645120000000000804e-01 -5.289901500000000034e+00 9.306510000000000105e+01 1.826910000000000082e+03
1.400000000000000203e-02 7.641774999999999540e-01 -5.407169999999999810e+00 9.067564999999999031e+01 1.826329999999999927e+03
1.499999999999999944e-02 7.640255000000000241e-01 -4.959130000000000038e+00 8.902604999999999791e+01 1.825889999999999873e+03
1.600000000000000033e-02 7.639309999999999157e-01 -4.161229999999999762e+00 8.786574999999999136e+01 1.825534999999999854e+03
1.700000000000000122e-02 7.637609999999999122e-01 -3.284430000000000405e+00 8.676484999999999559e+01 1.825204999999999927e+03
1.800000000000000211e-02 7.634335000000000981e-01 -2.525434499999999804e+00 8.533750000000000568e+01 1.824825000000000045e+03
1.900000000000000300e-02 7.629544999999999799e-01 -1.928079999999999794e+00 8.342040000000000077e+01 1.824355000000000018e+03
2.000000000000000042e-02 7.623975000000000612e-01 -1.396035000000000137e+00 8.111560000000000059e+01 1.823804999999999836e+03
2.100000000000000130e-02 7.618540000000000312e-01 -7.835799999999997212e-01 7.868420000000000414e+01 1.823224999999999909e+03
2.200000000000000219e-02 7.613814999999999333e-01 6.050000000001887202e-04 7.637385000000000446e+01 1.822659999999999854e+03
2.299999999999999961e-02 7.609759999999999858e-01 9.333599999999999675e-01 7.428260000000000218e+01 1.822130000000000109e+03
2.400000000000000050e-02 7.605785000000000462e-01 1.874920000000000142e+00 7.230725000000001046e+01 1.821625000000000000e+03
2.500000000000000139e-02 7.600960000000001049e-01 2.611209999999999809e+00 7.017455000000001064e+01 1.821090000000000146e+03
2.600000000000000228e-02 7.594385000000000163e-01 2.921955000000000080e+00 6.753605000000000302e+01 1.820465000000000146e+03
2.700000000000000316e-02 7.585504999999999054e-01 2.655204999999999593e+00 6.409675000000000011e+01 1.819694999999999936e+03
2.800000000000000058e-02 7.574365000000000681e-01 1.783310000000000173e+00 5.973514999999999731e+01 1.818740000000000009e+03
2.900000000000000147e-02 7.561620000000000008e-01 4.152999999999993364e-01 5.456499999999999773e+01 1.817625000000000000e+03
3.000000000000000236e-02 7.548349999999999227e-01 -1.240450000000000053e+00 4.891195000000000448e+01 1.816384999999999991e+03
3.099999999999999978e-02 7.535704999999999210e-01 -2.940100000000000158e+00 4.322409999999999997e+01 1.815119999999999891e+03
3.200000000000000067e-02 7.524679999999999147e-01 -4.464570000000000149e+00 3.796365000000000123e+01 1.813925000000000182e+03
3.300000000000000155e-02 7.515929999999999556e-01 -5.656004999999999505e+00 3.351845000000000141e+01 1.812865000000000009e+03
3.400000000000000244e-02 7.509770000000000056e-01 -6.429437000000000069e+00 3.014995000000000047e+01 1.812019999999999982e+03
3.500000000000000333e-02 7.506209999999999827e-01 -6.763634999999999842e+00 2.798005000000000209e+01 1.811420000000000073e+03
3.600000000000000422e-02 7.505064999999999653e-01 -6.681039999999999424e+00 2.700835000000000008e+01 1.811085000000000036e+03
3.700000000000000511e-02 7.506055000000000366e-01 -6.223499999999999588e+00 2.714999999999999858e+01 1.811000000000000000e+03
3.799999999999999906e-02 7.508909999999999751e-01 -5.431284999999999918e+00 2.828065000000000140e+01 1.811144999999999982e+03
3.899999999999999994e-02 7.513404999999999667e-01 -4.331664999999999210e+00 3.027335000000000065e+01 1.811500000000000000e+03
4.000000000000000083e-02 7.519385000000000652e-01 -2.939105000000000079e+00 3.301805000000000234e+01 1.812039999999999964e+03
4.100000000000000172e-02 7.526720000000000077e-01 -1.265089999999999826e+00 3.642145000000000010e+01 1.812735000000000127e+03
4.200000000000000261e-02 7.535255000000000702e-01 6.693249999999997257e-01 4.039390000000000214e+01 1.813574999999999818e+03
4.300000000000000350e-02 7.544750000000000068e-01 2.823799999999999422e+00 4.483334999999999582e+01 1.814530000000000200e+03
4.400000000000000439e-02 7.554905000000000648e-01 5.136115000000000208e+00 4.961495000000000033e+01 1.815574999999999818e+03
4.499999999999999833e-02 7.565349999999999575e-01 7.526485000000000980e+00 5.459150000000000347e+01 1.816679999999999836e+03
4.599999999999999922e-02 7.575719999999999121e-01 9.907133499999998705e+00 5.960259999999999536e+01 1.817815000000000055e+03
4.700000000000000011e-02 7.585669999999999913e-01 1.219345999999999997e+01 6.449115000000000464e+01 1.818940000000000055e+03
4.800000000000000100e-02 7.594935000000000436e-01 1.431420999999999921e+01 6.911995000000000289e+01 1.820019999999999982e+03
4.900000000000000189e-02 7.603345000000000242e-01 1.621809999999999974e+01 7.338595000000000823e+01 1.821039999999999964e+03
5.000000000000000278e-02 7.610829999999999540e-01 1.787640000000000029e+01 7.722870000000000346e+01 1.821974999999999909e+03
5.100000000000000366e-02 7.617424999999999891e-01 1.928144999999999953e+01 8.063075000000000614e+01 1.822820000000000164e+03
5.200000000000000455e-02 7.623210000000000264e-01 2.044290000000000163e+01 8.361305000000000121e+01 1.823574999999999818e+03
5.300000000000000544e-02 7.628329999999999833e-01 2.138269999999999982e+01 8.622665000000000646e+01 1.824250000000000000e+03
5.399999999999999939e-02 7.632950000000000568e-01 2.213145000000000095e+01 8.854300000000000637e+01 1.824849999999999909e+03
5.500000000000000028e-02 7.637249999999999872e-01 2.272494999999999976e+01 9.064650000000000318e+01 1.825405000000000200e+03
5.600000000000000117e-02 7.641415000000000290e-01 2.320230000000000103e+01 9.262700000000000955e+01 1.825914999999999964e+03
5.700000000000000205e-02 7.645625000000000338e-01 2.360435000000000016e+01 9.457465000000000543e+01 1.826420000000000073e+03
5.800000000000000294e-02 7.650040000000000173e-01 2.397109999999999985e+01 9.657404999999999973e+01 1.826920000000000073e+03
5.900000000000000383e-02 7.654805000000000081e-01 2.433899999999999864e+01 9.869845000000000823e+01 1.827444999999999936e+03
6.000000000000000472e-02 7.660019999999999607e-01 2.473744999999999905e+01 1.010027000000000044e+02 1.828000000000000000e+03
6.099999999999999867e-02 7.665714999999999613e-01 2.518544999999999945e+01 1.035180000000000007e+02 1.828599999999999909e+03
6.199999999999999956e-02 7.671870000000000633e-01 2.568945000000000078e+01 1.062475000000000023e+02 1.829244999999999891e+03
6.300000000000000044e-02 7.678395000000000081e-01 2.624239999999999995e+01 1.091624999999999943e+02 1.829925000000000182e+03
6.400000000000000133e-02 7.685144999999999893e-01 2.682525000000000048e+01 1.122074999999999960e+02 1.830639999999999873e+03
6.500000000000000222e-02 7.691930000000000156e-01 2.740939999999999799e+01 1.153059999999999974e+02 1.831375000000000000e+03
6.600000000000000311e-02 7.698534999999999684e-01 2.796049999999999969e+01 1.183659999999999997e+02 1.832095000000000027e+03
6.700000000000000400e-02 7.704759999999999387e-01 2.844239999999999924e+01 1.212890000000000015e+02 1.832800000000000182e+03
6.800000000000000488e-02 7.710415000000000463e-01 2.882090000000000174e+01 1.239825000000000017e+02 1.833460000000000036e+03
6.900000000000000577e-02 7.715345000000000120e-01 2.906654999999999944e+01 1.263635000000000019e+02 1.834045000000000073e+03
7.000000000000000666e-02 7.719430000000000458e-01 2.915684999999999860e+01 1.283679999999999950e+02 1.834559999999999945e+03
7.100000000000000755e-02 7.722599999999999465e-01 2.907744999999999891e+01 1.299519999999999982e+02 1.834974999999999909e+03
7.200000000000000844e-02 7.724830000000000307e-01 2.882290000000000063e+01 1.310949999999999989e+02 1.835300000000000182e+03
7.300000000000000933e-02 7.726150000000000517e-01 2.839604999999999890e+01 1.317980000000000018e+02 1.835519999999999982e+03
7.399999999999999634e-02 7.726625000000000298e-01 2.780819999999999936e+01 1.320840000000000032e+02 1.835639999999999873e+03
7.499999999999999722e-02 7.726349999999999607e-01 2.707744999999999891e+01 1.319934999999999832e+02 1.835675000000000182e+03
7.599999999999999811e-02 7.725444999999999673e-01 2.622814999999999941e+01 1.315825000000000102e+02 1.835630000000000109e+03
7.699999999999999900e-02 7.724064999999999959e-01 2.528880000000000194e+01 1.309170000000000016e+02 1.835519999999999982e+03
7.799999999999999989e-02 7.722360000000000335e-01 2.429064999999999941e+01 1.300685000000000002e+02 1.835360000000000127e+03
7.900000000000000078e-02 7.720474999999999977e-01 2.326590000000000202e+01 1.291115000000000066e+02 1.835159999999999854e+03
8.000000000000000167e-02 7.718559999999999865e-01 2.224585000000000079e+01 1.281175000000000068e+02 1.834944999999999936e+03
8.100000000000000255e-02 7.716749999999999998e-01 2.125885000000000247e+01 1.271514999999999986e+02 1.834730000000000018e+03
8.200000000000000344e-02 7.715134999999999632e-01 2.032904999999999873e+01 1.262685000000000031e+02 1.834529999999999973e+03
8.300000000000000433e-02 7.713799999999999546e-01 1.947504999999999953e+01 1.255109999999999957e+02 1.834349999999999909e+03
8.400000000000000522e-02 7.712794999999998957e-01 1.870929999999999893e+01 1.249070000000000107e+02 1.834200000000000045e+03
8.500000000000000611e-02 7.712130000000000374e-01 1.803740000000000165e+01 1.244704999999999870e+02 1.834079999999999927e+03
8.600000000000000699e-02 7.711794999999999067e-01 1.745860000000000056e+01 1.242014999999999958e+02 1.833994999999999891e+03
8.700000000000000788e-02 7.711749999999999439e-01 1.696624999999999872e+01 1.240850000000000080e+02 1.833949999999999818e+03
8.800000000000000877e-02 7.711924999999999475e-01 1.654824999999999946e+01 1.240964999999999918e+02 1.833929999999999836e+03
8.899999999999999578e-02 7.712250000000000494e-01 1.618819999999999837e+01 1.242005000000000052e+02 1.833934999999999945e+03
8.999999999999999667e-02 7.712630000000000319e-01 1.586659999999999826e+01 1.243565000000000111e+02 1.833954999999999927e+03
9.099999999999999756e-02 7.712974999999999692e-01 1.556199999999999939e+01 1.245185000000000031e+02 1.833980000000000018e+03
9.199999999999999845e-02 7.713185000000000180e-01 1.525225000000000009e+01 1.246405000000000030e+02 1.834000000000000000e+03
9.299999999999999933e-02 7.713164999999999605e-01 1.491610000000000014e+01 1.246779999999999973e+02 1.834010000000000218e+03
9.400000000000000022e-02 7.712849999999999984e-01 1.453464999999999918e+01 1.245910000000000082e+02 1.833990000000000009e+03
9.500000000000000111e-02 7.712170000000000414e-01 1.409265000000000079e+01 1.243485000000000014e+02 1.833944999999999936e+03
9.600000000000000200e-02 7.711099999999999621e-01 1.357969999999999899e+01 1.239290000000000020e+02 1.833855000000000018e+03
9.700000000000000289e-02 7.709624999999999950e-01 1.299102500000000049e+01 1.233230000000000075e+02 1.833724999999999909e+03
9.800000000000000377e-02 7.707775000000000043e-01 1.232798500000000175e+01 1.225335000000000036e+02 1.833559999999999945e+03
9.900000000000000466e-02 7.705589999999999939e-01 1.159789499999999940e+01 1.215769999999999982e+02 1.833355000000000018e+03
1.000000000000000056e-01 7.703149999999999720e-01 1.081375500000000045e+01 1.204830000000000041e+02 1.833115000000000009e+03
1.010000000000000064e-01 7.700544999999999751e-01 9.993259999999999366e+00 1.192884999999999991e+02 1.832845000000000027e+03
1.020000000000000073e-01 7.697865000000000402e-01 9.157714999999999606e+00 1.180414999999999992e+02 1.832570000000000164e+03
1.030000000000000082e-01 7.695239999999999858e-01 8.330500000000000682e+00 1.167914999999999992e+02 1.832280000000000200e+03
1.040000000000000091e-01 7.692764999999999187e-01 7.535624999999999574e+00 1.155925000000000011e+02 1.832005000000000109e+03
1.050000000000000100e-01 7.690555000000000030e-01 6.796244999999999870e+00 1.144945000000000022e+02 1.831740000000000009e+03
1.059999999999999970e-01 7.688690000000000246e-01 6.133020000000000138e+00 1.135414999999999992e+02 1.831505000000000109e+03
1.069999999999999979e-01 7.687245000000000328e-01 5.563105000000000189e+00 1.127719999999999914e+02 1.831309999999999945e+03
1.079999999999999988e-01 7.686260000000000314e-01 5.098984999999999879e+00 1.122125000000000057e+02 1.831159999999999854e+03
1.089999999999999997e-01 7.685760000000000369e-01 4.747970000000000468e+00 1.118769999999999953e+02 1.831059999999999945e+03
1.100000000000000006e-01 7.685735000000000205e-01 4.511924999999999741e+00 1.117700000000000102e+02 1.831005000000000109e+03
1.110000000000000014e-01 7.686159999999999659e-01 4.387470000000000425e+00 1.118820000000000050e+02 1.831005000000000109e+03
1.120000000000000023e-01 7.686980000000001034e-01 4.366400000000000503e+00 1.121949999999999932e+02 1.831049999999999955e+03
1.130000000000000032e-01 7.688135000000000385e-01 4.436490000000000045e+00 1.126795000000000044e+02 1.831140000000000100e+03
1.140000000000000041e-01 7.689544999999999852e-01 4.582364999999999355e+00 1.133029999999999973e+02 1.831259999999999991e+03
1.150000000000000050e-01 7.691124999999999767e-01 4.786509999999999820e+00 1.140264999999999986e+02 1.831404999999999973e+03
1.160000000000000059e-01 7.692795000000000050e-01 5.030345000000000510e+00 1.148104999999999905e+02 1.831570000000000164e+03
1.170000000000000068e-01 7.694469999999999921e-01 5.295109999999999317e+00 1.156144999999999925e+02 1.831744999999999891e+03
1.180000000000000077e-01 7.696084999999999177e-01 5.562834999999999752e+00 1.164035000000000082e+02 1.831924999999999955e+03
1.190000000000000085e-01 7.697564999999999547e-01 5.817079999999999806e+00 1.171430000000000007e+02 1.832095000000000027e+03
1.200000000000000094e-01 7.698864999999999181e-01 6.043530000000000513e+00 1.178064999999999998e+02 1.832255000000000109e+03
1.209999999999999964e-01 7.699945000000000261e-01 6.230500000000000149e+00 1.183735000000000070e+02 1.832389999999999873e+03
1.219999999999999973e-01 7.700784999999999991e-01 6.369270000000000209e+00 1.188290000000000077e+02 1.832505000000000109e+03
1.229999999999999982e-01 7.701374999999999194e-01 6.454234999999999722e+00 1.191649999999999920e+02 1.832594999999999800e+03
1.239999999999999991e-01 7.701715000000000089e-01 6.482949999999999768e+00 1.193820000000000050e+02 1.832654999999999973e+03
1.250000000000000000e-01 7.701824999999999921e-01 6.456039999999999779e+00 1.194830000000000041e+02 1.832695000000000164e+03
1.260000000000000009e-01 7.701729999999999965e-01 6.376945000000000086e+00 1.194800000000000040e+02 1.832710000000000036e+03
1.270000000000000018e-01 7.701464999999999561e-01 6.251579999999999693e+00 1.193865000000000123e+02 1.832700000000000045e+03
1.280000000000000027e-01 7.701069999999999860e-01 6.087875000000000369e+00 1.192220000000000084e+02 1.832674999999999955e+03
1.290000000000000036e-01 7.700595000000000079e-01 5.895239999999999370e+00 1.190060000000000002e+02 1.832634999999999991e+03
1.300000000000000044e-01 7.700074999999999559e-01 5.683910000000000018e+00 1.187595000000000027e+02 1.832589999999999918e+03
1.310000000000000053e-01 7.699564999999999326e-01 5.464325000000000543e+00 1.185049999999999955e+02 1.832534999999999854e+03
1.320000000000000062e-01 7.699095000000000244e-01 5.246504999999999974e+00 1.182615000000000123e+02 1.832485000000000127e+03
1.330000000000000071e-01 7.698694999999999844e-01 5.039400000000000546e+00 1.180440000000000111e+02 1.832440000000000055e+03
1.340000000000000080e-01 7.698399999999999688e-01 4.850450000000000372e+00 1.178675000000000068e+02 1.832400000000000091e+03
1.350000000000000089e-01 7.698214999999999364e-01 4.685184999999999711e+00 1.177399999999999949e+02 1.832365000000000009e+03
1.360000000000000098e-01 7.698145000000000682e-01 4.547029999999999461e+00 1.176655000000000086e+02 1.832349999999999909e+03
1.370000000000000107e-01 7.698180000000000023e-01 4.437265000000000015e+00 1.176430000000000007e+02 1.832335000000000036e+03
1.380000000000000115e-01 7.698309999999999320e-01 4.355125000000000135e+00 1.176680000000000064e+02 1.832335000000000036e+03
1.390000000000000124e-01 7.698510000000000630e-01 4.298080000000000567e+00 1.177325000000000017e+02 1.832349999999999909e+03
1.400000000000000133e-01 7.698754999999999349e-01 4.262204999999999799e+00 1.178245000000000005e+02 1.832365000000000009e+03
1.410000000000000142e-01 7.699024999999999341e-01 4.242580000000000240e+00 1.179314999999999998e+02 1.832384999999999991e+03
1.420000000000000151e-01 7.699274999999999869e-01 4.233749999999999680e+00 1.180395000000000039e+02 1.832405000000000200e+03
1.430000000000000160e-01 7.699485000000000356e-01 4.230150000000000077e+00 1.181349999999999909e+02 1.832425000000000182e+03
1.440000000000000169e-01 7.699629999999999530e-01 4.226494999999999891e+00 1.182075000000000102e+02 1.832445000000000164e+03
1.450000000000000178e-01 7.699700000000000433e-01 4.218104999999999549e+00 1.182464999999999975e+02 1.832454999999999927e+03
1.459999999999999909e-01 7.699675000000000269e-01 4.201150000000000162e+00 1.182454999999999927e+02 1.832454999999999927e+03
1.469999999999999918e-01 7.699544999999999861e-01 4.172824999999999562e+00 1.181984999999999957e+02 1.832440000000000055e+03
1.479999999999999927e-01 7.699314999999999909e-01 4.131520000000000081e+00 1.181055000000000064e+02 1.832424999999999955e+03
1.489999999999999936e-01 7.698990000000000000e-01 4.076789999999999914e+00 1.179675000000000011e+02 1.832394999999999982e+03
1.499999999999999944e-01 7.698585000000000012e-01 4.009439999999999671e+00 1.177899999999999920e+02 1.832360000000000127e+03
1.509999999999999953e-01 7.698114999999999819e-01 3.931405000000000260e+00 1.175790000000000077e+02 1.832309999999999945e+03
1.519999999999999962e-01 7.697594999999999299e-01 3.845715000000000217e+00 1.173445000000000107e+02 1.832259999999999991e+03
1.529999999999999971e-01 7.697060000000000013e-01 3.756235000000000213e+00 1.170964999999999918e+02 1.832204999999999927e+03
1.539999999999999980e-01 7.696529999999999205e-01 3.667539999999999800e+00 1.168479999999999990e+02 1.832144999999999982e+03
1.549999999999999989e-01 7.696045000000000247e-01 3.584630000000000205e+00 1.166119999999999948e+02 1.832090000000000146e+03
1.559999999999999998e-01 7.695609999999999395e-01 3.512604999999999755e+00 1.164009999999999962e+02 1.832039999999999964e+03
1.570000000000000007e-01 7.695265000000000022e-01 3.456430000000000113e+00 1.162270000000000039e+02 1.832000000000000000e+03
1.580000000000000016e-01 7.695030000000000481e-01 3.420575000000000365e+00 1.160999999999999943e+02 1.831960000000000036e+03
1.590000000000000024e-01 7.694919999999999538e-01 3.408794999999999575e+00 1.160300000000000011e+02 1.831940000000000055e+03
