# t [s], A [cm^2], U [cm/s], P [cPa], c [cm/s]
1.000000000000000021e-03 1.868155000000000232e-01 2.096345000000000014e-01 9.400100000000000477e+01 2.312609999999999673e+03
2.000000000000000042e-03 1.867725000000000080e-01 1.505241500000000121e+00 9.089074999999999704e+01 2.312204999999999927e+03
3.000000000000000062e-03 1.866590000000000193e-01 3.163794999999999913e+00 8.640565000000000850e+01 2.311164999999999964e+03
4.000000000000000083e-03 1.865034999999999887e-01 5.065625499999999448e+00 8.142260000000000275e+01 2.309779999999999745e+03
5.000000000000000104e-03 1.863394999999999913e-01 7.138605000000000089e+00 7.690930000000000177e+01 2.308324999999999818e+03
6.000000000000000125e-03 1.861835000000000018e-01 9.193730000000000402e+00 7.319289999999999452e+01 2.306949999999999818e+03
7.000000000000000146e-03 1.860370000000000079e-01 1.099734499999999926e+01 6.997735000000000127e+01 2.305704999999999927e+03
8.000000000000000167e-03 1.859045000000000003e-01 1.248130499999999898e+01 6.706329999999999814e+01 2.304585000000000036e+03
9.000000000000001055e-03 1.857894999999999963e-01 1.369306499999999893e+01 6.456780000000000541e+01 2.303635000000000218e+03
1.000000000000000194e-02 1.856949999999999990e-01 1.466529999999999845e+01 6.257419999999999760e+01 2.302859999999999673e+03
1.099999999999999936e-02 1.856200000000000072e-01 1.541460000000000008e+01 6.105225000000000080e+01 2.302255000000000109e+03
1.200000000000000025e-02 1.855620000000000047e-01 1.594475000000000087e+01 5.989879999999999427e+01 2.301795000000000073e+03
1.300000000000000114e-02 1.855149999999999855e-01 1.624654999999999916e+01 5.893349999999999511e+01 2.301429999999999836e+03
1.400000000000000203e-02 1.854755000000000154e-01 1.635490000000000066e+01 5.804115000000000180e+01 2.301125000000000000e+03
1.499999999999999944e-02 1.854450000000000265e-01 1.640005000000000024e+01 5.738920000000000243e+01 2.300904999999999745e+03
1.600000000000000033e-02 1.854339999999999877e-01 1.657025000000000148e+01 5.742239999999999611e+01 2.300829999999999927e+03
1.700000000000000122e-02 1.854534999999999934e-01 1.700520000000000209e+01 5.857564999999999600e+01 2.300985000000000127e+03
1.800000000000000211e-02 1.855065000000000186e-01 1.770990000000000109e+01 6.094169999999999732e+01 2.301420000000000073e+03
1.900000000000000300e-02 1.855870000000000020e-01 1.855010000000000048e+01 6.414390000000000214e+01 2.302085000000000036e+03
2.000000000000000042e-02 1.856794999999999973e-01 1.931864999999999810e+01 6.747644999999999982e+01 2.302855000000000018e+03
2.100000000000000130e-02 1.857655000000000001e-01 1.982854999999999990e+01 7.019955000000000211e+01 2.303590000000000146e+03
2.200000000000000219e-02 1.858299999999999952e-01 1.998295000000000243e+01 7.182005000000000905e+01 2.304155000000000200e+03
2.299999999999999961e-02 1.858660000000000034e-01 1.979645000000000010e+01 7.223535000000001105e+01 2.304484999999999673e+03
2.400000000000000050e-02 1.858750000000000124e-01 1.936854999999999905e+01 7.170204999999999984e+01 2.304590000000000146e+03
2.500000000000000139e-02 1.858650000000000024e-01 1.882815000000000083e+01 7.067040000000000077e+01 2.304525000000000091e+03
2.600000000000000228e-02 1.858464999999999978e-01 1.827720000000000056e+01 6.957415000000000305e+01 2.304375000000000000e+03
2.700000000000000316e-02 1.858265000000000056e-01 1.775590000000000046e+01 6.866649999999999920e+01 2.304210000000000036e+03
2.800000000000000058e-02 1.858069999999999999e-01 1.723930000000000007e+01 6.795889999999999986e+01 2.304045000000000073e+03
2.900000000000000147e-02 1.857869999999999799e-01 1.666179999999999950e+01 6.726769999999999072e+01 2.303880000000000109e+03
3.000000000000000236e-02 1.857610000000000094e-01 1.595575000000000188e+01 6.633455000000000723e+01 2.303670000000000073e+03
3.099999999999999978e-02 1.857250000000000012e-01 1.508949999999999925e+01 6.496815000000000850e+01 2.303375000000000000e+03
3.200000000000000067e-02 1.856760000000000077e-01 1.409130000000000038e+01 6.315364999999999895e+01 2.302974999999999909e+03
3.300000000000000155e-02 1.856184999999999918e-01 1.304990000000000094e+01 6.108995000000000175e+01 2.302505000000000109e+03
3.400000000000000244e-02 1.855600000000000027e-01 1.209179499999999940e+01 5.914244999999999663e+01 2.302015000000000327e+03
3.500000000000000333e-02 1.855109999999999815e-01 1.134443500000000071e+01 5.773000000000000398e+01 2.301599999999999909e+03
3.600000000000000422e-02 1.854815000000000214e-01 1.089832000000000001e+01 5.719115000000000038e+01 2.301335000000000036e+03
3.700000000000000511e-02 1.854775000000000174e-01 1.078235000000000099e+01 5.767880000000000251e+01 2.301279999999999745e+03
3.799999999999999906e-02 1.855005000000000126e-01 1.095820000000000149e+01 5.911624999999999375e+01 2.301449999999999818e+03
3.899999999999999994e-02 1.855465000000000031e-01 1.133305000000000007e+01 6.122164999999999679e+01 2.301805000000000291e+03
4.000000000000000083e-02 1.856049999999999922e-01 1.178400000000000070e+01 6.358429999999999893e+01 2.302284999999999854e+03
4.100000000000000172e-02 1.856669999999999987e-01 1.218580000000000041e+01 6.576300000000000523e+01 2.302800000000000182e+03
4.200000000000000261e-02 1.857205000000000106e-01 1.243365000000000009e+01 6.737754999999999939e+01 2.303250000000000000e+03
4.300000000000000350e-02 1.857564999999999911e-01 1.245795000000000030e+01 6.817154999999999632e+01 2.303560000000000400e+03
4.400000000000000439e-02 1.857699999999999907e-01 1.222789999999999999e+01 6.803710000000000946e+01 2.303685000000000400e+03
4.499999999999999833e-02 1.857584999999999931e-01 1.174644999999999939e+01 6.700215000000000032e+01 2.303609999999999673e+03
4.599999999999999922e-02 1.857229999999999992e-01 1.104015000000000057e+01 6.519280000000000541e+01 2.303320000000000164e+03
4.700000000000000011e-02 1.856665000000000121e-01 1.014678999999999931e+01 6.278464999999999918e+01 2.302864999999999782e+03
4.800000000000000100e-02 1.855935000000000223e-01 9.106384999999999508e+00 5.995844999999999914e+01 2.302265000000000327e+03
4.900000000000000189e-02 1.855085000000000206e-01 7.954945000000000377e+00 5.687089999999999890e+01 2.301554999999999836e+03
5.000000000000000278e-02 1.854149999999999965e-01 6.723874999999999602e+00 5.364315000000000566e+01 2.300779999999999745e+03
5.100000000000000366e-02 1.853159999999999807e-01 5.441729999999999734e+00 5.036504999999999654e+01 2.299960000000000036e+03
5.200000000000000455e-02 1.852150000000000185e-01 4.138094999999999857e+00 4.710990000000000322e+01 2.299109999999999673e+03
5.300000000000000544e-02 1.851140000000000008e-01 2.847111500000000017e+00 4.395100000000000051e+01 2.298269999999999982e+03
5.399999999999999939e-02 1.850160000000000138e-01 1.609434999999999949e+00 4.097475000000000023e+01 2.297449999999999818e+03
5.500000000000000028e-02 1.849239999999999773e-01 4.720900000000001207e-01 3.828695000000000448e+01 2.296675000000000182e+03
5.600000000000000117e-02 1.848420000000000063e-01 -5.139199999999999324e-01 3.600974999999999682e+01 2.295980000000000018e+03
5.700000000000000205e-02 1.847734999999999794e-01 -1.297593500000000066e+00 3.427194999999999681e+01 2.295394999999999982e+03
5.800000000000000294e-02 1.847229999999999983e-01 -1.832644999999999857e+00 3.319500000000000028e+01 2.294949999999999818e+03
5.900000000000000383e-02 1.846925000000000094e-01 -2.082019999999999982e+00 3.287800000000000011e+01 2.294684999999999945e+03
6.000000000000000472e-02 1.846860000000000168e-01 -2.021424999999999805e+00 3.338550000000000040e+01 2.294605000000000018e+03
6.099999999999999867e-02 1.847050000000000081e-01 -1.641403500000000015e+00 3.473955000000000126e+01 2.294734999999999673e+03
6.199999999999999956e-02 1.847484999999999822e-01 -9.478685000000000027e-01 3.691729999999999734e+01 2.295079999999999927e+03
6.300000000000000044e-02 1.848174999999999957e-01 3.884500000000001840e-02 3.985370000000000346e+01 2.295630000000000109e+03
6.400000000000000133e-02 1.849089999999999900e-01 1.286075000000000301e+00 4.344839999999999947e+01 2.296369999999999891e+03
6.500000000000000222e-02 1.850195000000000034e-01 2.751733999999999902e+00 4.757540000000000191e+01 2.297279999999999745e+03
6.600000000000000311e-02 1.851464999999999916e-01 4.387749499999999969e+00 5.209474999999999767e+01 2.298324999999999818e+03
6.700000000000000400e-02 1.852849999999999775e-01 6.143650000000000055e+00 5.686359999999999815e+01 2.299475000000000364e+03
6.800000000000000488e-02 1.854314999999999991e-01 7.970114999999999839e+00 6.174784999999999968e+01 2.300695000000000164e+03
6.900000000000000577e-02 1.855819999999999970e-01 9.822119999999999962e+00 6.663115000000000521e+01 2.301954999999999927e+03
7.000000000000000666e-02 1.857329999999999814e-01 1.166126500000000021e+01 7.142215000000000202e+01 2.303225000000000364e+03
7.100000000000000755e-02 1.858825000000000061e-01 1.345755000000000123e+01 7.605815000000001191e+01 2.304484999999999673e+03
7.200000000000000844e-02 1.860289999999999999e-01 1.518955000000000055e+01 8.050549999999999784e+01 2.305720000000000255e+03
7.300000000000000933e-02 1.861700000000000021e-01 1.684434999999999860e+01 8.475679999999999836e+01 2.306920000000000073e+03
7.399999999999999634e-02 1.863064999999999860e-01 1.841605000000000203e+01 8.882515000000000782e+01 2.308085000000000036e+03
7.499999999999999722e-02 1.864385000000000070e-01 1.990420000000000300e+01 9.273720000000000141e+01 2.309210000000000036e+03
7.599999999999999811e-02 1.865664999999999962e-01 2.131145000000000067e+01 9.652524999999999977e+01 2.310300000000000182e+03
7.699999999999999900e-02 1.866909999999999958e-01 2.264209999999999923e+01 1.002199999999999989e+02 2.311369999999999891e+03
7.799999999999999989e-02 1.868134999999999935e-01 2.390050000000000097e+01 1.038470000000000084e+02 2.312414999999999964e+03
7.900000000000000078e-02 1.869335000000000024e-01 2.508999999999999986e+01 1.074215000000000089e+02 2.313444999999999709e+03
8.000000000000000167e-02 1.870525000000000104e-01 2.621249999999999858e+01 1.109484999999999957e+02 2.314460000000000036e+03
8.100000000000000255e-02 1.871685000000000154e-01 2.726834999999999809e+01 1.144235000000000042e+02 2.315465000000000146e+03
8.200000000000000344e-02 1.872834999999999916e-01 2.825629999999999953e+01 1.178350000000000080e+02 2.316449999999999818e+03
8.300000000000000433e-02 1.873964999999999936e-01 2.917379999999999995e+01 1.211634999999999991e+02 2.317420000000000073e+03
8.400000000000000522e-02 1.875060000000000060e-01 3.001719999999999899e+01 1.243870000000000005e+02 2.318360000000000127e+03
8.500000000000000611e-02 1.876120000000000010e-01 3.078200000000000003e+01 1.274809999999999945e+02 2.319275000000000091e+03
8.600000000000000699e-02 1.877135000000000054e-01 3.146269999999999811e+01 1.304184999999999945e+02 2.320154999999999745e+03
8.700000000000000788e-02 1.878104999999999913e-01 3.205310000000000059e+01 1.331734999999999900e+02 2.320984999999999673e+03
8.800000000000000877e-02 1.879009999999999847e-01 3.254645000000000010e+01 1.357174999999999727e+02 2.321769999999999982e+03
8.899999999999999578e-02 1.879844999999999988e-01 3.293569999999999709e+01 1.380244999999999891e+02 2.322494999999999891e+03
8.999999999999999667e-02 1.880605000000000193e-01 3.321394999999999698e+01 1.400664999999999907e+02 2.323154999999999745e+03
9.099999999999999756e-02 1.881284999999999763e-01 3.337505000000000166e+01 1.418215000000000146e+02 2.323739999999999782e+03
9.199999999999999845e-02 1.881860000000000199e-01 3.341424999999999557e+01 1.432704999999999984e+02 2.324250000000000000e+03
9.299999999999999933e-02 1.882344999999999990e-01 3.332880000000000109e+01 1.444014999999999986e+02 2.324675000000000182e+03
9.400000000000000022e-02 1.882730000000000237e-01 3.311874999999999858e+01 1.452079999999999984e+02 2.325015000000000327e+03
9.500000000000000111e-02 1.883009999999999962e-01 3.278705000000000069e+01 1.456955000000000098e+02 2.325269999999999982e+03
9.600000000000000200e-02 1.883195000000000008e-01 3.234004999999999797e+01 1.458785000000000025e+02 2.325434999999999945e+03
9.700000000000000289e-02 1.883279999999999954e-01 3.178699999999999903e+01 1.457789999999999964e+02 2.325519999999999982e+03
9.800000000000000377e-02 1.883279999999999954e-01 3.114020000000000010e+01 1.454289999999999736e+02 2.325529999999999745e+03
9.900000000000000466e-02 1.883199999999999874e-01 3.041394999999999982e+01 1.448644999999999925e+02 2.325474999999999909e+03
1.000000000000000056e-01 1.883050000000000002e-01 2.962415000000000020e+01 1.441279999999999859e+02 2.325355000000000018e+03
1.010000000000000064e-01 1.882854999999999945e-01 2.878734999999999999e+01 1.432605000000000075e+02 2.325184999999999945e+03
1.020000000000000073e-01 1.882604999999999973e-01 2.792014999999999958e+01 1.423054999999999950e+02 2.324984999999999673e+03
1.030000000000000082e-01 1.882334999999999980e-01 2.703849999999999909e+01 1.413015000000000043e+02 2.324755000000000109e+03
1.040000000000000091e-01 1.882044999999999968e-01 2.615695000000000192e+01 1.402824999999999989e+02 2.324505000000000109e+03
1.050000000000000100e-01 1.881745000000000223e-01 2.528824999999999790e+01 1.392780000000000200e+02 2.324250000000000000e+03
1.059999999999999970e-01 1.881444999999999923e-01 2.444275000000000020e+01 1.383100000000000023e+02 2.323994999999999891e+03
1.069999999999999979e-01 1.881154999999999911e-01 2.362829999999999941e+01 1.373944999999999936e+02 2.323750000000000000e+03
1.079999999999999988e-01 1.880875000000000186e-01 2.284989999999999810e+01 1.365384999999999991e+02 2.323505000000000109e+03
1.089999999999999997e-01 1.880605000000000193e-01 2.210960000000000036e+01 1.357420000000000186e+02 2.323275000000000091e+03
1.100000000000000006e-01 1.880355000000000221e-01 2.140684999999999860e+01 1.349989999999999952e+02 2.323054999999999836e+03
1.110000000000000014e-01 1.880120000000000124e-01 2.073830000000000240e+01 1.342950000000000159e+02 2.322845000000000255e+03
1.120000000000000023e-01 1.879885000000000028e-01 2.009859999999999758e+01 1.336134999999999877e+02 2.322644999999999982e+03
1.130000000000000032e-01 1.879655000000000076e-01 1.948044999999999760e+01 1.329309999999999832e+02 2.322449999999999818e+03
1.140000000000000041e-01 1.879429999999999990e-01 1.887539999999999907e+01 1.322235000000000014e+02 2.322244999999999891e+03
1.150000000000000050e-01 1.879184999999999883e-01 1.827455000000000140e+01 1.314669999999999845e+02 2.322034999999999854e+03
1.160000000000000059e-01 1.878924999999999901e-01 1.766890000000000072e+01 1.306370000000000005e+02 2.321815000000000055e+03
1.170000000000000068e-01 1.878639999999999755e-01 1.705035000000000167e+01 1.297130000000000223e+02 2.321569999999999709e+03
1.180000000000000077e-01 1.878330000000000000e-01 1.641189999999999927e+01 1.286790000000000020e+02 2.321305000000000291e+03
1.190000000000000085e-01 1.877985000000000071e-01 1.574859999999999971e+01 1.275245000000000033e+02 2.321005000000000109e+03
1.200000000000000094e-01 1.877599999999999825e-01 1.505764999999999887e+01 1.262460000000000093e+02 2.320679999999999836e+03
1.209999999999999964e-01 1.877179999999999960e-01 1.433889999999999887e+01 1.248469999999999942e+02 2.320320000000000164e+03
1.219999999999999973e-01 1.876725000000000199e-01 1.359469999999999956e+01 1.233379999999999939e+02 2.319934999999999945e+03
1.229999999999999982e-01 1.876234999999999986e-01 1.282995000000000019e+01 1.217379999999999995e+02 2.319519999999999982e+03
1.239999999999999991e-01 1.875720000000000165e-01 1.205198999999999998e+01 1.200705000000000098e+02 2.319079999999999927e+03
1.250000000000000000e-01 1.875185000000000046e-01 1.127002000000000059e+01 1.183654999999999973e+02 2.318630000000000109e+03
1.260000000000000009e-01 1.874639999999999918e-01 1.049446000000000012e+01 1.166535000000000082e+02 2.318164999999999964e+03
1.270000000000000018e-01 1.874095000000000066e-01 9.736644999999999328e+00 1.149685000000000059e+02 2.317694999999999709e+03
1.280000000000000027e-01 1.873564999999999814e-01 9.007809999999999206e+00 1.133429999999999893e+02 2.317239999999999782e+03
1.290000000000000036e-01 1.873044999999999849e-01 8.318654999999999688e+00 1.118064999999999998e+02 2.316800000000000182e+03
1.300000000000000044e-01 1.872560000000000058e-01 7.678659999999999819e+00 1.103840000000000003e+02 2.316380000000000109e+03
1.310000000000000053e-01 1.872109999999999885e-01 7.095705000000000595e+00 1.090964999999999918e+02 2.315989999999999782e+03
1.320000000000000062e-01 1.871694999999999887e-01 6.575699999999999434e+00 1.079575000000000102e+02 2.315635000000000218e+03
1.330000000000000071e-01 1.871329999999999938e-01 6.122415000000000163e+00 1.069749999999999943e+02 2.315319999999999709e+03
1.340000000000000080e-01 1.871010000000000173e-01 5.737495000000000012e+00 1.061504999999999939e+02 2.315034999999999854e+03
1.350000000000000089e-01 1.870735000000000037e-01 5.420494999999999841e+00 1.054805000000000064e+02 2.314800000000000182e+03
1.360000000000000098e-01 1.870509999999999950e-01 5.169130000000000003e+00 1.049559999999999889e+02 2.314605000000000018e+03
1.370000000000000107e-01 1.870330000000000048e-01 4.979485000000000383e+00 1.045639999999999930e+02 2.314444999999999709e+03
1.380000000000000115e-01 1.870185000000000042e-01 4.846350000000000158e+00 1.042914999999999992e+02 2.314314999999999600e+03
1.390000000000000124e-01 1.870085000000000219e-01 4.763500000000000512e+00 1.041200000000000045e+02 2.314224999999999909e+03
1.400000000000000133e-01 1.870014999999999872e-01 4.724005000000000010e+00 1.040320000000000107e+02 2.314154999999999745e+03
1.410000000000000142e-01 1.869965000000000099e-01 4.720545000000000435e+00 1.040099999999999909e+02 2.314110000000000127e+03
1.420000000000000151e-01 1.869939999999999936e-01 4.745675000000000310e+00 1.040354999999999990e+02 2.314085000000000036e+03
1.430000000000000160e-01 1.869930000000000203e-01 4.792059999999999320e+00 1.040925000000000011e+02 2.314074999999999818e+03
1.440000000000000169e-01 1.869934999999999792e-01 4.852729999999999322e+00 1.041659999999999968e+02 2.314074999999999818e+03
1.450000000000000178e-01 1.869945000000000079e-01 4.921295000000000641e+00 1.042425000000000068e+02 2.314079999999999927e+03
1.459999999999999909e-01 1.869949999999999946e-01 4.992084999999999440e+00 1.043105000000000047e+02 2.314085000000000036e+03
1.469999999999999918e-01 1.869959999999999956e-01 5.060330000000000439e+00 1.043605000000000018e+02 2.314090000000000146e+03
1.479999999999999927e-01 1.869969999999999966e-01 5.122244999999999493e+00 1.043875000000000028e+02 2.314095000000000255e+03
1.489999999999999936e-01 1.869969999999999966e-01 5.175085000000000157e+00 1.043875000000000028e+02 2.314095000000000255e+03
1.499999999999999944e-01 1.869959999999999956e-01 5.217134999999999856e+00 1.043590000000000089e+02 2.314090000000000146e+03
1.509999999999999953e-01 1.869945000000000079e-01 5.247700000000000031e+00 1.043019999999999925e+02 2.314074999999999818e+03
1.519999999999999962e-01 1.869925000000000059e-01 5.266939999999999955e+00 1.042199999999999989e+02 2.314065000000000055e+03
1.529999999999999971e-01 1.869894999999999752e-01 5.275769999999999627e+00 1.041185000000000116e+02 2.314039999999999964e+03
1.539999999999999980e-01 1.869864999999999999e-01 5.275634999999999408e+00 1.040014999999999930e+02 2.314010000000000218e+03
1.549999999999999989e-01 1.869830000000000103e-01 5.268340000000000245e+00 1.038760000000000048e+02 2.313980000000000018e+03
1.559999999999999998e-01 1.869790000000000063e-01 5.255785000000000373e+00 1.037469999999999999e+02 2.313949999999999818e+03
1.570000000000000007e-01 1.869744999999999879e-01 5.239779999999999660e+00 1.036189999999999998e+02 2.313914999999999964e+03
1.580000000000000016e-01 1.869709999999999983e-01 5.221870000000000012e+00 1.034959999999999951e+02 2.313885000000000218e+03
1.590000000000000024e-01 1.869675000000000087e-01 5.203215000000000146e+00 1.033804999999999978e+02 2.313849999999999909e+03
