# t [s], A [cm^2], U [cm/s], P [cPa], c [cm/s]
1.000000000000000021e-03 7.033454999999999568e-01 7.355850000000004052e-03 9.779625000000000057e+01 1.837015000000000100e+03
2.000000000000000042e-03 7.033335000000000559e-01 -3.055407999999999909e-03 9.775874999999999204e+01 1.837005000000000109e+03
3.000000000000000062e-03 7.033929999999999350e-01 1.071124999999999994e-01 9.789580000000000837e+01 1.837039999999999964e+03
4.000000000000000083e-03 7.034365000000000201e-01 2.043928999999999885e-01 9.802670000000000528e+01 1.837065000000000055e+03
5.000000000000000104e-03 7.033899999999999597e-01 1.514768999999999699e-01 9.790254999999999086e+01 1.837039999999999964e+03
6.000000000000000125e-03 7.033209999999999740e-01 5.025499999999999412e-02 9.762069999999999936e+01 1.836980000000000018e+03
7.000000000000000146e-03 7.032620000000000537e-01 -4.175600000000001533e-02 9.728945000000000221e+01 1.836909999999999854e+03
8.000000000000000167e-03 7.031540000000000568e-01 -2.402649999999999508e-01 9.676355000000000928e+01 1.836799999999999955e+03
9.000000000000001055e-03 7.029800000000000493e-01 -5.820750000000000091e-01 9.595465000000000089e+01 1.836634999999999991e+03
1.000000000000000194e-02 7.027259999999999618e-01 -1.087534999999999918e+00 9.478839999999999577e+01 1.836394999999999982e+03
1.099999999999999936e-02 7.023675000000000335e-01 -1.789470000000000116e+00 9.316239999999999100e+01 1.836054999999999836e+03
1.200000000000000025e-02 7.019290000000000251e-01 -2.624925000000000175e+00 9.110505000000000564e+01 1.835610000000000127e+03
1.300000000000000114e-02 7.014899999999999469e-01 -3.414895000000000014e+00 8.884624999999999773e+01 1.835115000000000009e+03
1.400000000000000203e-02 7.011279999999999735e-01 -3.971693000000000140e+00 8.668899999999999295e+01 1.834619999999999891e+03
1.499999999999999944e-02 7.008729999999999682e-01 -4.201894000000000240e+00 8.483799999999999386e+01 1.834164999999999964e+03
1.600000000000000033e-02 7.006969999999999033e-01 -4.127959999999999852e+00 8.332484999999999786e+01 1.833769999999999982e+03
1.700000000000000122e-02 7.005455000000000432e-01 -3.847140000000000004e+00 8.203735000000000355e+01 1.833409999999999854e+03
1.800000000000000211e-02 7.003660000000000441e-01 -3.471295000000000019e+00 8.080195000000000505e+01 1.833065000000000055e+03
1.900000000000000300e-02 7.001290000000000013e-01 -3.078088500000000227e+00 7.946989999999999554e+01 1.832704999999999927e+03
2.000000000000000042e-02 6.998345000000000260e-01 -2.688291500000000056e+00 7.797450000000000614e+01 1.832309999999999945e+03
2.100000000000000130e-02 6.995074999999999488e-01 -2.272329999999999739e+00 7.634239999999999782e+01 1.831884999999999991e+03
2.200000000000000219e-02 6.991810000000000525e-01 -1.779185000000000016e+00 7.466204999999999359e+01 1.831450000000000045e+03
2.299999999999999961e-02 6.988779999999999992e-01 -1.172135000000000149e+00 7.302789999999998827e+01 1.831019999999999982e+03
2.400000000000000050e-02 6.986025000000000151e-01 -4.549199999999999910e-01 7.148939999999998918e+01 1.830605000000000018e+03
2.500000000000000139e-02 6.983365000000000267e-01 3.201949999999997853e-01 7.002174999999999727e+01 1.830204999999999927e+03
2.600000000000000228e-02 6.980459999999999443e-01 1.062629999999999741e+00 6.852745000000000175e+01 1.829800000000000182e+03
2.700000000000000316e-02 6.976925000000000487e-01 1.666439999999999699e+00 6.686350000000000193e+01 1.829360000000000127e+03
2.800000000000000058e-02 6.972450000000000037e-01 2.039099999999999469e+00 6.488524999999999920e+01 1.828869999999999891e+03
2.900000000000000147e-02 6.966920000000000890e-01 2.127555000000000085e+00 6.249454999999999671e+01 1.828295000000000073e+03
3.000000000000000236e-02 6.960450000000000248e-01 1.932945000000000135e+00 5.967575000000000074e+01 1.827625000000000000e+03
3.099999999999999978e-02 6.953359999999999541e-01 1.508285000000000320e+00 5.650594999999999857e+01 1.826889999999999873e+03
3.200000000000000067e-02 6.946105000000000196e-01 9.409450000000001424e-01 5.313809999999999434e+01 1.826099999999999909e+03
3.300000000000000155e-02 6.939140000000000308e-01 3.282049999999996359e-01 4.976440000000000197e+01 1.825300000000000182e+03
3.400000000000000244e-02 6.932844999999999702e-01 -2.441950000000003840e-01 4.657679999999999865e+01 1.824529999999999973e+03
3.500000000000000333e-02 6.927460000000000839e-01 -7.148249999999998217e-01 4.373610000000000042e+01 1.823829999999999927e+03
3.600000000000000422e-02 6.923114999999999686e-01 -1.049440000000000150e+00 4.135519999999999641e+01 1.823215000000000146e+03
3.700000000000000511e-02 6.919834999999999736e-01 -1.236435000000000173e+00 3.949649999999999750e+01 1.822719999999999800e+03
3.799999999999999906e-02 6.917579999999999840e-01 -1.278000000000000025e+00 3.818039999999999878e+01 1.822345000000000027e+03
3.899999999999999994e-02 6.916295000000000082e-01 -1.180533000000000055e+00 3.739955000000000496e+01 1.822095000000000027e+03
4.000000000000000083e-02 6.915934999999999722e-01 -9.468919999999999559e-01 3.713439999999999941e+01 1.821970000000000027e+03
4.100000000000000172e-02 6.916480000000000405e-01 -5.725694999999999535e-01 3.736554999999999893e+01 1.821965000000000146e+03
4.200000000000000261e-02 6.917944999999999789e-01 -4.621499999999989505e-02 3.807954999999999757e+01 1.822079999999999927e+03
4.300000000000000350e-02 6.920334999999999681e-01 6.461850000000000094e-01 3.926834999999999809e+01 1.822309999999999945e+03
4.400000000000000439e-02 6.923654999999999671e-01 1.515495000000000259e+00 4.092334999999999923e+01 1.822650000000000091e+03
4.499999999999999833e-02 6.927875000000000005e-01 2.564055000000000195e+00 4.302799999999999869e+01 1.823105000000000018e+03
4.599999999999999922e-02 6.932909999999999906e-01 3.782409999999999606e+00 4.555120000000000147e+01 1.823660000000000082e+03
4.700000000000000011e-02 6.938634999999999664e-01 5.148719999999999963e+00 4.844435000000000002e+01 1.824309999999999945e+03
4.800000000000000100e-02 6.944905000000000106e-01 6.630703999999999709e+00 5.164170000000000016e+01 1.825039999999999964e+03
4.900000000000000189e-02 6.951525000000000620e-01 8.189481499999999414e+00 5.506519999999999726e+01 1.825835000000000036e+03
5.000000000000000278e-02 6.958334999999999937e-01 9.783905000000000740e+00 5.863054999999999950e+01 1.826670000000000073e+03
5.100000000000000366e-02 6.965164999999999829e-01 1.137508499999999856e+01 6.225540000000000163e+01 1.827530000000000200e+03
5.200000000000000455e-02 6.971894999999999065e-01 1.292953999999999937e+01 6.586610000000000298e+01 1.828405000000000200e+03
5.300000000000000544e-02 6.978435000000000610e-01 1.442153500000000044e+01 6.940289999999998827e+01 1.829264999999999873e+03
5.399999999999999939e-02 6.984719999999999818e-01 1.583342000000000027e+01 7.282325000000000159e+01 1.830115000000000009e+03
5.500000000000000028e-02 6.990735000000000143e-01 1.715534999999999854e+01 7.610200000000000387e+01 1.830934999999999945e+03
5.600000000000000117e-02 6.996484999999998955e-01 1.838400000000000034e+01 7.923015000000000896e+01 1.831730000000000018e+03
5.700000000000000205e-02 7.001994999999999747e-01 1.952074999999999960e+01 8.221209999999999241e+01 1.832484999999999900e+03
5.800000000000000294e-02 7.007295000000000051e-01 2.057025000000000148e+01 8.506180000000000518e+01 1.833220000000000027e+03
5.900000000000000383e-02 7.012439999999999785e-01 2.153885000000000005e+01 8.779904999999999404e+01 1.833925000000000182e+03
6.000000000000000472e-02 7.017459999999999809e-01 2.243314999999999770e+01 9.044580000000000553e+01 1.834605000000000018e+03
6.099999999999999867e-02 7.022395000000000165e-01 2.325910000000000011e+01 9.302270000000000039e+01 1.835275000000000091e+03
6.199999999999999956e-02 7.027265000000000317e-01 2.402085000000000292e+01 9.554579999999999984e+01 1.835924999999999955e+03
6.300000000000000044e-02 7.032070000000000265e-01 2.472070000000000078e+01 9.802490000000000236e+01 1.836565000000000055e+03
6.400000000000000133e-02 7.036810000000000009e-01 2.535824999999999818e+01 1.004629500000000064e+02 1.837190000000000055e+03
6.500000000000000222e-02 7.041459999999999386e-01 2.593104999999999905e+01 1.028540500000000009e+02 1.837809999999999945e+03
6.600000000000000311e-02 7.045995000000000452e-01 2.643484999999999729e+01 1.051860000000000070e+02 1.838414999999999964e+03
6.700000000000000400e-02 7.050365000000000659e-01 2.686445000000000149e+01 1.074414999999999907e+02 1.838994999999999891e+03
6.800000000000000488e-02 7.054529999999999967e-01 2.721444999999999936e+01 1.095995000000000061e+02 1.839565000000000055e+03
6.900000000000000577e-02 7.058455000000000146e-01 2.747995000000000232e+01 1.116384999999999934e+02 1.840099999999999909e+03
7.000000000000000666e-02 7.062100000000000044e-01 2.765720000000000312e+01 1.135374999999999943e+02 1.840599999999999909e+03
7.100000000000000755e-02 7.065429999999999211e-01 2.774380000000000024e+01 1.152779999999999916e+02 1.841065000000000055e+03
7.200000000000000844e-02 7.068425000000000402e-01 2.773879999999999768e+01 1.168455000000000013e+02 1.841494999999999891e+03
7.300000000000000933e-02 7.071065000000000822e-01 2.764245000000000019e+01 1.182274999999999920e+02 1.841869999999999891e+03
7.399999999999999634e-02 7.073339999999999073e-01 2.745640000000000214e+01 1.194175000000000040e+02 1.842204999999999927e+03
7.499999999999999722e-02 7.075249999999999595e-01 2.718319999999999936e+01 1.204115000000000038e+02 1.842490000000000009e+03
7.599999999999999811e-02 7.076784999999999881e-01 2.682649999999999935e+01 1.212094999999999914e+02 1.842724999999999909e+03
7.699999999999999900e-02 7.077965000000000506e-01 2.639114999999999966e+01 1.218139999999999930e+02 1.842914999999999964e+03
7.799999999999999989e-02 7.078794999999999948e-01 2.588305000000000078e+01 1.222325000000000017e+02 1.843059999999999945e+03
7.900000000000000078e-02 7.079294999999999893e-01 2.530969999999999942e+01 1.224749999999999943e+02 1.843150000000000091e+03
8.000000000000000167e-02 7.079500000000000792e-01 2.468005000000000138e+01 1.225550000000000068e+02 1.843204999999999927e+03
8.100000000000000255e-02 7.079439999999999067e-01 2.400424999999999898e+01 1.224900000000000091e+02 1.843220000000000027e+03
8.200000000000000344e-02 7.079149999999999610e-01 2.329374999999999929e+01 1.223004999999999995e+02 1.843204999999999927e+03
8.300000000000000433e-02 7.078689999999999705e-01 2.256064999999999898e+01 1.220074999999999932e+02 1.843154999999999973e+03
8.400000000000000522e-02 7.078089999999999105e-01 2.181709999999999994e+01 1.216355000000000075e+02 1.843079999999999927e+03
8.500000000000000611e-02 7.077400000000000357e-01 2.107479999999999976e+01 1.212079999999999984e+02 1.842994999999999891e+03
8.600000000000000699e-02 7.076655000000000584e-01 2.034420000000000073e+01 1.207460000000000093e+02 1.842889999999999873e+03
8.700000000000000788e-02 7.075894999999999824e-01 1.963405000000000200e+01 1.202690000000000055e+02 1.842779999999999973e+03
8.800000000000000877e-02 7.075134999999999064e-01 1.895090000000000074e+01 1.197930000000000064e+02 1.842670000000000073e+03
8.899999999999999578e-02 7.074400000000000688e-01 1.829895000000000138e+01 1.193285000000000053e+02 1.842554999999999836e+03
8.999999999999999667e-02 7.073690000000000255e-01 1.767989999999999995e+01 1.188829999999999956e+02 1.842450000000000045e+03
9.099999999999999756e-02 7.073000000000000398e-01 1.709309999999999974e+01 1.184569999999999936e+02 1.842340000000000146e+03
9.199999999999999845e-02 7.072330000000000005e-01 1.653604999999999947e+01 1.180485000000000042e+02 1.842230000000000018e+03
9.299999999999999933e-02 7.071659999999999613e-01 1.600435000000000230e+01 1.176514999999999986e+02 1.842125000000000000e+03
9.400000000000000022e-02 7.070970000000000866e-01 1.549265000000000114e+01 1.172570000000000050e+02 1.842025000000000091e+03
9.500000000000000111e-02 7.070239999999999858e-01 1.499450000000000038e+01 1.168539999999999992e+02 1.841914999999999964e+03
9.600000000000000200e-02 7.069440000000000168e-01 1.450335000000000107e+01 1.164314999999999998e+02 1.841809999999999945e+03
9.700000000000000289e-02 7.068559999999999288e-01 1.401249999999999929e+01 1.159770000000000039e+02 1.841690000000000055e+03
9.800000000000000377e-02 7.067579999999999973e-01 1.351569999999999894e+01 1.154799999999999898e+02 1.841569999999999936e+03
9.900000000000000466e-02 7.066479999999999428e-01 1.300768000000000058e+01 1.149314999999999998e+02 1.841430000000000064e+03
1.000000000000000056e-01 7.065254999999999175e-01 1.248414499999999983e+01 1.143245000000000005e+02 1.841284999999999854e+03
1.010000000000000064e-01 7.063899999999999624e-01 1.194237500000000018e+01 1.136564999999999941e+02 1.841119999999999891e+03
1.020000000000000073e-01 7.062425000000001063e-01 1.138119999999999976e+01 1.129254999999999995e+02 1.840940000000000055e+03
1.030000000000000082e-01 7.060835000000000861e-01 1.080128500000000003e+01 1.121364999999999981e+02 1.840750000000000000e+03
1.040000000000000091e-01 7.059150000000000702e-01 1.020520999999999923e+01 1.112950000000000017e+02 1.840549999999999955e+03
1.050000000000000100e-01 7.057394999999999641e-01 9.597025000000000361e+00 1.104129999999999967e+02 1.840329999999999927e+03
1.059999999999999970e-01 7.055595000000000061e-01 8.982615000000000904e+00 1.095035000000000025e+02 1.840115000000000009e+03
1.069999999999999979e-01 7.053795000000000481e-01 8.368769999999999598e+00 1.085829999999999984e+02 1.839884999999999991e+03
1.079999999999999988e-01 7.052024999999999544e-01 7.763389999999999347e+00 1.076684999999999945e+02 1.839659999999999854e+03
1.089999999999999997e-01 7.050324999999999509e-01 7.174619999999999997e+00 1.067800000000000011e+02 1.839440000000000055e+03
1.100000000000000006e-01 7.048719999999999430e-01 6.610680000000000334e+00 1.059339999999999975e+02 1.839230000000000018e+03
1.110000000000000014e-01 7.047250000000000458e-01 6.079285000000000494e+00 1.051484999999999985e+02 1.839025000000000091e+03
1.120000000000000023e-01 7.045945000000000125e-01 5.587290000000000312e+00 1.044389999999999930e+02 1.838840000000000146e+03
1.130000000000000032e-01 7.044814999999999827e-01 5.140304999999999680e+00 1.038177000000000021e+02 1.838675000000000182e+03
1.140000000000000041e-01 7.043884999999999730e-01 4.742465000000000153e+00 1.032932500000000005e+02 1.838535000000000082e+03
1.150000000000000050e-01 7.043150000000000244e-01 4.396205000000000140e+00 1.028709499999999935e+02 1.838414999999999964e+03
1.160000000000000059e-01 7.042615000000000958e-01 4.102209999999999468e+00 1.025515000000000043e+02 1.838320000000000164e+03
1.170000000000000068e-01 7.042269999999999364e-01 3.859494999999999898e+00 1.023319999999999936e+02 1.838255000000000109e+03
1.180000000000000077e-01 7.042094999999999327e-01 3.665544999999999831e+00 1.022069999999999936e+02 1.838204999999999927e+03
1.190000000000000085e-01 7.042075000000000973e-01 3.516530000000000378e+00 1.021664999999999992e+02 1.838175000000000182e+03
1.200000000000000094e-01 7.042180000000000106e-01 3.407639999999999780e+00 1.021995000000000005e+02 1.838170000000000073e+03
1.209999999999999964e-01 7.042390000000000594e-01 3.333390000000000075e+00 1.022934999999999945e+02 1.838180000000000064e+03
1.219999999999999973e-01 7.042675000000000463e-01 3.287929999999999797e+00 1.024339999999999975e+02 1.838200000000000045e+03
1.229999999999999982e-01 7.043010000000000659e-01 3.265369999999999884e+00 1.026075000000000017e+02 1.838235000000000127e+03
1.239999999999999991e-01 7.043379999999999086e-01 3.259994999999999976e+00 1.028025000000000091e+02 1.838275000000000091e+03
1.250000000000000000e-01 7.043755000000000432e-01 3.266460000000000363e+00 1.030060000000000002e+02 1.838315000000000055e+03
1.260000000000000009e-01 7.044120000000000381e-01 3.279939999999999856e+00 1.032090000000000032e+02 1.838360000000000127e+03
1.270000000000000018e-01 7.044460000000000166e-01 3.296204999999999607e+00 1.034030000000000058e+02 1.838404999999999973e+03
1.280000000000000027e-01 7.044764999999999500e-01 3.311665000000000081e+00 1.035800000000000125e+02 1.838444999999999936e+03
1.290000000000000036e-01 7.045034999999999492e-01 3.323409999999999975e+00 1.037365000000000066e+02 1.838485000000000127e+03
1.300000000000000044e-01 7.045254999999999157e-01 3.329184999999999839e+00 1.038695000000000022e+02 1.838519999999999982e+03
1.310000000000000053e-01 7.045425000000000715e-01 3.327409999999999979e+00 1.039770000000000039e+02 1.838545000000000073e+03
1.320000000000000062e-01 7.045555000000000012e-01 3.317114999999999814e+00 1.040585000000000093e+02 1.838570000000000164e+03
1.330000000000000071e-01 7.045635000000000092e-01 3.297934999999999839e+00 1.041144999999999925e+02 1.838579999999999927e+03
1.340000000000000080e-01 7.045679999999999721e-01 3.270035000000000025e+00 1.041475000000000080e+02 1.838589999999999918e+03
1.350000000000000089e-01 7.045690000000000008e-01 3.234034999999999993e+00 1.041604999999999990e+02 1.838599999999999909e+03
1.360000000000000098e-01 7.045664999999999845e-01 3.190925000000000011e+00 1.041550000000000011e+02 1.838599999999999909e+03
1.370000000000000107e-01 7.045619999999999106e-01 3.141925000000000079e+00 1.041355000000000075e+02 1.838599999999999909e+03
1.380000000000000115e-01 7.045559999999999601e-01 3.088410000000000100e+00 1.041049999999999898e+02 1.838595000000000027e+03
1.390000000000000124e-01 7.045489999999999808e-01 3.031730000000000036e+00 1.040674999999999955e+02 1.838590000000000146e+03
1.400000000000000133e-01 7.045414999999999317e-01 2.973144999999999705e+00 1.040240000000000009e+02 1.838579999999999927e+03
1.410000000000000142e-01 7.045339999999999936e-01 2.913705000000000211e+00 1.039779999999999944e+02 1.838570000000000164e+03
1.420000000000000151e-01 7.045259999999999856e-01 2.854199999999999626e+00 1.039300000000000068e+02 1.838559999999999945e+03
1.430000000000000160e-01 7.045185000000000475e-01 2.795094999999999885e+00 1.038804999999999978e+02 1.838550000000000182e+03
1.440000000000000169e-01 7.045094999999998997e-01 2.736555000000000071e+00 1.038294999999999959e+02 1.838535000000000082e+03
1.450000000000000178e-01 7.045010000000000439e-01 2.678469999999999906e+00 1.037754999999999939e+02 1.838525000000000091e+03
1.459999999999999909e-01 7.044905000000000195e-01 2.620509999999999895e+00 1.037170000000000130e+02 1.838514999999999873e+03
1.469999999999999918e-01 7.044790000000000774e-01 2.562219999999999942e+00 1.036514999999999986e+02 1.838494999999999891e+03
1.479999999999999927e-01 7.044654999999999667e-01 2.503105000000000135e+00 1.035775000000000006e+02 1.838480000000000018e+03
1.489999999999999936e-01 7.044494999999999507e-01 2.442734999999999879e+00 1.034925000000000068e+02 1.838460000000000036e+03
1.499999999999999944e-01 7.044314999999999882e-01 2.380835000000000257e+00 1.033944999999999936e+02 1.838434999999999945e+03
1.509999999999999953e-01 7.044099999999999806e-01 2.317350000000000243e+00 1.032830000000000013e+02 1.838409999999999854e+03
1.519999999999999962e-01 7.043854999999999977e-01 2.252489999999999881e+00 1.031564999999999941e+02 1.838380000000000109e+03
1.529999999999999971e-01 7.043589999999999574e-01 2.186770000000000103e+00 1.030165000000000077e+02 1.838345000000000027e+03
1.539999999999999980e-01 7.043295000000000528e-01 2.120964999999999989e+00 1.028640000000000043e+02 1.838309999999999945e+03
1.549999999999999989e-01 7.042984999999999385e-01 2.056084999999999940e+00 1.027005000000000052e+02 1.838269999999999982e+03
1.559999999999999998e-01 7.042660000000000586e-01 1.993354999999999988e+00 1.025285000000000082e+02 1.838230000000000018e+03
1.570000000000000007e-01 7.042329999999999979e-01 1.934105000000000185e+00 1.023515000000000015e+02 1.838184999999999945e+03
1.580000000000000016e-01 7.041994999999999783e-01 1.879734999999999934e+00 1.021734999999999900e+02 1.838144999999999982e+03
1.590000000000000024e-01 7.041669999999999874e-01 1.831669999999999909e+00 1.019979999999999905e+02 1.838099999999999909e+03
