# t [s], A [cm^2], U [cm/s], P [cPa], c [cm/s]
1.000000000000000021e-03 1.312115000000000087e-01 3.803649999999999531e-01 9.946504999999999086e+01 2.076675000000000182e+03
2.000000000000000042e-03 1.311775000000000024e-01 1.980933999999999751e+00 9.592849999999999966e+01 2.076250000000000000e+03
3.000000000000000062e-03 1.310830000000000051e-01 3.923665000000000180e+00 9.119155000000000655e+01 2.075130000000000109e+03
4.000000000000000083e-03 1.309535000000000005e-01 6.090662000000000020e+00 8.617750000000000909e+01 2.073605000000000018e+03
5.000000000000000104e-03 1.308134999999999992e-01 8.401745000000000019e+00 8.177975000000000705e+01 2.071980000000000018e+03
6.000000000000000125e-03 1.306785000000000030e-01 1.066849999999999987e+01 7.822024999999999295e+01 2.070425000000000182e+03
7.000000000000000146e-03 1.305510000000000004e-01 1.268264500000000083e+01 7.519214999999999804e+01 2.068989999999999782e+03
8.000000000000000167e-03 1.304334999999999800e-01 1.438033000000000072e+01 7.247034999999999627e+01 2.067684999999999945e+03
9.000000000000001055e-03 1.303300000000000014e-01 1.580550000000000210e+01 7.012149999999999750e+01 2.066555000000000291e+03
1.000000000000000194e-02 1.302425000000000110e-01 1.699005000000000010e+01 6.821035000000000537e+01 2.065599999999999909e+03
1.099999999999999936e-02 1.301700000000000079e-01 1.794619999999999749e+01 6.669735000000000014e+01 2.064824999999999818e+03
1.200000000000000025e-02 1.301110000000000044e-01 1.868410000000000082e+01 6.550605000000000189e+01 2.064204999999999927e+03
1.300000000000000114e-02 1.300634999999999986e-01 1.920669999999999789e+01 6.452804999999999325e+01 2.063715000000000146e+03
1.400000000000000203e-02 1.300235000000000141e-01 1.953164999999999907e+01 6.366105000000000302e+01 2.063305000000000291e+03
1.499999999999999944e-02 1.299910000000000232e-01 1.973460000000000036e+01 6.294329999999999359e+01 2.062985000000000127e+03
1.600000000000000033e-02 1.299690000000000012e-01 1.995299999999999940e+01 6.262919999999999732e+01 2.062765000000000327e+03
1.700000000000000122e-02 1.299639999999999962e-01 2.032840000000000202e+01 6.307620000000000005e+01 2.062730000000000018e+03
1.800000000000000211e-02 1.299814999999999998e-01 2.093035000000000068e+01 6.451205000000000211e+01 2.062925000000000182e+03
1.900000000000000300e-02 1.300224999999999853e-01 2.171610000000000085e+01 6.685394999999999754e+01 2.063369999999999891e+03
2.000000000000000042e-02 1.300814999999999888e-01 2.254780000000000229e+01 6.969464999999999577e+01 2.064010000000000218e+03
2.100000000000000130e-02 1.301464999999999983e-01 2.325034999999999741e+01 7.244585000000000719e+01 2.064735000000000127e+03
2.200000000000000219e-02 1.302075000000000038e-01 2.367800000000000082e+01 7.455160000000000764e+01 2.065409999999999854e+03
2.299999999999999961e-02 1.302540000000000087e-01 2.376079999999999970e+01 7.567079999999999984e+01 2.065945000000000164e+03
2.400000000000000050e-02 1.302804999999999935e-01 2.351760000000000161e+01 7.576234999999999786e+01 2.066255000000000109e+03
2.500000000000000139e-02 1.302864999999999995e-01 2.303520000000000323e+01 7.505259999999999820e+01 2.066350000000000364e+03
2.600000000000000228e-02 1.302790000000000059e-01 2.242699999999999960e+01 7.391394999999999982e+01 2.066279999999999745e+03
2.700000000000000316e-02 1.302619999999999889e-01 2.179010000000000247e+01 7.271359999999999957e+01 2.066114999999999782e+03
2.800000000000000058e-02 1.302429999999999977e-01 2.117674999999999841e+01 7.169214999999999804e+01 2.065909999999999854e+03
2.900000000000000147e-02 1.302250000000000074e-01 2.058814999999999884e+01 7.091155000000000541e+01 2.065715000000000146e+03
3.000000000000000236e-02 1.302090000000000192e-01 1.998789999999999978e+01 7.027664999999998940e+01 2.065539999999999964e+03
3.099999999999999978e-02 1.301920000000000022e-01 1.932760000000000034e+01 6.960994999999999777e+01 2.065354999999999563e+03
3.200000000000000067e-02 1.301714999999999955e-01 1.857369999999999877e+01 6.874564999999999770e+01 2.065140000000000327e+03
3.300000000000000155e-02 1.301460000000000117e-01 1.772760000000000247e+01 6.760965000000000202e+01 2.064864999999999782e+03
3.400000000000000244e-02 1.301149999999999807e-01 1.683245000000000147e+01 6.626175000000000637e+01 2.064534999999999854e+03
3.500000000000000333e-02 1.300815000000000166e-01 1.596589999999999954e+01 6.488904999999999745e+01 2.064170000000000073e+03
3.600000000000000422e-02 1.300489999999999979e-01 1.522044999999999959e+01 6.375494999999999379e+01 2.063815000000000055e+03
3.700000000000000511e-02 1.300244999999999873e-01 1.467889999999999873e+01 6.312154999999999916e+01 2.063545000000000073e+03
3.799999999999999906e-02 1.300125000000000031e-01 1.439219999999999899e+01 6.317220000000000368e+01 2.063404999999999745e+03
3.899999999999999994e-02 1.300159999999999927e-01 1.436589999999999989e+01 6.395735000000000525e+01 2.063429999999999836e+03
4.000000000000000083e-02 1.300364999999999993e-01 1.455894999999999939e+01 6.537735000000000696e+01 2.063630000000000109e+03
4.100000000000000172e-02 1.300695000000000046e-01 1.489269999999999960e+01 6.720409999999999684e+01 2.063980000000000018e+03
4.200000000000000261e-02 1.301105000000000178e-01 1.526715000000000089e+01 6.913044999999999618e+01 2.064414999999999964e+03
4.300000000000000350e-02 1.301530000000000187e-01 1.557944999999999958e+01 7.083164999999999623e+01 2.064875000000000000e+03
4.400000000000000439e-02 1.301900000000000002e-01 1.573999999999999844e+01 7.202315000000000111e+01 2.065275000000000091e+03
4.499999999999999833e-02 1.302149999999999974e-01 1.568374999999999986e+01 7.250260000000000105e+01 2.065555000000000291e+03
4.599999999999999922e-02 1.302240000000000064e-01 1.537524999999999942e+01 7.216970000000000596e+01 2.065659999999999854e+03
4.700000000000000011e-02 1.302149999999999974e-01 1.480774999999999864e+01 7.102485000000000070e+01 2.065569999999999709e+03
4.800000000000000100e-02 1.301865000000000105e-01 1.399779999999999980e+01 6.915054999999999552e+01 2.065275000000000091e+03
4.900000000000000189e-02 1.301410000000000067e-01 1.297869999999999990e+01 6.668309999999999604e+01 2.064789999999999964e+03
5.000000000000000278e-02 1.300810000000000022e-01 1.179277500000000067e+01 6.378374999999999773e+01 2.064139999999999873e+03
5.100000000000000366e-02 1.300095000000000001e-01 1.048583999999999961e+01 6.061464999999999748e+01 2.063364999999999782e+03
5.200000000000000455e-02 1.299299999999999899e-01 9.103680000000000661e+00 5.732375000000000398e+01 2.062510000000000218e+03
5.300000000000000544e-02 1.298460000000000170e-01 7.690854999999999997e+00 5.403915000000000646e+01 2.061595000000000255e+03
5.399999999999999939e-02 1.297609999999999875e-01 6.290639999999999787e+00 5.087044999999999817e+01 2.060670000000000073e+03
5.500000000000000028e-02 1.296775000000000011e-01 4.946250000000000036e+00 4.791514999999999702e+01 2.059755000000000109e+03
5.600000000000000117e-02 1.295985000000000054e-01 3.701426000000000105e+00 4.526469999999999771e+01 2.058895000000000437e+03
5.700000000000000205e-02 1.295264999999999889e-01 2.600591999999999793e+00 4.300939999999999941e+01 2.058099999999999909e+03
5.800000000000000294e-02 1.294639999999999957e-01 1.687979000000000118e+00 4.123995000000000033e+01 2.057414999999999964e+03
5.900000000000000383e-02 1.294140000000000013e-01 1.005760999999999905e+00 4.004455000000000098e+01 2.056855000000000018e+03
6.000000000000000472e-02 1.293785000000000074e-01 5.915945000000000231e-01 3.950355000000000416e+01 2.056460000000000036e+03
6.099999999999999867e-02 1.293604999999999894e-01 4.759244000000000252e-01 3.968254999999999910e+01 2.056244999999999891e+03
6.199999999999999956e-02 1.293610000000000038e-01 6.795709999999999251e-01 4.062515000000000498e+01 2.056230000000000018e+03
6.300000000000000044e-02 1.293809999999999960e-01 1.211945000000000050e+00 4.234730000000000416e+01 2.056425000000000182e+03
6.400000000000000133e-02 1.294214999999999949e-01 2.070203999999999933e+00 4.483469999999999800e+01 2.056845000000000255e+03
6.500000000000000222e-02 1.294819999999999860e-01 3.239407499999999995e+00 4.804260000000000019e+01 2.057485000000000127e+03
6.600000000000000311e-02 1.295614999999999961e-01 4.693539999999999601e+00 5.189874999999999972e+01 2.058329999999999927e+03
6.700000000000000400e-02 1.296585000000000099e-01 6.397334999999999994e+00 5.630859999999999843e+01 2.059369999999999891e+03
6.800000000000000488e-02 1.297709999999999975e-01 8.308500000000000441e+00 6.116209999999999525e+01 2.060579999999999927e+03
6.900000000000000577e-02 1.298960000000000115e-01 1.038026499999999963e+01 6.634090000000000487e+01 2.061930000000000291e+03
7.000000000000000666e-02 1.300304999999999933e-01 1.256413000000000046e+01 7.172615000000000407e+01 2.063390000000000327e+03
7.100000000000000755e-02 1.301720000000000099e-01 1.481220000000000070e+01 7.720489999999999498e+01 2.064934999999999945e+03
7.200000000000000844e-02 1.303170000000000162e-01 1.707965000000000089e+01 8.267640000000000100e+01 2.066524999999999636e+03
7.300000000000000933e-02 1.304639999999999966e-01 1.932685000000000031e+01 8.805695000000000050e+01 2.068139999999999873e+03
7.399999999999999634e-02 1.306100000000000039e-01 2.152060000000000173e+01 9.328300000000000125e+01 2.069744999999999891e+03
7.499999999999999722e-02 1.307534999999999947e-01 2.363564999999999827e+01 9.831364999999999554e+01 2.071329999999999927e+03
7.599999999999999811e-02 1.308930000000000093e-01 2.565449999999999875e+01 1.031294499999999914e+02 2.072885000000000218e+03
7.699999999999999900e-02 1.310280000000000056e-01 2.756794999999999973e+01 1.077317999999999927e+02 2.074389999999999873e+03
7.799999999999999989e-02 1.311589999999999978e-01 2.937355000000000160e+01 1.121389999999999958e+02 2.075849999999999909e+03
7.900000000000000078e-02 1.312854999999999994e-01 3.107505000000000095e+01 1.163810000000000002e+02 2.077260000000000218e+03
8.000000000000000167e-02 1.314079999999999970e-01 3.268025000000000091e+01 1.204969999999999999e+02 2.078635000000000218e+03
8.100000000000000255e-02 1.315275000000000194e-01 3.419955000000000211e+01 1.245270000000000010e+02 2.079980000000000018e+03
8.200000000000000344e-02 1.316454999999999986e-01 3.564435000000000286e+01 1.285095000000000027e+02 2.081304999999999836e+03
8.300000000000000433e-02 1.317619999999999902e-01 3.702539999999999765e+01 1.324745000000000061e+02 2.082605000000000018e+03
8.400000000000000522e-02 1.318774999999999809e-01 3.835155000000000314e+01 1.364440000000000168e+02 2.083909999999999854e+03
8.500000000000000611e-02 1.319929999999999992e-01 3.962884999999999991e+01 1.404275000000000091e+02 2.085210000000000036e+03
8.600000000000000699e-02 1.321084999999999898e-01 4.086020000000000607e+01 1.444234999999999900e+02 2.086510000000000218e+03
8.700000000000000788e-02 1.322240000000000082e-01 4.204489999999999839e+01 1.484189999999999827e+02 2.087809999999999945e+03
8.800000000000000877e-02 1.323390000000000122e-01 4.317895000000000039e+01 1.523894999999999982e+02 2.089109999999999673e+03
8.899999999999999578e-02 1.324530000000000152e-01 4.425544999999999618e+01 1.563045000000000186e+02 2.090400000000000091e+03
8.999999999999999667e-02 1.325655000000000028e-01 4.526480000000000103e+01 1.601270000000000095e+02 2.091664999999999964e+03
9.099999999999999756e-02 1.326755000000000018e-01 4.619585000000000008e+01 1.638154999999999859e+02 2.092909999999999854e+03
9.199999999999999845e-02 1.327810000000000101e-01 4.703615000000000634e+01 1.673285000000000196e+02 2.094114999999999782e+03
9.299999999999999933e-02 1.328825000000000145e-01 4.777299999999999613e+01 1.706245000000000118e+02 2.095269999999999982e+03
9.400000000000000022e-02 1.329784999999999995e-01 4.839424999999999955e+01 1.736659999999999968e+02 2.096355000000000018e+03
9.500000000000000111e-02 1.330675000000000052e-01 4.888855000000000217e+01 1.764184999999999945e+02 2.097369999999999891e+03
9.600000000000000200e-02 1.331490000000000173e-01 4.924640000000000128e+01 1.788555000000000064e+02 2.098295000000000073e+03
9.700000000000000289e-02 1.332214999999999927e-01 4.946065000000000111e+01 1.809549999999999841e+02 2.099130000000000109e+03
9.800000000000000377e-02 1.332855000000000012e-01 4.952684999999999604e+01 1.827049999999999841e+02 2.099864999999999782e+03
9.900000000000000466e-02 1.333400000000000141e-01 4.944379999999999598e+01 1.841005000000000109e+02 2.100494999999999891e+03
1.000000000000000056e-01 1.333854999999999902e-01 4.921354999999999791e+01 1.851454999999999984e+02 2.101024999999999636e+03
1.010000000000000064e-01 1.334210000000000118e-01 4.884159999999999968e+01 1.858545000000000016e+02 2.101439999999999600e+03
1.020000000000000073e-01 1.334474999999999967e-01 4.833695000000000164e+01 1.862470000000000141e+02 2.101755000000000109e+03
1.030000000000000082e-01 1.334655000000000147e-01 4.771139999999999759e+01 1.863524999999999920e+02 2.101969999999999800e+03
1.040000000000000091e-01 1.334750000000000103e-01 4.697939999999999827e+01 1.862055000000000007e+02 2.102095000000000255e+03
1.050000000000000100e-01 1.334779999999999855e-01 4.615744999999999720e+01 1.858435000000000059e+02 2.102135000000000218e+03
1.059999999999999970e-01 1.334744999999999959e-01 4.526330000000000098e+01 1.853079999999999927e+02 2.102109999999999673e+03
1.069999999999999979e-01 1.334660000000000013e-01 4.431534999999999513e+01 1.846405000000000030e+02 2.102015000000000327e+03
1.079999999999999988e-01 1.334535000000000027e-01 4.333174999999999955e+01 1.838815000000000168e+02 2.101880000000000109e+03
1.089999999999999997e-01 1.334374999999999867e-01 4.232994999999999663e+01 1.830689999999999884e+02 2.101710000000000036e+03
1.100000000000000006e-01 1.334194999999999964e-01 4.132560000000000144e+01 1.822350000000000136e+02 2.101510000000000218e+03
1.110000000000000014e-01 1.334000000000000186e-01 4.033265000000000100e+01 1.814089999999999918e+02 2.101295000000000073e+03
1.120000000000000023e-01 1.333805000000000129e-01 3.936245000000000260e+01 1.806114999999999782e+02 2.101070000000000164e+03
1.130000000000000032e-01 1.333610000000000073e-01 3.842354999999999876e+01 1.798569999999999993e+02 2.100845000000000255e+03
1.140000000000000041e-01 1.333419999999999883e-01 3.752165000000000106e+01 1.791529999999999916e+02 2.100630000000000109e+03
1.150000000000000050e-01 1.333229999999999971e-01 3.665955000000000297e+01 1.785004999999999882e+02 2.100420000000000073e+03
1.160000000000000059e-01 1.333060000000000078e-01 3.583715000000000117e+01 1.778944999999999936e+02 2.100220000000000255e+03
1.170000000000000068e-01 1.332895000000000052e-01 3.505185000000000173e+01 1.773240000000000123e+02 2.100029999999999745e+03
1.180000000000000077e-01 1.332730000000000026e-01 3.429874999999999829e+01 1.767730000000000246e+02 2.099845000000000255e+03
1.190000000000000085e-01 1.332570000000000143e-01 3.357104999999999961e+01 1.762219999999999800e+02 2.099659999999999854e+03
1.200000000000000094e-01 1.332415000000000127e-01 3.286084999999999923e+01 1.756499999999999773e+02 2.099474999999999909e+03
1.209999999999999964e-01 1.332244999999999957e-01 3.215914999999999679e+01 1.750355000000000132e+02 2.099280000000000200e+03
1.219999999999999973e-01 1.332065000000000055e-01 3.145700000000000074e+01 1.743559999999999945e+02 2.099074999999999818e+03
1.229999999999999982e-01 1.331869999999999998e-01 3.074564999999999770e+01 1.735919999999999845e+02 2.098855000000000018e+03
1.239999999999999991e-01 1.331649999999999778e-01 3.001709999999999923e+01 1.727259999999999991e+02 2.098605000000000018e+03
1.250000000000000000e-01 1.331404999999999950e-01 2.926500000000000057e+01 1.717460000000000093e+02 2.098324999999999818e+03
1.260000000000000009e-01 1.331129999999999813e-01 2.848440000000000083e+01 1.706424999999999841e+02 2.098014999999999873e+03
1.270000000000000018e-01 1.330830000000000068e-01 2.767264999999999731e+01 1.694149999999999920e+02 2.097670000000000073e+03
1.280000000000000027e-01 1.330490000000000006e-01 2.682925000000000182e+01 1.680654999999999859e+02 2.097289999999999964e+03
1.290000000000000036e-01 1.330119999999999914e-01 2.595609999999999928e+01 1.666025000000000205e+02 2.096875000000000000e+03
1.300000000000000044e-01 1.329720000000000069e-01 2.505734999999999957e+01 1.650425000000000182e+02 2.096425000000000182e+03
1.310000000000000053e-01 1.329294999999999782e-01 2.413935000000000031e+01 1.634035000000000082e+02 2.095949999999999818e+03
1.320000000000000062e-01 1.328850000000000031e-01 2.321020000000000039e+01 1.617100000000000080e+02 2.095444999999999709e+03
1.330000000000000071e-01 1.328389999999999849e-01 2.227964999999999662e+01 1.599890000000000043e+02 2.094930000000000291e+03
1.340000000000000080e-01 1.327920000000000211e-01 2.135840000000000316e+01 1.582690000000000055e+02 2.094399999999999636e+03
1.350000000000000089e-01 1.327450000000000019e-01 2.045750000000000313e+01 1.565785000000000196e+02 2.093864999999999782e+03
1.360000000000000098e-01 1.326984999999999970e-01 1.958825000000000216e+01 1.549474999999999909e+02 2.093345000000000255e+03
1.370000000000000107e-01 1.326535000000000075e-01 1.876109999999999900e+01 1.534004999999999939e+02 2.092829999999999927e+03
1.380000000000000115e-01 1.326100000000000056e-01 1.798564999999999969e+01 1.519604999999999961e+02 2.092345000000000255e+03
1.390000000000000124e-01 1.325689999999999924e-01 1.726995000000000147e+01 1.506469999999999914e+02 2.091885000000000218e+03
1.400000000000000133e-01 1.325319999999999832e-01 1.662020000000000053e+01 1.494730000000000132e+02 2.091460000000000036e+03
1.410000000000000142e-01 1.324980000000000047e-01 1.604074999999999918e+01 1.484455000000000098e+02 2.091070000000000164e+03
1.420000000000000151e-01 1.324675000000000158e-01 1.553375000000000128e+01 1.475695000000000050e+02 2.090725000000000364e+03
1.430000000000000160e-01 1.324410000000000032e-01 1.509935000000000116e+01 1.468419999999999845e+02 2.090420000000000073e+03
1.440000000000000169e-01 1.324184999999999945e-01 1.473569999999999958e+01 1.462565000000000168e+02 2.090159999999999854e+03
1.450000000000000178e-01 1.323995000000000033e-01 1.443924999999999947e+01 1.458020000000000209e+02 2.089940000000000055e+03
1.459999999999999909e-01 1.323840000000000017e-01 1.420495000000000019e+01 1.454660000000000082e+02 2.089760000000000218e+03
1.469999999999999918e-01 1.323719999999999897e-01 1.402655000000000030e+01 1.452314999999999827e+02 2.089614999999999782e+03
1.479999999999999927e-01 1.323624999999999940e-01 1.389720000000000155e+01 1.450824999999999818e+02 2.089505000000000109e+03
1.489999999999999936e-01 1.323555000000000148e-01 1.380930000000000035e+01 1.450020000000000095e+02 2.089425000000000182e+03
1.499999999999999944e-01 1.323509999999999964e-01 1.375534999999999997e+01 1.449730000000000132e+02 2.089359999999999673e+03
1.509999999999999953e-01 1.323475000000000068e-01 1.372775000000000034e+01 1.449789999999999850e+02 2.089324999999999818e+03
1.519999999999999962e-01 1.323455000000000048e-01 1.371959999999999980e+01 1.450064999999999884e+02 2.089295000000000073e+03
1.529999999999999971e-01 1.323440000000000172e-01 1.372435000000000116e+01 1.450430000000000064e+02 2.089274999999999636e+03
1.539999999999999980e-01 1.323429999999999884e-01 1.373625000000000007e+01 1.450784999999999911e+02 2.089264999999999873e+03
1.549999999999999989e-01 1.323429999999999884e-01 1.375049999999999883e+01 1.451050000000000182e+02 2.089260000000000218e+03
1.559999999999999998e-01 1.323425000000000018e-01 1.376314999999999955e+01 1.451165000000000020e+02 2.089250000000000000e+03
1.570000000000000007e-01 1.323415000000000008e-01 1.377120000000000033e+01 1.451100000000000136e+02 2.089239999999999782e+03
1.580000000000000016e-01 1.323409999999999864e-01 1.377250000000000085e+01 1.450835000000000150e+02 2.089230000000000018e+03
1.590000000000000024e-01 1.323394999999999988e-01 1.376595000000000013e+01 1.450370000000000061e+02 2.089220000000000255e+03
