# t [s], A [cm^2], U [cm/s], P [cPa], c [cm/s]
1.000000000000000021e-03 1.737944999999999907e-01 3.094907499999999811e-01 9.056250000000000000e+01 2.179824999999999818e+03
2.000000000000000042e-03 1.737469999999999848e-01 1.739495500000000083e+00 8.726290000000000191e+01 2.179385000000000218e+03
3.000000000000000062e-03 1.736265000000000169e-01 3.505561000000000149e+00 8.267230000000000700e+01 2.178320000000000164e+03
4.000000000000000083e-03 1.734664999999999957e-01 5.502318500000000334e+00 7.779954999999999643e+01 2.176925000000000182e+03
5.000000000000000104e-03 1.733004999999999962e-01 7.647520000000000095e+00 7.359145000000000891e+01 2.175484999999999673e+03
6.000000000000000125e-03 1.731439999999999924e-01 9.723969999999999558e+00 7.023175000000000523e+01 2.174150000000000091e+03
7.000000000000000146e-03 1.729990000000000139e-01 1.150340999999999880e+01 6.733339999999999748e+01 2.172940000000000055e+03
8.000000000000000167e-03 1.728685000000000083e-01 1.295033500000000082e+01 6.472235000000000582e+01 2.171869999999999891e+03
9.000000000000001055e-03 1.727564999999999795e-01 1.412599999999999945e+01 6.253564999999999685e+01 2.170970000000000255e+03
1.000000000000000194e-02 1.726654999999999995e-01 1.505925000000000047e+01 6.082559999999999434e+01 2.170239999999999782e+03
1.099999999999999936e-02 1.725939999999999974e-01 1.576695000000000135e+01 5.953859999999999530e+01 2.169675000000000182e+03
1.200000000000000025e-02 1.725389999999999979e-01 1.625979999999999848e+01 5.858234999999999815e+01 2.169250000000000000e+03
1.300000000000000114e-02 1.724954999999999961e-01 1.653565000000000040e+01 5.780334999999999468e+01 2.168925000000000182e+03
1.400000000000000203e-02 1.724600000000000022e-01 1.663285000000000124e+01 5.710580000000000211e+01 2.168659999999999854e+03
1.499999999999999944e-02 1.724344999999999906e-01 1.668440000000000012e+01 5.666400000000000148e+01 2.168474999999999909e+03
1.600000000000000033e-02 1.724280000000000257e-01 1.688204999999999956e+01 5.692320000000000135e+01 2.168444999999999709e+03
1.700000000000000122e-02 1.724530000000000229e-01 1.736599999999999966e+01 5.831310000000000571e+01 2.168644999999999982e+03
1.800000000000000211e-02 1.725119999999999987e-01 1.813344999999999985e+01 6.090789999999999793e+01 2.169125000000000000e+03
1.900000000000000300e-02 1.726004999999999900e-01 1.902994999999999948e+01 6.429134999999999422e+01 2.169829999999999927e+03
2.000000000000000042e-02 1.726995000000000058e-01 1.982005000000000194e+01 6.769979999999999620e+01 2.170644999999999982e+03
2.100000000000000130e-02 1.727905000000000135e-01 2.028894999999999982e+01 7.033275000000000432e+01 2.171400000000000091e+03
2.200000000000000219e-02 1.728549999999999809e-01 2.032379999999999853e+01 7.166085000000001060e+01 2.171949999999999818e+03
2.299999999999999961e-02 1.728850000000000109e-01 1.994320000000000093e+01 7.159399999999999409e+01 2.172225000000000364e+03
2.400000000000000050e-02 1.728819999999999801e-01 1.927109999999999701e+01 7.045664999999999623e+01 2.172230000000000018e+03
2.500000000000000139e-02 1.728560000000000096e-01 1.847230000000000061e+01 6.880365000000000464e+01 2.172045000000000073e+03
2.600000000000000228e-02 1.728210000000000024e-01 1.768400000000000105e+01 6.717640000000000100e+01 2.171760000000000218e+03
2.700000000000000316e-02 1.727865000000000095e-01 1.697084999999999866e+01 6.590664999999999907e+01 2.171485000000000127e+03
2.800000000000000058e-02 1.727580000000000227e-01 1.631729999999999947e+01 6.503829999999999245e+01 2.171244999999999891e+03
2.900000000000000147e-02 1.727335000000000120e-01 1.565285000000000082e+01 6.437389999999999191e+01 2.171045000000000073e+03
3.000000000000000236e-02 1.727080000000000004e-01 1.489559999999999995e+01 6.360750000000000171e+01 2.170835000000000036e+03
3.099999999999999978e-02 1.726754999999999818e-01 1.399585000000000079e+01 6.248264999999999958e+01 2.170574999999999818e+03
3.200000000000000067e-02 1.726320000000000077e-01 1.296600000000000108e+01 6.091929999999999978e+01 2.170230000000000018e+03
3.300000000000000155e-02 1.725784999999999958e-01 1.188609500000000097e+01 5.906700000000000017e+01 2.169805000000000291e+03
3.400000000000000244e-02 1.725234999999999963e-01 1.088405000000000022e+01 5.726984999999999815e+01 2.169349999999999909e+03
3.500000000000000333e-02 1.724749999999999894e-01 1.009827500000000100e+01 5.595705000000000240e+01 2.168949999999999818e+03
3.600000000000000422e-02 1.724455000000000016e-01 9.635394999999999044e+00 5.550220000000000198e+01 2.168699999999999818e+03
3.700000000000000511e-02 1.724430000000000129e-01 9.538945000000000007e+00 5.610195000000000221e+01 2.168654999999999745e+03
3.799999999999999906e-02 1.724689999999999834e-01 9.777460000000001372e+00 5.771240000000000236e+01 2.168849999999999909e+03
3.899999999999999994e-02 1.725204999999999933e-01 1.025306499999999943e+01 6.005825000000000102e+01 2.169244999999999891e+03
4.000000000000000083e-02 1.725885000000000058e-01 1.082545499999999983e+01 6.270244999999999891e+01 2.169789999999999964e+03
4.100000000000000172e-02 1.726610000000000089e-01 1.134250000000000114e+01 6.514809999999999945e+01 2.170369999999999891e+03
4.200000000000000261e-02 1.727245000000000030e-01 1.166864999999999952e+01 6.694225000000000136e+01 2.170885000000000218e+03
4.300000000000000350e-02 1.727674999999999905e-01 1.170519999999999960e+01 6.775515000000000043e+01 2.171244999999999891e+03
4.400000000000000439e-02 1.727814999999999768e-01 1.140005000000000024e+01 6.742220000000000368e+01 2.171375000000000000e+03
4.499999999999999833e-02 1.727635000000000143e-01 1.074641000000000091e+01 6.594444999999998913e+01 2.171250000000000000e+03
4.599999999999999922e-02 1.727134999999999920e-01 9.773765000000000924e+00 6.345745000000000147e+01 2.170855000000000018e+03
4.700000000000000011e-02 1.726350000000000107e-01 8.535399999999999210e+00 6.018094999999999573e+01 2.170230000000000018e+03
4.800000000000000100e-02 1.725340000000000207e-01 7.095330000000000581e+00 5.636664999999999992e+01 2.169414999999999964e+03
4.900000000000000189e-02 1.724160000000000137e-01 5.519115000000000215e+00 5.225639999999999930e+01 2.168465000000000146e+03
5.000000000000000278e-02 1.722889999999999977e-01 3.868428810000000162e+00 4.805790000000000362e+01 2.167430000000000291e+03
5.100000000000000366e-02 1.721574999999999911e-01 2.200135000000000396e+00 4.393815000000000026e+01 2.166359999999999673e+03
5.200000000000000455e-02 1.720269999999999855e-01 5.677300000000000679e-01 4.003015000000000612e+01 2.165295000000000073e+03
5.300000000000000544e-02 1.719025000000000136e-01 -9.761599999999999167e-01 3.644689999999999941e+01 2.164275000000000091e+03
5.399999999999999939e-02 1.717869999999999953e-01 -2.377948500000000021e+00 3.329440000000000310e+01 2.163329999999999927e+03
5.500000000000000028e-02 1.716850000000000043e-01 -3.582840000000000025e+00 3.068025000000000091e+01 2.162489999999999782e+03
5.600000000000000117e-02 1.716004999999999892e-01 -4.536495000000000388e+00 2.871499999999999631e+01 2.161789999999999964e+03
5.700000000000000205e-02 1.715369999999999950e-01 -5.188299999999999912e+00 2.750619999999999976e+01 2.161255000000000109e+03
5.800000000000000294e-02 1.714979999999999838e-01 -5.495479999999999698e+00 2.714815000000000111e+01 2.160920000000000073e+03
5.900000000000000383e-02 1.714864999999999862e-01 -5.427205000000000723e+00 2.770945000000000036e+01 2.160800000000000182e+03
6.000000000000000472e-02 1.715039999999999898e-01 -4.967785000000000117e+00 2.922250000000000014e+01 2.160920000000000073e+03
6.099999999999999867e-02 1.715519999999999823e-01 -4.118394999999999584e+00 3.167709999999999582e+01 2.161284999999999854e+03
6.199999999999999956e-02 1.716294999999999904e-01 -2.897188500000000388e+00 3.501890000000000214e+01 2.161885000000000218e+03
6.300000000000000044e-02 1.717354999999999854e-01 -1.337865000000000082e+00 3.915290000000000248e+01 2.162724999999999909e+03
6.400000000000000133e-02 1.718659999999999910e-01 5.129200000000000426e-01 4.395145000000000124e+01 2.163769999999999982e+03
6.500000000000000222e-02 1.720180000000000042e-01 2.598844999999999850e+00 4.926415000000000077e+01 2.164989999999999782e+03
6.600000000000000311e-02 1.721864999999999923e-01 4.857555500000000137e+00 5.492864999999999753e+01 2.166349999999999909e+03
6.700000000000000400e-02 1.723665000000000058e-01 7.224414999999999587e+00 6.078239999999999554e+01 2.167809999999999945e+03
6.800000000000000488e-02 1.725539999999999852e-01 9.635994999999999422e+00 6.667164999999999964e+01 2.169340000000000146e+03
6.900000000000000577e-02 1.727429999999999799e-01 1.203363500000000030e+01 7.246115000000000350e+01 2.170890000000000327e+03
7.000000000000000666e-02 1.729304999999999870e-01 1.436626000000000047e+01 7.804104999999999848e+01 2.172429999999999836e+03
7.100000000000000755e-02 1.731125000000000025e-01 1.659284999999999854e+01 8.333220000000000027e+01 2.173934999999999945e+03
7.200000000000000844e-02 1.732869999999999966e-01 1.868390000000000128e+01 8.828919999999999391e+01 2.175380000000000109e+03
7.300000000000000933e-02 1.734519999999999951e-01 2.062219999999999942e+01 9.290049999999999386e+01 2.176755000000000109e+03
7.399999999999999634e-02 1.736084999999999989e-01 2.240240000000000009e+01 9.718539999999998713e+01 2.178059999999999945e+03
7.499999999999999722e-02 1.737545000000000062e-01 2.402965000000000018e+01 1.011888000000000005e+02 2.179284999999999854e+03
7.599999999999999811e-02 1.738939999999999930e-01 2.551715000000000089e+01 1.049732999999999947e+02 2.180449999999999818e+03
7.699999999999999900e-02 1.740265000000000006e-01 2.688374999999999915e+01 1.086100000000000136e+02 2.181564999999999600e+03
7.799999999999999989e-02 1.741554999999999909e-01 2.815099999999999980e+01 1.121715000000000089e+02 2.182644999999999982e+03
7.900000000000000078e-02 1.742825000000000069e-01 2.934049999999999869e+01 1.157215000000000060e+02 2.183710000000000036e+03
8.000000000000000167e-02 1.744080000000000075e-01 3.047129999999999939e+01 1.193105000000000047e+02 2.184770000000000437e+03
8.100000000000000255e-02 1.745355000000000101e-01 3.155874999999999986e+01 1.229704999999999870e+02 2.185835000000000036e+03
8.200000000000000344e-02 1.746639999999999859e-01 3.261260000000000048e+01 1.267150000000000034e+02 2.186920000000000073e+03
8.300000000000000433e-02 1.747950000000000059e-01 3.363700000000000045e+01 1.305355000000000132e+02 2.188015000000000327e+03
8.400000000000000522e-02 1.749275000000000135e-01 3.463044999999999618e+01 1.344080000000000155e+02 2.189130000000000109e+03
8.500000000000000611e-02 1.750614999999999810e-01 3.558615000000000350e+01 1.382940000000000111e+02 2.190250000000000000e+03
8.600000000000000699e-02 1.751945000000000030e-01 3.649289999999999878e+01 1.421430000000000007e+02 2.191369999999999891e+03
8.700000000000000788e-02 1.753259999999999819e-01 3.733615000000000350e+01 1.458979999999999961e+02 2.192475000000000364e+03
8.800000000000000877e-02 1.754545000000000132e-01 3.809895000000000209e+01 1.494985000000000070e+02 2.193555000000000291e+03
8.899999999999999578e-02 1.755769999999999831e-01 3.876359999999999673e+01 1.528854999999999791e+02 2.194585000000000036e+03
8.999999999999999667e-02 1.756929999999999881e-01 3.931244999999999834e+01 1.560029999999999859e+02 2.195559999999999945e+03
9.099999999999999756e-02 1.757994999999999974e-01 3.972914999999999708e+01 1.588019999999999925e+02 2.196465000000000146e+03
9.199999999999999845e-02 1.758954999999999824e-01 3.999994999999999834e+01 1.612425000000000068e+02 2.197284999999999854e+03
9.299999999999999933e-02 1.759799999999999975e-01 4.011419999999999675e+01 1.632944999999999993e+02 2.198005000000000109e+03
9.400000000000000022e-02 1.760519999999999863e-01 4.006530000000000058e+01 1.649414999999999907e+02 2.198625000000000000e+03
9.500000000000000111e-02 1.761115000000000042e-01 3.985155000000000314e+01 1.661794999999999902e+02 2.199130000000000109e+03
9.600000000000000200e-02 1.761570000000000080e-01 3.947594999999999743e+01 1.670154999999999745e+02 2.199530000000000200e+03
9.700000000000000289e-02 1.761900000000000133e-01 3.894629999999999370e+01 1.674724999999999966e+02 2.199819999999999709e+03
9.800000000000000377e-02 1.762104999999999921e-01 3.827530000000000143e+01 1.675824999999999818e+02 2.200005000000000109e+03
9.900000000000000466e-02 1.762199999999999878e-01 3.747939999999999827e+01 1.673874999999999886e+02 2.200095000000000255e+03
1.000000000000000056e-01 1.762190000000000145e-01 3.657840000000000202e+01 1.669375000000000000e+02 2.200104999999999563e+03
1.010000000000000064e-01 1.762099999999999778e-01 3.559430000000000405e+01 1.662860000000000014e+02 2.200034999999999854e+03
1.020000000000000073e-01 1.761939999999999895e-01 3.455034999999999457e+01 1.654884999999999877e+02 2.199909999999999854e+03
1.030000000000000082e-01 1.761729999999999963e-01 3.346999999999999886e+01 1.645999999999999943e+02 2.199739999999999782e+03
1.040000000000000091e-01 1.761484999999999856e-01 3.237584999999999980e+01 1.636700000000000159e+02 2.199545000000000073e+03
1.050000000000000100e-01 1.761225000000000152e-01 3.128865000000000052e+01 1.627450000000000045e+02 2.199324999999999818e+03
1.059999999999999970e-01 1.760955000000000159e-01 3.022659999999999769e+01 1.618619999999999948e+02 2.199099999999999909e+03
1.069999999999999979e-01 1.760694999999999899e-01 2.920474999999999710e+01 1.610500000000000114e+02 2.198880000000000109e+03
1.079999999999999988e-01 1.760455000000000214e-01 2.823440000000000083e+01 1.603290000000000077e+02 2.198675000000000182e+03
1.089999999999999997e-01 1.760234999999999994e-01 2.732280000000000086e+01 1.597094999999999914e+02 2.198489999999999782e+03
1.100000000000000006e-01 1.760039999999999938e-01 2.647330000000000183e+01 1.591899999999999977e+02 2.198319999999999709e+03
1.110000000000000014e-01 1.759864999999999902e-01 2.568505000000000038e+01 1.587629999999999768e+02 2.198170000000000073e+03
1.120000000000000023e-01 1.759729999999999905e-01 2.495360000000000156e+01 1.584099999999999966e+02 2.198045000000000073e+03
1.130000000000000032e-01 1.759600000000000053e-01 2.427120000000000033e+01 1.581064999999999827e+02 2.197939999999999600e+03
1.140000000000000041e-01 1.759489999999999943e-01 2.362749999999999773e+01 1.578234999999999957e+02 2.197840000000000146e+03
1.150000000000000050e-01 1.759379999999999833e-01 2.301024999999999920e+01 1.575275000000000034e+02 2.197739999999999782e+03
1.160000000000000059e-01 1.759264999999999857e-01 2.240630000000000166e+01 1.571845000000000141e+02 2.197645000000000437e+03
1.170000000000000068e-01 1.759129999999999860e-01 2.180214999999999748e+01 1.567609999999999957e+02 2.197524999999999636e+03
1.180000000000000077e-01 1.758970000000000256e-01 2.118520000000000181e+01 1.562284999999999968e+02 2.197390000000000327e+03
1.190000000000000085e-01 1.758774999999999922e-01 2.054420000000000002e+01 1.555610000000000070e+02 2.197230000000000018e+03
1.200000000000000094e-01 1.758534999999999959e-01 1.987024999999999864e+01 1.547415000000000020e+02 2.197029999999999745e+03
1.209999999999999964e-01 1.758250000000000091e-01 1.915729999999999933e+01 1.537599999999999909e+02 2.196789999999999964e+03
1.219999999999999973e-01 1.757920000000000038e-01 1.840245000000000175e+01 1.526144999999999925e+02 2.196510000000000218e+03
1.229999999999999982e-01 1.757529999999999926e-01 1.760634999999999906e+01 1.513145000000000095e+02 2.196185000000000400e+03
1.239999999999999991e-01 1.757095000000000184e-01 1.677304999999999779e+01 1.498750000000000000e+02 2.195819999999999709e+03
1.250000000000000000e-01 1.756619999999999848e-01 1.590985000000000049e+01 1.483224999999999909e+02 2.195425000000000182e+03
1.260000000000000009e-01 1.756105000000000027e-01 1.502684999999999960e+01 1.466865000000000236e+02 2.194994999999999891e+03
1.270000000000000018e-01 1.755565000000000042e-01 1.413644999999999996e+01 1.450045000000000073e+02 2.194550000000000182e+03
1.280000000000000027e-01 1.755019999999999913e-01 1.325264999999999915e+01 1.433149999999999977e+02 2.194090000000000146e+03
1.290000000000000036e-01 1.754459999999999908e-01 1.239010000000000034e+01 1.416574999999999989e+02 2.193619999999999891e+03
1.300000000000000044e-01 1.753919999999999924e-01 1.156345500000000115e+01 1.400709999999999980e+02 2.193164999999999964e+03
1.310000000000000053e-01 1.753395000000000092e-01 1.078655499999999989e+01 1.385900000000000034e+02 2.192730000000000018e+03
1.320000000000000062e-01 1.752905000000000157e-01 1.007147499999999951e+01 1.372445000000000164e+02 2.192314999999999600e+03
1.330000000000000071e-01 1.752464999999999995e-01 9.428315000000001334e+00 1.360570000000000164e+02 2.191940000000000055e+03
1.340000000000000080e-01 1.752060000000000006e-01 8.864525000000000432e+00 1.350444999999999993e+02 2.191599999999999909e+03
1.350000000000000089e-01 1.751714999999999800e-01 8.384610000000000340e+00 1.342139999999999986e+02 2.191309999999999945e+03
1.360000000000000098e-01 1.751429999999999931e-01 7.990274999999999572e+00 1.335670000000000073e+02 2.191059999999999945e+03
1.370000000000000107e-01 1.751199999999999979e-01 7.680240000000000400e+00 1.330964999999999918e+02 2.190860000000000127e+03
1.380000000000000115e-01 1.751020000000000076e-01 7.450624999999999609e+00 1.327895000000000039e+02 2.190710000000000036e+03
1.390000000000000124e-01 1.750900000000000234e-01 7.295219999999999594e+00 1.326290000000000191e+02 2.190595000000000255e+03
1.400000000000000133e-01 1.750825000000000020e-01 7.205904999999999561e+00 1.325919999999999845e+02 2.190525000000000091e+03
1.410000000000000142e-01 1.750785000000000258e-01 7.173144999999999882e+00 1.326550000000000011e+02 2.190484999999999673e+03
1.420000000000000151e-01 1.750780000000000114e-01 7.186420000000000030e+00 1.327920000000000016e+02 2.190480000000000018e+03
1.430000000000000160e-01 1.750800000000000134e-01 7.234774999999999956e+00 1.329780000000000086e+02 2.190489999999999782e+03
1.440000000000000169e-01 1.750835000000000030e-01 7.307215000000000238e+00 1.331884999999999764e+02 2.190515000000000327e+03
1.450000000000000178e-01 1.750884999999999803e-01 7.393155000000000143e+00 1.334000000000000057e+02 2.190550000000000182e+03
1.459999999999999909e-01 1.750935000000000130e-01 7.482759999999999856e+00 1.335924999999999727e+02 2.190590000000000146e+03
1.469999999999999918e-01 1.750980000000000036e-01 7.567270000000000607e+00 1.337495000000000118e+02 2.190630000000000109e+03
1.479999999999999927e-01 1.751014999999999933e-01 7.639234999999999332e+00 1.338575000000000159e+02 2.190659999999999854e+03
1.489999999999999936e-01 1.751039999999999819e-01 7.692684999999999995e+00 1.339064999999999941e+02 2.190675000000000182e+03
1.499999999999999944e-01 1.751050000000000106e-01 7.723245000000000360e+00 1.338899999999999864e+02 2.190685000000000400e+03
1.509999999999999953e-01 1.751034999999999953e-01 7.728160000000000807e+00 1.338064999999999998e+02 2.190670000000000073e+03
1.519999999999999962e-01 1.751004999999999923e-01 7.706295000000000783e+00 1.336574999999999989e+02 2.190644999999999982e+03
1.529999999999999971e-01 1.750955000000000150e-01 7.657975000000000421e+00 1.334465000000000146e+02 2.190605000000000018e+03
1.539999999999999980e-01 1.750879999999999936e-01 7.584855000000000125e+00 1.331814999999999998e+02 2.190550000000000182e+03
1.549999999999999989e-01 1.750794999999999990e-01 7.489684999999999704e+00 1.328704999999999927e+02 2.190480000000000018e+03
1.559999999999999998e-01 1.750694999999999890e-01 7.376020000000000465e+00 1.325244999999999891e+02 2.190399999999999636e+03
1.570000000000000007e-01 1.750585000000000058e-01 7.247965000000000657e+00 1.321544999999999845e+02 2.190310000000000400e+03
1.580000000000000016e-01 1.750464999999999938e-01 7.109799999999999898e+00 1.317710000000000150e+02 2.190210000000000036e+03
1.590000000000000024e-01 1.750345000000000095e-01 6.965754999999999697e+00 1.313835000000000264e+02 2.190109999999999673e+03
