# t [s], A [cm^2], U [cm/s], P [cPa], c [cm/s]
1.000000000000000021e-03 4.582890000000000019e-01 5.517300000000002758e-03 9.024860000000001037e+01 1.670255000000000109e+03
2.000000000000000042e-03 4.582804999999999795e-01 -5.173164999999999535e-03 9.021965000000000146e+01 1.670250000000000000e+03
3.000000000000000062e-03 4.583085000000000075e-01 6.292994999999998451e-02 9.029275000000001228e+01 1.670264999999999873e+03
4.000000000000000083e-03 4.583450000000000024e-01 1.627754499999999882e-01 9.042034999999999911e+01 1.670295000000000073e+03
5.000000000000000104e-03 4.583404999999999840e-01 1.715689999999999993e-01 9.041755000000000564e+01 1.670295000000000073e+03
6.000000000000000125e-03 4.582984999999999420e-01 8.817500000000000338e-02 9.024370000000000402e+01 1.670255000000000109e+03
7.000000000000000146e-03 4.582634999999999903e-01 1.538549999999999640e-02 9.002315000000000111e+01 1.670204999999999927e+03
8.000000000000000167e-03 4.582240000000000202e-01 -7.897499999999996190e-02 8.974000000000000909e+01 1.670144999999999982e+03
9.000000000000001055e-03 4.581524999999999626e-01 -2.661899999999999267e-01 8.930039999999999623e+01 1.670039999999999964e+03
1.000000000000000194e-02 4.580459999999999532e-01 -5.580499999999999350e-01 8.866204999999999359e+01 1.669894999999999982e+03
1.099999999999999936e-02 4.578960000000000252e-01 -9.713149999999999284e-01 8.777360000000000184e+01 1.669695000000000164e+03
1.200000000000000025e-02 4.576894999999999714e-01 -1.527765000000000040e+00 8.657005000000000905e+01 1.669420000000000073e+03
1.300000000000000114e-02 4.574365000000000236e-01 -2.189904999999999990e+00 8.505924999999999159e+01 1.669065000000000055e+03
1.400000000000000203e-02 4.571724999999999817e-01 -2.845170000000000421e+00 8.336390000000000100e+01 1.668654999999999973e+03
1.499999999999999944e-02 4.569374999999999964e-01 -3.360803000000000207e+00 8.166749999999998977e+01 1.668235000000000127e+03
1.600000000000000033e-02 4.567535000000000345e-01 -3.648531150000000167e+00 8.012295000000000300e+01 1.667825000000000045e+03
1.700000000000000122e-02 4.566194999999999560e-01 -3.691757500000000025e+00 7.879590000000000316e+01 1.667454999999999927e+03
1.800000000000000211e-02 4.565130000000000021e-01 -3.534011000000000013e+00 7.765985000000000582e+01 1.667115000000000009e+03
1.900000000000000300e-02 4.564080000000000359e-01 -3.248119500000000048e+00 7.662720000000000198e+01 1.666800000000000182e+03
2.000000000000000042e-02 4.562819999999999654e-01 -2.903985000000000039e+00 7.559409999999999741e+01 1.666480000000000018e+03
2.100000000000000130e-02 4.561239999999999739e-01 -2.545590950000000241e+00 7.448005000000000564e+01 1.666144999999999982e+03
2.200000000000000219e-02 4.559355000000000491e-01 -2.181919999999999860e+00 7.325274999999999181e+01 1.665784999999999854e+03
2.299999999999999961e-02 4.557289999999999952e-01 -1.792379999999999862e+00 7.193104999999999905e+01 1.665405000000000200e+03
2.400000000000000050e-02 4.555209999999999537e-01 -1.343054999999999888e+00 7.056864999999999100e+01 1.665010000000000218e+03
2.500000000000000139e-02 4.553234999999999921e-01 -8.066449999999998344e-01 6.922655000000000314e+01 1.664619999999999891e+03
2.600000000000000228e-02 4.551410000000000178e-01 -1.783400000000001651e-01 6.794565000000000055e+01 1.664240000000000009e+03
2.700000000000000316e-02 4.549680000000000391e-01 5.171199999999998020e-01 6.672890000000001010e+01 1.663865000000000009e+03
2.800000000000000058e-02 4.547919999999999741e-01 1.228084999999999871e+00 6.553674999999999784e+01 1.663500000000000000e+03
2.900000000000000147e-02 4.545955000000000412e-01 1.886279999999999957e+00 6.429540000000000077e+01 1.663130000000000109e+03
3.000000000000000236e-02 4.543605000000000560e-01 2.421780000000000044e+00 6.291575000000000273e+01 1.662730000000000018e+03
3.099999999999999978e-02 4.540750000000000064e-01 2.778970000000000162e+00 6.131714999999999804e+01 1.662284999999999854e+03
3.200000000000000067e-02 4.537364999999999871e-01 2.929559999999999498e+00 5.945045000000000357e+01 1.661784999999999854e+03
3.300000000000000155e-02 4.533515000000000184e-01 2.878845000000000098e+00 5.731454999999999700e+01 1.661220000000000027e+03
3.400000000000000244e-02 4.529360000000000053e-01 2.663200000000000234e+00 5.495935000000000059e+01 1.660605000000000018e+03
3.500000000000000333e-02 4.525115000000000665e-01 2.339930000000000287e+00 5.247695000000000221e+01 1.659954999999999927e+03
3.600000000000000422e-02 4.521005000000000162e-01 1.973999999999999755e+00 4.998375000000000057e+01 1.659300000000000182e+03
3.700000000000000511e-02 4.517219999999999569e-01 1.625275000000000247e+00 4.759985000000000355e+01 1.658659999999999854e+03
3.799999999999999906e-02 4.513915000000000011e-01 1.340444999999999443e+00 4.543240000000000123e+01 1.658070000000000164e+03
3.899999999999999994e-02 4.511159999999999615e-01 1.149585000000000079e+00 4.356405000000000172e+01 1.657539999999999964e+03
4.000000000000000083e-02 4.508995000000000086e-01 1.067405000000000159e+00 4.204954999999999643e+01 1.657095000000000027e+03
4.100000000000000172e-02 4.507419999999999760e-01 1.097310000000000230e+00 4.091705000000000325e+01 1.656740000000000009e+03
4.200000000000000261e-02 4.506424999999999459e-01 1.236790000000000056e+00 4.017430000000000234e+01 1.656485000000000127e+03
4.300000000000000350e-02 4.505974999999999842e-01 1.482611600000000029e+00 3.981629999999999825e+01 1.656339999999999918e+03
4.400000000000000439e-02 4.506065000000000209e-01 1.834629999999999761e+00 3.983294999999999675e+01 1.656285000000000082e+03
4.499999999999999833e-02 4.506679999999999575e-01 2.297505000000000130e+00 4.021495000000000175e+01 1.656329999999999927e+03
4.599999999999999922e-02 4.507839999999999625e-01 2.880142000000000202e+00 4.095640000000000214e+01 1.656480000000000018e+03
4.700000000000000011e-02 4.509545000000000359e-01 3.593294500000000280e+00 4.205445000000000277e+01 1.656720000000000027e+03
4.800000000000000100e-02 4.511809999999999987e-01 4.446263000000000076e+00 4.350629999999999598e+01 1.657055000000000064e+03
4.900000000000000189e-02 4.514619999999999744e-01 5.443680000000000518e+00 4.530559999999999832e+01 1.657490000000000009e+03
5.000000000000000278e-02 4.517950000000000021e-01 6.583274499999999918e+00 4.743850000000000477e+01 1.658015000000000100e+03
5.100000000000000366e-02 4.521755000000000080e-01 7.854759999999999742e+00 4.988115000000000521e+01 1.658619999999999891e+03
5.200000000000000455e-02 4.525959999999999983e-01 9.240465000000000373e+00 5.259945000000000448e+01 1.659304999999999836e+03
5.300000000000000544e-02 4.530490000000000350e-01 1.071691000000000038e+01 5.554970000000000141e+01 1.660059999999999945e+03
5.399999999999999939e-02 4.535249999999999559e-01 1.225704499999999975e+01 5.868200000000000216e+01 1.660869999999999891e+03
5.500000000000000028e-02 4.540159999999999751e-01 1.383294500000000049e+01 6.194339999999999691e+01 1.661724999999999909e+03
5.600000000000000117e-02 4.545144999999999880e-01 1.541814499999999910e+01 6.528209999999999980e+01 1.662605000000000018e+03
5.700000000000000205e-02 4.550140000000000295e-01 1.698944000000000187e+01 6.865115000000000123e+01 1.663509999999999991e+03
5.800000000000000294e-02 4.555084999999999829e-01 1.852830000000000155e+01 7.201095000000000823e+01 1.664414999999999964e+03
5.900000000000000383e-02 4.559954999999999981e-01 2.002084999999999937e+01 7.533140000000000214e+01 1.665320000000000164e+03
6.000000000000000472e-02 4.564734999999999765e-01 2.145819999999999794e+01 7.859199999999999875e+01 1.666219999999999800e+03
6.099999999999999867e-02 4.569415000000000004e-01 2.283549999999999969e+01 8.178159999999999741e+01 1.667110000000000127e+03
6.199999999999999956e-02 4.574000000000000288e-01 2.415109999999999957e+01 8.489709999999999468e+01 1.667980000000000018e+03
6.300000000000000044e-02 4.578499999999999792e-01 2.540565000000000140e+01 8.794169999999999732e+01 1.668840000000000146e+03
6.400000000000000133e-02 4.582935000000000203e-01 2.660125000000000028e+01 9.092295000000000016e+01 1.669679999999999836e+03
6.500000000000000222e-02 4.587314999999999587e-01 2.774050000000000082e+01 9.385144999999999982e+01 1.670509999999999991e+03
6.600000000000000311e-02 4.591660000000000186e-01 2.882600000000000051e+01 9.673705000000001064e+01 1.671329999999999927e+03
6.700000000000000400e-02 4.595974999999999921e-01 2.985979999999999990e+01 9.958939999999999770e+01 1.672139999999999873e+03
6.800000000000000488e-02 4.600270000000000192e-01 3.084270000000000067e+01 1.024151999999999987e+02 1.672940000000000055e+03
6.900000000000000577e-02 4.604544999999999888e-01 3.177434999999999832e+01 1.052178499999999985e+02 1.673740000000000009e+03
7.000000000000000666e-02 4.608784999999999688e-01 3.265290000000000248e+01 1.079964999999999975e+02 1.674530000000000200e+03
7.100000000000000755e-02 4.612985000000000557e-01 3.347505000000000308e+01 1.107445000000000022e+02 1.675315000000000055e+03
7.200000000000000844e-02 4.617124999999999702e-01 3.423644999999999783e+01 1.134540000000000077e+02 1.676090000000000146e+03
7.300000000000000933e-02 4.621175000000000144e-01 3.493220000000000169e+01 1.161105000000000018e+02 1.676855000000000018e+03
7.399999999999999634e-02 4.625120000000000342e-01 3.555700000000000216e+01 1.187005000000000052e+02 1.677599999999999909e+03
7.499999999999999722e-02 4.628925000000000400e-01 3.610580000000000211e+01 1.212065000000000055e+02 1.678324999999999818e+03
7.599999999999999811e-02 4.632574999999999887e-01 3.657434999999999548e+01 1.236119999999999948e+02 1.679025000000000091e+03
7.699999999999999900e-02 4.636044999999999749e-01 3.695909999999999940e+01 1.259035000000000082e+02 1.679690000000000055e+03
7.799999999999999989e-02 4.639314999999999967e-01 3.725780000000000314e+01 1.280670000000000073e+02 1.680335000000000036e+03
7.900000000000000078e-02 4.642374999999999696e-01 3.746925000000000239e+01 1.300910000000000082e+02 1.680934999999999945e+03
8.000000000000000167e-02 4.645215000000000316e-01 3.759329999999999927e+01 1.319669999999999845e+02 1.681494999999999891e+03
8.100000000000000255e-02 4.647830000000000017e-01 3.763060000000000116e+01 1.336895000000000095e+02 1.682014999999999873e+03
8.200000000000000344e-02 4.650205000000000033e-01 3.758280000000000598e+01 1.352545000000000073e+02 1.682490000000000009e+03
8.300000000000000433e-02 4.652350000000000096e-01 3.745215000000000316e+01 1.366605000000000132e+02 1.682924999999999955e+03
8.400000000000000522e-02 4.654260000000000064e-01 3.724200000000000443e+01 1.379085000000000036e+02 1.683315000000000055e+03
8.500000000000000611e-02 4.655945000000000222e-01 3.695619999999999550e+01 1.390014999999999930e+02 1.683660000000000082e+03
8.600000000000000699e-02 4.657405000000000017e-01 3.659975000000000023e+01 1.399440000000000168e+02 1.683970000000000027e+03
8.700000000000000788e-02 4.658660000000000023e-01 3.617865000000000464e+01 1.407434999999999832e+02 1.684230000000000018e+03
8.800000000000000877e-02 4.659714999999999829e-01 3.569969999999999999e+01 1.414100000000000250e+02 1.684454999999999927e+03
8.899999999999999578e-02 4.660600000000000298e-01 3.517085000000000150e+01 1.419540000000000077e+02 1.684644999999999982e+03
8.999999999999999667e-02 4.661330000000000195e-01 3.460070000000000334e+01 1.423884999999999934e+02 1.684800000000000182e+03
9.099999999999999756e-02 4.661919999999999953e-01 3.399844999999999828e+01 1.427284999999999968e+02 1.684924999999999955e+03
9.199999999999999845e-02 4.662405000000000022e-01 3.337324999999999875e+01 1.429894999999999925e+02 1.685025000000000091e+03
9.299999999999999933e-02 4.662800000000000278e-01 3.273414999999999964e+01 1.431854999999999905e+02 1.685110000000000127e+03
9.400000000000000022e-02 4.663129999999999775e-01 3.208955000000000268e+01 1.433315000000000055e+02 1.685170000000000073e+03
9.500000000000000111e-02 4.663404999999999911e-01 3.144679999999999609e+01 1.434415000000000191e+02 1.685220000000000027e+03
9.600000000000000200e-02 4.663650000000000295e-01 3.081184999999999974e+01 1.435254999999999939e+02 1.685255000000000109e+03
9.700000000000000289e-02 4.663869999999999960e-01 3.018919999999999959e+01 1.435935000000000059e+02 1.685284999999999854e+03
9.800000000000000377e-02 4.664070000000000160e-01 2.958170000000000144e+01 1.436505000000000223e+02 1.685315000000000055e+03
9.900000000000000466e-02 4.664254999999999929e-01 2.899065000000000225e+01 1.437009999999999934e+02 1.685329999999999927e+03
1.000000000000000056e-01 4.664424999999999821e-01 2.841584999999999894e+01 1.437439999999999998e+02 1.685349999999999909e+03
1.010000000000000064e-01 4.664564999999999406e-01 2.785575000000000045e+01 1.437785000000000082e+02 1.685365000000000009e+03
1.020000000000000073e-01 4.664675000000000349e-01 2.730794999999999817e+01 1.437994999999999948e+02 1.685365000000000009e+03
1.030000000000000082e-01 4.664739999999999998e-01 2.676899999999999835e+01 1.438025000000000091e+02 1.685369999999999891e+03
1.040000000000000091e-01 4.664760000000000018e-01 2.623525000000000063e+01 1.437794999999999845e+02 1.685369999999999891e+03
1.050000000000000100e-01 4.664715000000000389e-01 2.570260000000000034e+01 1.437250000000000227e+02 1.685355000000000018e+03
1.059999999999999970e-01 4.664595000000000269e-01 2.516709999999999781e+01 1.436310000000000002e+02 1.685329999999999927e+03
1.069999999999999979e-01 4.664395000000000069e-01 2.462490000000000023e+01 1.434915000000000020e+02 1.685295000000000073e+03
1.079999999999999988e-01 4.664105000000000056e-01 2.407274999999999920e+01 1.433000000000000114e+02 1.685244999999999891e+03
1.089999999999999997e-01 4.663725000000000231e-01 2.350775000000000148e+01 1.430540000000000020e+02 1.685184999999999945e+03
1.100000000000000006e-01 4.663255000000000039e-01 2.292814999999999870e+01 1.427500000000000000e+02 1.685105000000000018e+03
1.110000000000000014e-01 4.662684999999999746e-01 2.233279999999999887e+01 1.423874999999999886e+02 1.685009999999999991e+03
1.120000000000000023e-01 4.662024999999999642e-01 2.172169999999999845e+01 1.419675000000000011e+02 1.684905000000000200e+03
1.130000000000000032e-01 4.661285000000000012e-01 2.109584999999999866e+01 1.414935000000000116e+02 1.684779999999999973e+03
1.140000000000000041e-01 4.660475000000000034e-01 2.045730000000000004e+01 1.409714999999999918e+02 1.684644999999999982e+03
1.150000000000000050e-01 4.659610000000000141e-01 1.980920000000000059e+01 1.404080000000000155e+02 1.684494999999999891e+03
1.160000000000000059e-01 4.658694999999999364e-01 1.915554999999999808e+01 1.398125000000000000e+02 1.684335000000000036e+03
1.170000000000000068e-01 4.657760000000000233e-01 1.850110000000000099e+01 1.391960000000000264e+02 1.684164999999999964e+03
1.180000000000000077e-01 4.656814999999999705e-01 1.785119999999999862e+01 1.385690000000000168e+02 1.684000000000000000e+03
1.190000000000000085e-01 4.655880000000000019e-01 1.721159999999999712e+01 1.379445000000000050e+02 1.683825000000000045e+03
1.200000000000000094e-01 4.654975000000000085e-01 1.658810000000000073e+01 1.373340000000000032e+02 1.683659999999999854e+03
1.209999999999999964e-01 4.654125000000000068e-01 1.598655000000000115e+01 1.367500000000000000e+02 1.683494999999999891e+03
1.219999999999999973e-01 4.653334999999999555e-01 1.541225000000000023e+01 1.362035000000000196e+02 1.683339999999999918e+03
1.229999999999999982e-01 4.652620000000000089e-01 1.486999999999999922e+01 1.357044999999999959e+02 1.683195000000000164e+03
1.239999999999999991e-01 4.651999999999999469e-01 1.436394999999999911e+01 1.352610000000000241e+02 1.683065000000000055e+03
1.250000000000000000e-01 4.651480000000000059e-01 1.389724999999999966e+01 1.348804999999999836e+02 1.682950000000000045e+03
1.260000000000000009e-01 4.651059999999999639e-01 1.347189999999999799e+01 1.345664999999999907e+02 1.682845000000000027e+03
1.270000000000000018e-01 4.650744999999999463e-01 1.308909999999999840e+01 1.343215000000000146e+02 1.682764999999999873e+03
1.280000000000000027e-01 4.650529999999999942e-01 1.274879999999999924e+01 1.341444999999999936e+02 1.682704999999999927e+03
1.290000000000000036e-01 4.650410000000000377e-01 1.244989999999999952e+01 1.340339999999999918e+02 1.682660000000000082e+03
1.300000000000000044e-01 4.650385000000000213e-01 1.219045000000000023e+01 1.339859999999999900e+02 1.682630000000000109e+03
1.310000000000000053e-01 4.650434999999999985e-01 1.196775000000000055e+01 1.339939999999999998e+02 1.682619999999999891e+03
1.320000000000000062e-01 4.650549999999999962e-01 1.177854999999999919e+01 1.340519999999999925e+02 1.682619999999999891e+03
1.330000000000000071e-01 4.650724999999999998e-01 1.161909999999999954e+01 1.341519999999999868e+02 1.682634999999999991e+03
1.340000000000000080e-01 4.650950000000000362e-01 1.148545000000000016e+01 1.342860000000000014e+02 1.682659999999999854e+03
1.350000000000000089e-01 4.651200000000000334e-01 1.137374999999999936e+01 1.344454999999999814e+02 1.682695000000000164e+03
1.360000000000000098e-01 4.651475000000000470e-01 1.128024999999999878e+01 1.346235000000000070e+02 1.682735000000000127e+03
1.370000000000000107e-01 4.651760000000000339e-01 1.120129999999999981e+01 1.348139999999999930e+02 1.682780000000000200e+03
1.380000000000000115e-01 4.652049999999999796e-01 1.113360499999999931e+01 1.350090000000000146e+02 1.682829999999999927e+03
1.390000000000000124e-01 4.652340000000000364e-01 1.107439000000000107e+01 1.352050000000000125e+02 1.682875000000000000e+03
1.400000000000000133e-01 4.652614999999999945e-01 1.102111999999999981e+01 1.353974999999999795e+02 1.682929999999999836e+03
1.410000000000000142e-01 4.652890000000000081e-01 1.097171499999999966e+01 1.355840000000000032e+02 1.682974999999999909e+03
1.420000000000000151e-01 4.653145000000000198e-01 1.092445999999999984e+01 1.357620000000000005e+02 1.683025000000000091e+03
1.430000000000000160e-01 4.653390000000000026e-01 1.087807499999999905e+01 1.359300000000000068e+02 1.683070000000000164e+03
1.440000000000000169e-01 4.653614999999999835e-01 1.083141999999999960e+01 1.360880000000000223e+02 1.683110000000000127e+03
1.450000000000000178e-01 4.653835000000000055e-01 1.078394000000000119e+01 1.362365000000000066e+02 1.683154999999999973e+03
1.459999999999999909e-01 4.654034999999999700e-01 1.073507500000000014e+01 1.363754999999999882e+02 1.683194999999999936e+03
1.469999999999999918e-01 4.654224999999999612e-01 1.068477499999999836e+01 1.365060000000000002e+02 1.683230000000000018e+03
1.479999999999999927e-01 4.654409999999999936e-01 1.063295499999999905e+01 1.366299999999999955e+02 1.683269999999999982e+03
1.489999999999999936e-01 4.654595000000000260e-01 1.057997499999999924e+01 1.367485000000000070e+02 1.683299999999999955e+03
1.499999999999999944e-01 4.654764999999999597e-01 1.052608999999999995e+01 1.368625000000000114e+02 1.683329999999999927e+03
1.509999999999999953e-01 4.654935000000000045e-01 1.047180000000000000e+01 1.369749999999999943e+02 1.683365000000000009e+03
1.519999999999999962e-01 4.655110000000000081e-01 1.041763500000000064e+01 1.370869999999999891e+02 1.683400000000000091e+03
1.529999999999999971e-01 4.655285000000000117e-01 1.036409000000000091e+01 1.371984999999999957e+02 1.683430000000000064e+03
1.539999999999999980e-01 4.655464999999999742e-01 1.031153499999999923e+01 1.373114999999999952e+02 1.683465000000000146e+03
1.549999999999999989e-01 4.655645000000000477e-01 1.026030000000000086e+01 1.374265000000000043e+02 1.683494999999999891e+03
1.559999999999999998e-01 4.655834999999999835e-01 1.021060999999999908e+01 1.375439999999999827e+02 1.683529999999999973e+03
1.570000000000000007e-01 4.656025000000000302e-01 1.016250999999999927e+01 1.376634999999999991e+02 1.683565000000000055e+03
1.580000000000000016e-01 4.656219999999999803e-01 1.011586000000000141e+01 1.377849999999999966e+02 1.683595000000000027e+03
1.590000000000000024e-01 4.656414999999999860e-01 1.007042500000000018e+01 1.379069999999999823e+02 1.683630000000000109e+03
