# t [s], A [cm^2], U [cm/s], P [cPa], c [cm/s]
1.000000000000000021e-03 1.422390000000000043e-01 4.214829999999999965e-01 1.039789999999999992e+02 2.035099999999999909e+03
2.000000000000000042e-03 1.421979999999999911e-01 2.159073999999999938e+00 1.002327999999999975e+02 2.034630000000000109e+03
3.000000000000000062e-03 1.420850000000000168e-01 4.260272500000000129e+00 9.522254999999999825e+01 2.033400000000000091e+03
4.000000000000000083e-03 1.419294999999999862e-01 6.598856500000000125e+00 8.994110000000000582e+01 2.031735000000000127e+03
5.000000000000000104e-03 1.417634999999999867e-01 9.085454999999999615e+00 8.532585000000000264e+01 2.029960000000000036e+03
6.000000000000000125e-03 1.416024999999999923e-01 1.151615999999999929e+01 8.159485000000000809e+01 2.028265000000000100e+03
7.000000000000000146e-03 1.414509999999999934e-01 1.367177500000000023e+01 7.842429999999998813e+01 2.026704999999999927e+03
8.000000000000000167e-03 1.413125000000000075e-01 1.548749999999999893e+01 7.558299999999999841e+01 2.025295000000000073e+03
9.000000000000001055e-03 1.411904999999999966e-01 1.701055000000000206e+01 7.313849999999999341e+01 2.024065000000000055e+03
1.000000000000000194e-02 1.410865000000000036e-01 1.827485000000000070e+01 7.115250000000000341e+01 2.023039999999999964e+03
1.099999999999999936e-02 1.410015000000000018e-01 1.929550000000000054e+01 6.958220000000000027e+01 2.022210000000000036e+03
1.200000000000000025e-02 1.409330000000000027e-01 2.008794999999999931e+01 6.835625000000000284e+01 2.021539999999999964e+03
1.300000000000000114e-02 1.408774999999999888e-01 2.065934999999999988e+01 6.737350000000000705e+01 2.021019999999999982e+03
1.400000000000000203e-02 1.408324999999999994e-01 2.102674999999999983e+01 6.652790000000000248e+01 2.020595000000000027e+03
1.499999999999999944e-02 1.407955000000000179e-01 2.126314999999999955e+01 6.584159999999999968e+01 2.020259999999999991e+03
1.600000000000000033e-02 1.407710000000000072e-01 2.150735000000000241e+01 6.555525000000000091e+01 2.020039999999999964e+03
1.700000000000000122e-02 1.407660000000000022e-01 2.190765000000000029e+01 6.602740000000000009e+01 2.020010000000000218e+03
1.800000000000000211e-02 1.407864999999999811e-01 2.254144999999999754e+01 6.749954999999999927e+01 2.020224999999999909e+03
1.900000000000000300e-02 1.408345000000000014e-01 2.336919999999999931e+01 6.990139999999999532e+01 2.020694999999999936e+03
2.000000000000000042e-02 1.409024999999999861e-01 2.424820000000000064e+01 7.282345000000000823e+01 2.021380000000000109e+03
2.100000000000000130e-02 1.409794999999999798e-01 2.499179999999999779e+01 7.565720000000000312e+01 2.022150000000000091e+03
2.200000000000000219e-02 1.410504999999999953e-01 2.544059999999999988e+01 7.781534999999999513e+01 2.022875000000000000e+03
2.299999999999999961e-02 1.411034999999999928e-01 2.551490000000000080e+01 7.892895000000000039e+01 2.023434999999999945e+03
2.400000000000000050e-02 1.411324999999999941e-01 2.523179999999999978e+01 7.894509999999999650e+01 2.023755000000000109e+03
2.500000000000000139e-02 1.411379999999999857e-01 2.468529999999999802e+01 7.810144999999999982e+01 2.023835000000000036e+03
2.600000000000000228e-02 1.411250000000000004e-01 2.400254999999999939e+01 7.680195000000000505e+01 2.023730000000000018e+03
2.700000000000000316e-02 1.411025000000000196e-01 2.329605000000000103e+01 7.545500000000001251e+01 2.023514999999999873e+03
2.800000000000000058e-02 1.410779999999999812e-01 2.263094999999999857e+01 7.433865000000000123e+01 2.023275000000000091e+03
2.900000000000000147e-02 1.410555000000000003e-01 2.201485000000000269e+01 7.353804999999999836e+01 2.023054999999999836e+03
3.000000000000000236e-02 1.410369999999999957e-01 2.141104999999999947e+01 7.296119999999999095e+01 2.022869999999999891e+03
3.099999999999999978e-02 1.410200000000000065e-01 2.076449999999999818e+01 7.241480000000001382e+01 2.022695000000000164e+03
3.200000000000000067e-02 1.410000000000000142e-01 2.003150000000000119e+01 7.170335000000000036e+01 2.022500000000000000e+03
3.300000000000000155e-02 1.409750000000000170e-01 1.920264999999999844e+01 7.071739999999999782e+01 2.022250000000000000e+03
3.400000000000000244e-02 1.409429999999999850e-01 1.831305000000000049e+01 6.948539999999999850e+01 2.021945000000000164e+03
3.500000000000000333e-02 1.409074999999999911e-01 1.743704999999999927e+01 6.817534999999999457e+01 2.021595000000000027e+03
3.600000000000000422e-02 1.408725000000000116e-01 1.666969999999999885e+01 6.704890000000000327e+01 2.021250000000000000e+03
3.700000000000000511e-02 1.408449999999999980e-01 1.610170000000000101e+01 6.638389999999999702e+01 2.020964999999999918e+03
3.799999999999999906e-02 1.408314999999999984e-01 1.579400000000000048e+01 6.639175000000000182e+01 2.020819999999999936e+03
3.899999999999999994e-02 1.408349999999999880e-01 1.576184999999999903e+01 6.715404999999999802e+01 2.020840000000000146e+03
4.000000000000000083e-02 1.408579999999999832e-01 1.597025000000000006e+01 6.859675000000000011e+01 2.021049999999999955e+03
4.100000000000000172e-02 1.408959999999999935e-01 1.634125000000000227e+01 7.050405000000000655e+01 2.021420000000000073e+03
4.200000000000000261e-02 1.409455000000000013e-01 1.676989999999999981e+01 7.256470000000000198e+01 2.021894999999999982e+03
4.300000000000000350e-02 1.409969999999999835e-01 1.714365000000000094e+01 7.443465000000000487e+01 2.022410000000000082e+03
4.400000000000000439e-02 1.410440000000000027e-01 1.736074999999999946e+01 7.579964999999999975e+01 2.022869999999999891e+03
4.499999999999999833e-02 1.410764999999999936e-01 1.734364999999999668e+01 7.642379999999999995e+01 2.023204999999999927e+03
4.599999999999999922e-02 1.410905000000000076e-01 1.704650000000000176e+01 7.617690000000000339e+01 2.023355000000000018e+03
4.700000000000000011e-02 1.410814999999999986e-01 1.645570000000000022e+01 7.503825000000000500e+01 2.023279999999999973e+03
4.800000000000000100e-02 1.410500000000000087e-01 1.558564999999999934e+01 7.308160000000000878e+01 2.022974999999999909e+03
4.900000000000000189e-02 1.409964999999999968e-01 1.447155000000000058e+01 7.044745000000000346e+01 2.022449999999999818e+03
5.000000000000000278e-02 1.409234999999999793e-01 1.316124999999999901e+01 6.731175000000000352e+01 2.021740000000000009e+03
5.100000000000000366e-02 1.408369999999999900e-01 1.170848499999999959e+01 6.385859999999999559e+01 2.020875000000000000e+03
5.200000000000000455e-02 1.407395000000000174e-01 1.016794000000000153e+01 6.026040000000000418e+01 2.019910000000000082e+03
5.300000000000000544e-02 1.406359999999999832e-01 8.592729999999999535e+00 5.666864999999999952e+01 2.018884999999999991e+03
5.399999999999999939e-02 1.405315000000000036e-01 7.034094999999999764e+00 5.321280000000000143e+01 2.017835000000000036e+03
5.500000000000000028e-02 1.404289999999999983e-01 5.541560000000000485e+00 5.000450000000000017e+01 2.016815000000000055e+03
5.600000000000000117e-02 1.403320000000000123e-01 4.163896000000000264e+00 4.714430000000000121e+01 2.015840000000000146e+03
5.700000000000000205e-02 1.402444999999999942e-01 2.949163099999999815e+00 4.472675000000000267e+01 2.014960000000000036e+03
5.800000000000000294e-02 1.401689999999999880e-01 1.944099000000000244e+00 4.284309999999999974e+01 2.014195000000000164e+03
5.900000000000000383e-02 1.401084999999999969e-01 1.192506000000000066e+00 4.157979999999999876e+01 2.013585000000000036e+03
6.000000000000000472e-02 1.400660000000000238e-01 7.328819999999999224e-01 4.101440000000000197e+01 2.013140000000000100e+03
6.099999999999999867e-02 1.400440000000000018e-01 5.958014999999999839e-01 4.120834999999999582e+01 2.012905000000000200e+03
6.199999999999999956e-02 1.400440000000000018e-01 8.014350000000000085e-01 4.220090000000000430e+01 2.012885000000000218e+03
6.300000000000000044e-02 1.400675000000000114e-01 1.357730000000000103e+00 4.400294999999999845e+01 2.013095000000000027e+03
6.400000000000000133e-02 1.401149999999999896e-01 2.259514499999999870e+00 4.659404999999999575e+01 2.013545000000000073e+03
6.500000000000000222e-02 1.401860000000000051e-01 3.488698000000000299e+00 4.992265000000000441e+01 2.014230000000000018e+03
6.600000000000000311e-02 1.402789999999999870e-01 5.015419999999999767e+00 5.390870000000000317e+01 2.015139999999999873e+03
6.700000000000000400e-02 1.403920000000000168e-01 6.800089999999999968e+00 5.844935000000000258e+01 2.016244999999999891e+03
6.800000000000000488e-02 1.405224999999999946e-01 8.795740000000000336e+00 6.342614999999999981e+01 2.017534999999999854e+03
6.900000000000000577e-02 1.406669999999999865e-01 1.095089499999999916e+01 6.871235000000000070e+01 2.018965000000000146e+03
7.000000000000000666e-02 1.408220000000000027e-01 1.321239500000000078e+01 7.418120000000000402e+01 2.020505000000000109e+03
7.100000000000000755e-02 1.409839999999999982e-01 1.552780000000000094e+01 7.971224999999999739e+01 2.022125000000000000e+03
7.200000000000000844e-02 1.411495000000000111e-01 1.784789999999999921e+01 8.519769999999999754e+01 2.023785000000000082e+03
7.300000000000000933e-02 1.413159999999999972e-01 2.012884999999999991e+01 9.054679999999999040e+01 2.025465000000000146e+03
7.399999999999999634e-02 1.414799999999999947e-01 2.233384999999999820e+01 9.568954999999999700e+01 2.027115000000000009e+03
7.499999999999999722e-02 1.416395000000000015e-01 2.443424999999999869e+01 1.005787499999999994e+02 2.028735000000000127e+03
7.599999999999999811e-02 1.417930000000000024e-01 2.641024999999999778e+01 1.051903000000000077e+02 2.030300000000000182e+03
7.699999999999999900e-02 1.419400000000000106e-01 2.825110000000000099e+01 1.095225000000000080e+02 2.031799999999999955e+03
7.799999999999999989e-02 1.420794999999999975e-01 2.995455000000000112e+01 1.135930000000000035e+02 2.033230000000000018e+03
7.900000000000000078e-02 1.422129999999999783e-01 3.152544999999999931e+01 1.174360000000000070e+02 2.034599999999999909e+03
8.000000000000000167e-02 1.423395000000000077e-01 3.297464999999999691e+01 1.210965000000000060e+02 2.035900000000000091e+03
8.100000000000000255e-02 1.424610000000000043e-01 3.431705000000000183e+01 1.246250000000000000e+02 2.037155000000000200e+03
8.200000000000000344e-02 1.425795000000000257e-01 3.556935000000000002e+01 1.280715000000000146e+02 2.038375000000000000e+03
8.300000000000000433e-02 1.426950000000000163e-01 3.674859999999999616e+01 1.314814999999999827e+02 2.039569999999999936e+03
8.400000000000000522e-02 1.428090000000000193e-01 3.787010000000000076e+01 1.348930000000000007e+02 2.040750000000000000e+03
8.500000000000000611e-02 1.429230000000000222e-01 3.894635000000000247e+01 1.383310000000000173e+02 2.041920000000000073e+03
8.600000000000000699e-02 1.430365000000000109e-01 3.998600000000000421e+01 1.418054999999999950e+02 2.043099999999999909e+03
8.700000000000000788e-02 1.431509999999999727e-01 4.099295000000000044e+01 1.453149999999999977e+02 2.044284999999999854e+03
8.800000000000000877e-02 1.432660000000000045e-01 4.196689999999999543e+01 1.488425000000000011e+02 2.045470000000000027e+03
8.899999999999999578e-02 1.433809999999999807e-01 4.290290000000000248e+01 1.523605000000000018e+02 2.046659999999999854e+03
8.999999999999999667e-02 1.434949999999999837e-01 4.379229999999999734e+01 1.558329999999999984e+02 2.047840000000000146e+03
9.099999999999999756e-02 1.436074999999999990e-01 4.462330000000000041e+01 1.592154999999999916e+02 2.049005000000000109e+03
9.199999999999999845e-02 1.437169999999999837e-01 4.538200000000000500e+01 1.624604999999999961e+02 2.050140000000000327e+03
9.299999999999999933e-02 1.438229999999999786e-01 4.605339999999999634e+01 1.655199999999999818e+02 2.051235000000000127e+03
9.400000000000000022e-02 1.439225000000000088e-01 4.662219999999999942e+01 1.683489999999999895e+02 2.052269999999999982e+03
9.500000000000000111e-02 1.440150000000000041e-01 4.707394999999999641e+01 1.709044999999999845e+02 2.053239999999999782e+03
9.600000000000000200e-02 1.440994999999999915e-01 4.739569999999999794e+01 1.731514999999999986e+02 2.054125000000000000e+03
9.700000000000000289e-02 1.441749999999999976e-01 4.757699999999999818e+01 1.750620000000000118e+02 2.054914999999999964e+03
9.800000000000000377e-02 1.442404999999999937e-01 4.761025000000000063e+01 1.766175000000000068e+02 2.055605000000000018e+03
9.900000000000000466e-02 1.442954999999999932e-01 4.749134999999999707e+01 1.778064999999999998e+02 2.056184999999999945e+03
1.000000000000000056e-01 1.443389999999999951e-01 4.721989999999999554e+01 1.786299999999999955e+02 2.056655000000000200e+03
1.010000000000000064e-01 1.443720000000000003e-01 4.679934999999999690e+01 1.790985000000000014e+02 2.057005000000000109e+03
1.020000000000000073e-01 1.443939999999999946e-01 4.623699999999999477e+01 1.792284999999999968e+02 2.057250000000000000e+03
1.030000000000000082e-01 1.444059999999999788e-01 4.554364999999999952e+01 1.790484999999999900e+02 2.057380000000000109e+03
1.040000000000000091e-01 1.444080000000000086e-01 4.473324999999999818e+01 1.785919999999999845e+02 2.057414999999999964e+03
1.050000000000000100e-01 1.444010000000000016e-01 4.382235000000000014e+01 1.778979999999999961e+02 2.057355000000000018e+03
1.059999999999999970e-01 1.443865000000000010e-01 4.282934999999999803e+01 1.770099999999999909e+02 2.057220000000000255e+03
1.069999999999999979e-01 1.443655000000000077e-01 4.177380000000000138e+01 1.759720000000000084e+02 2.057010000000000218e+03
1.079999999999999988e-01 1.443399999999999961e-01 4.067570000000000618e+01 1.748290000000000077e+02 2.056750000000000000e+03
1.089999999999999997e-01 1.443105000000000082e-01 3.955455000000000609e+01 1.736239999999999952e+02 2.056444999999999709e+03
1.100000000000000006e-01 1.442775000000000030e-01 3.842865000000000464e+01 1.723949999999999818e+02 2.056114999999999782e+03
1.110000000000000014e-01 1.442434999999999967e-01 3.731459999999999866e+01 1.711769999999999925e+02 2.055759999999999764e+03
1.120000000000000023e-01 1.442090000000000038e-01 3.622655000000000314e+01 1.699979999999999905e+02 2.055405000000000200e+03
1.130000000000000032e-01 1.441744999999999832e-01 3.517600000000000193e+01 1.688785000000000025e+02 2.055050000000000182e+03
1.140000000000000041e-01 1.441414999999999780e-01 3.417134999999999678e+01 1.678329999999999984e+02 2.054704999999999927e+03
1.150000000000000050e-01 1.441095000000000015e-01 3.321770000000000067e+01 1.668675000000000068e+02 2.054380000000000109e+03
1.160000000000000059e-01 1.440799999999999859e-01 3.231714999999999804e+01 1.659814999999999827e+02 2.054065000000000055e+03
1.170000000000000068e-01 1.440514999999999990e-01 3.146845000000000070e+01 1.651674999999999898e+02 2.053769999999999982e+03
1.180000000000000077e-01 1.440259999999999874e-01 3.066774999999999807e+01 1.644120000000000061e+02 2.053489999999999782e+03
1.190000000000000085e-01 1.440009999999999901e-01 2.990865000000000151e+01 1.636970000000000027e+02 2.053230000000000018e+03
1.200000000000000094e-01 1.439770000000000216e-01 2.918290000000000006e+01 1.629995000000000118e+02 2.052980000000000018e+03
1.209999999999999964e-01 1.439535000000000120e-01 2.848059999999999903e+01 1.622959999999999923e+02 2.052730000000000018e+03
1.219999999999999973e-01 1.439294999999999880e-01 2.779129999999999967e+01 1.615604999999999905e+02 2.052480000000000018e+03
1.229999999999999982e-01 1.439050000000000051e-01 2.710415000000000063e+01 1.607680000000000007e+02 2.052220000000000255e+03
1.239999999999999991e-01 1.438785000000000203e-01 2.640874999999999773e+01 1.598960000000000150e+02 2.051945000000000164e+03
1.250000000000000000e-01 1.438500000000000056e-01 2.569570000000000221e+01 1.589244999999999948e+02 2.051644999999999982e+03
1.260000000000000009e-01 1.438185000000000158e-01 2.495710000000000051e+01 1.578379999999999939e+02 2.051319999999999709e+03
1.270000000000000018e-01 1.437835000000000085e-01 2.418699999999999761e+01 1.566270000000000095e+02 2.050960000000000036e+03
1.280000000000000027e-01 1.437454999999999983e-01 2.338179999999999836e+01 1.552864999999999895e+02 2.050565000000000055e+03
1.290000000000000036e-01 1.437030000000000252e-01 2.254044999999999987e+01 1.538199999999999932e+02 2.050135000000000218e+03
1.300000000000000044e-01 1.436574999999999935e-01 2.166450000000000031e+01 1.522344999999999970e+02 2.049664999999999964e+03
1.310000000000000053e-01 1.436085000000000000e-01 2.075804999999999723e+01 1.505459999999999923e+02 2.049159999999999854e+03
1.320000000000000062e-01 1.435559999999999892e-01 1.982784999999999798e+01 1.487740000000000009e+02 2.048625000000000000e+03
1.330000000000000071e-01 1.435015000000000041e-01 1.888260000000000005e+01 1.469435000000000002e+02 2.048059999999999945e+03
1.340000000000000080e-01 1.434449999999999892e-01 1.793274999999999864e+01 1.450835000000000150e+02 2.047480000000000018e+03
1.350000000000000089e-01 1.433875000000000011e-01 1.698995000000000033e+01 1.432239999999999895e+02 2.046889999999999873e+03
1.360000000000000098e-01 1.433300000000000129e-01 1.606670000000000087e+01 1.413965000000000032e+02 2.046300000000000182e+03
1.370000000000000107e-01 1.432725000000000248e-01 1.517534999999999989e+01 1.396320000000000050e+02 2.045710000000000036e+03
1.380000000000000115e-01 1.432174999999999976e-01 1.432784999999999975e+01 1.379594999999999914e+02 2.045139999999999873e+03
1.390000000000000124e-01 1.431645000000000001e-01 1.353505000000000003e+01 1.364029999999999916e+02 2.044590000000000146e+03
1.400000000000000133e-01 1.431149999999999922e-01 1.280630000000000024e+01 1.349850000000000136e+02 2.044079999999999927e+03
1.410000000000000142e-01 1.430690000000000017e-01 1.214917499999999961e+01 1.337205000000000155e+02 2.043605000000000018e+03
1.420000000000000151e-01 1.430275000000000019e-01 1.156897999999999982e+01 1.326195000000000164e+02 2.043174999999999955e+03
1.430000000000000160e-01 1.429910000000000070e-01 1.106870999999999938e+01 1.316875000000000000e+02 2.042789999999999964e+03
1.440000000000000169e-01 1.429590000000000027e-01 1.064911999999999992e+01 1.309225000000000136e+02 2.042460000000000036e+03
1.450000000000000178e-01 1.429320000000000035e-01 1.030870499999999979e+01 1.303195000000000050e+02 2.042175000000000182e+03
1.459999999999999909e-01 1.429095000000000226e-01 1.004382999999999981e+01 1.298669999999999902e+02 2.041940000000000055e+03
1.469999999999999918e-01 1.428919999999999912e-01 9.849254999999999427e+00 1.295509999999999877e+02 2.041750000000000000e+03
1.479999999999999927e-01 1.428784999999999916e-01 9.718164999999999054e+00 1.293545000000000016e+02 2.041605000000000018e+03
1.489999999999999936e-01 1.428685000000000094e-01 9.642590000000000217e+00 1.292580000000000098e+02 2.041500000000000000e+03
1.499999999999999944e-01 1.428625000000000034e-01 9.614005000000000578e+00 1.292420000000000186e+02 2.041425000000000182e+03
1.509999999999999953e-01 1.428579999999999850e-01 9.623439999999998662e+00 1.292864999999999895e+02 2.041375000000000000e+03
1.519999999999999962e-01 1.428564999999999974e-01 9.661979999999999791e+00 1.293729999999999905e+02 2.041355000000000018e+03
1.529999999999999971e-01 1.428564999999999974e-01 9.720970000000001221e+00 1.294819999999999993e+02 2.041349999999999909e+03
1.539999999999999980e-01 1.428574999999999984e-01 9.792374999999999829e+00 1.295994999999999777e+02 2.041355000000000018e+03
1.549999999999999989e-01 1.428584999999999994e-01 9.869015000000000981e+00 1.297115000000000009e+02 2.041369999999999891e+03
1.559999999999999998e-01 1.428605000000000014e-01 9.944735000000001435e+00 1.298070000000000164e+02 2.041384999999999764e+03
1.570000000000000007e-01 1.428619999999999890e-01 1.001428999999999903e+01 1.298779999999999859e+02 2.041399999999999864e+03
1.580000000000000016e-01 1.428629999999999900e-01 1.007378500000000088e+01 1.299189999999999827e+02 2.041409999999999854e+03
1.590000000000000024e-01 1.428634999999999766e-01 1.012044500000000014e+01 1.299269999999999925e+02 2.041409999999999854e+03
