# t [s], A [cm^2], U [cm/s], P [cPa], c [cm/s]
1.000000000000000021e-03 6.193760000000000376e-01 7.712000000000003574e-03 1.042125000000000057e+02 1.766025000000000091e+03
2.000000000000000042e-03 6.193645000000000955e-01 -2.451487999999999931e-03 1.041744999999999948e+02 1.766019999999999982e+03
3.000000000000000062e-03 6.194245000000000445e-01 1.179346500000000020e-01 1.043174999999999955e+02 1.766045000000000073e+03
4.000000000000000083e-03 6.194629999999999859e-01 2.161739500000000036e-01 1.044399999999999977e+02 1.766075000000000045e+03
5.000000000000000104e-03 6.194109999999999339e-01 1.485524999999999762e-01 1.042870000000000061e+02 1.766045000000000073e+03
6.000000000000000125e-03 6.193385000000000140e-01 3.200349999999996253e-02 1.039685000000000059e+02 1.765974999999999909e+03
7.000000000000000146e-03 6.192739999999999911e-01 -8.230599999999999028e-02 1.035869999999999891e+02 1.765894999999999982e+03
8.000000000000000167e-03 6.191524999999999945e-01 -3.288599999999999302e-01 1.029745000000000061e+02 1.765759999999999991e+03
9.000000000000001055e-03 6.189660000000000162e-01 -7.280449999999999422e-01 1.020562500000000057e+02 1.765565000000000055e+03
1.000000000000000194e-02 6.187080000000000357e-01 -1.285050000000000026e+00 1.007777000000000100e+02 1.765289999999999964e+03
1.099999999999999936e-02 6.183499999999999552e-01 -2.039344999999999963e+00 9.902790000000000248e+01 1.764909999999999854e+03
1.200000000000000025e-02 6.179065000000000252e-01 -2.935414999999999885e+00 9.681440000000000623e+01 1.764414999999999964e+03
1.300000000000000114e-02 6.174569999999999226e-01 -3.777964999999999574e+00 9.437340000000000373e+01 1.763860000000000127e+03
1.400000000000000203e-02 6.170875000000000110e-01 -4.344560500000000047e+00 9.204695000000000960e+01 1.763305000000000064e+03
1.499999999999999944e-02 6.168359999999999399e-01 -4.513431999999999888e+00 9.008594999999999686e+01 1.762800000000000182e+03
1.600000000000000033e-02 6.166774999999999896e-01 -4.302959999999999674e+00 8.854319999999999879e+01 1.762369999999999891e+03
1.700000000000000122e-02 6.165525000000000588e-01 -3.832955000000000112e+00 8.729050000000000864e+01 1.761994999999999891e+03
1.800000000000000211e-02 6.163954999999999851e-01 -3.254360000000000142e+00 8.610550000000000637e+01 1.761639999999999873e+03
1.900000000000000300e-02 6.161655000000000326e-01 -2.683142000000000138e+00 8.478005000000000280e+01 1.761259999999999991e+03
2.000000000000000042e-02 6.158565000000000289e-01 -2.160849999999999937e+00 8.320459999999999923e+01 1.760829999999999927e+03
2.100000000000000130e-02 6.154969999999999608e-01 -1.654200000000000115e+00 8.139840000000000941e+01 1.760355000000000018e+03
2.200000000000000219e-02 6.151280000000000081e-01 -1.090184999999999960e+00 7.947690000000000055e+01 1.759844999999999800e+03
2.299999999999999961e-02 6.147850000000000259e-01 -4.057100000000000151e-01 7.758029999999999404e+01 1.759329999999999927e+03
2.400000000000000050e-02 6.144789999999999974e-01 4.131799999999996587e-01 7.580105000000000359e+01 1.758844999999999800e+03
2.500000000000000139e-02 6.141955000000000053e-01 1.316085000000000171e+00 7.413970000000000482e+01 1.758375000000000000e+03
2.600000000000000228e-02 6.138980000000000548e-01 2.197540000000000049e+00 7.249809999999999377e+01 1.757914999999999964e+03
2.700000000000000316e-02 6.135405000000000442e-01 2.923925000000000551e+00 7.070714999999999861e+01 1.757429999999999836e+03
2.800000000000000058e-02 6.130835000000000035e-01 3.369924999999999393e+00 6.857835000000000036e+01 1.756875000000000000e+03
2.900000000000000147e-02 6.125050000000000772e-01 3.454714999999999758e+00 6.596604999999999563e+01 1.756230000000000018e+03
3.000000000000000236e-02 6.118120000000000225e-01 3.166380000000000194e+00 6.282035000000000480e+01 1.755465000000000146e+03
3.099999999999999978e-02 6.110379999999999701e-01 2.564960000000000129e+00 5.921085000000000065e+01 1.754599999999999909e+03
3.200000000000000067e-02 6.102335000000000953e-01 1.763255000000000017e+00 5.531380000000000052e+01 1.753664999999999964e+03
3.300000000000000155e-02 6.094559999999999977e-01 8.952300000000006364e-01 5.136959999999999837e+01 1.752710000000000036e+03
3.400000000000000244e-02 6.087545000000000872e-01 8.552999999999943981e-02 4.763174999999999670e+01 1.751775000000000091e+03
3.500000000000000333e-02 6.081635000000000790e-01 -5.709549999999996572e-01 4.432224999999999682e+01 1.750934999999999945e+03
3.600000000000000422e-02 6.077019999999999644e-01 -1.016954999999999831e+00 4.160410000000000252e+01 1.750210000000000036e+03
3.700000000000000511e-02 6.073749999999999982e-01 -1.230080000000000062e+00 3.957129999999999370e+01 1.749639999999999873e+03
3.799999999999999906e-02 6.071779999999999955e-01 -1.213330000000000020e+00 3.825409999999999400e+01 1.749234999999999900e+03
3.899999999999999994e-02 6.071005000000000429e-01 -9.826774999999998705e-01 3.763474999999999682e+01 1.749000000000000000e+03
4.000000000000000083e-02 6.071325000000000749e-01 -5.553514999999999979e-01 3.766825000000000045e+01 1.748924999999999955e+03
4.100000000000000172e-02 6.072640000000000260e-01 5.824499999999999122e-02 3.830204999999999416e+01 1.749000000000000000e+03
4.200000000000000261e-02 6.074915000000000731e-01 8.571849999999998637e-01 3.948954999999999416e+01 1.749219999999999800e+03
4.300000000000000350e-02 6.078120000000000189e-01 1.847224999999999895e+00 4.119404999999999717e+01 1.749579999999999927e+03
4.400000000000000439e-02 6.082224999999999993e-01 3.034384999999999888e+00 4.338609999999999900e+01 1.750059999999999945e+03
4.499999999999999833e-02 6.087195000000000800e-01 4.417879999999999363e+00 4.603470000000000084e+01 1.750664999999999964e+03
4.599999999999999922e-02 6.092934999999999324e-01 5.984995000000000509e+00 4.909879999999999711e+01 1.751369999999999891e+03
4.700000000000000011e-02 6.099315000000000708e-01 7.708854849999999814e+00 5.252190000000000225e+01 1.752170000000000073e+03
4.800000000000000100e-02 6.106179999999999941e-01 9.550409999999999400e+00 5.623049999999999926e+01 1.753054999999999836e+03
4.900000000000000189e-02 6.113330000000000153e-01 1.146218499999999985e+01 6.013799999999999812e+01 1.754005000000000109e+03
5.000000000000000278e-02 6.120594999999999786e-01 1.339379500000000078e+01 6.415149999999999864e+01 1.754985000000000127e+03
5.100000000000000366e-02 6.127795000000000325e-01 1.529766499999999851e+01 6.818025000000000091e+01 1.755985000000000127e+03
5.200000000000000455e-02 6.134794999999999554e-01 1.713335500000000167e+01 7.214410000000000878e+01 1.756980000000000018e+03
5.300000000000000544e-02 6.141510000000000025e-01 1.887040000000000006e+01 7.597984999999999900e+01 1.757960000000000036e+03
5.399999999999999939e-02 6.147894999999999888e-01 2.048910000000000053e+01 7.964494999999999436e+01 1.758909999999999854e+03
5.500000000000000028e-02 6.153929999999999678e-01 2.198044999999999760e+01 8.311804999999999666e+01 1.759819999999999936e+03
5.600000000000000117e-02 6.159645000000000259e-01 2.334380000000000166e+01 8.639750000000000796e+01 1.760690000000000055e+03
5.700000000000000205e-02 6.165080000000000560e-01 2.458525000000000205e+01 8.949790000000000134e+01 1.761509999999999991e+03
5.800000000000000294e-02 6.170299999999999674e-01 2.571574999999999989e+01 9.244575000000000387e+01 1.762304999999999836e+03
5.900000000000000383e-02 6.175370000000000026e-01 2.674889999999999901e+01 9.527564999999999884e+01 1.763065000000000055e+03
6.000000000000000472e-02 6.180354999999999599e-01 2.769960000000000022e+01 9.802495000000000402e+01 1.763804999999999836e+03
6.099999999999999867e-02 6.185324999999999296e-01 2.858294999999999675e+01 1.007321499999999901e+02 1.764529999999999973e+03
6.199999999999999956e-02 6.190324999999999855e-01 2.941254999999999953e+01 1.034301499999999976e+02 1.765250000000000000e+03
6.300000000000000044e-02 6.195405000000000495e-01 3.019960000000000022e+01 1.061465000000000032e+02 1.765970000000000027e+03
6.400000000000000133e-02 6.200565000000000104e-01 3.095149999999999935e+01 1.088979999999999961e+02 1.766704999999999927e+03
6.500000000000000222e-02 6.205819999999999670e-01 3.167115000000000080e+01 1.116889999999999930e+02 1.767434999999999945e+03
6.600000000000000311e-02 6.211134999999999851e-01 3.235699999999999932e+01 1.145140000000000100e+02 1.768179999999999836e+03
6.700000000000000400e-02 6.216459999999999209e-01 3.300280000000000058e+01 1.173520000000000039e+02 1.768930000000000064e+03
6.800000000000000488e-02 6.221740000000000048e-01 3.359904999999999831e+01 1.201760000000000019e+02 1.769675000000000182e+03
6.900000000000000577e-02 6.226890000000000480e-01 3.413374999999999915e+01 1.229489999999999981e+02 1.770409999999999854e+03
7.000000000000000666e-02 6.231845000000000301e-01 3.459400000000000119e+01 1.256304999999999836e+02 1.771125000000000000e+03
7.100000000000000755e-02 6.236530000000000129e-01 3.496730000000000160e+01 1.281809999999999832e+02 1.771804999999999836e+03
7.200000000000000844e-02 6.240879999999999761e-01 3.524255000000000138e+01 1.305625000000000000e+02 1.772449999999999818e+03
7.300000000000000933e-02 6.244834999999999692e-01 3.541089999999999804e+01 1.327420000000000186e+02 1.773045000000000073e+03
7.399999999999999634e-02 6.248369999999999758e-01 3.546630000000000393e+01 1.346940000000000168e+02 1.773595000000000027e+03
7.499999999999999722e-02 6.251444999999999919e-01 3.540554999999999808e+01 1.363990000000000009e+02 1.774074999999999818e+03
7.599999999999999811e-02 6.254059999999999064e-01 3.522849999999999682e+01 1.378489999999999895e+02 1.774494999999999891e+03
7.699999999999999900e-02 6.256204999999999128e-01 3.493809999999999860e+01 1.390409999999999968e+02 1.774849999999999909e+03
7.799999999999999989e-02 6.257909999999999862e-01 3.454009999999999536e+01 1.399805000000000064e+02 1.775139999999999873e+03
7.900000000000000078e-02 6.259190000000000031e-01 3.404289999999999594e+01 1.406815000000000282e+02 1.775365000000000009e+03
8.000000000000000167e-02 6.260090000000000376e-01 3.345745000000000147e+01 1.411624999999999943e+02 1.775534999999999854e+03
8.100000000000000255e-02 6.260650000000000936e-01 3.279690000000000083e+01 1.414480000000000075e+02 1.775650000000000091e+03
8.200000000000000344e-02 6.260930000000000106e-01 3.207580000000000098e+01 1.415654999999999859e+02 1.775719999999999800e+03
8.300000000000000433e-02 6.260989999999999611e-01 3.131020000000000181e+01 1.415470000000000255e+02 1.775750000000000000e+03
8.400000000000000522e-02 6.260874999999999080e-01 3.051624999999999943e+01 1.414239999999999782e+02 1.775744999999999891e+03
8.500000000000000611e-02 6.260649999999999826e-01 2.971010000000000062e+01 1.412284999999999968e+02 1.775724999999999909e+03
8.600000000000000699e-02 6.260364999999999958e-01 2.890650000000000119e+01 1.409904999999999973e+02 1.775684999999999945e+03
8.700000000000000788e-02 6.260065000000000213e-01 2.811854999999999905e+01 1.407359999999999900e+02 1.775630000000000109e+03
8.800000000000000877e-02 6.259784999999999933e-01 2.735695000000000121e+01 1.404875000000000114e+02 1.775574999999999818e+03
8.899999999999999578e-02 6.259544999999999693e-01 2.662914999999999921e+01 1.402610000000000241e+02 1.775525000000000091e+03
8.999999999999999667e-02 6.259365000000000068e-01 2.593984999999999985e+01 1.400665000000000191e+02 1.775474999999999909e+03
9.099999999999999756e-02 6.259230000000000071e-01 2.529019999999999868e+01 1.399074999999999989e+02 1.775434999999999945e+03
9.199999999999999845e-02 6.259144999999999293e-01 2.467859999999999943e+01 1.397814999999999941e+02 1.775400000000000091e+03
9.299999999999999933e-02 6.259080000000000199e-01 2.410054999999999836e+01 1.396800000000000068e+02 1.775365000000000009e+03
9.400000000000000022e-02 6.259014999999999995e-01 2.354959999999999809e+01 1.395900000000000034e+02 1.775340000000000146e+03
9.500000000000000111e-02 6.258915000000000450e-01 2.301745000000000019e+01 1.394959999999999809e+02 1.775304999999999836e+03
9.600000000000000200e-02 6.258740000000000414e-01 2.249494999999999933e+01 1.393789999999999907e+02 1.775275000000000091e+03
9.700000000000000289e-02 6.258470000000000422e-01 2.197249999999999659e+01 1.392199999999999989e+02 1.775230000000000018e+03
9.800000000000000377e-02 6.258060000000000844e-01 2.144055000000000177e+01 1.390000000000000000e+02 1.775174999999999955e+03
9.900000000000000466e-02 6.257485000000000408e-01 2.089039999999999964e+01 1.387019999999999982e+02 1.775099999999999909e+03
1.000000000000000056e-01 6.256725000000000758e-01 2.031469999999999843e+01 1.383114999999999952e+02 1.775009999999999991e+03
1.010000000000000064e-01 6.255755000000000621e-01 1.970770000000000266e+01 1.378165000000000191e+02 1.774884999999999991e+03
1.020000000000000073e-01 6.254580000000000695e-01 1.906609999999999872e+01 1.372125000000000057e+02 1.774740000000000009e+03
1.030000000000000082e-01 6.253199999999999870e-01 1.838905000000000101e+01 1.364985000000000070e+02 1.774569999999999936e+03
1.040000000000000091e-01 6.251625000000000654e-01 1.767839999999999989e+01 1.356779999999999973e+02 1.774365000000000009e+03
1.050000000000000100e-01 6.249884999999999469e-01 1.693860000000000099e+01 1.347615000000000123e+02 1.774144999999999982e+03
1.059999999999999970e-01 6.248009999999999398e-01 1.617670000000000030e+01 1.337655000000000030e+02 1.773900000000000091e+03
1.069999999999999979e-01 6.246045000000000069e-01 1.540190000000000126e+01 1.327079999999999984e+02 1.773634999999999991e+03
1.079999999999999988e-01 6.244035000000000002e-01 1.462506499999999932e+01 1.316134999999999877e+02 1.773365000000000009e+03
1.089999999999999997e-01 6.242015000000000757e-01 1.385823000000000071e+01 1.305079999999999814e+02 1.773085000000000036e+03
1.100000000000000006e-01 6.240054999999999907e-01 1.311382000000000048e+01 1.294174999999999898e+02 1.772809999999999945e+03
1.110000000000000014e-01 6.238190000000000124e-01 1.240404000000000018e+01 1.283695000000000164e+02 1.772534999999999854e+03
1.120000000000000023e-01 6.236470000000000624e-01 1.174047499999999999e+01 1.273870000000000005e+02 1.772275000000000091e+03
1.130000000000000032e-01 6.234925000000000050e-01 1.113303499999999957e+01 1.264939999999999998e+02 1.772039999999999964e+03
1.140000000000000041e-01 6.233585000000000376e-01 1.058985000000000021e+01 1.257060000000000031e+02 1.771820000000000164e+03
1.150000000000000050e-01 6.232469999999999954e-01 1.011690500000000092e+01 1.250374999999999943e+02 1.771634999999999991e+03
1.160000000000000059e-01 6.231590000000000185e-01 9.717510000000000758e+00 1.244954999999999927e+02 1.771474999999999909e+03
1.170000000000000068e-01 6.230949999999999545e-01 9.392549999999999955e+00 1.240829999999999984e+02 1.771349999999999909e+03
1.180000000000000077e-01 6.230525000000000091e-01 9.140420000000000655e+00 1.237959999999999923e+02 1.771255000000000109e+03
1.190000000000000085e-01 6.230305000000000426e-01 8.957250000000000156e+00 1.236270000000000095e+02 1.771190000000000055e+03
1.200000000000000094e-01 6.230265000000000386e-01 8.837225000000000108e+00 1.235639999999999930e+02 1.771150000000000091e+03
1.209999999999999964e-01 6.230374999999999108e-01 8.773044999999999760e+00 1.235929999999999893e+02 1.771134999999999991e+03
1.219999999999999973e-01 6.230594999999999883e-01 8.756344999999999601e+00 1.236959999999999980e+02 1.771144999999999982e+03
1.229999999999999982e-01 6.230904999999999916e-01 8.778200000000000003e+00 1.238559999999999945e+02 1.771170000000000073e+03
1.239999999999999991e-01 6.231269999999999865e-01 8.829509999999999081e+00 1.240544999999999902e+02 1.771199999999999818e+03
1.250000000000000000e-01 6.231655000000000388e-01 8.901419999999999888e+00 1.242740000000000009e+02 1.771250000000000000e+03
1.260000000000000009e-01 6.232035000000000213e-01 8.985680000000000334e+00 1.245005000000000024e+02 1.771295000000000073e+03
1.270000000000000018e-01 6.232400000000000162e-01 9.074874999999998693e+00 1.247195000000000107e+02 1.771349999999999909e+03
1.280000000000000027e-01 6.232714999999999783e-01 9.162575000000000358e+00 1.249209999999999923e+02 1.771394999999999982e+03
1.290000000000000036e-01 6.232980000000000187e-01 9.243560000000000443e+00 1.250960000000000036e+02 1.771434999999999945e+03
1.300000000000000044e-01 6.233189999999999564e-01 9.313665000000000305e+00 1.252404999999999973e+02 1.771469999999999800e+03
1.310000000000000053e-01 6.233334999999999848e-01 9.370074999999999932e+00 1.253515000000000015e+02 1.771505000000000109e+03
1.320000000000000062e-01 6.233425000000000216e-01 9.411020000000000607e+00 1.254275000000000091e+02 1.771525000000000091e+03
1.330000000000000071e-01 6.233450000000000379e-01 9.435885000000000744e+00 1.254714999999999918e+02 1.771534999999999854e+03
1.340000000000000080e-01 6.233435000000000503e-01 9.445024999999999338e+00 1.254865000000000066e+02 1.771545000000000073e+03
1.350000000000000089e-01 6.233379999999999477e-01 9.439669999999999561e+00 1.254779999999999944e+02 1.771545000000000073e+03
1.360000000000000098e-01 6.233299999999999397e-01 9.421860000000000568e+00 1.254509999999999934e+02 1.771545000000000073e+03
1.370000000000000107e-01 6.233210000000000139e-01 9.393985000000000696e+00 1.254124999999999943e+02 1.771534999999999854e+03
1.380000000000000115e-01 6.233120000000000882e-01 9.359069999999999112e+00 1.253694999999999879e+02 1.771529999999999973e+03
1.390000000000000124e-01 6.233040000000000802e-01 9.319990000000000663e+00 1.253290000000000077e+02 1.771519999999999982e+03
1.400000000000000133e-01 6.232984999999999776e-01 9.279865000000000919e+00 1.252969999999999970e+02 1.771514999999999873e+03
1.410000000000000142e-01 6.232959999999999612e-01 9.241365000000000052e+00 1.252789999999999964e+02 1.771514999999999873e+03
1.420000000000000151e-01 6.232975000000000598e-01 9.206765000000000754e+00 1.252789999999999964e+02 1.771514999999999873e+03
1.430000000000000160e-01 6.233030000000000515e-01 9.177875000000000227e+00 1.252994999999999948e+02 1.771519999999999982e+03
1.440000000000000169e-01 6.233130000000000059e-01 9.155754999999999200e+00 1.253425000000000011e+02 1.771525000000000091e+03
1.450000000000000178e-01 6.233269999999999644e-01 9.140885000000000815e+00 1.254070000000000107e+02 1.771539999999999964e+03
1.459999999999999909e-01 6.233440000000000092e-01 9.133115000000000094e+00 1.254915000000000020e+02 1.771559999999999945e+03
1.469999999999999918e-01 6.233645000000000991e-01 9.131565000000000154e+00 1.255925000000000011e+02 1.771590000000000146e+03
1.479999999999999927e-01 6.233869999999999134e-01 9.135110000000000952e+00 1.257065000000000055e+02 1.771615000000000009e+03
1.489999999999999936e-01 6.234100000000000197e-01 9.142144999999999300e+00 1.258290000000000077e+02 1.771644999999999982e+03
1.499999999999999944e-01 6.234334999999999738e-01 9.151075000000000514e+00 1.259550000000000125e+02 1.771674999999999955e+03
1.509999999999999953e-01 6.234564999999999690e-01 9.160220000000000695e+00 1.260794999999999959e+02 1.771704999999999927e+03
1.519999999999999962e-01 6.234779999999999767e-01 9.168155000000000499e+00 1.261980000000000075e+02 1.771735000000000127e+03
1.529999999999999971e-01 6.234975000000000378e-01 9.173809999999999576e+00 1.263085000000000093e+02 1.771764999999999873e+03
1.539999999999999980e-01 6.235150000000000414e-01 9.176320000000000476e+00 1.264069999999999965e+02 1.771795000000000073e+03
1.549999999999999989e-01 6.235300000000000287e-01 9.175465000000000870e+00 1.264935000000000116e+02 1.771815000000000055e+03
1.559999999999999998e-01 6.235429999999999584e-01 9.171329999999999316e+00 1.265685000000000002e+02 1.771835000000000036e+03
1.570000000000000007e-01 6.235539999999999417e-01 9.164394999999998959e+00 1.266314999999999884e+02 1.771849999999999909e+03
1.580000000000000016e-01 6.235640000000000072e-01 9.155644999999999811e+00 1.266870000000000118e+02 1.771869999999999891e+03
1.590000000000000024e-01 6.235729999999999329e-01 9.146084999999999354e+00 1.267369999999999948e+02 1.771880000000000109e+03
