# t [s], A [cm^2], U [cm/s], P [cPa], c [cm/s]
1.000000000000000021e-03 1.645154999999999812e-01 2.723243499999999928e-01 1.000112500000000040e+02 2.223289999999999964e+03
2.000000000000000042e-03 1.644680000000000031e-01 1.791414999999999758e+00 9.651474999999999227e+01 2.222795000000000073e+03
3.000000000000000062e-03 1.643450000000000188e-01 3.716339500000000129e+00 9.149684999999999491e+01 2.221565000000000055e+03
4.000000000000000083e-03 1.641799999999999926e-01 5.915221999999999980e+00 8.600384999999999991e+01 2.219949999999999818e+03
5.000000000000000104e-03 1.640079999999999871e-01 8.295635000000000758e+00 8.109995000000000687e+01 2.218275000000000091e+03
6.000000000000000125e-03 1.638449999999999906e-01 1.062923999999999936e+01 7.708275000000000432e+01 2.216710000000000036e+03
7.000000000000000146e-03 1.636934999999999918e-01 1.265547500000000092e+01 7.359045000000000414e+01 2.215295000000000073e+03
8.000000000000000167e-03 1.635570000000000079e-01 1.431640999999999941e+01 7.042689999999998918e+01 2.214029999999999745e+03
9.000000000000001055e-03 1.634395000000000153e-01 1.567355000000000054e+01 6.773600000000000421e+01 2.212970000000000255e+03
1.000000000000000194e-02 1.633425000000000016e-01 1.676160000000000139e+01 6.558719999999999573e+01 2.212100000000000364e+03
1.099999999999999936e-02 1.632664999999999811e-01 1.760689999999999955e+01 6.394364999999999810e+01 2.211420000000000073e+03
1.200000000000000025e-02 1.632080000000000197e-01 1.822840000000000060e+01 6.272569999999999624e+01 2.210914999999999964e+03
1.300000000000000114e-02 1.631624999999999881e-01 1.862170000000000059e+01 6.176250000000000284e+01 2.210525000000000091e+03
1.400000000000000203e-02 1.631249999999999922e-01 1.881669999999999732e+01 6.091370000000000573e+01 2.210210000000000036e+03
1.499999999999999944e-02 1.630975000000000064e-01 1.894790000000000063e+01 6.032399999999999807e+01 2.209984999999999673e+03
1.600000000000000033e-02 1.630894999999999984e-01 1.922209999999999752e+01 6.045405000000000229e+01 2.209925000000000182e+03
1.700000000000000122e-02 1.631110000000000060e-01 1.979720000000000013e+01 6.177560000000000429e+01 2.210125000000000000e+03
1.800000000000000211e-02 1.631675000000000209e-01 2.067624999999999957e+01 6.438654999999999973e+01 2.210635000000000218e+03
1.900000000000000300e-02 1.632514999999999938e-01 2.169404999999999717e+01 6.784794999999999732e+01 2.211390000000000327e+03
2.000000000000000042e-02 1.633450000000000180e-01 2.259510000000000218e+01 7.133419999999999561e+01 2.212250000000000000e+03
2.100000000000000130e-02 1.634280000000000177e-01 2.314819999999999922e+01 7.397980000000001155e+01 2.213029999999999745e+03
2.200000000000000219e-02 1.634835000000000038e-01 2.323815000000000097e+01 7.522429999999999950e+01 2.213570000000000164e+03
2.299999999999999961e-02 1.635044999999999971e-01 2.289730000000000132e+01 7.499840000000000373e+01 2.213800000000000182e+03
2.400000000000000050e-02 1.634944999999999871e-01 2.227275000000000205e+01 7.368845000000000312e+01 2.213739999999999782e+03
2.500000000000000139e-02 1.634654999999999858e-01 2.155170000000000030e+01 7.192284999999999684e+01 2.213489999999999782e+03
2.600000000000000228e-02 1.634305000000000063e-01 2.088289999999999935e+01 7.029375000000000284e+01 2.213175000000000182e+03
2.700000000000000316e-02 1.633995000000000031e-01 2.032704999999999984e+01 6.913904999999999745e+01 2.212890000000000327e+03
2.800000000000000058e-02 1.633769999999999945e-01 1.985085000000000122e+01 6.846094999999999686e+01 2.212670000000000073e+03
2.900000000000000147e-02 1.633590000000000042e-01 1.935840000000000316e+01 6.798760000000000048e+01 2.212505000000000109e+03
3.000000000000000236e-02 1.633390000000000120e-01 1.874360000000000070e+01 6.733230000000000359e+01 2.212319999999999709e+03
3.099999999999999978e-02 1.633089999999999820e-01 1.794245000000000090e+01 6.618139999999999645e+01 2.212050000000000182e+03
3.200000000000000067e-02 1.632649999999999935e-01 1.696849999999999881e+01 6.444419999999999504e+01 2.211664999999999964e+03
3.300000000000000155e-02 1.632095000000000073e-01 1.591835000000000022e+01 6.231334999999999980e+01 2.211170000000000073e+03
3.400000000000000244e-02 1.631509999999999905e-01 1.494594999999999985e+01 6.021574999999999989e+01 2.210630000000000109e+03
3.500000000000000333e-02 1.631005000000000094e-01 1.421465000000000067e+01 5.867309999999999803e+01 2.210164999999999964e+03
3.600000000000000422e-02 1.630714999999999804e-01 1.384635000000000105e+01 5.812859999999999872e+01 2.209875000000000000e+03
3.700000000000000511e-02 1.630699999999999927e-01 1.388520000000000110e+01 5.880219999999999914e+01 2.209835000000000036e+03
3.799999999999999906e-02 1.630995000000000084e-01 1.428634999999999877e+01 6.062385000000000446e+01 2.210079999999999927e+03
3.899999999999999994e-02 1.631549999999999945e-01 1.493035000000000068e+01 6.325520000000000209e+01 2.210564999999999600e+03
4.000000000000000083e-02 1.632260000000000100e-01 1.565380000000000038e+01 6.618120000000000402e+01 2.211199999999999818e+03
4.100000000000000172e-02 1.632989999999999997e-01 1.628669999999999973e+01 6.883570000000000277e+01 2.211864999999999782e+03
4.200000000000000261e-02 1.633600000000000052e-01 1.668435000000000201e+01 7.072225000000000250e+01 2.212430000000000291e+03
4.300000000000000350e-02 1.633990000000000165e-01 1.674974999999999881e+01 7.150180000000000291e+01 2.212804999999999836e+03
4.400000000000000439e-02 1.634085000000000121e-01 1.644115000000000038e+01 7.103260000000000218e+01 2.212909999999999854e+03
4.499999999999999833e-02 1.633855000000000168e-01 1.576759999999999984e+01 6.936140000000000327e+01 2.212719999999999800e+03
4.599999999999999922e-02 1.633314999999999906e-01 1.477580000000000027e+01 6.667754999999999654e+01 2.212250000000000000e+03
4.700000000000000011e-02 1.632529999999999815e-01 1.353290000000000148e+01 6.324830000000000041e+01 2.211539999999999964e+03
4.800000000000000100e-02 1.631549999999999945e-01 1.211144999999999960e+01 5.935600000000000165e+01 2.210654999999999745e+03
4.900000000000000189e-02 1.630444999999999811e-01 1.057889499999999927e+01 5.525124999999999886e+01 2.209649999999999636e+03
5.000000000000000278e-02 1.629275000000000029e-01 8.993224999999998914e+00 5.113094999999999857e+01 2.208585000000000036e+03
5.100000000000000366e-02 1.628090000000000093e-01 7.403775000000000439e+00 4.713739999999999952e+01 2.207494999999999891e+03
5.200000000000000455e-02 1.626929999999999765e-01 5.855375000000000441e+00 4.337449999999999761e+01 2.206430000000000291e+03
5.300000000000000544e-02 1.625830000000000053e-01 4.392598999999999698e+00 3.992844999999999800e+01 2.205414999999999964e+03
5.399999999999999939e-02 1.624815000000000009e-01 3.063067449999999692e+00 3.688714999999999833e+01 2.204474999999999909e+03
5.500000000000000028e-02 1.623920000000000086e-01 1.918155999999999750e+00 3.435074999999999790e+01 2.203650000000000091e+03
5.600000000000000117e-02 1.623185000000000044e-01 1.011010000000000186e+00 3.243220000000000169e+01 2.202960000000000036e+03
5.700000000000000205e-02 1.622635000000000050e-01 3.924650000000000638e-01 3.124839999999999662e+01 2.202440000000000055e+03
5.800000000000000294e-02 1.622310000000000141e-01 1.058859999999999801e-01 3.090545000000000186e+01 2.202119999999999891e+03
5.900000000000000383e-02 1.622239999999999793e-01 1.822535000000000127e-01 3.148249999999999815e+01 2.202029999999999745e+03
6.000000000000000472e-02 1.622434999999999850e-01 6.365125000000000366e-01 3.301870000000000260e+01 2.202179999999999836e+03
6.099999999999999867e-02 1.622919999999999918e-01 1.465788500000000161e+00 3.550515000000000043e+01 2.202595000000000255e+03
6.199999999999999956e-02 1.623669999999999836e-01 2.649645500000000098e+00 3.888429999999999609e+01 2.203255000000000109e+03
6.300000000000000044e-02 1.624674999999999869e-01 4.152000000000000135e+00 4.305469999999999686e+01 2.204150000000000091e+03
6.400000000000000133e-02 1.625909999999999855e-01 5.924210000000000420e+00 4.788065000000000282e+01 2.205260000000000218e+03
6.500000000000000222e-02 1.627330000000000165e-01 7.908754999999999313e+00 5.320390000000000441e+01 2.206539999999999964e+03
6.600000000000000311e-02 1.628890000000000060e-01 1.004319500000000076e+01 5.885564999999999714e+01 2.207970000000000255e+03
6.700000000000000400e-02 1.630550000000000055e-01 1.226384000000000007e+01 6.466855000000001041e+01 2.209484999999999673e+03
6.800000000000000488e-02 1.632260000000000100e-01 1.450969999999999871e+01 7.048695000000000732e+01 2.211060000000000400e+03
6.900000000000000577e-02 1.633979999999999877e-01 1.672569999999999979e+01 7.617650000000000432e+01 2.212640000000000327e+03
7.000000000000000666e-02 1.635665000000000036e-01 1.886560000000000059e+01 8.163120000000000687e+01 2.214204999999999927e+03
7.100000000000000755e-02 1.637295000000000000e-01 2.089450000000000074e+01 8.677940000000000964e+01 2.215719999999999800e+03
7.200000000000000844e-02 1.638840000000000019e-01 2.279005000000000081e+01 9.158549999999999613e+01 2.217164999999999964e+03
7.300000000000000933e-02 1.640309999999999824e-01 2.454234999999999900e+01 9.604984999999999218e+01 2.218539999999999964e+03
7.399999999999999634e-02 1.641690000000000094e-01 2.615344999999999942e+01 1.002039000000000044e+02 2.219835000000000036e+03
7.499999999999999722e-02 1.642985000000000140e-01 2.763479999999999848e+01 1.041037000000000035e+02 2.221055000000000291e+03
7.599999999999999811e-02 1.644220000000000126e-01 2.900479999999999947e+01 1.078189999999999884e+02 2.222225000000000364e+03
7.699999999999999900e-02 1.645415000000000072e-01 3.028525000000000134e+01 1.114259999999999877e+02 2.223350000000000364e+03
7.799999999999999989e-02 1.646579999999999988e-01 3.149869999999999948e+01 1.149939999999999998e+02 2.224445000000000164e+03
7.900000000000000078e-02 1.647734999999999894e-01 3.266549999999999443e+01 1.185815000000000055e+02 2.225534999999999854e+03
8.000000000000000167e-02 1.648894999999999944e-01 3.380194999999999794e+01 1.222274999999999920e+02 2.226625000000000000e+03
8.100000000000000255e-02 1.650065000000000004e-01 3.491864999999999952e+01 1.259505000000000052e+02 2.227730000000000018e+03
8.200000000000000344e-02 1.651250000000000218e-01 3.602055000000000007e+01 1.297500000000000000e+02 2.228849999999999909e+03
8.300000000000000433e-02 1.652454999999999896e-01 3.710629999999999740e+01 1.336045000000000016e+02 2.229984999999999673e+03
8.400000000000000522e-02 1.653669999999999862e-01 3.816924999999999812e+01 1.374775000000000205e+02 2.231125000000000000e+03
8.500000000000000611e-02 1.654879999999999962e-01 3.919814999999999827e+01 1.413199999999999932e+02 2.232269999999999982e+03
8.600000000000000699e-02 1.656080000000000052e-01 4.017825000000000557e+01 1.450760000000000218e+02 2.233400000000000091e+03
8.700000000000000788e-02 1.657239999999999824e-01 4.109244999999999948e+01 1.486864999999999952e+02 2.234494999999999891e+03
8.800000000000000877e-02 1.658354999999999968e-01 4.192244999999999777e+01 1.520910000000000082e+02 2.235550000000000182e+03
8.899999999999999578e-02 1.659400000000000042e-01 4.265000000000000568e+01 1.552334999999999923e+02 2.236545000000000073e+03
8.999999999999999667e-02 1.660369999999999902e-01 4.325799999999999557e+01 1.580634999999999764e+02 2.237465000000000146e+03
9.099999999999999756e-02 1.661245000000000083e-01 4.373140000000000072e+01 1.605389999999999873e+02 2.238300000000000182e+03
9.199999999999999845e-02 1.662015000000000020e-01 4.405834999999999724e+01 1.626274999999999977e+02 2.239034999999999854e+03
9.299999999999999933e-02 1.662664999999999837e-01 4.423094999999999999e+01 1.643079999999999927e+02 2.239659999999999854e+03
9.400000000000000022e-02 1.663189999999999946e-01 4.424569999999999936e+01 1.655745000000000005e+02 2.240175000000000182e+03
9.500000000000000111e-02 1.663600000000000079e-01 4.410405000000000086e+01 1.664325000000000045e+02 2.240574999999999818e+03
9.600000000000000200e-02 1.663884999999999947e-01 4.381244999999999834e+01 1.669004999999999939e+02 2.240859999999999673e+03
9.700000000000000289e-02 1.664059999999999984e-01 4.338190000000000168e+01 1.670099999999999909e+02 2.241034999999999854e+03
9.800000000000000377e-02 1.664125000000000187e-01 4.282764999999999844e+01 1.668020000000000209e+02 2.241109999999999673e+03
9.900000000000000466e-02 1.664100000000000024e-01 4.216814999999999714e+01 1.663260000000000218e+02 2.241095000000000255e+03
1.000000000000000056e-01 1.663994999999999780e-01 4.142399999999999949e+01 1.656355000000000075e+02 2.241005000000000109e+03
1.010000000000000064e-01 1.663820000000000021e-01 4.061735000000000184e+01 1.647869999999999777e+02 2.240855000000000018e+03
1.020000000000000073e-01 1.663600000000000079e-01 3.977009999999999934e+01 1.638344999999999914e+02 2.240654999999999745e+03
1.030000000000000082e-01 1.663350000000000106e-01 3.890359999999999729e+01 1.628299999999999841e+02 2.240425000000000182e+03
1.040000000000000091e-01 1.663080000000000114e-01 3.803714999999999691e+01 1.618179999999999836e+02 2.240170000000000073e+03
1.050000000000000100e-01 1.662804999999999978e-01 3.718784999999999741e+01 1.608389999999999986e+02 2.239909999999999854e+03
1.059999999999999970e-01 1.662534999999999985e-01 3.636934999999999718e+01 1.599205000000000041e+02 2.239654999999999745e+03
1.069999999999999979e-01 1.662275000000000003e-01 3.559210000000000207e+01 1.590844999999999914e+02 2.239409999999999854e+03
1.079999999999999988e-01 1.662035000000000040e-01 3.486230000000000473e+01 1.583410000000000082e+02 2.239180000000000291e+03
1.089999999999999997e-01 1.661819999999999964e-01 3.418245000000000289e+01 1.576904999999999859e+02 2.238974999999999909e+03
1.100000000000000006e-01 1.661624999999999908e-01 3.355089999999999861e+01 1.571240000000000236e+02 2.238789999999999964e+03
1.110000000000000014e-01 1.661449999999999871e-01 3.296240000000000236e+01 1.566239999999999952e+02 2.238614999999999782e+03
1.120000000000000023e-01 1.661294999999999855e-01 3.240845000000000198e+01 1.561645000000000039e+02 2.238460000000000036e+03
1.130000000000000032e-01 1.661139999999999839e-01 3.187790000000000035e+01 1.557150000000000034e+02 2.238315000000000055e+03
1.140000000000000041e-01 1.660985000000000100e-01 3.135790000000000077e+01 1.552400000000000091e+02 2.238164999999999964e+03
1.150000000000000050e-01 1.660820000000000074e-01 3.083449999999999847e+01 1.547040000000000077e+02 2.238010000000000218e+03
1.160000000000000059e-01 1.660639999999999894e-01 3.029390000000000072e+01 1.540704999999999814e+02 2.237835000000000036e+03
1.170000000000000068e-01 1.660425000000000095e-01 2.972330000000000183e+01 1.533089999999999975e+02 2.237635000000000218e+03
1.180000000000000077e-01 1.660169999999999979e-01 2.911175000000000068e+01 1.523935000000000173e+02 2.237399999999999636e+03
1.190000000000000085e-01 1.659875000000000100e-01 2.845090000000000074e+01 1.513054999999999950e+02 2.237114999999999782e+03
1.200000000000000094e-01 1.659525000000000028e-01 2.773564999999999969e+01 1.500360000000000014e+02 2.236789999999999964e+03
1.209999999999999964e-01 1.659124999999999905e-01 2.696460000000000079e+01 1.485860000000000127e+02 2.236414999999999964e+03
1.219999999999999973e-01 1.658675000000000010e-01 2.614000000000000057e+01 1.469675000000000011e+02 2.235994999999999891e+03
1.229999999999999982e-01 1.658175000000000066e-01 2.526800000000000068e+01 1.451999999999999886e+02 2.235530000000000200e+03
1.239999999999999991e-01 1.657635000000000081e-01 2.435810000000000031e+01 1.433145000000000095e+02 2.235025000000000091e+03
1.250000000000000000e-01 1.657060000000000199e-01 2.342275000000000063e+01 1.413464999999999918e+02 2.234489999999999782e+03
1.260000000000000009e-01 1.656469999999999887e-01 2.247674999999999912e+01 1.393385000000000105e+02 2.233935000000000400e+03
1.270000000000000018e-01 1.655864999999999976e-01 2.153604999999999947e+01 1.373349999999999795e+02 2.233369999999999891e+03
1.280000000000000027e-01 1.655260000000000065e-01 2.061739999999999995e+01 1.353810000000000002e+02 2.232800000000000182e+03
1.290000000000000036e-01 1.654680000000000040e-01 1.973695000000000022e+01 1.335194999999999936e+02 2.232244999999999891e+03
1.300000000000000044e-01 1.654120000000000035e-01 1.890959999999999752e+01 1.317884999999999991e+02 2.231720000000000255e+03
1.310000000000000053e-01 1.653600000000000070e-01 1.814839999999999876e+01 1.302195000000000107e+02 2.231230000000000018e+03
1.320000000000000062e-01 1.653125000000000011e-01 1.746369999999999933e+01 1.288379999999999939e+02 2.230779999999999745e+03
1.330000000000000071e-01 1.652704999999999869e-01 1.686275000000000190e+01 1.276594999999999942e+02 2.230380000000000109e+03
1.340000000000000080e-01 1.652345000000000064e-01 1.635000000000000142e+01 1.266929999999999836e+02 2.230034999999999854e+03
1.350000000000000089e-01 1.652040000000000175e-01 1.592644999999999911e+01 1.259360000000000070e+02 2.229739999999999782e+03
1.360000000000000098e-01 1.651805000000000079e-01 1.559009999999999962e+01 1.253815000000000026e+02 2.229510000000000218e+03
1.370000000000000107e-01 1.651620000000000033e-01 1.533655000000000079e+01 1.250150000000000006e+02 2.229329999999999927e+03
1.380000000000000115e-01 1.651489999999999903e-01 1.515895000000000081e+01 1.248164999999999907e+02 2.229204999999999927e+03
1.390000000000000124e-01 1.651409999999999823e-01 1.504875000000000007e+01 1.247630000000000052e+02 2.229125000000000000e+03
1.400000000000000133e-01 1.651374999999999926e-01 1.499610000000000021e+01 1.248290000000000077e+02 2.229079999999999927e+03
1.410000000000000142e-01 1.651374999999999926e-01 1.499044999999999916e+01 1.249885000000000019e+02 2.229074999999999818e+03
1.420000000000000151e-01 1.651404999999999956e-01 1.502094999999999914e+01 1.252150000000000034e+02 2.229099999999999909e+03
1.430000000000000160e-01 1.651455000000000006e-01 1.507685000000000031e+01 1.254830000000000041e+02 2.229135000000000218e+03
1.440000000000000169e-01 1.651515000000000066e-01 1.514794999999999980e+01 1.257715000000000032e+02 2.229194999999999709e+03
1.450000000000000178e-01 1.651584999999999859e-01 1.522494999999999976e+01 1.260579999999999927e+02 2.229255000000000109e+03
1.459999999999999909e-01 1.651655000000000206e-01 1.529964999999999975e+01 1.263265000000000100e+02 2.229320000000000164e+03
1.469999999999999918e-01 1.651724999999999999e-01 1.536514999999999986e+01 1.265635000000000048e+02 2.229385000000000218e+03
1.479999999999999927e-01 1.651785000000000059e-01 1.541629999999999967e+01 1.267595000000000027e+02 2.229439999999999600e+03
1.489999999999999936e-01 1.651839999999999975e-01 1.544914999999999949e+01 1.269074999999999989e+02 2.229489999999999782e+03
1.499999999999999944e-01 1.651874999999999871e-01 1.546185000000000009e+01 1.270060000000000002e+02 2.229529999999999745e+03
1.509999999999999953e-01 1.651900000000000035e-01 1.545384999999999920e+01 1.270564999999999998e+02 2.229550000000000182e+03
1.519999999999999962e-01 1.651910000000000045e-01 1.542619999999999969e+01 1.270655000000000001e+02 2.229569999999999709e+03
1.529999999999999971e-01 1.651914999999999911e-01 1.538114999999999988e+01 1.270384999999999991e+02 2.229569999999999709e+03
1.539999999999999980e-01 1.651914999999999911e-01 1.532209999999999894e+01 1.269865000000000066e+02 2.229569999999999709e+03
1.549999999999999989e-01 1.651900000000000035e-01 1.525295000000000201e+01 1.269210000000000065e+02 2.229559999999999945e+03
1.559999999999999998e-01 1.651885000000000159e-01 1.517820000000000036e+01 1.268534999999999968e+02 2.229545000000000073e+03
1.570000000000000007e-01 1.651870000000000005e-01 1.510219999999999985e+01 1.267934999999999945e+02 2.229534999999999854e+03
1.580000000000000016e-01 1.651859999999999995e-01 1.502899999999999991e+01 1.267524999999999977e+02 2.229519999999999982e+03
1.590000000000000024e-01 1.651854999999999851e-01 1.496215000000000117e+01 1.267375000000000114e+02 2.229514999999999873e+03
