# t [s], A [cm^2], U [cm/s], P [cPa], c [cm/s]
1.000000000000000021e-03 1.208040000000000086e-01 2.151369999999999949e-01 9.618864999999999554e+01 1.968465000000000146e+03
2.000000000000000042e-03 1.207850000000000035e-01 1.556170000000000053e+00 9.342820000000000391e+01 1.968175000000000182e+03
3.000000000000000062e-03 1.207155000000000034e-01 3.240690000000000293e+00 8.970439999999999259e+01 1.967190000000000055e+03
4.000000000000000083e-03 1.206114999999999965e-01 5.130995500000000042e+00 8.544740000000000180e+01 1.965735000000000127e+03
5.000000000000000104e-03 1.204905000000000004e-01 7.176845000000000141e+00 8.134975000000000023e+01 1.964075000000000045e+03
6.000000000000000125e-03 1.203675000000000023e-01 9.281140000000000612e+00 7.780799999999999272e+01 1.962394999999999982e+03
7.000000000000000146e-03 1.202494999999999953e-01 1.128960500000000167e+01 7.481610000000000582e+01 1.960800000000000182e+03
8.000000000000000167e-03 1.201369999999999938e-01 1.307683000000000106e+01 7.216900000000001114e+01 1.959309999999999945e+03
9.000000000000001055e-03 1.200335000000000013e-01 1.461717499999999959e+01 6.977490000000000236e+01 1.957960000000000036e+03
1.000000000000000194e-02 1.199409999999999921e-01 1.593829999999999991e+01 6.768375000000000341e+01 1.956764999999999873e+03
1.099999999999999936e-02 1.198609999999999953e-01 1.706159999999999854e+01 6.593609999999999616e+01 1.955744999999999891e+03
1.200000000000000025e-02 1.197929999999999967e-01 1.799765000000000015e+01 6.451590000000000202e+01 1.954884999999999991e+03
1.300000000000000114e-02 1.197369999999999962e-01 1.875274999999999892e+01 6.337489999999999668e+01 1.954184999999999945e+03
1.400000000000000203e-02 1.196909999999999918e-01 1.932695000000000007e+01 6.243625000000000114e+01 1.953609999999999900e+03
1.499999999999999944e-02 1.196514999999999940e-01 1.972510000000000119e+01 6.161379999999999768e+01 1.953144999999999982e+03
1.600000000000000033e-02 1.196184999999999887e-01 1.998279999999999745e+01 6.088065000000000282e+01 1.952750000000000000e+03
1.700000000000000122e-02 1.195920000000000039e-01 2.017855000000000132e+01 6.033299999999999841e+01 1.952434999999999945e+03
1.800000000000000211e-02 1.195755000000000012e-01 2.041425000000000267e+01 6.017279999999999518e+01 1.952250000000000000e+03
1.900000000000000300e-02 1.195730000000000126e-01 2.077355000000000018e+01 6.060909999999999798e+01 1.952235000000000127e+03
2.000000000000000042e-02 1.195879999999999999e-01 2.128610000000000113e+01 6.173910000000000764e+01 1.952429999999999836e+03
2.100000000000000130e-02 1.196195000000000036e-01 2.191544999999999987e+01 6.348005000000000564e+01 1.952829999999999927e+03
2.200000000000000219e-02 1.196635000000000060e-01 2.257479999999999976e+01 6.558060000000000400e+01 1.953394999999999982e+03
2.299999999999999961e-02 1.197135000000000005e-01 2.315894999999999726e+01 6.769884999999999309e+01 1.954049999999999955e+03
2.400000000000000050e-02 1.197634999999999950e-01 2.357809999999999917e+01 6.950554999999999950e+01 1.954699999999999818e+03
2.500000000000000139e-02 1.198054999999999953e-01 2.378184999999999860e+01 7.077240000000000464e+01 1.955264999999999873e+03
2.600000000000000228e-02 1.198369999999999991e-01 2.376745000000000019e+01 7.141935000000000855e+01 1.955690000000000055e+03
2.700000000000000316e-02 1.198560000000000042e-01 2.357235000000000014e+01 7.151125000000000398e+01 1.955965000000000146e+03
2.800000000000000058e-02 1.198644999999999988e-01 2.325600000000000023e+01 7.121305000000000973e+01 1.956095000000000027e+03
2.900000000000000147e-02 1.198649999999999993e-01 2.287875000000000014e+01 7.072364999999999213e+01 1.956119999999999891e+03
3.000000000000000236e-02 1.198619999999999963e-01 2.248400000000000176e+01 7.021160000000000423e+01 1.956085000000000036e+03
3.099999999999999978e-02 1.198565000000000047e-01 2.208915000000000006e+01 6.977240000000000464e+01 1.956019999999999982e+03
3.200000000000000067e-02 1.198504999999999987e-01 2.168650000000000233e+01 6.941554999999999609e+01 1.955950000000000045e+03
3.300000000000000155e-02 1.198439999999999922e-01 2.125179999999999936e+01 6.908080000000001064e+01 1.955869999999999891e+03
3.400000000000000244e-02 1.198355000000000115e-01 2.075685000000000002e+01 6.867359999999999332e+01 1.955765000000000100e+03
3.500000000000000333e-02 1.198240000000000138e-01 2.018285000000000196e+01 6.810749999999998749e+01 1.955619999999999891e+03
3.600000000000000422e-02 1.198079999999999978e-01 1.953014999999999901e+01 6.734129999999998972e+01 1.955420000000000073e+03
3.700000000000000511e-02 1.197870000000000046e-01 1.882269999999999754e+01 6.640045000000000641e+01 1.955160000000000082e+03
3.799999999999999906e-02 1.197630000000000083e-01 1.810470000000000113e+01 6.537890000000000157e+01 1.954860000000000127e+03
3.899999999999999994e-02 1.197379999999999972e-01 1.743284999999999840e+01 6.442005000000000337e+01 1.954545000000000073e+03
4.000000000000000083e-02 1.197165000000000035e-01 1.686390000000000100e+01 6.368430000000000035e+01 1.954259999999999991e+03
4.100000000000000172e-02 1.197000000000000008e-01 1.644294999999999973e+01 6.331099999999999994e+01 1.954045000000000073e+03
4.200000000000000261e-02 1.196929999999999938e-01 1.619389999999999930e+01 6.338620000000000232e+01 1.953940000000000055e+03
4.300000000000000350e-02 1.196959999999999968e-01 1.611534999999999940e+01 6.392345000000000255e+01 1.953965000000000146e+03
4.400000000000000439e-02 1.197094999999999965e-01 1.618144999999999811e+01 6.486095000000000255e+01 1.954125000000000000e+03
4.499999999999999833e-02 1.197314999999999907e-01 1.634745000000000203e+01 6.607450000000000045e+01 1.954400000000000091e+03
4.599999999999999922e-02 1.197595000000000048e-01 1.655765000000000242e+01 6.740075000000000216e+01 1.954750000000000000e+03
4.700000000000000011e-02 1.197899999999999937e-01 1.675444999999999851e+01 6.866525000000000034e+01 1.955139999999999873e+03
4.800000000000000100e-02 1.198190000000000088e-01 1.688605000000000089e+01 6.970859999999998990e+01 1.955505000000000109e+03
4.900000000000000189e-02 1.198434999999999917e-01 1.691165000000000163e+01 7.040674999999998818e+01 1.955815000000000055e+03
5.000000000000000278e-02 1.198594999999999938e-01 1.680489999999999995e+01 7.068200000000000216e+01 1.956030000000000200e+03
5.100000000000000366e-02 1.198660000000000003e-01 1.655349999999999966e+01 7.050504999999999711e+01 1.956130000000000109e+03
5.200000000000000455e-02 1.198625000000000107e-01 1.615759999999999863e+01 6.988935000000000741e+01 1.956079999999999927e+03
5.300000000000000544e-02 1.198474999999999957e-01 1.562650000000000006e+01 6.888015000000000043e+01 1.955904999999999973e+03
5.399999999999999939e-02 1.198234999999999995e-01 1.497550000000000026e+01 6.754165000000000418e+01 1.955599999999999909e+03
5.500000000000000028e-02 1.197910000000000086e-01 1.422269999999999968e+01 6.594540000000000646e+01 1.955190000000000055e+03
5.600000000000000117e-02 1.197509999999999963e-01 1.338724999999999810e+01 6.416129999999999711e+01 1.954684999999999945e+03
5.700000000000000205e-02 1.197054999999999925e-01 1.248806500000000064e+01 6.225244999999999607e+01 1.954105000000000018e+03
5.800000000000000294e-02 1.196559999999999985e-01 1.154402500000000131e+01 6.027415000000000589e+01 1.953469999999999800e+03
5.900000000000000383e-02 1.196035000000000015e-01 1.057439000000000107e+01 5.827549999999999386e+01 1.952799999999999955e+03
6.000000000000000472e-02 1.195500000000000035e-01 9.599714999999999776e+00 5.630259999999999820e+01 1.952110000000000127e+03
6.099999999999999867e-02 1.194965000000000055e-01 8.642430000000000945e+00 5.440215000000000600e+01 1.951420000000000073e+03
6.199999999999999956e-02 1.194439999999999946e-01 7.727129999999998944e+00 5.262425000000000352e+01 1.950750000000000000e+03
6.300000000000000044e-02 1.193945000000000006e-01 6.880385000000000417e+00 5.102315000000000111e+01 1.950110000000000127e+03
6.400000000000000133e-02 1.193494999999999973e-01 6.129925000000000068e+00 4.965694999999999482e+01 1.949525000000000091e+03
6.500000000000000222e-02 1.193104999999999999e-01 5.503420000000000201e+00 4.858500000000000085e+01 1.949014999999999873e+03
6.600000000000000311e-02 1.192789999999999961e-01 5.026930000000000121e+00 4.786424999999999841e+01 1.948610000000000127e+03
6.700000000000000400e-02 1.192570000000000019e-01 4.723309999999999675e+00 4.754514999999999958e+01 1.948309999999999945e+03
6.800000000000000488e-02 1.192455000000000043e-01 4.610765000000000668e+00 4.766774999999999807e+01 1.948144999999999982e+03
6.900000000000000577e-02 1.192455000000000043e-01 4.701660000000000394e+00 4.825799999999999557e+01 1.948130000000000109e+03
7.000000000000000666e-02 1.192575000000000024e-01 5.001799999999999358e+00 4.932604999999999507e+01 1.948275000000000091e+03
7.100000000000000755e-02 1.192830000000000001e-01 5.510155000000000136e+00 5.086485000000000412e+01 1.948579999999999927e+03
7.200000000000000844e-02 1.193204999999999960e-01 6.219084999999999752e+00 5.285125000000000028e+01 1.949045000000000073e+03
7.300000000000000933e-02 1.193704999999999905e-01 7.114944999999999631e+00 5.524739999999999895e+01 1.949664999999999964e+03
7.399999999999999634e-02 1.194319999999999965e-01 8.179014999999999702e+00 5.800370000000000203e+01 1.950434999999999945e+03
7.499999999999999722e-02 1.195035000000000125e-01 9.388759999999999550e+00 6.106199999999999761e+01 1.951340000000000146e+03
7.599999999999999811e-02 1.195829999999999949e-01 1.071904999999999930e+01 6.435970000000000368e+01 1.952355000000000018e+03
7.699999999999999900e-02 1.196704999999999991e-01 1.214362500000000011e+01 6.783310000000000173e+01 1.953465000000000146e+03
7.799999999999999989e-02 1.197634999999999950e-01 1.363630000000000031e+01 7.142119999999999891e+01 1.954660000000000082e+03
7.900000000000000078e-02 1.198600000000000082e-01 1.517225000000000179e+01 7.506864999999999100e+01 1.955904999999999973e+03
8.000000000000000167e-02 1.199599999999999972e-01 1.672895000000000110e+01 7.872825000000000273e+01 1.957190000000000055e+03
8.100000000000000255e-02 1.200604999999999867e-01 1.828689999999999927e+01 8.236230000000000473e+01 1.958494999999999891e+03
8.200000000000000344e-02 1.201619999999999910e-01 1.982995000000000019e+01 8.594354999999998768e+01 1.959815000000000055e+03
8.300000000000000433e-02 1.202624999999999944e-01 2.134564999999999912e+01 8.945484999999999332e+01 1.961125000000000000e+03
8.400000000000000522e-02 1.203624999999999973e-01 2.282500000000000284e+01 9.288830000000000098e+01 1.962424999999999955e+03
8.500000000000000611e-02 1.204609999999999848e-01 2.426194999999999879e+01 9.624365000000000236e+01 1.963715000000000146e+03
8.600000000000000699e-02 1.205579999999999985e-01 2.565305000000000035e+01 9.952599999999999625e+01 1.964994999999999891e+03
8.700000000000000788e-02 1.206534999999999969e-01 2.699670000000000059e+01 1.027437500000000057e+02 1.966244999999999891e+03
8.800000000000000877e-02 1.207479999999999942e-01 2.829260000000000019e+01 1.059078000000000088e+02 1.967490000000000009e+03
8.899999999999999578e-02 1.208404999999999896e-01 2.954090000000000060e+01 1.090260000000000105e+02 1.968715000000000146e+03
8.999999999999999667e-02 1.209324999999999983e-01 3.074190000000000111e+01 1.121049999999999898e+02 1.969924999999999955e+03
9.099999999999999756e-02 1.210235000000000061e-01 3.189555000000000007e+01 1.151490000000000009e+02 1.971130000000000109e+03
9.199999999999999845e-02 1.211129999999999984e-01 3.300130000000000052e+01 1.181580000000000013e+02 1.972320000000000164e+03
9.299999999999999933e-02 1.212020000000000042e-01 3.405769999999999698e+01 1.211274999999999977e+02 1.973500000000000000e+03
9.400000000000000022e-02 1.212900000000000089e-01 3.506265000000000498e+01 1.240484999999999900e+02 1.974664999999999964e+03
9.500000000000000111e-02 1.213759999999999978e-01 3.601314999999999600e+01 1.269115000000000038e+02 1.975815000000000055e+03
9.600000000000000200e-02 1.214604999999999990e-01 3.690574999999999761e+01 1.297030000000000030e+02 1.976940000000000055e+03
9.700000000000000289e-02 1.215434999999999988e-01 3.773624999999999829e+01 1.324080000000000155e+02 1.978045000000000073e+03
9.800000000000000377e-02 1.216234999999999955e-01 3.850025000000000119e+01 1.350095000000000027e+02 1.979119999999999891e+03
9.900000000000000466e-02 1.217010000000000036e-01 3.919304999999999950e+01 1.374919999999999902e+02 1.980160000000000082e+03
1.000000000000000056e-01 1.217755000000000087e-01 3.980979999999999563e+01 1.398394999999999868e+02 1.981150000000000091e+03
1.010000000000000064e-01 1.218460000000000099e-01 4.034574999999999534e+01 1.420345000000000084e+02 1.982099999999999909e+03
1.020000000000000073e-01 1.219119999999999926e-01 4.079645000000000010e+01 1.440629999999999882e+02 1.982989999999999782e+03
1.030000000000000082e-01 1.219739999999999991e-01 4.115755000000000052e+01 1.459114999999999895e+02 1.983824999999999818e+03
1.040000000000000091e-01 1.220304999999999862e-01 4.142565000000000452e+01 1.475674999999999955e+02 1.984590000000000146e+03
1.050000000000000100e-01 1.220825000000000105e-01 4.159770000000000323e+01 1.490219999999999914e+02 1.985284999999999854e+03
1.059999999999999970e-01 1.221285000000000009e-01 4.167190000000000083e+01 1.502660000000000196e+02 1.985914999999999964e+03
1.069999999999999979e-01 1.221684999999999993e-01 4.164755000000000251e+01 1.512965000000000089e+02 1.986460000000000036e+03
1.079999999999999988e-01 1.222024999999999917e-01 4.152514999999999645e+01 1.521119999999999948e+02 1.986930000000000064e+03
1.089999999999999997e-01 1.222305000000000058e-01 4.130689999999999884e+01 1.527144999999999868e+02 1.987315000000000055e+03
1.100000000000000006e-01 1.222530000000000006e-01 4.099630000000000507e+01 1.531105000000000018e+02 1.987625000000000000e+03
1.110000000000000014e-01 1.222695000000000032e-01 4.059844999999999970e+01 1.533104999999999905e+02 1.987855000000000018e+03
1.120000000000000023e-01 1.222799999999999998e-01 4.011995000000000289e+01 1.533274999999999864e+02 1.988014999999999873e+03
1.130000000000000032e-01 1.222854999999999914e-01 3.956855000000000189e+01 1.531784999999999854e+02 1.988099999999999909e+03
1.140000000000000041e-01 1.222864999999999924e-01 3.895319999999999538e+01 1.528824999999999932e+02 1.988119999999999891e+03
1.150000000000000050e-01 1.222830000000000028e-01 3.828334999999999866e+01 1.524594999999999914e+02 1.988079999999999927e+03
1.160000000000000059e-01 1.222754999999999953e-01 3.756910000000000593e+01 1.519320000000000164e+02 1.987990000000000009e+03
1.170000000000000068e-01 1.222649999999999987e-01 3.682059999999999889e+01 1.513215000000000146e+02 1.987855000000000018e+03
1.180000000000000077e-01 1.222515000000000129e-01 3.604769999999999897e+01 1.506474999999999795e+02 1.987684999999999945e+03
1.190000000000000085e-01 1.222359999999999974e-01 3.525974999999999682e+01 1.499304999999999950e+02 1.987480000000000018e+03
1.200000000000000094e-01 1.222189999999999943e-01 3.446524999999999750e+01 1.491864999999999952e+02 1.987250000000000000e+03
1.209999999999999964e-01 1.222005000000000036e-01 3.367184999999999917e+01 1.484310000000000116e+02 1.987009999999999991e+03
1.219999999999999973e-01 1.221814999999999984e-01 3.288584999999999781e+01 1.476740000000000066e+02 1.986755000000000109e+03
1.229999999999999982e-01 1.221615000000000062e-01 3.211229999999999762e+01 1.469254999999999995e+02 1.986494999999999891e+03
1.239999999999999991e-01 1.221420000000000006e-01 3.135484999999999900e+01 1.461899999999999977e+02 1.986224999999999909e+03
1.250000000000000000e-01 1.221214999999999939e-01 3.061585000000000178e+01 1.454695000000000107e+02 1.985960000000000036e+03
1.260000000000000009e-01 1.221025000000000027e-01 2.989634999999999820e+01 1.447635000000000218e+02 1.985700000000000045e+03
1.270000000000000018e-01 1.220824999999999966e-01 2.919594999999999985e+01 1.440690000000000168e+02 1.985434999999999945e+03
1.280000000000000027e-01 1.220624999999999905e-01 2.851340000000000074e+01 1.433805000000000121e+02 1.985164999999999964e+03
1.290000000000000036e-01 1.220430000000000126e-01 2.784629999999999939e+01 1.426899999999999977e+02 1.984900000000000091e+03
1.300000000000000044e-01 1.220229999999999926e-01 2.719150000000000134e+01 1.419900000000000091e+02 1.984630000000000109e+03
1.310000000000000053e-01 1.220030000000000003e-01 2.654529999999999745e+01 1.412694999999999936e+02 1.984360000000000127e+03
1.320000000000000062e-01 1.219820000000000071e-01 2.590370000000000061e+01 1.405205000000000268e+02 1.984079999999999927e+03
1.330000000000000071e-01 1.219600000000000128e-01 2.526249999999999929e+01 1.397319999999999993e+02 1.983784999999999854e+03
1.340000000000000080e-01 1.219370000000000037e-01 2.461764999999999759e+01 1.388960000000000150e+02 1.983480000000000018e+03
1.350000000000000089e-01 1.219129999999999936e-01 2.396539999999999893e+01 1.380045000000000073e+02 1.983154999999999973e+03
1.360000000000000098e-01 1.218874999999999958e-01 2.330259999999999820e+01 1.370509999999999877e+02 1.982815000000000055e+03
1.370000000000000107e-01 1.218604999999999966e-01 2.262669999999999959e+01 1.360320000000000107e+02 1.982454999999999927e+03
1.380000000000000115e-01 1.218310000000000087e-01 2.193609999999999971e+01 1.349449999999999932e+02 1.982065000000000055e+03
1.390000000000000124e-01 1.218005000000000060e-01 2.123015000000000185e+01 1.337909999999999968e+02 1.981655000000000200e+03
1.400000000000000133e-01 1.217675000000000007e-01 2.050929999999999964e+01 1.325734999999999957e+02 1.981220000000000027e+03
1.410000000000000142e-01 1.217329999999999940e-01 1.977509999999999835e+01 1.312969999999999970e+02 1.980764999999999873e+03
1.420000000000000151e-01 1.216969999999999996e-01 1.903010000000000090e+01 1.299714999999999918e+02 1.980284999999999854e+03
1.430000000000000160e-01 1.216595000000000037e-01 1.827795000000000059e+01 1.286059999999999945e+02 1.979789999999999964e+03
1.440000000000000169e-01 1.216210000000000069e-01 1.752315000000000111e+01 1.272145000000000010e+02 1.979275000000000091e+03
1.450000000000000178e-01 1.215814999999999951e-01 1.677100000000000080e+01 1.258089999999999975e+02 1.978755000000000109e+03
1.459999999999999909e-01 1.215420000000000111e-01 1.602714999999999890e+01 1.244064999999999941e+02 1.978230000000000018e+03
1.469999999999999918e-01 1.215019999999999989e-01 1.529790000000000028e+01 1.230210000000000008e+02 1.977700000000000045e+03
1.479999999999999927e-01 1.214625000000000010e-01 1.458919999999999995e+01 1.216689999999999969e+02 1.977175000000000182e+03
1.489999999999999936e-01 1.214240000000000042e-01 1.390725000000000122e+01 1.203635000000000019e+02 1.976660000000000082e+03
1.499999999999999944e-01 1.213865000000000083e-01 1.325750000000000028e+01 1.191189999999999998e+02 1.976154999999999973e+03
1.509999999999999953e-01 1.213494999999999990e-01 1.264499999999999957e+01 1.179459999999999980e+02 1.975674999999999955e+03
1.519999999999999962e-01 1.213154999999999928e-01 1.207405499999999954e+01 1.168555000000000064e+02 1.975219999999999800e+03
1.529999999999999971e-01 1.212834999999999885e-01 1.154790500000000009e+01 1.158520000000000039e+02 1.974784999999999854e+03
1.539999999999999980e-01 1.212529999999999997e-01 1.106903499999999951e+01 1.149424999999999955e+02 1.974384999999999991e+03
1.549999999999999989e-01 1.212254999999999860e-01 1.063866499999999959e+01 1.141274999999999977e+02 1.974014999999999873e+03
1.559999999999999998e-01 1.212004999999999888e-01 1.025726500000000030e+01 1.134074999999999989e+02 1.973679999999999836e+03
1.570000000000000007e-01 1.211780000000000079e-01 9.924205000000000609e+00 1.127805000000000035e+02 1.973375000000000000e+03
1.580000000000000016e-01 1.211579999999999879e-01 9.638104999999999478e+00 1.122409999999999997e+02 1.973109999999999900e+03
1.590000000000000024e-01 1.211405000000000121e-01 9.396744999999999237e+00 1.117839999999999918e+02 1.972865000000000009e+03
