# t [s], A [cm^2], U [cm/s], P [cPa], c [cm/s]
1.000000000000000021e-03 4.547855000000000092e-01 4.472299999999998499e-03 1.005575000000000045e+02 1.563485000000000127e+03
2.000000000000000042e-03 4.547789999999999888e-01 -1.900640000000000098e-03 1.005365000000000038e+02 1.563480000000000018e+03
3.000000000000000062e-03 4.548045000000000559e-01 5.561750000000000027e-02 1.005949999999999989e+02 1.563500000000000000e+03
4.000000000000000083e-03 4.548424999999999829e-01 1.454155000000000031e-01 1.007084000000000117e+02 1.563529999999999973e+03
5.000000000000000104e-03 4.548449999999999438e-01 1.627075000000000049e-01 1.007282500000000027e+02 1.563539999999999964e+03
6.000000000000000125e-03 4.548130000000000228e-01 9.875950000000001394e-02 1.006085000000000065e+02 1.563509999999999991e+03
7.000000000000000146e-03 4.547790000000000443e-01 2.746049999999999880e-02 1.004249999999999972e+02 1.563465000000000146e+03
8.000000000000000167e-03 4.547440000000000371e-01 -5.259649999999999048e-02 1.001899999999999977e+02 1.563405000000000200e+03
9.000000000000001055e-03 4.546844999999999914e-01 -2.007054999999999256e-01 9.983539999999999281e+01 1.563309999999999945e+03
1.000000000000000194e-02 4.545905000000000085e-01 -4.397199999999999998e-01 9.931264999999999077e+01 1.563175000000000182e+03
1.099999999999999936e-02 4.544574999999999587e-01 -7.790550000000000530e-01 9.858324999999999250e+01 1.562985000000000127e+03
1.200000000000000025e-02 4.542740000000000111e-01 -1.236409999999999787e+00 9.759454999999999814e+01 1.562720000000000027e+03
1.300000000000000114e-02 4.540385000000000115e-01 -1.803040000000000198e+00 9.632259999999999422e+01 1.562375000000000000e+03
1.400000000000000203e-02 4.537695000000000478e-01 -2.414124999999999854e+00 9.481629999999999825e+01 1.561960000000000036e+03
1.499999999999999944e-02 4.535015000000000018e-01 -2.966015000000000068e+00 9.319395000000000095e+01 1.561490000000000009e+03
1.600000000000000033e-02 4.532629999999999715e-01 -3.361458999999999975e+00 9.159335000000000093e+01 1.561014999999999873e+03
1.700000000000000122e-02 4.530680000000000263e-01 -3.545204500000000092e+00 9.011690000000000111e+01 1.560549999999999955e+03
1.800000000000000211e-02 4.529110000000000080e-01 -3.513705149999999833e+00 8.880539999999999168e+01 1.560115000000000009e+03
1.900000000000000300e-02 4.527760000000000118e-01 -3.303802000000000127e+00 8.763890000000000668e+01 1.559710000000000036e+03
2.000000000000000042e-02 4.526419999999999888e-01 -2.971808600000000133e+00 8.655724999999999625e+01 1.559320000000000164e+03
2.100000000000000130e-02 4.524910000000000321e-01 -2.572441500000000048e+00 8.548699999999999477e+01 1.558929999999999836e+03
2.200000000000000219e-02 4.523129999999999651e-01 -2.143279999999999852e+00 8.436750000000000682e+01 1.558525000000000091e+03
2.299999999999999961e-02 4.521094999999999975e-01 -1.697900000000000187e+00 8.316724999999999568e+01 1.558099999999999909e+03
2.400000000000000050e-02 4.518865000000000243e-01 -1.228359999999999896e+00 8.188880000000000337e+01 1.557650000000000091e+03
2.500000000000000139e-02 4.516560000000000019e-01 -7.151549999999999851e-01 8.056045000000000300e+01 1.557190000000000055e+03
2.600000000000000228e-02 4.514270000000000227e-01 -1.403400000000001313e-01 7.922079999999999700e+01 1.556724999999999909e+03
2.700000000000000316e-02 4.512049999999999672e-01 5.012149999999997441e-01 7.790099999999999625e+01 1.556259999999999991e+03
2.800000000000000058e-02 4.509890000000000287e-01 1.195564999999999767e+00 7.661189999999999145e+01 1.555800000000000182e+03
2.900000000000000147e-02 4.507720000000000060e-01 1.909614999999999840e+00 7.533795000000000641e+01 1.555340000000000146e+03
3.000000000000000236e-02 4.505409999999999693e-01 2.596305000000000085e+00 7.403985000000000127e+01 1.554875000000000000e+03
3.099999999999999978e-02 4.502835000000000587e-01 3.203364999999999796e+00 7.266270000000000095e+01 1.554390000000000100e+03
3.200000000000000067e-02 4.499894999999999867e-01 3.683424999999999727e+00 7.114965000000000828e+01 1.553880000000000109e+03
3.300000000000000155e-02 4.496519999999999406e-01 4.003339999999999677e+00 6.945584999999999809e+01 1.553320000000000164e+03
3.400000000000000244e-02 4.492720000000000047e-01 4.150600000000000733e+00 6.756069999999999709e+01 1.552704999999999927e+03
3.500000000000000333e-02 4.488564999999999916e-01 4.135275000000000034e+00 6.547530000000000427e+01 1.552045000000000073e+03
3.600000000000000422e-02 4.484199999999999853e-01 3.986879999999999757e+00 6.324235000000000184e+01 1.551345000000000027e+03
3.700000000000000511e-02 4.479779999999999873e-01 3.748174999999999368e+00 6.093009999999999593e+01 1.550615000000000009e+03
3.799999999999999906e-02 4.475474999999999870e-01 3.466884999999999550e+00 5.862224999999999397e+01 1.549884999999999991e+03
3.899999999999999994e-02 4.471454999999999735e-01 3.188305000000000611e+00 5.640605000000000047e+01 1.549174999999999955e+03
4.000000000000000083e-02 4.467845000000000288e-01 2.950140000000000207e+00 5.436214999999999975e+01 1.548505000000000109e+03
4.100000000000000172e-02 4.464725000000000499e-01 2.779999999999999805e+00 5.255780000000000030e+01 1.547900000000000091e+03
4.200000000000000261e-02 4.462160000000000570e-01 2.695350000000000357e+00 5.104274999999999807e+01 1.547375000000000000e+03
4.300000000000000350e-02 4.460164999999999824e-01 2.705395000000000216e+00 4.984909999999999997e+01 1.546940000000000055e+03
4.400000000000000439e-02 4.458750000000000213e-01 2.813885500000000039e+00 4.899370000000000402e+01 1.546610000000000127e+03
4.499999999999999833e-02 4.457909999999999928e-01 3.022063999999999862e+00 4.848154999999999859e+01 1.546375000000000000e+03
4.599999999999999922e-02 4.457625000000000060e-01 3.331069999999999975e+00 4.831005000000000393e+01 1.546255000000000109e+03
4.700000000000000011e-02 4.457904999999999784e-01 3.743395000000000028e+00 4.847294999999999732e+01 1.546235000000000127e+03
4.800000000000000100e-02 4.458734999999999782e-01 4.263104999999999478e+00 4.896240000000000236e+01 1.546325000000000045e+03
4.900000000000000189e-02 4.460104999999999764e-01 4.895039999999999836e+00 4.976995000000000147e+01 1.546514999999999873e+03
5.000000000000000278e-02 4.462015000000000287e-01 5.643305000000000682e+00 5.088649999999999807e+01 1.546805000000000064e+03
5.100000000000000366e-02 4.464440000000000075e-01 6.509550000000000836e+00 5.230049999999999955e+01 1.547190000000000055e+03
5.200000000000000455e-02 4.467360000000000220e-01 7.491490000000000649e+00 5.399644999999999584e+01 1.547670000000000073e+03
5.300000000000000544e-02 4.470729999999999427e-01 8.582055000000000433e+00 5.595349999999999824e+01 1.548235000000000127e+03
5.399999999999999939e-02 4.474494999999999445e-01 9.769275000000000375e+00 5.814504999999999768e+01 1.548880000000000109e+03
5.500000000000000028e-02 4.478590000000000071e-01 1.103679999999999950e+01 6.053855000000000075e+01 1.549594999999999800e+03
5.600000000000000117e-02 4.482955000000000134e-01 1.236514000000000024e+01 6.309685000000000343e+01 1.550369999999999891e+03
5.700000000000000205e-02 4.487499999999999822e-01 1.373294000000000104e+01 6.578000000000000114e+01 1.551190000000000055e+03
5.800000000000000294e-02 4.492154999999999898e-01 1.511880500000000005e+01 6.854724999999999113e+01 1.552049999999999955e+03
5.900000000000000383e-02 4.496864999999999890e-01 1.650238999999999834e+01 7.135954999999999870e+01 1.552930000000000064e+03
6.000000000000000472e-02 4.501565000000000150e-01 1.786594999999999800e+01 7.418164999999999054e+01 1.553835000000000036e+03
6.099999999999999867e-02 4.506215000000000082e-01 1.919470000000000098e+01 7.698369999999999891e+01 1.554735000000000127e+03
6.199999999999999956e-02 4.510784999999999934e-01 2.047749999999999915e+01 7.974215000000000941e+01 1.555630000000000109e+03
6.300000000000000044e-02 4.515249999999999542e-01 2.170660000000000167e+01 8.244050000000000011e+01 1.556515000000000100e+03
6.400000000000000133e-02 4.519604999999999873e-01 2.287729999999999819e+01 8.506874999999999432e+01 1.557384999999999991e+03
6.500000000000000222e-02 4.523859999999999548e-01 2.398760000000000048e+01 8.762305000000000632e+01 1.558240000000000009e+03
6.600000000000000311e-02 4.527999999999999803e-01 2.503750000000000142e+01 9.010434999999999661e+01 1.559075000000000045e+03
6.700000000000000400e-02 4.532054999999999834e-01 2.602834999999999965e+01 9.251724999999999000e+01 1.559889999999999873e+03
6.800000000000000488e-02 4.536035000000000483e-01 2.696219999999999928e+01 9.486910000000000309e+01 1.560690000000000055e+03
6.900000000000000577e-02 4.539944999999999675e-01 2.784150000000000347e+01 9.716804999999999382e+01 1.561474999999999909e+03
7.000000000000000666e-02 4.543800000000000061e-01 2.866825000000000045e+01 9.942099999999999227e+01 1.562250000000000000e+03
7.100000000000000755e-02 4.547605000000000119e-01 2.944420000000000215e+01 1.016350999999999942e+02 1.563005000000000109e+03
7.200000000000000844e-02 4.551370000000000138e-01 3.016995000000000005e+01 1.038149999999999977e+02 1.563750000000000000e+03
7.300000000000000933e-02 4.555090000000000527e-01 3.084525000000000006e+01 1.059620000000000033e+02 1.564490000000000009e+03
7.399999999999999634e-02 4.558750000000000302e-01 3.146890000000000143e+01 1.080745000000000005e+02 1.565215000000000146e+03
7.499999999999999722e-02 4.562355000000000160e-01 3.203875000000000028e+01 1.101479999999999961e+02 1.565924999999999955e+03
7.599999999999999811e-02 4.565875000000000350e-01 3.255180000000000007e+01 1.121759999999999877e+02 1.566625000000000000e+03
7.699999999999999900e-02 4.569300000000000583e-01 3.300475000000000136e+01 1.141485000000000127e+02 1.567315000000000055e+03
7.799999999999999989e-02 4.572599999999999998e-01 3.339385000000000048e+01 1.160544999999999902e+02 1.567974999999999909e+03
7.900000000000000078e-02 4.575764999999999971e-01 3.371559999999999491e+01 1.178815000000000026e+02 1.568615000000000009e+03
8.000000000000000167e-02 4.578769999999999785e-01 3.396665000000000134e+01 1.196175000000000068e+02 1.569230000000000018e+03
8.100000000000000255e-02 4.581589999999999829e-01 3.414444999999999908e+01 1.212510000000000048e+02 1.569809999999999945e+03
8.200000000000000344e-02 4.584219999999999962e-01 3.424694999999999823e+01 1.227710000000000008e+02 1.570355000000000018e+03
8.300000000000000433e-02 4.586635000000000018e-01 3.427309999999999945e+01 1.241680000000000064e+02 1.570865000000000009e+03
8.400000000000000522e-02 4.588829999999999854e-01 3.422249999999999659e+01 1.254350000000000023e+02 1.571329999999999927e+03
8.500000000000000611e-02 4.590800000000000436e-01 3.409584999999999866e+01 1.265670000000000073e+02 1.571750000000000000e+03
8.600000000000000699e-02 4.592530000000000223e-01 3.389454999999999529e+01 1.275600000000000023e+02 1.572130000000000109e+03
8.700000000000000788e-02 4.594030000000000058e-01 3.362084999999999724e+01 1.284134999999999991e+02 1.572465000000000146e+03
8.800000000000000877e-02 4.595299999999999940e-01 3.327794999999999703e+01 1.291285000000000025e+02 1.572755000000000109e+03
8.899999999999999578e-02 4.596345000000000569e-01 3.286969999999999459e+01 1.297074999999999818e+02 1.572994999999999891e+03
8.999999999999999667e-02 4.597164999999999724e-01 3.240075000000000216e+01 1.301550000000000011e+02 1.573194999999999936e+03
9.099999999999999756e-02 4.597784999999999789e-01 3.187640000000000029e+01 1.304789999999999850e+02 1.573349999999999909e+03
9.199999999999999845e-02 4.598219999999999530e-01 3.130290000000000106e+01 1.306864999999999952e+02 1.573465000000000146e+03
9.299999999999999933e-02 4.598470000000000057e-01 3.068684999999999974e+01 1.307864999999999895e+02 1.573539999999999964e+03
9.400000000000000022e-02 4.598565000000000014e-01 3.003545000000000087e+01 1.307915000000000134e+02 1.573585000000000036e+03
9.500000000000000111e-02 4.598524999999999974e-01 2.935629999999999740e+01 1.307119999999999891e+02 1.573595000000000027e+03
9.600000000000000200e-02 4.598364999999999814e-01 2.865700000000000003e+01 1.305600000000000023e+02 1.573579999999999927e+03
9.700000000000000289e-02 4.598110000000000253e-01 2.794530000000000314e+01 1.303489999999999895e+02 1.573539999999999964e+03
9.800000000000000377e-02 4.597780000000000200e-01 2.722840000000000060e+01 1.300910000000000082e+02 1.573480000000000018e+03
9.900000000000000466e-02 4.597395000000000231e-01 2.651310000000000144e+01 1.297975000000000136e+02 1.573405000000000200e+03
1.000000000000000056e-01 4.596970000000000223e-01 2.580525000000000091e+01 1.294800000000000182e+02 1.573315000000000055e+03
1.010000000000000064e-01 4.596514999999999906e-01 2.510999999999999943e+01 1.291459999999999866e+02 1.573220000000000027e+03
1.020000000000000073e-01 4.596050000000000413e-01 2.443104999999999905e+01 1.288040000000000020e+02 1.573119999999999891e+03
1.030000000000000082e-01 4.595565000000000344e-01 2.377110000000000056e+01 1.284594999999999914e+02 1.573014999999999873e+03
1.040000000000000091e-01 4.595084999999999864e-01 2.313130000000000308e+01 1.281159999999999854e+02 1.572900000000000091e+03
1.050000000000000100e-01 4.594595000000000207e-01 2.251200000000000045e+01 1.277750000000000057e+02 1.572789999999999964e+03
1.059999999999999970e-01 4.594099999999999850e-01 2.191210000000000235e+01 1.274345000000000141e+02 1.572680000000000064e+03
1.069999999999999979e-01 4.593590000000000173e-01 2.132990000000000208e+01 1.270939999999999941e+02 1.572565000000000055e+03
1.079999999999999988e-01 4.593059999999999921e-01 2.076255000000000095e+01 1.267479999999999905e+02 1.572449999999999818e+03
1.089999999999999997e-01 4.592499999999999916e-01 2.020700000000000074e+01 1.263930000000000007e+02 1.572324999999999818e+03
1.100000000000000006e-01 4.591905000000000014e-01 1.965959999999999752e+01 1.260234999999999985e+02 1.572200000000000045e+03
1.110000000000000014e-01 4.591255000000000197e-01 1.911670000000000158e+01 1.256329999999999956e+02 1.572070000000000164e+03
1.120000000000000023e-01 4.590549999999999908e-01 1.857475000000000165e+01 1.252160000000000082e+02 1.571934999999999945e+03
1.130000000000000032e-01 4.589784999999999560e-01 1.803030000000000044e+01 1.247685000000000173e+02 1.571785000000000082e+03
1.140000000000000041e-01 4.588944999999999830e-01 1.748039999999999949e+01 1.242844999999999942e+02 1.571625000000000000e+03
1.150000000000000050e-01 4.588035000000000307e-01 1.692259999999999920e+01 1.237620000000000005e+02 1.571454999999999927e+03
1.160000000000000059e-01 4.587050000000000294e-01 1.635519999999999996e+01 1.231980000000000075e+02 1.571269999999999982e+03
1.170000000000000068e-01 4.585985000000000200e-01 1.577700000000000102e+01 1.225925000000000011e+02 1.571074999999999818e+03
1.180000000000000077e-01 4.584850000000000314e-01 1.518795000000000073e+01 1.219455000000000098e+02 1.570865000000000009e+03
1.190000000000000085e-01 4.583650000000000224e-01 1.458849499999999999e+01 1.212605000000000075e+02 1.570644999999999982e+03
1.200000000000000094e-01 4.582384999999999931e-01 1.398010999999999981e+01 1.205405000000000086e+02 1.570409999999999854e+03
1.209999999999999964e-01 4.581075000000000008e-01 1.336505499999999813e+01 1.197909999999999968e+02 1.570174999999999955e+03
1.219999999999999973e-01 4.579735000000000333e-01 1.274620499999999979e+01 1.190185000000000031e+02 1.569920000000000073e+03
1.229999999999999982e-01 4.578370000000000495e-01 1.212727999999999895e+01 1.182315000000000111e+02 1.569664999999999964e+03
1.239999999999999991e-01 4.576999999999999957e-01 1.151232000000000077e+01 1.174375000000000000e+02 1.569404999999999973e+03
1.250000000000000000e-01 4.575640000000000263e-01 1.090589500000000100e+01 1.166454999999999984e+02 1.569144999999999982e+03
1.260000000000000009e-01 4.574304999999999621e-01 1.031275499999999923e+01 1.158665000000000020e+02 1.568884999999999991e+03
1.270000000000000018e-01 4.573019999999999863e-01 9.737614999999999910e+00 1.151090000000000089e+02 1.568630000000000109e+03
1.280000000000000027e-01 4.571784999999999877e-01 9.185209999999999653e+00 1.143815000000000026e+02 1.568389999999999873e+03
1.290000000000000036e-01 4.570629999999999971e-01 8.659940000000000637e+00 1.136935000000000002e+02 1.568154999999999973e+03
1.300000000000000044e-01 4.569560000000000288e-01 8.165755000000000763e+00 1.130519999999999925e+02 1.567929999999999836e+03
1.310000000000000053e-01 4.568585000000000007e-01 7.706024999999999459e+00 1.124639999999999986e+02 1.567724999999999909e+03
1.320000000000000062e-01 4.567710000000000381e-01 7.283345000000000624e+00 1.119344999999999999e+02 1.567534999999999854e+03
1.330000000000000071e-01 4.566945000000000032e-01 6.899689999999999657e+00 1.114660000000000082e+02 1.567369999999999891e+03
1.340000000000000080e-01 4.566284999999999927e-01 6.556049999999999045e+00 1.110614999999999952e+02 1.567215000000000146e+03
1.350000000000000089e-01 4.565734999999999655e-01 6.252650000000000929e+00 1.107199999999999989e+02 1.567085000000000036e+03
1.360000000000000098e-01 4.565290000000000181e-01 5.988884999999999792e+00 1.104410000000000025e+02 1.566974999999999909e+03
1.370000000000000107e-01 4.564939999999999554e-01 5.763390000000000235e+00 1.102224999999999966e+02 1.566880000000000109e+03
1.380000000000000115e-01 4.564679999999999849e-01 5.574160000000000004e+00 1.100589999999999975e+02 1.566805000000000064e+03
1.390000000000000124e-01 4.564504999999999812e-01 5.418620000000000658e+00 1.099455000000000098e+02 1.566750000000000000e+03
1.400000000000000133e-01 4.564399999999999569e-01 5.293800000000000061e+00 1.098769999999999953e+02 1.566715000000000146e+03
1.410000000000000142e-01 4.564350000000000351e-01 5.196429999999999438e+00 1.098460000000000036e+02 1.566679999999999836e+03
1.420000000000000151e-01 4.564354999999999940e-01 5.123104999999999798e+00 1.098474999999999966e+02 1.566670000000000073e+03
1.430000000000000160e-01 4.564390000000000391e-01 5.070394999999999541e+00 1.098735000000000070e+02 1.566659999999999854e+03
1.440000000000000169e-01 4.564460000000000184e-01 5.034964999999999691e+00 1.099190000000000111e+02 1.566664999999999964e+03
1.450000000000000178e-01 4.564540000000000264e-01 5.013634999999999842e+00 1.099780000000000086e+02 1.566670000000000073e+03
1.459999999999999909e-01 4.564635000000000220e-01 5.003470000000000084e+00 1.100444999999999993e+02 1.566684999999999945e+03
1.469999999999999918e-01 4.564740000000000464e-01 5.001845000000000319e+00 1.101154999999999973e+02 1.566695000000000164e+03
1.479999999999999927e-01 4.564840000000000009e-01 5.006434999999999746e+00 1.101860000000000070e+02 1.566710000000000036e+03
1.489999999999999936e-01 4.564934999999999965e-01 5.015249999999999986e+00 1.102545000000000073e+02 1.566730000000000018e+03
1.499999999999999944e-01 4.565019999999999634e-01 5.026634999999999742e+00 1.103190000000000026e+02 1.566744999999999891e+03
1.509999999999999953e-01 4.565099999999999714e-01 5.039229999999999876e+00 1.103764999999999930e+02 1.566764999999999873e+03
1.519999999999999962e-01 4.565169999999999506e-01 5.051985000000000170e+00 1.104284999999999997e+02 1.566775000000000091e+03
1.529999999999999971e-01 4.565224999999999422e-01 5.064110000000000333e+00 1.104735000000000014e+02 1.566789999999999964e+03
1.539999999999999980e-01 4.565274999999999750e-01 5.075075000000000003e+00 1.105114999999999981e+02 1.566799999999999955e+03
1.549999999999999989e-01 4.565319999999999934e-01 5.084534999999999805e+00 1.105439999999999969e+02 1.566815000000000055e+03
1.559999999999999998e-01 4.565350000000000241e-01 5.092349999999999710e+00 1.105705000000000098e+02 1.566820000000000164e+03
1.570000000000000007e-01 4.565384999999999582e-01 5.098505000000000287e+00 1.105935000000000059e+02 1.566829999999999927e+03
1.580000000000000016e-01 4.565405000000000157e-01 5.103125000000000355e+00 1.106135000000000019e+02 1.566835000000000036e+03
1.590000000000000024e-01 4.565429999999999766e-01 5.106390000000000207e+00 1.106310000000000002e+02 1.566840000000000146e+03
