# t [s], A [cm^2], U [cm/s], P [cPa], c [cm/s]
1.000000000000000021e-03 1.326029999999999986e-01 1.742370000000000030e-01 1.017230999999999881e+02 1.952559999999999945e+03
2.000000000000000042e-03 1.325830000000000064e-01 1.543228999999999962e+00 9.897424999999999784e+01 1.952289999999999964e+03
3.000000000000000062e-03 1.325034999999999963e-01 3.293858499999999800e+00 9.521654999999999802e+01 1.951335000000000036e+03
4.000000000000000083e-03 1.323819999999999997e-01 5.269010999999999889e+00 9.081985000000000241e+01 1.949909999999999854e+03
5.000000000000000104e-03 1.322409999999999974e-01 7.413960000000000328e+00 8.648554999999998927e+01 1.948260000000000218e+03
6.000000000000000125e-03 1.320959999999999912e-01 9.635435000000001082e+00 8.266190000000000282e+01 1.946585000000000036e+03
7.000000000000000146e-03 1.319565000000000043e-01 1.177992000000000061e+01 7.940760000000000218e+01 1.944985000000000127e+03
8.000000000000000167e-03 1.318239999999999967e-01 1.370672500000000049e+01 7.654200000000000159e+01 1.943500000000000000e+03
9.000000000000001055e-03 1.317014999999999991e-01 1.537090500000000048e+01 7.395095000000000596e+01 1.942144999999999982e+03
1.000000000000000194e-02 1.315910000000000135e-01 1.679495000000000005e+01 7.167029999999999745e+01 1.940944999999999936e+03
1.099999999999999936e-02 1.314954999999999874e-01 1.800375000000000014e+01 6.975055000000000405e+01 1.939914999999999964e+03
1.200000000000000025e-02 1.314150000000000040e-01 1.901194999999999879e+01 6.818944999999999368e+01 1.939054999999999836e+03
1.300000000000000114e-02 1.313489999999999935e-01 1.983040000000000092e+01 6.695015000000000782e+01 1.938355000000000018e+03
1.400000000000000203e-02 1.312955000000000094e-01 2.046310000000000073e+01 6.596644999999999470e+01 1.937795000000000073e+03
1.499999999999999944e-02 1.312510000000000066e-01 2.091234999999999999e+01 6.514889999999999759e+01 1.937335000000000036e+03
1.600000000000000033e-02 1.312139999999999973e-01 2.120244999999999891e+01 6.444044999999999845e+01 1.936964999999999918e+03
1.700000000000000122e-02 1.311845000000000094e-01 2.139864999999999995e+01 6.388765000000000782e+01 1.936675000000000182e+03
1.800000000000000211e-02 1.311650000000000038e-01 2.159825000000000017e+01 6.365375000000000227e+01 1.936494999999999891e+03
1.900000000000000300e-02 1.311604999999999854e-01 2.189424999999999955e+01 6.394519999999999982e+01 1.936460000000000036e+03
2.000000000000000042e-02 1.311740000000000128e-01 2.233670000000000044e+01 6.489840000000000941e+01 1.936615000000000009e+03
2.100000000000000130e-02 1.312059999999999893e-01 2.291219999999999857e+01 6.649399999999999977e+01 1.936964999999999918e+03
2.200000000000000219e-02 1.312534999999999952e-01 2.355060000000000286e+01 6.854104999999999848e+01 1.937485000000000127e+03
2.299999999999999961e-02 1.313110000000000110e-01 2.415204999999999913e+01 7.073150000000001114e+01 1.938110000000000127e+03
2.400000000000000050e-02 1.313700000000000145e-01 2.462004999999999910e+01 7.273279999999999745e+01 1.938759999999999991e+03
2.500000000000000139e-02 1.314224999999999977e-01 2.488985000000000269e+01 7.428074999999999761e+01 1.939349999999999909e+03
2.600000000000000228e-02 1.314639999999999975e-01 2.494185000000000230e+01 7.524084999999999468e+01 1.939829999999999927e+03
2.700000000000000316e-02 1.314925000000000122e-01 2.480044999999999789e+01 7.562444999999999595e+01 1.940160000000000082e+03
2.800000000000000058e-02 1.315085000000000004e-01 2.451934999999999931e+01 7.556010000000000559e+01 1.940355000000000018e+03
2.900000000000000147e-02 1.315144999999999786e-01 2.416100000000000136e+01 7.523644999999999072e+01 1.940440000000000055e+03
3.000000000000000236e-02 1.315149999999999930e-01 2.377720000000000056e+01 7.483670000000000755e+01 1.940454999999999927e+03
3.099999999999999978e-02 1.315125000000000044e-01 2.339580000000000126e+01 7.448669999999999902e+01 1.940434999999999945e+03
3.200000000000000067e-02 1.315099999999999880e-01 2.301739999999999853e+01 7.422915000000000418e+01 1.940405000000000200e+03
3.300000000000000155e-02 1.315064999999999984e-01 2.262084999999999724e+01 7.402700000000000102e+01 1.940380000000000109e+03
3.400000000000000244e-02 1.315020000000000078e-01 2.217470000000000141e+01 7.379094999999999516e+01 1.940329999999999927e+03
3.500000000000000333e-02 1.314945000000000142e-01 2.165109999999999957e+01 7.341984999999999673e+01 1.940255000000000109e+03
3.600000000000000422e-02 1.314819999999999878e-01 2.103795000000000215e+01 7.284144999999999470e+01 1.940119999999999891e+03
3.700000000000000511e-02 1.314629999999999965e-01 2.034649999999999892e+01 7.204349999999999454e+01 1.939924999999999955e+03
3.799999999999999906e-02 1.314394999999999869e-01 1.961185000000000045e+01 7.108590000000000941e+01 1.939680000000000064e+03
3.899999999999999994e-02 1.314130000000000020e-01 1.888750000000000284e+01 7.009225000000000705e+01 1.939394999999999982e+03
4.000000000000000083e-02 1.313870000000000038e-01 1.823420000000000130e+01 6.922329999999999472e+01 1.939110000000000127e+03
4.100000000000000172e-02 1.313659999999999828e-01 1.770710000000000051e+01 6.863974999999999227e+01 1.938875000000000000e+03
4.200000000000000261e-02 1.313529999999999975e-01 1.734434999999999860e+01 6.846554999999999325e+01 1.938730000000000018e+03
4.300000000000000350e-02 1.313515000000000099e-01 1.715964999999999918e+01 6.875974999999999682e+01 1.938699999999999818e+03
4.400000000000000439e-02 1.313614999999999922e-01 1.714049999999999940e+01 6.950475000000000136e+01 1.938795000000000073e+03
4.499999999999999833e-02 1.313824999999999854e-01 1.725135000000000218e+01 7.061055000000000348e+01 1.939014999999999873e+03
4.599999999999999922e-02 1.314125000000000154e-01 1.744109999999999872e+01 7.193344999999999345e+01 1.939324999999999818e+03
4.700000000000000011e-02 1.314474999999999949e-01 1.765160000000000196e+01 7.330235000000000412e+01 1.939694999999999936e+03
4.800000000000000100e-02 1.314829999999999888e-01 1.782690000000000197e+01 7.454695000000000960e+01 1.940079999999999927e+03
4.900000000000000189e-02 1.315155000000000074e-01 1.791995000000000005e+01 7.552209999999999468e+01 1.940430000000000064e+03
5.000000000000000278e-02 1.315405000000000046e-01 1.789710000000000178e+01 7.612424999999998931e+01 1.940710000000000036e+03
5.100000000000000366e-02 1.315560000000000063e-01 1.773930000000000007e+01 7.629875000000001251e+01 1.940889999999999873e+03
5.200000000000000455e-02 1.315610000000000113e-01 1.744160000000000110e+01 7.603784999999999172e+01 1.940950000000000045e+03
5.300000000000000544e-02 1.315540000000000043e-01 1.700994999999999990e+01 7.537215000000000487e+01 1.940884999999999991e+03
5.399999999999999939e-02 1.315359999999999863e-01 1.645749999999999957e+01 7.435820000000001073e+01 1.940700000000000045e+03
5.500000000000000028e-02 1.315089999999999870e-01 1.580164999999999864e+01 7.306499999999999773e+01 1.940404999999999973e+03
5.600000000000000117e-02 1.314724999999999921e-01 1.506074999999999875e+01 7.156354999999999222e+01 1.940019999999999982e+03
5.700000000000000205e-02 1.314305000000000057e-01 1.425315000000000154e+01 6.991880000000000450e+01 1.939565000000000055e+03
5.800000000000000294e-02 1.313829999999999998e-01 1.339624999999999844e+01 6.818729999999999336e+01 1.939054999999999836e+03
5.900000000000000383e-02 1.313320000000000043e-01 1.250755499999999998e+01 6.641734999999999900e+01 1.938505000000000109e+03
6.000000000000000472e-02 1.312800000000000078e-01 1.160519000000000034e+01 6.465234999999999843e+01 1.937929999999999836e+03
6.099999999999999867e-02 1.312264999999999959e-01 1.070941499999999991e+01 6.293500000000000227e+01 1.937349999999999909e+03
6.199999999999999956e-02 1.311744999999999994e-01 9.843019999999999214e+00 6.131114999999999782e+01 1.936779999999999973e+03
6.300000000000000044e-02 1.311239999999999906e-01 9.031745000000000800e+00 5.983275000000000432e+01 1.936235000000000127e+03
6.400000000000000133e-02 1.310784999999999867e-01 8.304005000000000081e+00 5.855799999999999983e+01 1.935735000000000127e+03
6.500000000000000222e-02 1.310389999999999888e-01 7.689575000000000493e+00 5.755024999999999835e+01 1.935299999999999955e+03
6.600000000000000311e-02 1.310074999999999990e-01 7.218374999999999986e+00 5.687479999999999336e+01 1.934944999999999936e+03
6.700000000000000400e-02 1.309854999999999769e-01 6.918549999999999756e+00 5.659459999999999980e+01 1.934695000000000164e+03
6.800000000000000488e-02 1.309754999999999947e-01 6.814775000000000027e+00 5.676550000000000296e+01 1.934575000000000045e+03
6.900000000000000577e-02 1.309790000000000121e-01 6.926610000000000156e+00 5.743170000000000641e+01 1.934599999999999909e+03
7.000000000000000666e-02 1.309974999999999890e-01 7.267300000000000537e+00 5.862255000000000393e+01 1.934780000000000200e+03
7.100000000000000755e-02 1.310314999999999952e-01 7.842980000000000729e+00 6.034960000000000235e+01 1.935134999999999991e+03
7.200000000000000844e-02 1.310810000000000031e-01 8.652445000000000164e+00 6.260660000000000025e+01 1.935659999999999854e+03
7.300000000000000933e-02 1.311469999999999858e-01 9.687339999999998952e+00 6.536945000000000050e+01 1.936355000000000018e+03
7.399999999999999634e-02 1.312284999999999979e-01 1.093281999999999954e+01 6.859839999999999804e+01 1.937224999999999909e+03
7.499999999999999722e-02 1.313245000000000107e-01 1.236850499999999897e+01 7.224080000000000723e+01 1.938250000000000000e+03
7.599999999999999811e-02 1.314330000000000220e-01 1.396974999999999945e+01 7.623454999999999870e+01 1.939420000000000073e+03
7.699999999999999900e-02 1.315524999999999889e-01 1.570894999999999975e+01 8.051200000000000045e+01 1.940720000000000027e+03
7.799999999999999989e-02 1.316815000000000069e-01 1.755689999999999884e+01 8.500360000000000582e+01 1.942119999999999891e+03
7.900000000000000078e-02 1.318175000000000041e-01 1.948424999999999940e+01 8.964179999999998927e+01 1.943610000000000127e+03
8.000000000000000167e-02 1.319595000000000073e-01 2.146269999999999811e+01 9.436449999999999250e+01 1.945159999999999854e+03
8.100000000000000255e-02 1.321050000000000002e-01 2.346610000000000085e+01 9.911625000000000796e+01 1.946759999999999991e+03
8.200000000000000344e-02 1.322524999999999951e-01 2.547119999999999962e+01 1.038519500000000022e+02 1.948384999999999991e+03
8.300000000000000433e-02 1.324005000000000043e-01 2.745819999999999794e+01 1.085373500000000035e+02 1.950019999999999982e+03
8.400000000000000522e-02 1.325485000000000135e-01 2.941094999999999970e+01 1.131475000000000080e+02 1.951660000000000082e+03
8.500000000000000611e-02 1.326944999999999930e-01 3.131689999999999685e+01 1.176680000000000064e+02 1.953284999999999854e+03
8.600000000000000699e-02 1.328389999999999849e-01 3.316669999999999874e+01 1.220914999999999964e+02 1.954900000000000091e+03
8.700000000000000788e-02 1.329815000000000025e-01 3.495364999999999611e+01 1.264174999999999898e+02 1.956494999999999891e+03
8.800000000000000877e-02 1.331215000000000037e-01 3.667310000000000514e+01 1.306490000000000009e+02 1.958059999999999945e+03
8.899999999999999578e-02 1.332590000000000163e-01 3.832209999999999894e+01 1.347905000000000086e+02 1.959610000000000127e+03
8.999999999999999667e-02 1.333944999999999992e-01 3.989815000000000111e+01 1.388469999999999800e+02 1.961130000000000109e+03
9.099999999999999756e-02 1.335274999999999934e-01 4.139939999999999998e+01 1.428204999999999814e+02 1.962625000000000000e+03
9.199999999999999845e-02 1.336574999999999847e-01 4.282365000000000066e+01 1.467105000000000246e+02 1.964095000000000027e+03
9.299999999999999933e-02 1.337855000000000016e-01 4.416879999999999740e+01 1.505130000000000052e+02 1.965545000000000073e+03
9.400000000000000022e-02 1.339104999999999879e-01 4.543205000000000382e+01 1.542214999999999918e+02 1.966964999999999918e+03
9.500000000000000111e-02 1.340330000000000132e-01 4.661039999999999850e+01 1.578259999999999934e+02 1.968355000000000018e+03
9.600000000000000200e-02 1.341519999999999935e-01 4.770054999999999978e+01 1.613134999999999764e+02 1.969704999999999927e+03
9.700000000000000289e-02 1.342669999999999975e-01 4.869899999999999807e+01 1.646714999999999804e+02 1.971014999999999873e+03
9.800000000000000377e-02 1.343779999999999974e-01 4.960214999999999463e+01 1.678845000000000027e+02 1.972289999999999964e+03
9.900000000000000466e-02 1.344849999999999934e-01 5.040654999999999575e+01 1.709375000000000000e+02 1.973505000000000109e+03
1.000000000000000056e-01 1.345870000000000122e-01 5.110880000000000223e+01 1.738170000000000073e+02 1.974675000000000182e+03
1.010000000000000064e-01 1.346829999999999972e-01 5.170600000000000307e+01 1.765090000000000146e+02 1.975779999999999973e+03
1.020000000000000073e-01 1.347740000000000049e-01 5.219534999999999769e+01 1.790004999999999882e+02 1.976820000000000164e+03
1.030000000000000082e-01 1.348580000000000056e-01 5.257460000000000377e+01 1.812814999999999941e+02 1.977789999999999964e+03
1.040000000000000091e-01 1.349360000000000004e-01 5.284194999999999709e+01 1.833419999999999845e+02 1.978690000000000055e+03
1.050000000000000100e-01 1.350069999999999881e-01 5.299640000000000128e+01 1.851740000000000066e+02 1.979510000000000218e+03
1.059999999999999970e-01 1.350709999999999966e-01 5.303770000000000095e+01 1.867719999999999914e+02 1.980250000000000000e+03
1.069999999999999979e-01 1.351269999999999971e-01 5.296625000000000227e+01 1.881330000000000098e+02 1.980904999999999973e+03
1.079999999999999988e-01 1.351759999999999906e-01 5.278400000000000603e+01 1.892554999999999836e+02 1.981474999999999909e+03
1.089999999999999997e-01 1.352180000000000049e-01 5.249374999999999858e+01 1.901424999999999841e+02 1.981965000000000146e+03
1.100000000000000006e-01 1.352519999999999833e-01 5.209964999999999691e+01 1.907990000000000066e+02 1.982369999999999891e+03
1.110000000000000014e-01 1.352784999999999960e-01 5.160729999999999507e+01 1.912344999999999970e+02 1.982679999999999836e+03
1.120000000000000023e-01 1.352984999999999882e-01 5.102365000000000350e+01 1.914610000000000127e+02 1.982925000000000182e+03
1.130000000000000032e-01 1.353110000000000146e-01 5.035675000000000523e+01 1.914934999999999832e+02 1.983079999999999927e+03
1.140000000000000041e-01 1.353179999999999938e-01 4.961585000000000178e+01 1.913505000000000109e+02 1.983174999999999955e+03
1.150000000000000050e-01 1.353189999999999948e-01 4.881085000000000207e+01 1.910529999999999973e+02 1.983195000000000164e+03
1.160000000000000059e-01 1.353150000000000186e-01 4.795244999999999891e+01 1.906214999999999975e+02 1.983159999999999854e+03
1.170000000000000068e-01 1.353070000000000106e-01 4.705140000000000100e+01 1.900785000000000196e+02 1.983070000000000164e+03
1.180000000000000077e-01 1.352944999999999842e-01 4.611839999999999407e+01 1.894459999999999980e+02 1.982934999999999945e+03
1.190000000000000085e-01 1.352785000000000237e-01 4.516384999999999650e+01 1.887445000000000164e+02 1.982759999999999991e+03
1.200000000000000094e-01 1.352605000000000057e-01 4.419745000000000346e+01 1.879950000000000045e+02 1.982559999999999945e+03
1.209999999999999964e-01 1.352404999999999857e-01 4.322804999999999609e+01 1.872129999999999939e+02 1.982329999999999927e+03
1.219999999999999973e-01 1.352189999999999781e-01 4.226330000000000098e+01 1.864145000000000039e+02 1.982090000000000146e+03
1.229999999999999982e-01 1.351959999999999829e-01 4.130979999999999563e+01 1.856105000000000018e+02 1.981829999999999927e+03
1.239999999999999991e-01 1.351725000000000010e-01 4.037255000000000393e+01 1.848095000000000141e+02 1.981559999999999945e+03
1.250000000000000000e-01 1.351489999999999914e-01 3.945534999999999570e+01 1.840174999999999841e+02 1.981289999999999964e+03
1.260000000000000009e-01 1.351249999999999951e-01 3.856055000000000632e+01 1.832369999999999948e+02 1.981015000000000100e+03
1.270000000000000018e-01 1.351014999999999855e-01 3.768900000000000006e+01 1.824680000000000177e+02 1.980744999999999891e+03
1.280000000000000027e-01 1.350775000000000170e-01 3.684050000000000580e+01 1.817075000000000102e+02 1.980470000000000027e+03
1.290000000000000036e-01 1.350534999999999930e-01 3.601344999999999885e+01 1.809495000000000005e+02 1.980195000000000164e+03
1.300000000000000044e-01 1.350290000000000101e-01 3.520544999999999902e+01 1.801879999999999882e+02 1.979914999999999964e+03
1.310000000000000053e-01 1.350049999999999861e-01 3.441299999999999670e+01 1.794134999999999991e+02 1.979634999999999991e+03
1.320000000000000062e-01 1.349799999999999889e-01 3.363214999999999577e+01 1.786165000000000020e+02 1.979349999999999909e+03
1.330000000000000071e-01 1.349545000000000050e-01 3.285840000000000316e+01 1.777875000000000227e+02 1.979055000000000064e+03
1.340000000000000080e-01 1.349275000000000058e-01 3.208715000000000117e+01 1.769149999999999920e+02 1.978744999999999891e+03
1.350000000000000089e-01 1.348989999999999911e-01 3.131374999999999886e+01 1.759894999999999925e+02 1.978420000000000073e+03
1.360000000000000098e-01 1.348690000000000166e-01 3.053379999999999939e+01 1.750024999999999977e+02 1.978079999999999927e+03
1.370000000000000107e-01 1.348374999999999990e-01 2.974345000000000283e+01 1.739465000000000146e+02 1.977720000000000027e+03
1.380000000000000115e-01 1.348034999999999928e-01 2.893945000000000078e+01 1.728160000000000025e+02 1.977335000000000036e+03
1.390000000000000124e-01 1.347679999999999989e-01 2.811965000000000003e+01 1.716075000000000159e+02 1.976925000000000182e+03
1.400000000000000133e-01 1.347295000000000020e-01 2.728255000000000052e+01 1.703190000000000168e+02 1.976485000000000127e+03
1.410000000000000142e-01 1.346880000000000022e-01 2.642790000000000106e+01 1.689540000000000077e+02 1.976025000000000091e+03
1.420000000000000151e-01 1.346450000000000147e-01 2.555689999999999884e+01 1.675165000000000077e+02 1.975534999999999854e+03
1.430000000000000160e-01 1.345999999999999974e-01 2.467145000000000010e+01 1.660129999999999768e+02 1.975025000000000091e+03
1.440000000000000169e-01 1.345524999999999916e-01 2.377505000000000024e+01 1.644544999999999959e+02 1.974485000000000127e+03
1.450000000000000178e-01 1.345034999999999981e-01 2.287190000000000012e+01 1.628514999999999873e+02 1.973929999999999836e+03
1.459999999999999909e-01 1.344529999999999892e-01 2.196730000000000160e+01 1.612199999999999989e+02 1.973355000000000018e+03
1.469999999999999918e-01 1.344015000000000071e-01 2.106725000000000136e+01 1.595740000000000123e+02 1.972775000000000091e+03
1.479999999999999927e-01 1.343495000000000106e-01 2.017804999999999893e+01 1.579304999999999950e+02 1.972190000000000055e+03
1.489999999999999936e-01 1.342975000000000141e-01 1.930635000000000190e+01 1.563054999999999950e+02 1.971599999999999909e+03
1.499999999999999944e-01 1.342460000000000042e-01 1.845885000000000176e+01 1.547155000000000200e+02 1.971014999999999873e+03
1.509999999999999953e-01 1.341954999999999953e-01 1.764185000000000159e+01 1.531750000000000114e+02 1.970440000000000055e+03
1.519999999999999962e-01 1.341459999999999875e-01 1.686110000000000042e+01 1.516984999999999957e+02 1.969884999999999991e+03
1.529999999999999971e-01 1.340979999999999950e-01 1.612170000000000059e+01 1.502959999999999923e+02 1.969340000000000146e+03
1.539999999999999980e-01 1.340529999999999777e-01 1.542774999999999963e+01 1.489770000000000039e+02 1.968825000000000045e+03
1.549999999999999989e-01 1.340100000000000180e-01 1.478245000000000076e+01 1.477485000000000070e+02 1.968335000000000036e+03
1.559999999999999998e-01 1.339695000000000191e-01 1.418790000000000084e+01 1.466134999999999877e+02 1.967869999999999891e+03
1.570000000000000007e-01 1.339314999999999811e-01 1.364514999999999922e+01 1.455740000000000123e+02 1.967440000000000055e+03
1.580000000000000016e-01 1.338965000000000016e-01 1.315429999999999922e+01 1.446290000000000191e+02 1.967039999999999964e+03
1.590000000000000024e-01 1.338644999999999974e-01 1.271434999999999960e+01 1.437750000000000057e+02 1.966675000000000182e+03
