# t [s], A [cm^2], U [cm/s], P [cPa], c [cm/s]
1.000000000000000021e-03 7.878780000000000783e-01 6.269349999999999923e-03 1.066595000000000084e+02 1.608164999999999964e+03
2.000000000000000042e-03 7.878625000000000211e-01 -4.339115000000000159e-03 1.066289999999999907e+02 1.608154999999999973e+03
3.000000000000000062e-03 7.879260000000000153e-01 8.301374999999999726e-02 1.067230000000000132e+02 1.608179999999999836e+03
4.000000000000000083e-03 7.879914999999999559e-01 1.851012499999999950e-01 1.068490000000000038e+02 1.608210000000000036e+03
5.000000000000000104e-03 7.879629999999999690e-01 1.706023500000000137e-01 1.068029999999999973e+02 1.608199999999999818e+03
6.000000000000000125e-03 7.878745000000000331e-01 6.907600000000002627e-02 1.065805000000000007e+02 1.608155000000000200e+03
7.000000000000000146e-03 7.878004999999999036e-01 -1.847450000000000481e-02 1.063079999999999927e+02 1.608105000000000018e+03
8.000000000000000167e-03 7.876950000000000340e-01 -1.628459999999999908e-01 1.059250000000000114e+02 1.608025000000000091e+03
9.000000000000001055e-03 7.875144999999998952e-01 -4.331100000000001060e-01 1.053305000000000007e+02 1.607909999999999854e+03
1.000000000000000194e-02 7.872590000000000421e-01 -8.258000000000000895e-01 1.044894999999999925e+02 1.607744999999999891e+03
1.099999999999999936e-02 7.869094999999999285e-01 -1.355220000000000091e+00 1.033459500000000020e+02 1.607514999999999873e+03
1.200000000000000025e-02 7.864455000000000195e-01 -2.036655000000000104e+00 1.018346999999999980e+02 1.607210000000000036e+03
1.300000000000000114e-02 7.858905000000000474e-01 -2.809714999999999741e+00 9.998364999999999725e+01 1.606829999999999927e+03
1.400000000000000203e-02 7.853244999999999809e-01 -3.529949999999999921e+00 9.795050000000000523e+01 1.606400000000000091e+03
1.499999999999999944e-02 7.848304999999999865e-01 -4.039099500000000731e+00 9.595615000000000805e+01 1.605954999999999927e+03
1.600000000000000033e-02 7.844530000000000669e-01 -4.239367499999999289e+00 9.417519999999998959e+01 1.605545000000000073e+03
1.700000000000000122e-02 7.841810000000000169e-01 -4.121694500000000261e+00 9.267629999999999768e+01 1.605170000000000073e+03
1.800000000000000211e-02 7.839659999999999407e-01 -3.750227999999999895e+00 9.141630000000000678e+01 1.604835000000000036e+03
1.900000000000000300e-02 7.837469999999999715e-01 -3.225299000000000138e+00 9.027764999999999418e+01 1.604525000000000091e+03
2.000000000000000042e-02 7.834725000000000161e-01 -2.643323300000000042e+00 8.912314999999999543e+01 1.604210000000000036e+03
2.100000000000000130e-02 7.831179999999999808e-01 -2.065659999999999830e+00 8.784780000000000655e+01 1.603880000000000109e+03
2.200000000000000219e-02 7.826910000000000256e-01 -1.505044999999999744e+00 8.641294999999999504e+01 1.603505000000000109e+03
2.299999999999999961e-02 7.822230000000000016e-01 -9.336099999999998289e-01 8.484985000000000355e+01 1.603115000000000009e+03
2.400000000000000050e-02 7.817524999999999613e-01 -3.074249999999998373e-01 8.323460000000000036e+01 1.602710000000000036e+03
2.500000000000000139e-02 7.813069999999999737e-01 4.047800000000001397e-01 8.164779999999998950e+01 1.602309999999999945e+03
2.600000000000000228e-02 7.808954999999999647e-01 1.200884999999999980e+00 8.013804999999999268e+01 1.601920000000000073e+03
2.700000000000000316e-02 7.805014999999999592e-01 2.038450000000000095e+00 7.869984999999999786e+01 1.601545000000000073e+03
2.800000000000000058e-02 7.800914999999999377e-01 2.841190000000000104e+00 7.727139999999999986e+01 1.601170000000000073e+03
2.900000000000000147e-02 7.796214999999999673e-01 3.515175000000000161e+00 7.574930000000000518e+01 1.600779999999999973e+03
3.000000000000000236e-02 7.790540000000000243e-01 3.970105000000000217e+00 7.401554999999999040e+01 1.600355000000000018e+03
3.099999999999999978e-02 7.783629999999999161e-01 4.140989999999999505e+00 7.197090000000000032e+01 1.599875000000000000e+03
3.200000000000000067e-02 7.775484999999999758e-01 4.004199999999999093e+00 6.956465000000000032e+01 1.599325000000000045e+03
3.300000000000000155e-02 7.766325000000000589e-01 3.583280000000000243e+00 6.681354999999999222e+01 1.598704999999999927e+03
3.400000000000000244e-02 7.756589999999999874e-01 2.943099999999999827e+00 6.380275000000000318e+01 1.598035000000000082e+03
3.500000000000000333e-02 7.746830000000000105e-01 2.173740000000000006e+00 6.067079999999999984e+01 1.597325000000000045e+03
3.600000000000000422e-02 7.737585000000000157e-01 1.372289999999999566e+00 5.758395000000000152e+01 1.596625000000000000e+03
3.700000000000000511e-02 7.729329999999999812e-01 6.261499999999999844e-01 5.470909999999999940e+01 1.595954999999999927e+03
3.799999999999999906e-02 7.722409999999999553e-01 2.880000000000215721e-03 5.219164999999999566e+01 1.595355000000000018e+03
3.899999999999999994e-02 7.717019999999999991e-01 -4.536000000000002252e-01 5.014119999999999777e+01 1.594840000000000146e+03
4.000000000000000083e-02 7.713250000000000384e-01 -7.213899999999999757e-01 4.862654999999999461e+01 1.594440000000000055e+03
4.100000000000000172e-02 7.711069999999999869e-01 -7.952850000000000197e-01 4.767775000000000318e+01 1.594164999999999964e+03
4.200000000000000261e-02 7.710425000000000750e-01 -6.799120000000000719e-01 4.729415000000000191e+01 1.594014999999999873e+03
4.300000000000000350e-02 7.711204999999999865e-01 -3.830480000000000551e-01 4.745489999999999498e+01 1.593985000000000127e+03
4.400000000000000439e-02 7.713330000000000464e-01 8.932000000000006601e-02 4.812909999999999400e+01 1.594075000000000045e+03
4.499999999999999833e-02 7.716735000000000122e-01 7.352350000000003050e-01 4.928435000000000343e+01 1.594279999999999973e+03
4.599999999999999922e-02 7.721370000000000733e-01 1.556079999999999908e+00 5.089039999999999964e+01 1.594595000000000027e+03
4.700000000000000011e-02 7.727180000000000160e-01 2.553795000000000037e+00 5.291929999999999978e+01 1.595009999999999991e+03
4.800000000000000100e-02 7.734105000000000008e-01 3.727005000000000123e+00 5.534279999999999688e+01 1.595519999999999982e+03
4.900000000000000189e-02 7.742054999999999909e-01 5.067675000000000374e+00 5.812810000000000343e+01 1.596119999999999891e+03
5.000000000000000278e-02 7.750905000000000156e-01 6.558970000000000411e+00 6.123435000000000628e+01 1.596799999999999955e+03
5.100000000000000366e-02 7.760469999999999313e-01 8.175156000000001200e+00 6.461090000000000089e+01 1.597545000000000073e+03
5.200000000000000455e-02 7.770574999999999566e-01 9.882832500000001019e+00 6.819755000000000678e+01 1.598349999999999909e+03
5.300000000000000544e-02 7.780994999999999440e-01 1.164393500000000081e+01 7.192730000000000246e+01 1.599190000000000055e+03
5.399999999999999939e-02 7.791529999999999845e-01 1.341870499999999922e+01 7.573029999999999973e+01 1.600065000000000055e+03
5.500000000000000028e-02 7.801985000000000170e-01 1.516920499999999983e+01 7.953829999999999245e+01 1.600950000000000045e+03
5.600000000000000117e-02 7.812200000000000255e-01 1.686205999999999960e+01 8.328969999999999629e+01 1.601829999999999927e+03
5.700000000000000205e-02 7.822054999999999980e-01 1.847015000000000029e+01 8.693305000000000859e+01 1.602694999999999936e+03
5.800000000000000294e-02 7.831460000000000088e-01 1.997364999999999924e+01 9.042879999999999541e+01 1.603535000000000082e+03
5.900000000000000383e-02 7.840380000000000127e-01 2.135999999999999943e+01 9.375175000000000125e+01 1.604345000000000027e+03
6.000000000000000472e-02 7.848809999999999398e-01 2.262334999999999852e+01 9.689045000000000130e+01 1.605115000000000009e+03
6.099999999999999867e-02 7.856760000000000410e-01 2.376344999999999885e+01 9.984324999999999761e+01 1.605849999999999909e+03
6.199999999999999956e-02 7.864290000000000447e-01 2.478439999999999799e+01 1.026207500000000010e+02 1.606545000000000073e+03
6.300000000000000044e-02 7.871440000000000659e-01 2.569365000000000165e+01 1.052393500000000017e+02 1.607210000000000036e+03
6.400000000000000133e-02 7.878285000000000426e-01 2.650100000000000122e+01 1.077220000000000084e+02 1.607840000000000146e+03
6.500000000000000222e-02 7.884894999999999543e-01 2.721750000000000114e+01 1.100929999999999893e+02 1.608445000000000164e+03
6.600000000000000311e-02 7.891329999999999734e-01 2.785495000000000232e+01 1.123785000000000025e+02 1.609025000000000091e+03
6.700000000000000400e-02 7.897655000000000092e-01 2.842454999999999998e+01 1.146030000000000086e+02 1.609585000000000036e+03
6.800000000000000488e-02 7.903919999999999835e-01 2.893645000000000067e+01 1.167874999999999943e+02 1.610139999999999873e+03
6.900000000000000577e-02 7.910154999999999825e-01 2.939880000000000138e+01 1.189465000000000003e+02 1.610684999999999945e+03
7.000000000000000666e-02 7.916374999999999940e-01 2.981709999999999994e+01 1.210909999999999940e+02 1.611220000000000027e+03
7.100000000000000755e-02 7.922569999999999890e-01 3.019400000000000261e+01 1.232210000000000036e+02 1.611755000000000109e+03
7.200000000000000844e-02 7.928705000000000336e-01 3.052909999999999968e+01 1.253319999999999936e+02 1.612285000000000082e+03
7.300000000000000933e-02 7.934744999999999715e-01 3.081909999999999883e+01 1.274104999999999990e+02 1.612804999999999836e+03
7.399999999999999634e-02 7.940614999999999757e-01 3.105870000000000175e+01 1.294390000000000214e+02 1.613315000000000055e+03
7.499999999999999722e-02 7.946254999999999846e-01 3.124080000000000013e+01 1.313944999999999936e+02 1.613805000000000064e+03
7.599999999999999811e-02 7.951589999999999492e-01 3.135804999999999865e+01 1.332515000000000214e+02 1.614275000000000091e+03
7.699999999999999900e-02 7.956544999999999312e-01 3.140285000000000082e+01 1.349844999999999970e+02 1.614714999999999918e+03
7.799999999999999989e-02 7.961059999999999803e-01 3.136865000000000236e+01 1.365690000000000168e+02 1.615130000000000109e+03
7.900000000000000078e-02 7.965074999999999239e-01 3.125015000000000143e+01 1.379844999999999970e+02 1.615500000000000000e+03
8.000000000000000167e-02 7.968549999999999800e-01 3.104394999999999882e+01 1.392119999999999891e+02 1.615825000000000045e+03
8.100000000000000255e-02 7.971459999999999102e-01 3.074834999999999852e+01 1.402404999999999973e+02 1.616105000000000018e+03
8.200000000000000344e-02 7.973784999999999901e-01 3.036394999999999911e+01 1.410620000000000118e+02 1.616339999999999918e+03
8.300000000000000433e-02 7.975529999999999564e-01 2.989329999999999998e+01 1.416744999999999948e+02 1.616525000000000091e+03
8.400000000000000522e-02 7.976704999999999490e-01 2.934089999999999776e+01 1.420810000000000173e+02 1.616659999999999854e+03
8.500000000000000611e-02 7.977345000000000130e-01 2.871334999999999837e+01 1.422905000000000086e+02 1.616750000000000000e+03
8.600000000000000699e-02 7.977484999999999715e-01 2.801875000000000071e+01 1.423154999999999859e+02 1.616789999999999964e+03
8.700000000000000788e-02 7.977164999999999395e-01 2.726695000000000135e+01 1.421725000000000136e+02 1.616789999999999964e+03
8.800000000000000877e-02 7.976455000000000073e-01 2.646889999999999787e+01 1.418820000000000050e+02 1.616755000000000109e+03
8.899999999999999578e-02 7.975419999999999732e-01 2.563660000000000139e+01 1.414669999999999845e+02 1.616680000000000064e+03
8.999999999999999667e-02 7.974120000000000097e-01 2.478255000000000052e+01 1.409509999999999934e+02 1.616579999999999927e+03
9.099999999999999756e-02 7.972630000000000550e-01 2.391944999999999766e+01 1.403609999999999900e+02 1.616464999999999918e+03
9.199999999999999845e-02 7.971015000000000184e-01 2.305959999999999965e+01 1.397214999999999918e+02 1.616325000000000045e+03
9.299999999999999933e-02 7.969345000000001011e-01 2.221450000000000102e+01 1.390564999999999998e+02 1.616174999999999955e+03
9.400000000000000022e-02 7.967675000000000729e-01 2.139440000000000097e+01 1.383894999999999982e+02 1.616025000000000091e+03
9.500000000000000111e-02 7.966060000000000363e-01 2.060780000000000101e+01 1.377390000000000043e+02 1.615875000000000000e+03
9.600000000000000200e-02 7.964530000000000776e-01 1.986104999999999876e+01 1.371225000000000023e+02 1.615724999999999909e+03
9.700000000000000289e-02 7.963124999999999787e-01 1.915830000000000055e+01 1.365514999999999759e+02 1.615579999999999927e+03
9.800000000000000377e-02 7.961854999999999905e-01 1.850124999999999886e+01 1.360335000000000036e+02 1.615449999999999818e+03
9.900000000000000466e-02 7.960724999999999607e-01 1.788935000000000031e+01 1.355730000000000075e+02 1.615335000000000036e+03
1.000000000000000056e-01 7.959720000000000129e-01 1.731964999999999932e+01 1.351680000000000064e+02 1.615224999999999909e+03
1.010000000000000064e-01 7.958834999999999660e-01 1.678750000000000142e+01 1.348145000000000095e+02 1.615130000000000109e+03
1.020000000000000073e-01 7.958039999999999559e-01 1.628655000000000186e+01 1.345045000000000073e+02 1.615045000000000073e+03
1.030000000000000082e-01 7.957294999999999785e-01 1.580930000000000035e+01 1.342274999999999920e+02 1.614965000000000146e+03
1.040000000000000091e-01 7.956575000000000175e-01 1.534734999999999872e+01 1.339714999999999918e+02 1.614894999999999982e+03
1.050000000000000100e-01 7.955840000000000689e-01 1.489219999999999899e+01 1.337224999999999966e+02 1.614824999999999818e+03
1.059999999999999970e-01 7.955060000000000464e-01 1.443534999999999968e+01 1.334675000000000011e+02 1.614759999999999991e+03
1.069999999999999979e-01 7.954194999999999460e-01 1.396875000000000000e+01 1.331929999999999836e+02 1.614690000000000055e+03
1.079999999999999988e-01 7.953224999999999323e-01 1.348525000000000063e+01 1.328879999999999768e+02 1.614610000000000127e+03
1.089999999999999997e-01 7.952120000000000299e-01 1.297910499999999878e+01 1.325430000000000064e+02 1.614525000000000091e+03
1.100000000000000006e-01 7.950870000000000992e-01 1.244585000000000008e+01 1.321514999999999986e+02 1.614434999999999945e+03
1.110000000000000014e-01 7.949474999999999181e-01 1.188286499999999890e+01 1.317079999999999984e+02 1.614329999999999927e+03
1.120000000000000023e-01 7.947929999999999717e-01 1.128939499999999896e+01 1.312124999999999773e+02 1.614220000000000027e+03
1.130000000000000032e-01 7.946254999999999846e-01 1.066671000000000014e+01 1.306680000000000064e+02 1.614090000000000146e+03
1.140000000000000041e-01 7.944469999999999033e-01 1.001783499999999982e+01 1.300799999999999841e+02 1.613960000000000036e+03
1.150000000000000050e-01 7.942605000000000359e-01 9.347699999999999676e+00 1.294575000000000102e+02 1.613815000000000055e+03
1.160000000000000059e-01 7.940700000000000536e-01 8.662710000000000576e+00 1.288120000000000118e+02 1.613664999999999964e+03
1.170000000000000068e-01 7.938800000000000301e-01 7.970629999999999882e+00 1.281580000000000155e+02 1.613514999999999873e+03
1.180000000000000077e-01 7.936944999999999695e-01 7.280160000000000409e+00 1.275114999999999981e+02 1.613360000000000127e+03
1.190000000000000085e-01 7.935185000000000155e-01 6.600444999999999673e+00 1.268880000000000052e+02 1.613214999999999918e+03
1.200000000000000094e-01 7.933569999999999789e-01 5.940884999999999749e+00 1.263044999999999902e+02 1.613075000000000045e+03
1.209999999999999964e-01 7.932135000000000158e-01 5.310529999999999973e+00 1.257770000000000010e+02 1.612945000000000164e+03
1.219999999999999973e-01 7.930924999999999780e-01 4.717724999999999724e+00 1.253195000000000050e+02 1.612829999999999927e+03
1.229999999999999982e-01 7.929969999999999519e-01 4.169805000000000206e+00 1.249449999999999932e+02 1.612735000000000127e+03
1.239999999999999991e-01 7.929289999999999949e-01 3.672715000000000174e+00 1.246620000000000061e+02 1.612654999999999973e+03
1.250000000000000000e-01 7.928900000000000947e-01 3.230839999999999712e+00 1.244780000000000086e+02 1.612595000000000027e+03
1.260000000000000009e-01 7.928800000000000292e-01 2.846784999999999677e+00 1.243954999999999984e+02 1.612565000000000055e+03
1.270000000000000018e-01 7.928990000000000204e-01 2.521354999999999791e+00 1.244140000000000015e+02 1.612555000000000064e+03
1.280000000000000027e-01 7.929439999999999822e-01 2.253585000000000171e+00 1.245289999999999964e+02 1.612565000000000055e+03
1.290000000000000036e-01 7.930139999999999967e-01 2.040799999999999947e+00 1.247340000000000089e+02 1.612599999999999909e+03
1.300000000000000044e-01 7.931049999999999489e-01 1.878854999999999942e+00 1.250194999999999936e+02 1.612654999999999973e+03
1.310000000000000053e-01 7.932135000000000158e-01 1.762361499999999914e+00 1.253714999999999975e+02 1.612724999999999909e+03
1.320000000000000062e-01 7.933345000000000535e-01 1.684968999999999939e+00 1.257769999999999868e+02 1.612809999999999945e+03
1.330000000000000071e-01 7.934650000000000869e-01 1.639696999999999960e+00 1.262205000000000013e+02 1.612905000000000200e+03
1.340000000000000080e-01 7.935999999999999721e-01 1.619213000000000013e+00 1.266870000000000118e+02 1.613005000000000109e+03
1.350000000000000089e-01 7.937349999999999683e-01 1.616166999999999909e+00 1.271610000000000014e+02 1.613115000000000009e+03
1.360000000000000098e-01 7.938665000000000305e-01 1.623445500000000097e+00 1.276270000000000095e+02 1.613214999999999918e+03
1.370000000000000107e-01 7.939905000000000435e-01 1.634388500000000022e+00 1.280734999999999957e+02 1.613320000000000164e+03
1.380000000000000115e-01 7.941050000000000608e-01 1.643011999999999917e+00 1.284884999999999877e+02 1.613420000000000073e+03
1.390000000000000124e-01 7.942069999999999963e-01 1.644123000000000001e+00 1.288615000000000066e+02 1.613509999999999991e+03
1.400000000000000133e-01 7.942945000000000144e-01 1.633412499999999934e+00 1.291860000000000070e+02 1.613589999999999918e+03
1.410000000000000142e-01 7.943664999999999754e-01 1.607530000000000125e+00 1.294555000000000007e+02 1.613660000000000082e+03
1.420000000000000151e-01 7.944225000000000314e-01 1.564074999999999882e+00 1.296675000000000182e+02 1.613715000000000146e+03
1.430000000000000160e-01 7.944620000000000015e-01 1.501589999999999980e+00 1.298199999999999932e+02 1.613759999999999991e+03
1.440000000000000169e-01 7.944854999999999556e-01 1.419510000000000050e+00 1.299144999999999754e+02 1.613789999999999964e+03
1.450000000000000178e-01 7.944934999999999636e-01 1.318080000000000140e+00 1.299509999999999934e+02 1.613804999999999836e+03
1.459999999999999909e-01 7.944875000000000131e-01 1.198253999999999930e+00 1.299334999999999809e+02 1.613809999999999945e+03
1.469999999999999918e-01 7.944685000000000219e-01 1.061620000000000008e+00 1.298670000000000186e+02 1.613804999999999836e+03
1.479999999999999927e-01 7.944370000000000598e-01 9.102360000000000451e-01 1.297560000000000002e+02 1.613785000000000082e+03
1.489999999999999936e-01 7.943964999999999499e-01 7.465095000000000480e-01 1.296050000000000182e+02 1.613755000000000109e+03
1.499999999999999944e-01 7.943470000000000253e-01 5.730917000000000927e-01 1.294205000000000041e+02 1.613719999999999800e+03
1.509999999999999953e-01 7.942899999999999405e-01 3.927185000000000259e-01 1.292075000000000102e+02 1.613674999999999955e+03
1.519999999999999962e-01 7.942274999999999752e-01 2.080934999999999868e-01 1.289714999999999918e+02 1.613625000000000000e+03
1.529999999999999971e-01 7.941599999999999770e-01 2.179100000000000481e-02 1.287169999999999845e+02 1.613570000000000164e+03
1.539999999999999980e-01 7.940895000000000037e-01 -1.638519999999999976e-01 1.284474999999999909e+02 1.613509999999999991e+03
1.549999999999999989e-01 7.940160000000000551e-01 -3.468054999999999888e-01 1.281674999999999898e+02 1.613444999999999936e+03
1.559999999999999998e-01 7.939399999999999791e-01 -5.253875000000000073e-01 1.278779999999999859e+02 1.613375000000000000e+03
1.570000000000000007e-01 7.938620000000000676e-01 -6.983127999999999558e-01 1.275815000000000055e+02 1.613309999999999945e+03
1.580000000000000016e-01 7.937825000000000575e-01 -8.646575000000000788e-01 1.272789999999999964e+02 1.613234999999999900e+03
1.590000000000000024e-01 7.937004999999999200e-01 -1.023856499999999947e+00 1.269699999999999989e+02 1.613164999999999964e+03
