# t [s], A [cm^2], U [cm/s], P [cPa], c [cm/s]
1.000000000000000021e-03 1.745340000000000225e-01 3.681415499999999841e-01 9.377289999999999281e+01 2.346309999999999945e+03
2.000000000000000042e-03 1.744735000000000036e-01 1.920225000000000071e+00 8.980944999999999823e+01 2.345684999999999945e+03
3.000000000000000062e-03 1.743385000000000074e-01 3.847512000000000487e+00 8.429314999999999714e+01 2.344335000000000036e+03
4.000000000000000083e-03 1.741705000000000059e-01 6.053211000000000119e+00 7.870754999999999768e+01 2.342680000000000291e+03
5.000000000000000104e-03 1.740054999999999796e-01 8.394664999999999822e+00 7.413634999999999309e+01 2.341065000000000055e+03
6.000000000000000125e-03 1.738534999999999942e-01 1.053901499999999913e+01 7.045510000000000161e+01 2.339605000000000018e+03
7.000000000000000146e-03 1.737134999999999929e-01 1.227507999999999910e+01 6.711899999999999977e+01 2.338300000000000182e+03
8.000000000000000167e-03 1.735919999999999963e-01 1.366183000000000014e+01 6.419965000000000543e+01 2.337184999999999945e+03
9.000000000000001055e-03 1.734930000000000083e-01 1.476045000000000051e+01 6.187255000000000393e+01 2.336284999999999854e+03
1.000000000000000194e-02 1.734149999999999858e-01 1.559585000000000043e+01 6.009994999999999266e+01 2.335585000000000036e+03
1.099999999999999936e-02 1.733560000000000101e-01 1.619464999999999932e+01 5.879695000000000249e+01 2.335059999999999945e+03
1.200000000000000025e-02 1.733100000000000196e-01 1.654939999999999856e+01 5.776054999999999495e+01 2.334664999999999964e+03
1.300000000000000114e-02 1.732720000000000093e-01 1.668955000000000055e+01 5.680010000000000048e+01 2.334345000000000255e+03
1.400000000000000203e-02 1.732434999999999947e-01 1.679715000000000202e+01 5.616154999999999831e+01 2.334109999999999673e+03
1.499999999999999944e-02 1.732405000000000195e-01 1.715514999999999901e+01 5.657235000000000014e+01 2.334090000000000146e+03
1.600000000000000033e-02 1.732775000000000010e-01 1.794565000000000055e+01 5.868025000000000091e+01 2.334425000000000182e+03
1.700000000000000122e-02 1.733570000000000111e-01 1.909629999999999939e+01 6.242024999999999579e+01 2.335144999999999982e+03
1.800000000000000211e-02 1.734634999999999927e-01 2.029984999999999928e+01 6.686860000000000070e+01 2.336119999999999891e+03
1.900000000000000300e-02 1.735685000000000144e-01 2.117445000000000022e+01 7.065784999999999627e+01 2.337100000000000364e+03
2.000000000000000042e-02 1.736429999999999918e-01 2.145139999999999958e+01 7.263675000000000637e+01 2.337819999999999709e+03
2.100000000000000130e-02 1.736699999999999910e-01 2.108780000000000143e+01 7.238159999999999172e+01 2.338114999999999782e+03
2.200000000000000219e-02 1.736505000000000132e-01 2.025845000000000340e+01 7.031250000000000000e+01 2.337974999999999909e+03
2.299999999999999961e-02 1.735995000000000177e-01 1.924685000000000201e+01 6.740014999999999645e+01 2.337529999999999745e+03
2.400000000000000050e-02 1.735395000000000132e-01 1.830445000000000277e+01 6.466134999999999877e+01 2.336980000000000018e+03
2.500000000000000139e-02 1.734860000000000013e-01 1.754980000000000118e+01 6.271750000000000114e+01 2.336480000000000018e+03
2.600000000000000228e-02 1.734475000000000044e-01 1.694695000000000107e+01 6.160949999999999704e+01 2.336110000000000127e+03
2.700000000000000316e-02 1.734195000000000042e-01 1.635589999999999833e+01 6.090035000000000309e+01 2.335840000000000146e+03
2.800000000000000058e-02 1.733899999999999886e-01 1.562119999999999997e+01 5.996899999999999409e+01 2.335569999999999709e+03
2.900000000000000147e-02 1.733484999999999887e-01 1.465909999999999869e+01 5.834819999999999851e+01 2.335195000000000164e+03
3.000000000000000236e-02 1.732899999999999996e-01 1.350924999999999976e+01 5.597050000000000125e+01 2.334670000000000073e+03
3.099999999999999978e-02 1.732199999999999851e-01 1.233288500000000099e+01 5.323075000000000045e+01 2.334024999999999636e+03
3.200000000000000067e-02 1.731520000000000004e-01 1.135735999999999990e+01 5.084459999999999980e+01 2.333394999999999982e+03
3.300000000000000155e-02 1.731030000000000069e-01 1.079204999999999970e+01 4.956725000000000136e+01 2.332930000000000291e+03
3.400000000000000244e-02 1.730884999999999785e-01 1.075215000000000032e+01 4.989945000000000164e+01 2.332760000000000218e+03
3.500000000000000333e-02 1.731139999999999901e-01 1.121890000000000143e+01 5.189829999999999899e+01 2.332965000000000146e+03
3.600000000000000422e-02 1.731765000000000110e-01 1.204645000000000010e+01 5.515384999999999849e+01 2.333510000000000218e+03
3.700000000000000511e-02 1.732615000000000127e-01 1.300585000000000058e+01 5.891675000000000040e+01 2.334279999999999745e+03
3.799999999999999906e-02 1.733504999999999907e-01 1.384479999999999933e+01 6.231080000000000041e+01 2.335095000000000255e+03
3.899999999999999994e-02 1.734229999999999938e-01 1.434529999999999994e+01 6.455294999999999561e+01 2.335769999999999982e+03
4.000000000000000083e-02 1.734614999999999907e-01 1.436200000000000010e+01 6.511705000000000609e+01 2.336154999999999745e+03
4.100000000000000172e-02 1.734574999999999867e-01 1.383800000000000097e+01 6.380795000000000528e+01 2.336135000000000218e+03
4.200000000000000261e-02 1.734069999999999778e-01 1.279729999999999990e+01 6.074394999999999811e+01 2.335704999999999927e+03
4.300000000000000350e-02 1.733155000000000112e-01 1.132210500000000053e+01 5.627074999999999960e+01 2.334880000000000109e+03
4.400000000000000439e-02 1.731900000000000106e-01 9.524554999999999438e+00 5.084479999999999933e+01 2.333735000000000127e+03
4.499999999999999833e-02 1.730420000000000014e-01 7.522289999999999921e+00 4.492620000000000147e+01 2.332380000000000109e+03
4.599999999999999922e-02 1.728810000000000069e-01 5.423392999999999908e+00 3.890769999999999840e+01 2.330900000000000091e+03
4.700000000000000011e-02 1.727174999999999960e-01 3.320994999999999919e+00 3.308794999999999931e+01 2.329394999999999982e+03
4.800000000000000100e-02 1.725579999999999892e-01 1.296169999999999822e+00 2.768290000000000006e+01 2.327914999999999964e+03
4.900000000000000189e-02 1.724089999999999789e-01 -5.764749999999998487e-01 2.285650000000000048e+01 2.326529999999999745e+03
5.000000000000000278e-02 1.722759999999999847e-01 -2.223539999999999850e+00 1.875339999999999918e+01 2.325289999999999964e+03
5.100000000000000366e-02 1.721624999999999961e-01 -3.571136000000000088e+00 1.552104500000000087e+01 2.324225000000000364e+03
5.200000000000000455e-02 1.720740000000000047e-01 -4.547484999999999999e+00 1.331269500000000150e+01 2.323394999999999982e+03
5.300000000000000544e-02 1.720154999999999879e-01 -5.088974999999999582e+00 1.227514500000000019e+01 2.322824999999999818e+03
5.399999999999999939e-02 1.719910000000000050e-01 -5.147809999999999775e+00 1.252544999999999931e+01 2.322565000000000055e+03
5.500000000000000028e-02 1.720025000000000026e-01 -4.698859999999999815e+00 1.412664999999999971e+01 2.322640000000000327e+03
5.600000000000000117e-02 1.720514999999999961e-01 -3.743889999999999940e+00 1.706980000000000075e+01 2.323055000000000291e+03
5.700000000000000205e-02 1.721369999999999845e-01 -2.312262000000000040e+00 2.126789999999999736e+01 2.323815000000000055e+03
5.800000000000000294e-02 1.722575000000000078e-01 -4.581100000000000172e-01 2.656214999999999904e+01 2.324885000000000218e+03
5.900000000000000383e-02 1.724065000000000181e-01 1.744835000000000136e+00 3.273774999999999835e+01 2.326239999999999782e+03
6.000000000000000472e-02 1.725800000000000112e-01 4.209719500000000281e+00 3.954495000000000005e+01 2.327814999999999600e+03
6.099999999999999867e-02 1.727694999999999925e-01 6.843120000000000758e+00 4.672084999999999866e+01 2.329559999999999945e+03
6.199999999999999956e-02 1.729694999999999983e-01 9.551220000000000709e+00 5.400915000000000532e+01 2.331404999999999745e+03
6.300000000000000044e-02 1.731729999999999936e-01 1.224534000000000056e+01 6.117629999999999768e+01 2.333295000000000073e+03
6.400000000000000133e-02 1.733735000000000137e-01 1.484700000000000131e+01 6.802549999999999386e+01 2.335159999999999854e+03
6.500000000000000222e-02 1.735659999999999981e-01 1.729234999999999900e+01 7.440744999999999720e+01 2.336965000000000146e+03
6.600000000000000311e-02 1.737469999999999848e-01 1.953600000000000136e+01 8.022865000000000180e+01 2.338664999999999964e+03
6.700000000000000400e-02 1.739134999999999986e-01 2.155299999999999727e+01 8.545589999999999975e+01 2.340234999999999673e+03
6.800000000000000488e-02 1.740659999999999985e-01 2.333934999999999960e+01 9.011529999999999063e+01 2.341680000000000291e+03
6.900000000000000577e-02 1.742035000000000111e-01 2.491060000000000230e+01 9.428600000000000136e+01 2.342989999999999782e+03
7.000000000000000666e-02 1.743294999999999983e-01 2.629830000000000112e+01 9.808774999999999977e+01 2.344195000000000164e+03
7.100000000000000755e-02 1.744470000000000187e-01 2.754465000000000074e+01 1.016642499999999956e+02 2.345315000000000055e+03
7.200000000000000844e-02 1.745594999999999786e-01 2.869709999999999894e+01 1.051653000000000020e+02 2.346390000000000327e+03
7.300000000000000933e-02 1.746705000000000063e-01 2.980245000000000033e+01 1.087274999999999920e+02 2.347444999999999709e+03
7.399999999999999634e-02 1.747835000000000083e-01 3.090149999999999864e+01 1.124620000000000033e+02 2.348520000000000437e+03
7.499999999999999722e-02 1.749010000000000009e-01 3.202559999999999718e+01 1.164420000000000073e+02 2.349635000000000218e+03
7.599999999999999811e-02 1.750244999999999995e-01 3.319360000000000355e+01 1.206980000000000075e+02 2.350805000000000291e+03
7.699999999999999900e-02 1.751550000000000051e-01 3.441134999999999877e+01 1.252170000000000130e+02 2.352039999999999964e+03
7.799999999999999989e-02 1.752914999999999890e-01 3.567170000000000130e+01 1.299499999999999886e+02 2.353324999999999818e+03
7.900000000000000078e-02 1.754324999999999912e-01 3.695635000000000048e+01 1.348125000000000000e+02 2.354659999999999854e+03
8.000000000000000167e-02 1.755760000000000098e-01 3.823770000000000380e+01 1.397015000000000100e+02 2.356019999999999982e+03
8.100000000000000255e-02 1.757184999999999997e-01 3.948205000000000098e+01 1.444979999999999905e+02 2.357375000000000000e+03
8.200000000000000344e-02 1.758580000000000143e-01 4.065209999999999724e+01 1.490819999999999936e+02 2.358694999999999709e+03
8.300000000000000433e-02 1.759904999999999942e-01 4.171059999999999945e+01 1.533375000000000057e+02 2.359960000000000036e+03
8.400000000000000522e-02 1.761129999999999918e-01 4.262250000000000227e+01 1.571620000000000061e+02 2.361130000000000109e+03
8.500000000000000611e-02 1.762229999999999908e-01 4.335764999999999958e+01 1.604735000000000014e+02 2.362189999999999600e+03
8.600000000000000699e-02 1.763184999999999891e-01 4.389294999999999902e+01 1.632115000000000009e+02 2.363114999999999782e+03
8.700000000000000788e-02 1.763979999999999992e-01 4.421370000000000289e+01 1.653430000000000177e+02 2.363880000000000109e+03
8.800000000000000877e-02 1.764609999999999790e-01 4.431430000000000291e+01 1.668619999999999948e+02 2.364494999999999891e+03
8.899999999999999578e-02 1.765059999999999962e-01 4.419890000000000185e+01 1.677889999999999873e+02 2.364949999999999818e+03
8.999999999999999667e-02 1.765359999999999985e-01 4.388049999999999784e+01 1.681689999999999827e+02 2.365244999999999891e+03
9.099999999999999756e-02 1.765499999999999847e-01 4.337995000000000090e+01 1.680664999999999907e+02 2.365394999999999982e+03
9.199999999999999845e-02 1.765510000000000135e-01 4.272480000000000189e+01 1.675614999999999952e+02 2.365420000000000073e+03
9.299999999999999933e-02 1.765410000000000035e-01 4.194679999999999609e+01 1.667445000000000164e+02 2.365340000000000146e+03
9.400000000000000022e-02 1.765220000000000122e-01 4.108055000000000234e+01 1.657085000000000150e+02 2.365175000000000182e+03
9.500000000000000111e-02 1.764970000000000150e-01 4.016094999999999970e+01 1.645450000000000159e+02 2.364940000000000055e+03
9.600000000000000200e-02 1.764685000000000004e-01 3.922189999999999799e+01 1.633400000000000034e+02 2.364675000000000182e+03
9.700000000000000289e-02 1.764384999999999981e-01 3.829420000000000357e+01 1.621700000000000159e+02 2.364394999999999982e+03
9.800000000000000377e-02 1.764090000000000102e-01 3.740444999999999709e+01 1.610970000000000084e+02 2.364109999999999673e+03
9.900000000000000466e-02 1.763815000000000244e-01 3.657349999999999568e+01 1.601675000000000182e+02 2.363849999999999909e+03
1.000000000000000056e-01 1.763575000000000004e-01 3.581629999999999825e+01 1.594120000000000061e+02 2.363619999999999891e+03
1.010000000000000064e-01 1.763375000000000081e-01 3.514050000000000296e+01 1.588419999999999845e+02 2.363425000000000182e+03
1.020000000000000073e-01 1.763219999999999787e-01 3.454680000000000462e+01 1.584499999999999886e+02 2.363274999999999636e+03
1.030000000000000082e-01 1.763115000000000099e-01 3.402915000000000134e+01 1.582119999999999891e+02 2.363164999999999964e+03
1.040000000000000091e-01 1.763040000000000163e-01 3.357529999999999859e+01 1.580889999999999986e+02 2.363085000000000036e+03
1.050000000000000100e-01 1.762994999999999979e-01 3.316764999999999475e+01 1.580275000000000034e+02 2.363034999999999854e+03
1.059999999999999970e-01 1.762954999999999939e-01 3.278500000000000369e+01 1.579669999999999845e+02 2.362989999999999782e+03
1.069999999999999979e-01 1.762910000000000033e-01 3.240404999999999802e+01 1.578430000000000177e+02 2.362949999999999818e+03
1.079999999999999988e-01 1.762845000000000106e-01 3.200095000000000312e+01 1.575904999999999916e+02 2.362885000000000218e+03
1.089999999999999997e-01 1.762739999999999863e-01 3.155375000000000085e+01 1.571525000000000034e+02 2.362789999999999964e+03
1.100000000000000006e-01 1.762584999999999846e-01 3.104319999999999879e+01 1.564809999999999945e+02 2.362640000000000327e+03
1.110000000000000014e-01 1.762364999999999904e-01 3.045504999999999995e+01 1.555425000000000182e+02 2.362430000000000291e+03
1.120000000000000023e-01 1.762064999999999881e-01 2.978049999999999997e+01 1.543199999999999932e+02 2.362154999999999745e+03
1.130000000000000032e-01 1.761694999999999789e-01 2.901749999999999829e+01 1.528160000000000025e+02 2.361805000000000291e+03
1.140000000000000041e-01 1.761249999999999760e-01 2.817040000000000077e+01 1.510509999999999877e+02 2.361385000000000218e+03
1.150000000000000050e-01 1.760730000000000073e-01 2.724994999999999834e+01 1.490629999999999882e+02 2.360899999999999636e+03
1.160000000000000059e-01 1.760154999999999914e-01 2.627244999999999919e+01 1.469050000000000011e+02 2.360360000000000127e+03
1.170000000000000068e-01 1.759534999999999849e-01 2.525880000000000081e+01 1.446394999999999982e+02 2.359774999999999636e+03
1.180000000000000077e-01 1.758890000000000176e-01 2.423274999999999935e+01 1.423380000000000223e+02 2.359164999999999964e+03
1.190000000000000085e-01 1.758239999999999803e-01 2.321969999999999956e+01 1.400709999999999980e+02 2.358550000000000182e+03
1.200000000000000094e-01 1.757599999999999996e-01 2.224459999999999837e+01 1.379089999999999918e+02 2.357944999999999709e+03
1.209999999999999964e-01 1.756989999999999941e-01 2.133075000000000188e+01 1.359139999999999873e+02 2.357359999999999673e+03
1.219999999999999973e-01 1.756429999999999936e-01 2.049830000000000041e+01 1.341384999999999934e+02 2.356824999999999818e+03
1.229999999999999982e-01 1.755925000000000125e-01 1.976324999999999932e+01 1.326214999999999975e+02 2.356340000000000146e+03
1.239999999999999991e-01 1.755499999999999838e-01 1.913680000000000092e+01 1.313884999999999934e+02 2.355925000000000182e+03
1.250000000000000000e-01 1.755140000000000033e-01 1.862494999999999834e+01 1.304490000000000123e+02 2.355585000000000036e+03
1.260000000000000009e-01 1.754864999999999897e-01 1.822850000000000037e+01 1.298004999999999995e+02 2.355319999999999709e+03
1.270000000000000018e-01 1.754669999999999841e-01 1.794350000000000023e+01 1.294254999999999995e+02 2.355125000000000000e+03
1.280000000000000027e-01 1.754549999999999998e-01 1.776160000000000139e+01 1.292990000000000066e+02 2.355000000000000000e+03
1.290000000000000036e-01 1.754499999999999948e-01 1.767129999999999868e+01 1.293845000000000027e+02 2.354940000000000055e+03
1.300000000000000044e-01 1.754505000000000092e-01 1.765809999999999746e+01 1.296430000000000007e+02 2.354940000000000055e+03
1.310000000000000053e-01 1.754560000000000008e-01 1.770599999999999952e+01 1.300310000000000059e+02 2.354980000000000018e+03
1.320000000000000062e-01 1.754644999999999955e-01 1.779824999999999946e+01 1.305049999999999955e+02 2.355059999999999945e+03
1.330000000000000071e-01 1.754759999999999931e-01 1.791805000000000092e+01 1.310219999999999914e+02 2.355159999999999854e+03
1.340000000000000080e-01 1.754890000000000061e-01 1.804925000000000068e+01 1.315440000000000111e+02 2.355279999999999745e+03
1.350000000000000089e-01 1.755014999999999770e-01 1.817735000000000056e+01 1.320360000000000014e+02 2.355394999999999982e+03
1.360000000000000098e-01 1.755140000000000033e-01 1.828969999999999985e+01 1.324699999999999989e+02 2.355510000000000218e+03
1.370000000000000107e-01 1.755245000000000000e-01 1.837615000000000265e+01 1.328245000000000005e+02 2.355614999999999782e+03
1.380000000000000115e-01 1.755335000000000090e-01 1.842934999999999945e+01 1.330840000000000032e+02 2.355699999999999818e+03
1.390000000000000124e-01 1.755404999999999882e-01 1.844474999999999909e+01 1.332434999999999832e+02 2.355765000000000327e+03
1.400000000000000133e-01 1.755440000000000056e-01 1.842079999999999984e+01 1.333009999999999877e+02 2.355805000000000291e+03
1.410000000000000142e-01 1.755455000000000210e-01 1.835875000000000057e+01 1.332655000000000030e+02 2.355819999999999709e+03
1.420000000000000151e-01 1.755444999999999922e-01 1.826245000000000118e+01 1.331504999999999939e+02 2.355809999999999945e+03
1.430000000000000160e-01 1.755414999999999892e-01 1.813779999999999859e+01 1.329735000000000014e+02 2.355784999999999854e+03
1.440000000000000169e-01 1.755369999999999986e-01 1.799204999999999899e+01 1.327560000000000002e+02 2.355750000000000000e+03
1.450000000000000178e-01 1.755315000000000070e-01 1.783364999999999867e+01 1.325204999999999984e+02 2.355695000000000164e+03
1.459999999999999909e-01 1.755255000000000010e-01 1.767099999999999937e+01 1.322899999999999920e+02 2.355644999999999982e+03
1.469999999999999918e-01 1.755200000000000093e-01 1.751210000000000022e+01 1.320854999999999961e+02 2.355595000000000255e+03
1.479999999999999927e-01 1.755150000000000043e-01 1.736420000000000030e+01 1.319230000000000018e+02 2.355545000000000073e+03
1.489999999999999936e-01 1.755110000000000003e-01 1.723280000000000101e+01 1.318149999999999977e+02 2.355505000000000109e+03
1.499999999999999944e-01 1.755089999999999983e-01 1.712190000000000012e+01 1.317694999999999936e+02 2.355485000000000127e+03
1.509999999999999953e-01 1.755074999999999830e-01 1.703355000000000175e+01 1.317874999999999943e+02 2.355480000000000018e+03
1.519999999999999962e-01 1.755085000000000117e-01 1.696799999999999997e+01 1.318665000000000020e+02 2.355480000000000018e+03
1.529999999999999971e-01 1.755110000000000003e-01 1.692379999999999995e+01 1.319985000000000070e+02 2.355500000000000000e+03
1.539999999999999980e-01 1.755149999999999766e-01 1.689820000000000277e+01 1.321730000000000018e+02 2.355539999999999964e+03
1.549999999999999989e-01 1.755200000000000093e-01 1.688734999999999786e+01 1.323779999999999859e+02 2.355579999999999927e+03
1.559999999999999998e-01 1.755249999999999866e-01 1.688670000000000115e+01 1.325985000000000014e+02 2.355635000000000218e+03
1.570000000000000007e-01 1.755315000000000070e-01 1.689150000000000063e+01 1.328215000000000146e+02 2.355690000000000055e+03
1.580000000000000016e-01 1.755375000000000130e-01 1.689699999999999847e+01 1.330344999999999800e+02 2.355750000000000000e+03
1.590000000000000024e-01 1.755430000000000046e-01 1.689884999999999948e+01 1.332245000000000061e+02 2.355800000000000182e+03
