# t [s], A [cm^2], U [cm/s], P [cPa], c [cm/s]
1.000000000000000021e-03 6.571180000000000909e-01 6.873000000000004106e-03 9.815104999999999791e+01 1.863789999999999964e+03
2.000000000000000042e-03 6.571130000000000582e-01 1.209820000000000166e-02 9.812010000000000787e+01 1.863789999999999964e+03
3.000000000000000062e-03 6.571905000000000108e-01 1.782048999999999994e-01 9.832650000000001000e+01 1.863829999999999927e+03
4.000000000000000083e-03 6.572024999999999118e-01 2.391949999999999910e-01 9.838290000000000646e+01 1.863840000000000146e+03
5.000000000000000104e-03 6.571139999999999759e-01 1.030269999999999797e-01 9.806039999999998713e+01 1.863779999999999973e+03
6.000000000000000125e-03 6.570350000000000357e-01 -3.104149999999999965e-02 9.761554999999999893e+01 1.863684999999999945e+03
7.000000000000000146e-03 6.569160000000000554e-01 -2.645549999999999846e-01 9.695600000000000307e+01 1.863545000000000073e+03
8.000000000000000167e-03 6.567074999999999996e-01 -7.059200000000001030e-01 9.588665000000000305e+01 1.863325000000000045e+03
9.000000000000001055e-03 6.564149999999999707e-01 -1.339770000000000127e+00 9.435885000000000389e+01 1.863005000000000109e+03
1.000000000000000194e-02 6.560019999999999740e-01 -2.216734999999999900e+00 9.223384999999998968e+01 1.862555000000000064e+03
1.099999999999999936e-02 6.554699999999999971e-01 -3.308255000000000390e+00 8.946670000000000300e+01 1.861960000000000036e+03
1.200000000000000025e-02 6.549180000000000001e-01 -4.370768500000000500e+00 8.636424999999999841e+01 1.861269999999999982e+03
1.300000000000000114e-02 6.544750000000000290e-01 -5.085411999999999821e+00 8.345250000000000057e+01 1.860594999999999800e+03
1.400000000000000203e-02 6.542010000000000325e-01 -5.272994999999999877e+00 8.113455000000000439e+01 1.860009999999999991e+03
1.499999999999999944e-02 6.540610000000000035e-01 -4.969384999999999941e+00 7.948914999999999509e+01 1.859550000000000182e+03
1.600000000000000033e-02 6.539649999999999075e-01 -4.363939999999999486e+00 7.829215000000000657e+01 1.859180000000000064e+03
1.700000000000000122e-02 6.538174999999999404e-01 -3.682990000000000208e+00 7.717369999999999663e+01 1.858829999999999927e+03
1.800000000000000211e-02 6.535664999999999392e-01 -3.081541000000000086e+00 7.581244999999999834e+01 1.858449999999999818e+03
1.900000000000000300e-02 6.532185000000000352e-01 -2.586561499999999736e+00 7.407710000000000150e+01 1.857994999999999891e+03
2.000000000000000042e-02 6.528229999999999311e-01 -2.115674999999999972e+00 7.205135000000001355e+01 1.857490000000000009e+03
2.100000000000000130e-02 6.524395000000000611e-01 -1.553400000000000114e+00 6.994065000000000509e+01 1.856954999999999927e+03
2.200000000000000219e-02 6.521034999999999471e-01 -8.339850000000001984e-01 6.793224999999999625e+01 1.856424999999999955e+03
2.299999999999999961e-02 6.518079999999999430e-01 1.203000000000020719e-02 6.608504999999999541e+01 1.855930000000000064e+03
2.400000000000000050e-02 6.515064999999999884e-01 8.586300000000000043e-01 6.429089999999999350e+01 1.855445000000000164e+03
2.500000000000000139e-02 6.511339999999999906e-01 1.522204999999999808e+00 6.230579999999999785e+01 1.854924999999999955e+03
2.600000000000000228e-02 6.506274999999999142e-01 1.820340000000000291e+00 5.983369999999999322e+01 1.854315000000000055e+03
2.700000000000000316e-02 6.499524999999999331e-01 1.633359999999999701e+00 5.663629999999999853e+01 1.853559999999999945e+03
2.800000000000000058e-02 6.491164999999999852e-01 9.473549999999999471e-01 5.263034999999999997e+01 1.852634999999999991e+03
2.900000000000000147e-02 6.481689999999999952e-01 -1.398499999999991417e-01 4.793285000000000196e+01 1.851570000000000164e+03
3.000000000000000236e-02 6.471869999999999568e-01 -1.451740000000000030e+00 4.283589999999999520e+01 1.850394999999999982e+03
3.099999999999999978e-02 6.462529999999999664e-01 -2.786044999999999661e+00 3.772984999999999900e+01 1.849199999999999818e+03
3.200000000000000067e-02 6.454355000000000508e-01 -3.963220000000000187e+00 3.301219999999999999e+01 1.848059999999999945e+03
3.300000000000000155e-02 6.447819999999999663e-01 -4.855990000000000251e+00 2.901395000000000124e+01 1.847059999999999945e+03
3.400000000000000244e-02 6.443134999999999835e-01 -5.397212999999999816e+00 2.595765000000000100e+01 1.846255000000000109e+03
3.500000000000000333e-02 6.440315000000000900e-01 -5.571590000000000487e+00 2.394794999999999874e+01 1.845670000000000073e+03
3.600000000000000422e-02 6.439234999999999820e-01 -5.397444999999999382e+00 2.298814999999999742e+01 1.845329999999999927e+03
3.700000000000000511e-02 6.439725000000000588e-01 -4.906449999999999534e+00 2.301354999999999862e+01 1.845220000000000027e+03
3.799999999999999906e-02 6.441605000000000247e-01 -4.126920000000000144e+00 2.392875000000000085e+01 1.845329999999999927e+03
3.899999999999999994e-02 6.444760000000000488e-01 -3.075660000000000061e+00 2.563705000000000211e+01 1.845639999999999873e+03
4.000000000000000083e-02 6.449084999999999956e-01 -1.759535000000000071e+00 2.805514999999999759e+01 1.846125000000000000e+03
4.100000000000000172e-02 6.454514999999999558e-01 -1.840999999999999304e-01 3.111129999999999995e+01 1.846780000000000200e+03
4.200000000000000261e-02 6.460930000000000284e-01 1.635839999999999961e+00 3.473434999999999917e+01 1.847575000000000045e+03
4.300000000000000350e-02 6.468175000000000452e-01 3.668610000000000149e+00 3.884009999999999962e+01 1.848494999999999891e+03
4.400000000000000439e-02 6.476034999999999986e-01 5.863775000000000404e+00 4.332390000000000185e+01 1.849519999999999982e+03
4.499999999999999833e-02 6.484259999999999469e-01 8.155759999999999010e+00 4.806065000000000254e+01 1.850615000000000009e+03
4.599999999999999922e-02 6.492580000000000018e-01 1.047173500000000068e+01 5.291279999999999717e+01 1.851759999999999991e+03
4.700000000000000011e-02 6.500759999999999872e-01 1.274041500000000049e+01 5.774390000000000356e+01 1.852909999999999854e+03
4.800000000000000100e-02 6.508585000000000065e-01 1.490071999999999974e+01 6.243260000000000076e+01 1.854050000000000182e+03
4.900000000000000189e-02 6.515934999999999366e-01 1.690690000000000026e+01 6.688490000000000180e+01 1.855155000000000200e+03
5.000000000000000278e-02 6.522749999999999382e-01 1.873129999999999740e+01 7.104139999999999588e+01 1.856200000000000045e+03
5.100000000000000366e-02 6.529024999999999412e-01 2.036345000000000027e+01 7.487909999999999400e+01 1.857184999999999945e+03
5.200000000000000455e-02 6.534815000000000484e-01 2.180749999999999744e+01 7.840829999999999700e+01 1.858099999999999909e+03
5.300000000000000544e-02 6.540209999999999635e-01 2.307860000000000156e+01 8.166649999999999920e+01 1.858949999999999818e+03
5.399999999999999939e-02 6.545324999999999616e-01 2.419969999999999999e+01 8.471070000000000277e+01 1.859755000000000109e+03
5.500000000000000028e-02 6.550279999999999436e-01 2.519835000000000136e+01 8.760990000000001032e+01 1.860519999999999982e+03
5.600000000000000117e-02 6.555199999999999916e-01 2.610454999999999970e+01 9.043809999999999150e+01 1.861259999999999991e+03
5.700000000000000205e-02 6.560205000000000064e-01 2.694819999999999993e+01 9.326754999999999995e+01 1.862000000000000000e+03
5.800000000000000294e-02 6.565395000000000536e-01 2.775685000000000002e+01 9.616270000000000095e+01 1.862744999999999891e+03
5.900000000000000383e-02 6.570840000000000014e-01 2.855335000000000178e+01 9.917425000000000068e+01 1.863514999999999873e+03
6.000000000000000472e-02 6.576580000000000759e-01 2.935314999999999941e+01 1.023332499999999925e+02 1.864309999999999945e+03
6.099999999999999867e-02 6.582605000000000262e-01 3.016279999999999717e+01 1.056494999999999891e+02 1.865139999999999873e+03
6.199999999999999956e-02 6.588864999999999306e-01 3.097919999999999874e+01 1.091069999999999993e+02 1.866005000000000109e+03
6.300000000000000044e-02 6.595284999999999620e-01 3.179025000000000034e+01 1.126675000000000040e+02 1.866894999999999982e+03
6.400000000000000133e-02 6.601734999999999687e-01 3.257635000000000502e+01 1.162734999999999985e+02 1.867800000000000182e+03
6.500000000000000222e-02 6.608085000000000209e-01 3.331295000000000073e+01 1.198524999999999920e+02 1.868704999999999927e+03
6.600000000000000311e-02 6.614204999999999668e-01 3.397344999999999970e+01 1.233280000000000030e+02 1.869585000000000036e+03
6.700000000000000400e-02 6.619945000000000412e-01 3.453189999999999316e+01 1.266214999999999975e+02 1.870430000000000064e+03
6.800000000000000488e-02 6.625210000000000266e-01 3.496535000000000082e+01 1.296634999999999991e+02 1.871215000000000146e+03
6.900000000000000577e-02 6.629899999999999682e-01 3.525534999999999997e+01 1.323954999999999984e+02 1.871940000000000055e+03
7.000000000000000666e-02 6.633959999999999857e-01 3.538940000000000197e+01 1.347724999999999795e+02 1.872575000000000045e+03
7.100000000000000755e-02 6.637345000000000050e-01 3.536119999999999663e+01 1.367694999999999936e+02 1.873130000000000109e+03
7.200000000000000844e-02 6.640074999999999728e-01 3.517109999999999559e+01 1.383774999999999977e+02 1.873585000000000036e+03
7.300000000000000933e-02 6.642155000000000697e-01 3.482580000000000098e+01 1.396055000000000064e+02 1.873950000000000045e+03
7.399999999999999634e-02 6.643639999999999546e-01 3.433774999999999977e+01 1.404770000000000039e+02 1.874230000000000018e+03
7.499999999999999722e-02 6.644600000000000506e-01 3.372455000000000069e+01 1.410280000000000200e+02 1.874424999999999955e+03
7.599999999999999811e-02 6.645130000000000203e-01 3.300789999999999935e+01 1.413064999999999998e+02 1.874550000000000182e+03
7.699999999999999900e-02 6.645309999999999828e-01 3.221249999999999858e+01 1.413654999999999973e+02 1.874615000000000009e+03
7.799999999999999989e-02 6.645254999999999912e-01 3.136455000000000126e+01 1.412640000000000100e+02 1.874630000000000109e+03
7.900000000000000078e-02 6.645045000000000535e-01 3.049029999999999774e+01 1.410589999999999975e+02 1.874615000000000009e+03
8.000000000000000167e-02 6.644784999999999719e-01 2.961479999999999890e+01 1.408050000000000068e+02 1.874579999999999927e+03
8.100000000000000255e-02 6.644544999999999479e-01 2.876024999999999920e+01 1.405514999999999759e+02 1.874534999999999854e+03
8.200000000000000344e-02 6.644394999999999607e-01 2.794494999999999862e+01 1.403374999999999773e+02 1.874494999999999891e+03
8.300000000000000433e-02 6.644364999999999855e-01 2.718229999999999791e+01 1.401920000000000073e+02 1.874465000000000146e+03
8.400000000000000522e-02 6.644479999999999276e-01 2.648049999999999926e+01 1.401329999999999814e+02 1.874444999999999936e+03
8.500000000000000611e-02 6.644740000000000091e-01 2.584224999999999994e+01 1.401650000000000205e+02 1.874450000000000045e+03
8.600000000000000699e-02 6.645134999999999792e-01 2.526505000000000223e+01 1.402830000000000155e+02 1.874465000000000146e+03
8.700000000000000788e-02 6.645609999999999573e-01 2.474164999999999992e+01 1.404689999999999941e+02 1.874505000000000109e+03
8.800000000000000877e-02 6.646130000000000093e-01 2.426120000000000232e+01 1.406995000000000005e+02 1.874554999999999836e+03
8.899999999999999578e-02 6.646640000000000326e-01 2.380959999999999965e+01 1.409420000000000073e+02 1.874605000000000018e+03
8.999999999999999667e-02 6.647069999999999368e-01 2.337115000000000009e+01 1.411620000000000061e+02 1.874654999999999973e+03
9.099999999999999756e-02 6.647365000000000634e-01 2.292920000000000158e+01 1.413230000000000075e+02 1.874690000000000055e+03
9.199999999999999845e-02 6.647454999999999892e-01 2.246759999999999735e+01 1.413899999999999864e+02 1.874710000000000036e+03
9.299999999999999933e-02 6.647305000000000019e-01 2.197175000000000011e+01 1.413310000000000173e+02 1.874699999999999818e+03
9.400000000000000022e-02 6.646864999999999579e-01 2.142960000000000065e+01 1.411200000000000045e+02 1.874655000000000200e+03
9.500000000000000111e-02 6.646110000000000628e-01 2.083285000000000053e+01 1.407400000000000091e+02 1.874575000000000045e+03
9.600000000000000200e-02 6.645045000000000535e-01 2.017725000000000080e+01 1.401825000000000045e+02 1.874454999999999927e+03
9.700000000000000289e-02 6.643669999999999298e-01 1.946340000000000003e+01 1.394499999999999886e+02 1.874295000000000073e+03
9.800000000000000377e-02 6.642029999999999879e-01 1.869665000000000177e+01 1.385550000000000068e+02 1.874090000000000146e+03
9.900000000000000466e-02 6.640159999999999396e-01 1.788674999999999926e+01 1.375194999999999936e+02 1.873849999999999909e+03
1.000000000000000056e-01 6.638129999999999864e-01 1.704749999999999943e+01 1.363754999999999882e+02 1.873579999999999927e+03
1.010000000000000064e-01 6.635999999999999677e-01 1.619559999999999889e+01 1.351620000000000061e+02 1.873300000000000182e+03
1.020000000000000073e-01 6.633854999999999613e-01 1.534965000000000046e+01 1.339199999999999875e+02 1.872994999999999891e+03
1.030000000000000082e-01 6.631770000000000165e-01 1.452913500000000013e+01 1.326949999999999932e+02 1.872695000000000164e+03
1.040000000000000091e-01 6.629825000000000301e-01 1.375292999999999921e+01 1.315300000000000011e+02 1.872405000000000200e+03
1.050000000000000100e-01 6.628074999999999939e-01 1.303823999999999828e+01 1.304639999999999986e+02 1.872139999999999873e+03
1.059999999999999970e-01 6.626570000000000515e-01 1.239963499999999996e+01 1.295300000000000011e+02 1.871894999999999982e+03
1.069999999999999979e-01 6.625360000000000138e-01 1.184820500000000010e+01 1.287539999999999907e+02 1.871684999999999945e+03
1.079999999999999988e-01 6.624460000000000903e-01 1.139100999999999964e+01 1.281525000000000034e+02 1.871514999999999873e+03
1.089999999999999997e-01 6.623860000000000303e-01 1.103089999999999904e+01 1.277314999999999969e+02 1.871384999999999991e+03
1.100000000000000006e-01 6.623569999999999736e-01 1.076638000000000162e+01 1.274879999999999995e+02 1.871300000000000182e+03
1.110000000000000014e-01 6.623544999999999572e-01 1.059230499999999964e+01 1.274114999999999895e+02 1.871255000000000109e+03
1.120000000000000023e-01 6.623760000000000758e-01 1.050016000000000105e+01 1.274819999999999993e+02 1.871244999999999891e+03
1.130000000000000032e-01 6.624164999999999637e-01 1.047880999999999929e+01 1.276749999999999972e+02 1.871269999999999982e+03
1.140000000000000041e-01 6.624704999999999622e-01 1.051536499999999918e+01 1.279630000000000081e+02 1.871320000000000164e+03
1.150000000000000050e-01 6.625334999999999974e-01 1.059601999999999933e+01 1.283160000000000025e+02 1.871385000000000218e+03
1.160000000000000059e-01 6.626000000000000778e-01 1.070667500000000061e+01 1.287055000000000007e+02 1.871465000000000146e+03
1.170000000000000068e-01 6.626665000000000472e-01 1.083397000000000077e+01 1.291025000000000205e+02 1.871555000000000064e+03
1.180000000000000077e-01 6.627279999999999838e-01 1.096535000000000082e+01 1.294840000000000089e+02 1.871639999999999873e+03
1.190000000000000085e-01 6.627819999999999823e-01 1.108999999999999986e+01 1.298290000000000077e+02 1.871714999999999918e+03
1.200000000000000094e-01 6.628259999999999152e-01 1.119896999999999920e+01 1.301220000000000141e+02 1.871789999999999964e+03
1.209999999999999964e-01 6.628585000000000171e-01 1.128531500000000065e+01 1.303534999999999968e+02 1.871844999999999800e+03
1.219999999999999973e-01 6.628795000000000659e-01 1.134431000000000012e+01 1.305165000000000077e+02 1.871889999999999873e+03
1.229999999999999982e-01 6.628890000000000615e-01 1.137336999999999954e+01 1.306109999999999900e+02 1.871920000000000073e+03
1.239999999999999991e-01 6.628874999999999629e-01 1.137207000000000079e+01 1.306409999999999911e+02 1.871934999999999945e+03
1.250000000000000000e-01 6.628769999999999385e-01 1.134182000000000023e+01 1.306129999999999995e+02 1.871934999999999945e+03
1.260000000000000009e-01 6.628594999999999349e-01 1.128575499999999998e+01 1.305364999999999895e+02 1.871924999999999955e+03
1.270000000000000018e-01 6.628365000000000506e-01 1.120820499999999953e+01 1.304245000000000232e+02 1.871904999999999973e+03
1.280000000000000027e-01 6.628104999999999691e-01 1.111467999999999989e+01 1.302905000000000086e+02 1.871875000000000000e+03
1.290000000000000036e-01 6.627855000000000274e-01 1.101117999999999952e+01 1.301480000000000246e+02 1.871849999999999909e+03
1.300000000000000044e-01 6.627620000000000733e-01 1.090390999999999977e+01 1.300109999999999957e+02 1.871820000000000164e+03
1.310000000000000053e-01 6.627430000000000820e-01 1.079863999999999891e+01 1.298915000000000077e+02 1.871789999999999964e+03
1.320000000000000062e-01 6.627294999999999714e-01 1.070070000000000121e+01 1.298004999999999995e+02 1.871769999999999982e+03
1.330000000000000071e-01 6.627224999999999921e-01 1.061429500000000026e+01 1.297450000000000045e+02 1.871755000000000109e+03
1.340000000000000080e-01 6.627239999999999798e-01 1.054233499999999957e+01 1.297305000000000064e+02 1.871750000000000000e+03
1.350000000000000089e-01 6.627324999999999466e-01 1.048656000000000077e+01 1.297574999999999932e+02 1.871755000000000109e+03
1.360000000000000098e-01 6.627475000000000449e-01 1.044709999999999894e+01 1.298249999999999886e+02 1.871769999999999982e+03
1.370000000000000107e-01 6.627689999999999415e-01 1.042298000000000080e+01 1.299284999999999854e+02 1.871789999999999964e+03
1.380000000000000115e-01 6.627944999999999531e-01 1.041208500000000114e+01 1.300604999999999905e+02 1.871815000000000055e+03
1.390000000000000124e-01 6.628235000000000099e-01 1.041153500000000065e+01 1.302135000000000105e+02 1.871855000000000018e+03
1.400000000000000133e-01 6.628525000000000666e-01 1.041785999999999923e+01 1.303770000000000095e+02 1.871889999999999873e+03
1.410000000000000142e-01 6.628819999999999713e-01 1.042757500000000093e+01 1.305409999999999968e+02 1.871930000000000064e+03
1.420000000000000151e-01 6.629084999999999006e-01 1.043723999999999918e+01 1.306980000000000075e+02 1.871970000000000027e+03
1.430000000000000160e-01 6.629324999999999246e-01 1.044382999999999839e+01 1.308400000000000034e+02 1.872000000000000000e+03
1.440000000000000169e-01 6.629525000000000556e-01 1.044500500000000009e+01 1.309599999999999795e+02 1.872029999999999973e+03
1.450000000000000178e-01 6.629675000000000429e-01 1.043902500000000089e+01 1.310564999999999998e+02 1.872054999999999836e+03
1.459999999999999909e-01 6.629780000000000673e-01 1.042506000000000022e+01 1.311259999999999764e+02 1.872075000000000045e+03
1.469999999999999918e-01 6.629844999999999766e-01 1.040307500000000118e+01 1.311709999999999923e+02 1.872090000000000146e+03
1.479999999999999927e-01 6.629869999999999930e-01 1.037384499999999932e+01 1.311935000000000002e+02 1.872099999999999909e+03
1.489999999999999936e-01 6.629869999999999930e-01 1.033877500000000005e+01 1.311984999999999957e+02 1.872105000000000018e+03
1.499999999999999944e-01 6.629849999999999355e-01 1.029993500000000139e+01 1.311920000000000073e+02 1.872099999999999909e+03
1.509999999999999953e-01 6.629834999999999479e-01 1.025998500000000035e+01 1.311814999999999998e+02 1.872099999999999909e+03
1.519999999999999962e-01 6.629825000000000301e-01 1.022179000000000038e+01 1.311754999999999995e+02 1.872099999999999909e+03
1.529999999999999971e-01 6.629845000000000876e-01 1.018848000000000020e+01 1.311814999999999998e+02 1.872105000000000018e+03
1.539999999999999980e-01 6.629905000000000381e-01 1.016324499999999986e+01 1.312079999999999984e+02 1.872110000000000127e+03
1.549999999999999989e-01 6.630009999999999515e-01 1.014916000000000018e+01 1.312624999999999886e+02 1.872119999999999891e+03
1.559999999999999998e-01 6.630195000000000949e-01 1.014896500000000046e+01 1.313525000000000205e+02 1.872139999999999873e+03
1.570000000000000007e-01 6.630445000000000366e-01 1.016502000000000017e+01 1.314834999999999923e+02 1.872170000000000073e+03
1.580000000000000016e-01 6.630780000000000562e-01 1.019893000000000072e+01 1.316595000000000084e+02 1.872210000000000036e+03
1.590000000000000024e-01 6.631195000000000839e-01 1.025164000000000009e+01 1.318824999999999932e+02 1.872259999999999991e+03
