# t [s], A [cm^2], U [cm/s], P [cPa], c [cm/s]
1.000000000000000021e-03 2.176130000000000009e-01 1.071915500000000104e-01 9.162770000000000437e+01 1.991664999999999964e+03
2.000000000000000042e-03 2.175805000000000100e-01 1.283355499999999871e+00 8.924429999999999552e+01 1.991460000000000036e+03
3.000000000000000062e-03 2.174619999999999886e-01 2.822953500000000115e+00 8.587420000000000186e+01 1.990750000000000000e+03
4.000000000000000083e-03 2.172819999999999752e-01 4.579953999999999859e+00 8.184825000000000728e+01 1.989710000000000036e+03
5.000000000000000104e-03 2.170730000000000159e-01 6.506175500000000334e+00 7.782630000000000337e+01 1.988514999999999873e+03
6.000000000000000125e-03 2.168609999999999982e-01 8.517295000000000726e+00 7.425704999999999245e+01 1.987304999999999836e+03
7.000000000000000146e-03 2.166575000000000029e-01 1.046351499999999923e+01 7.121550000000000580e+01 1.986159999999999854e+03
8.000000000000000167e-03 2.164659999999999918e-01 1.220151999999999859e+01 6.852944999999999709e+01 1.985099999999999909e+03
9.000000000000001055e-03 2.162894999999999956e-01 1.368579000000000079e+01 6.609350000000000591e+01 1.984139999999999873e+03
1.000000000000000194e-02 2.161319999999999908e-01 1.493949999999999889e+01 6.395305000000000462e+01 1.983300000000000182e+03
1.099999999999999936e-02 2.159979999999999956e-01 1.598770000000000024e+01 6.216425000000000267e+01 1.982585000000000036e+03
1.200000000000000025e-02 2.158860000000000223e-01 1.684530000000000172e+01 6.072794999999999987e+01 1.982000000000000000e+03
1.300000000000000114e-02 2.157959999999999878e-01 1.752299999999999969e+01 5.960819999999999652e+01 1.981529999999999973e+03
1.400000000000000203e-02 2.157235000000000125e-01 1.802340000000000231e+01 5.873444999999999538e+01 1.981164999999999964e+03
1.499999999999999944e-02 2.156644999999999812e-01 1.834835000000000349e+01 5.801239999999999952e+01 1.980875000000000000e+03
1.600000000000000033e-02 2.156164999999999887e-01 1.852554999999999907e+01 5.738864999999999839e+01 1.980634999999999991e+03
1.700000000000000122e-02 2.155790000000000206e-01 1.862689999999999912e+01 5.692549999999999955e+01 1.980454999999999927e+03
1.800000000000000211e-02 2.155590000000000006e-01 1.875564999999999927e+01 5.680490000000000350e+01 1.980365000000000009e+03
1.900000000000000300e-02 2.155624999999999902e-01 1.900544999999999973e+01 5.724249999999999972e+01 1.980394999999999982e+03
2.000000000000000042e-02 2.155964999999999965e-01 1.942029999999999745e+01 5.836554999999999893e+01 1.980574999999999818e+03
2.100000000000000130e-02 2.156595000000000040e-01 1.997610000000000241e+01 6.012969999999999970e+01 1.980914999999999964e+03
2.200000000000000219e-02 2.157459999999999933e-01 2.059174999999999756e+01 6.231295000000000073e+01 1.981375000000000000e+03
2.299999999999999961e-02 2.158444999999999947e-01 2.115970000000000084e+01 6.458204999999999529e+01 1.981904999999999973e+03
2.400000000000000050e-02 2.159409999999999941e-01 2.158180000000000121e+01 6.659404999999999575e+01 1.982434999999999945e+03
2.500000000000000139e-02 2.160239999999999938e-01 2.179684999999999917e+01 6.809149999999999636e+01 1.982900000000000091e+03
2.600000000000000228e-02 2.160860000000000003e-01 2.179250000000000043e+01 6.896065000000000111e+01 1.983250000000000000e+03
2.700000000000000316e-02 2.161244999999999972e-01 2.160085000000000122e+01 6.923935000000000173e+01 1.983474999999999909e+03
2.800000000000000058e-02 2.161430000000000018e-01 2.128079999999999927e+01 6.907920000000000016e+01 1.983590000000000146e+03
2.900000000000000147e-02 2.161464999999999914e-01 2.089529999999999887e+01 6.868025000000000091e+01 1.983619999999999891e+03
3.000000000000000236e-02 2.161414999999999864e-01 2.049139999999999873e+01 6.822220000000000084e+01 1.983599999999999909e+03
3.099999999999999978e-02 2.161330000000000195e-01 2.008870000000000289e+01 6.781395000000000550e+01 1.983555000000000064e+03
3.200000000000000067e-02 2.161230000000000095e-01 1.967849999999999966e+01 6.747390000000000043e+01 1.983505000000000109e+03
3.300000000000000155e-02 2.161115000000000119e-01 1.923245000000000005e+01 6.714260000000000161e+01 1.983444999999999936e+03
3.400000000000000244e-02 2.160954999999999959e-01 1.871665000000000134e+01 6.671815000000000850e+01 1.983365000000000009e+03
3.500000000000000333e-02 2.160725000000000007e-01 1.810715000000000074e+01 6.610354999999999848e+01 1.983240000000000009e+03
3.600000000000000422e-02 2.160384999999999944e-01 1.740180000000000149e+01 6.524875000000000114e+01 1.983065000000000055e+03
3.700000000000000511e-02 2.159949999999999926e-01 1.662604999999999933e+01 6.417865000000000464e+01 1.982839999999999918e+03
3.799999999999999906e-02 2.159444999999999837e-01 1.583024999999999949e+01 6.299725000000000108e+01 1.982575000000000045e+03
3.899999999999999994e-02 2.158924999999999872e-01 1.508024999999999949e+01 6.186835000000000662e+01 1.982295000000000073e+03
4.000000000000000083e-02 2.158470000000000111e-01 1.444304999999999950e+01 6.097820000000000107e+01 1.982049999999999955e+03
4.100000000000000172e-02 2.158144999999999925e-01 1.397225000000000072e+01 6.049179999999999779e+01 1.981865000000000009e+03
4.200000000000000261e-02 2.157999999999999918e-01 1.369710000000000072e+01 6.051415000000000077e+01 1.981775000000000091e+03
4.300000000000000350e-02 2.158074999999999855e-01 1.361700000000000088e+01 6.106665000000000276e+01 1.981804999999999836e+03
4.400000000000000439e-02 2.158360000000000001e-01 1.370265000000000022e+01 6.208330000000000126e+01 1.981944999999999936e+03
4.499999999999999833e-02 2.158824999999999772e-01 1.390279999999999916e+01 6.342515000000000214e+01 1.982179999999999836e+03
4.599999999999999922e-02 2.159404999999999797e-01 1.415409999999999968e+01 6.490744999999999720e+01 1.982485000000000127e+03
4.700000000000000011e-02 2.160019999999999996e-01 1.439144999999999897e+01 6.633275000000000432e+01 1.982815000000000055e+03
4.800000000000000100e-02 2.160604999999999887e-01 1.455734999999999957e+01 6.752160000000000650e+01 1.983125000000000000e+03
4.900000000000000189e-02 2.161080000000000223e-01 1.460804999999999865e+01 6.833619999999999095e+01 1.983384999999999991e+03
5.000000000000000278e-02 2.161389999999999978e-01 1.451675000000000004e+01 6.869299999999999784e+01 1.983554999999999836e+03
5.100000000000000366e-02 2.161509999999999820e-01 1.427289999999999992e+01 6.856450000000000955e+01 1.983630000000000109e+03
5.200000000000000455e-02 2.161425000000000152e-01 1.387984999999999935e+01 6.797145000000000437e+01 1.983595000000000027e+03
5.300000000000000544e-02 2.161144999999999872e-01 1.335030000000000072e+01 6.696925000000000239e+01 1.983450000000000045e+03
5.399999999999999939e-02 2.160690000000000111e-01 1.270230000000000103e+01 6.563224999999999909e+01 1.983215000000000146e+03
5.500000000000000028e-02 2.160080000000000056e-01 1.195539499999999933e+01 6.403925000000000978e+01 1.982894999999999982e+03
5.600000000000000117e-02 2.159349999999999881e-01 1.112864000000000075e+01 6.226350000000000051e+01 1.982505000000000109e+03
5.700000000000000205e-02 2.158525000000000027e-01 1.023965499999999906e+01 6.036714999999999520e+01 1.982065000000000055e+03
5.800000000000000294e-02 2.157634999999999970e-01 9.304970000000000852e+00 5.840090000000000003e+01 1.981585000000000036e+03
5.900000000000000383e-02 2.156700000000000006e-01 8.341169999999999973e+00 5.640725000000000477e+01 1.981085000000000036e+03
6.000000000000000472e-02 2.155739999999999879e-01 7.366460000000000008e+00 5.442555000000000121e+01 1.980565000000000055e+03
6.099999999999999867e-02 2.154785000000000172e-01 6.401805000000000412e+00 5.249710000000000321e+01 1.980049999999999955e+03
6.199999999999999956e-02 2.153844999999999787e-01 5.471404999999999852e+00 5.066920000000000357e+01 1.979545000000000073e+03
6.300000000000000044e-02 2.152959999999999874e-01 4.602764999999999773e+00 4.899699999999999989e+01 1.979065000000000055e+03
6.400000000000000133e-02 2.152145000000000030e-01 3.825709999999999944e+00 4.754285000000000139e+01 1.978625000000000000e+03
6.500000000000000222e-02 2.151440000000000019e-01 3.170955000000000190e+00 4.637349999999999994e+01 1.978240000000000009e+03
6.600000000000000311e-02 2.150880000000000014e-01 2.668225000000000069e+00 4.555540000000000589e+01 1.977924999999999955e+03
6.700000000000000400e-02 2.150489999999999902e-01 2.344289999999999985e+00 4.514995000000000402e+01 1.977700000000000045e+03
6.800000000000000488e-02 2.150294999999999845e-01 2.221144999999999925e+00 4.520785000000000053e+01 1.977585000000000036e+03
6.900000000000000577e-02 2.150320000000000009e-01 2.314585000000000115e+00 4.576505000000000223e+01 1.977585000000000036e+03
7.000000000000000666e-02 2.150579999999999992e-01 2.633255000000000123e+00 4.684005000000000507e+01 1.977710000000000036e+03
7.100000000000000755e-02 2.151089999999999947e-01 3.178269999999999929e+00 4.843220000000000169e+01 1.977970000000000027e+03
7.200000000000000844e-02 2.151845000000000008e-01 3.943354999999999944e+00 5.052240000000000464e+01 1.978360000000000127e+03
7.300000000000000933e-02 2.152835000000000165e-01 4.915440000000000254e+00 5.307475000000000165e+01 1.978880000000000109e+03
7.399999999999999634e-02 2.154044999999999987e-01 6.075649999999999551e+00 5.603905000000000314e+01 1.979514999999999873e+03
7.499999999999999722e-02 2.155455000000000010e-01 7.400489999999999569e+00 5.935500000000000398e+01 1.980264999999999873e+03
7.599999999999999811e-02 2.157034999999999925e-01 8.863289999999999225e+00 6.295539999999999736e+01 1.981105000000000018e+03
7.699999999999999900e-02 2.158760000000000123e-01 1.043565000000000076e+01 6.677119999999999322e+01 1.982025000000000091e+03
7.799999999999999989e-02 2.160595000000000154e-01 1.208884499999999917e+01 7.073460000000000036e+01 1.983014999999999873e+03
7.900000000000000078e-02 2.162514999999999854e-01 1.379517500000000041e+01 7.478294999999999959e+01 1.984050000000000182e+03
8.000000000000000167e-02 2.164480000000000015e-01 1.552919999999999945e+01 7.886179999999998813e+01 1.985115000000000009e+03
8.100000000000000255e-02 2.166474999999999929e-01 1.726845000000000141e+01 8.292650000000000432e+01 1.986195000000000164e+03
8.200000000000000344e-02 2.168479999999999852e-01 1.899425000000000097e+01 8.694364999999999100e+01 1.987285000000000082e+03
8.300000000000000433e-02 2.170475000000000043e-01 2.069164999999999921e+01 9.089105000000000700e+01 1.988369999999999891e+03
8.400000000000000522e-02 2.172449999999999937e-01 2.234935000000000116e+01 9.475650000000000261e+01 1.989449999999999818e+03
8.500000000000000611e-02 2.174400000000000222e-01 2.395974999999999966e+01 9.853754999999999598e+01 1.990514999999999873e+03
8.600000000000000699e-02 2.176314999999999777e-01 2.551754999999999995e+01 1.022366499999999974e+02 1.991565000000000055e+03
8.700000000000000788e-02 2.178200000000000136e-01 2.702004999999999768e+01 1.058615499999999940e+02 1.992599999999999909e+03
8.800000000000000877e-02 2.180060000000000053e-01 2.846539999999999893e+01 1.094205000000000041e+02 1.993625000000000000e+03
8.899999999999999578e-02 2.181894999999999807e-01 2.985285000000000011e+01 1.129219999999999970e+02 1.994634999999999991e+03
8.999999999999999667e-02 2.183700000000000085e-01 3.118160000000000309e+01 1.163710000000000093e+02 1.995630000000000109e+03
9.099999999999999756e-02 2.185479999999999923e-01 3.245074999999999932e+01 1.197704999999999984e+02 1.996615000000000009e+03
9.199999999999999845e-02 2.187244999999999884e-01 3.365894999999999726e+01 1.231189999999999998e+02 1.997590000000000146e+03
9.299999999999999933e-02 2.188980000000000092e-01 3.480454999999999899e+01 1.264120000000000061e+02 1.998545000000000073e+03
9.400000000000000022e-02 2.190684999999999993e-01 3.588514999999999588e+01 1.296409999999999911e+02 1.999494999999999891e+03
9.500000000000000111e-02 2.192354999999999998e-01 3.689824999999999733e+01 1.327959999999999923e+02 2.000420000000000073e+03
9.600000000000000200e-02 2.193994999999999973e-01 3.784064999999999657e+01 1.358650000000000091e+02 2.001324999999999818e+03
9.700000000000000289e-02 2.195590000000000042e-01 3.870929999999999893e+01 1.388335000000000150e+02 2.002210000000000036e+03
9.800000000000000377e-02 2.197129999999999916e-01 3.950070000000000192e+01 1.416875000000000000e+02 2.003069999999999936e+03
9.900000000000000466e-02 2.198620000000000019e-01 4.021139999999999759e+01 1.444139999999999873e+02 2.003900000000000091e+03
1.000000000000000056e-01 2.200044999999999917e-01 4.083760000000000190e+01 1.469979999999999905e+02 2.004694999999999936e+03
1.010000000000000064e-01 2.201394999999999880e-01 4.137570000000000192e+01 1.494245000000000232e+02 2.005445000000000164e+03
1.020000000000000073e-01 2.202664999999999762e-01 4.182205000000000439e+01 1.516809999999999832e+02 2.006154999999999973e+03
1.030000000000000082e-01 2.203855000000000119e-01 4.217314999999999969e+01 1.537540000000000191e+02 2.006824999999999818e+03
1.040000000000000091e-01 2.204949999999999966e-01 4.242600000000000193e+01 1.556315000000000168e+02 2.007440000000000055e+03
1.050000000000000100e-01 2.205954999999999999e-01 4.257795000000000130e+01 1.573029999999999973e+02 2.008000000000000000e+03
1.059999999999999970e-01 2.206849999999999923e-01 4.262760000000000105e+01 1.587604999999999791e+02 2.008505000000000109e+03
1.069999999999999979e-01 2.207640000000000158e-01 4.257430000000000092e+01 1.599984999999999786e+02 2.008954999999999927e+03
1.079999999999999988e-01 2.208320000000000005e-01 4.241894999999999527e+01 1.610154999999999745e+02 2.009340000000000146e+03
1.089999999999999997e-01 2.208895000000000164e-01 4.216409999999999769e+01 1.618129999999999882e+02 2.009664999999999964e+03
1.100000000000000006e-01 2.209355000000000069e-01 4.181374999999999886e+01 1.623974999999999795e+02 2.009934999999999945e+03
1.110000000000000014e-01 2.209710000000000008e-01 4.137369999999999948e+01 1.627795000000000130e+02 2.010139999999999873e+03
1.120000000000000023e-01 2.209969999999999990e-01 4.085115000000000407e+01 1.629739999999999895e+02 2.010289999999999964e+03
1.130000000000000032e-01 2.210130000000000150e-01 4.025475000000000136e+01 1.629975000000000023e+02 2.010389999999999873e+03
1.140000000000000041e-01 2.210209999999999952e-01 3.959425000000000239e+01 1.628714999999999975e+02 2.010440000000000055e+03
1.150000000000000050e-01 2.210210000000000230e-01 3.888000000000000256e+01 1.626175000000000068e+02 2.010444999999999936e+03
1.160000000000000059e-01 2.210145000000000026e-01 3.812284999999999968e+01 1.622585000000000264e+02 2.010414999999999964e+03
1.170000000000000068e-01 2.210019999999999762e-01 3.733360000000000412e+01 1.618179999999999836e+02 2.010355000000000018e+03
1.180000000000000077e-01 2.209855000000000014e-01 3.652270000000000039e+01 1.613170000000000073e+02 2.010264999999999873e+03
1.190000000000000085e-01 2.209654999999999814e-01 3.569989999999999952e+01 1.607744999999999891e+02 2.010159999999999854e+03
1.200000000000000094e-01 2.209424999999999861e-01 3.487404999999999688e+01 1.602090000000000032e+02 2.010035000000000082e+03
1.209999999999999964e-01 2.209184999999999899e-01 3.405279999999999774e+01 1.596345000000000027e+02 2.009894999999999982e+03
1.219999999999999973e-01 2.208924999999999916e-01 3.324249999999999972e+01 1.590614999999999952e+02 2.009759999999999991e+03
1.229999999999999982e-01 2.208664999999999934e-01 3.244810000000000372e+01 1.584985000000000070e+02 2.009610000000000127e+03
1.239999999999999991e-01 2.208404999999999951e-01 3.167304999999999993e+01 1.579490000000000123e+02 2.009469999999999800e+03
1.250000000000000000e-01 2.208144999999999969e-01 3.091929999999999978e+01 1.574155000000000086e+02 2.009325000000000045e+03
1.260000000000000009e-01 2.207890000000000130e-01 3.018755000000000166e+01 1.568954999999999984e+02 2.009179999999999836e+03
1.270000000000000018e-01 2.207635000000000014e-01 2.947690000000000055e+01 1.563845000000000027e+02 2.009034999999999854e+03
1.280000000000000027e-01 2.207375000000000032e-01 2.878560000000000230e+01 1.558760000000000048e+02 2.008889999999999873e+03
1.290000000000000036e-01 2.207120000000000193e-01 2.811080000000000112e+01 1.553614999999999782e+02 2.008750000000000000e+03
1.300000000000000044e-01 2.206859999999999933e-01 2.744879999999999853e+01 1.548315000000000055e+02 2.008605000000000018e+03
1.310000000000000053e-01 2.206584999999999797e-01 2.679534999999999911e+01 1.542755000000000223e+02 2.008450000000000045e+03
1.320000000000000062e-01 2.206294999999999784e-01 2.614620000000000033e+01 1.536825000000000045e+02 2.008289999999999964e+03
1.330000000000000071e-01 2.205989999999999895e-01 2.549654999999999916e+01 1.530425000000000182e+02 2.008115000000000009e+03
1.340000000000000080e-01 2.205659999999999843e-01 2.484224999999999994e+01 1.523464999999999918e+02 2.007929999999999836e+03
1.350000000000000089e-01 2.205300000000000038e-01 2.417934999999999945e+01 1.515865000000000009e+02 2.007730000000000018e+03
1.360000000000000098e-01 2.204905000000000059e-01 2.350465000000000160e+01 1.507565000000000168e+02 2.007514999999999873e+03
1.370000000000000107e-01 2.204479999999999773e-01 2.281559999999999988e+01 1.498520000000000039e+02 2.007285000000000082e+03
1.380000000000000115e-01 2.204025000000000012e-01 2.211080000000000112e+01 1.488725000000000023e+02 2.007030000000000200e+03
1.390000000000000124e-01 2.203525000000000067e-01 2.139000000000000057e+01 1.478195000000000050e+02 2.006755000000000109e+03
1.400000000000000133e-01 2.202999999999999958e-01 2.065380000000000038e+01 1.466954999999999814e+02 2.006460000000000036e+03
1.410000000000000142e-01 2.202429999999999943e-01 1.990435000000000088e+01 1.455099999999999909e+02 2.006150000000000091e+03
1.420000000000000151e-01 2.201835000000000042e-01 1.914470000000000027e+01 1.442700000000000102e+02 2.005820000000000164e+03
1.430000000000000160e-01 2.201214999999999977e-01 1.837894999999999968e+01 1.429884999999999877e+02 2.005480000000000018e+03
1.440000000000000169e-01 2.200575000000000170e-01 1.761214999999999975e+01 1.416794999999999902e+02 2.005125000000000000e+03
1.450000000000000178e-01 2.199919999999999931e-01 1.685014999999999930e+01 1.403580000000000041e+02 2.004764999999999873e+03
1.459999999999999909e-01 2.199260000000000104e-01 1.609909999999999997e+01 1.390389999999999873e+02 2.004400000000000091e+03
1.469999999999999918e-01 2.198599999999999999e-01 1.536544999999999916e+01 1.377400000000000091e+02 2.004034999999999854e+03
1.479999999999999927e-01 2.197950000000000181e-01 1.465565000000000140e+01 1.364759999999999991e+02 2.003679999999999836e+03
1.489999999999999936e-01 2.197314999999999963e-01 1.397584999999999944e+01 1.352615000000000123e+02 2.003325000000000045e+03
1.499999999999999944e-01 2.196700000000000041e-01 1.333170000000000144e+01 1.341109999999999900e+02 2.002985000000000127e+03
1.509999999999999953e-01 2.196120000000000017e-01 1.272804999999999964e+01 1.330344999999999800e+02 2.002659999999999854e+03
1.519999999999999962e-01 2.195570000000000022e-01 1.216900000000000048e+01 1.320414999999999850e+02 2.002355000000000018e+03
1.529999999999999971e-01 2.195060000000000067e-01 1.165742499999999993e+01 1.311385000000000218e+02 2.002069999999999936e+03
1.539999999999999980e-01 2.194590000000000152e-01 1.119540500000000094e+01 1.303280000000000030e+02 2.001805000000000064e+03
1.549999999999999989e-01 2.194169999999999732e-01 1.078367000000000075e+01 1.296119999999999948e+02 2.001570000000000164e+03
1.559999999999999998e-01 2.193785000000000041e-01 1.042213500000000082e+01 1.289895000000000209e+02 2.001360000000000127e+03
1.570000000000000007e-01 2.193454999999999988e-01 1.010956499999999991e+01 1.284560000000000173e+02 2.001170000000000073e+03
1.580000000000000016e-01 2.193160000000000109e-01 9.843820000000000903e+00 1.280055000000000121e+02 2.001000000000000000e+03
1.590000000000000024e-01 2.192910000000000137e-01 9.622189999999999799e+00 1.276329999999999956e+02 2.000860000000000127e+03
