# t [s], A [cm^2], U [cm/s], P [cPa], c [cm/s]
1.000000000000000021e-03 6.254865000000000563e-01 5.976399999999999768e-03 1.077505000000000024e+02 1.624824999999999818e+03
2.000000000000000042e-03 6.254754999999999621e-01 -2.144614999999999889e-03 1.077219999999999942e+02 1.624815000000000055e+03
3.000000000000000062e-03 6.255290000000000017e-01 9.186880000000000046e-02 1.078250000000000028e+02 1.624840000000000146e+03
4.000000000000000083e-03 6.255779999999999674e-01 1.886387999999999954e-01 1.079470000000000027e+02 1.624865000000000009e+03
5.000000000000000104e-03 6.255515000000000381e-01 1.638172999999999990e-01 1.078894999999999982e+02 1.624855000000000018e+03
6.000000000000000125e-03 6.254844999999999988e-01 6.277450000000001085e-02 1.076629999999999967e+02 1.624815000000000055e+03
7.000000000000000146e-03 6.254269999999999552e-01 -2.950000000000002620e-02 1.073789999999999907e+02 1.624759999999999991e+03
8.000000000000000167e-03 6.253390000000000892e-01 -1.890800000000000258e-01 1.069645000000000010e+02 1.624670000000000073e+03
9.000000000000001055e-03 6.251895000000000646e-01 -4.749049999999999105e-01 1.063245000000000005e+02 1.624545000000000073e+03
1.000000000000000194e-02 6.249780000000000335e-01 -8.870299999999999851e-01 1.054164999999999992e+02 1.624355000000000018e+03
1.099999999999999936e-02 6.246855000000000047e-01 -1.443964999999999943e+00 1.041769999999999925e+02 1.624105000000000018e+03
1.200000000000000025e-02 6.243009999999999948e-01 -2.150425000000000253e+00 1.025516000000000076e+02 1.623765000000000100e+03
1.300000000000000114e-02 6.238524999999999210e-01 -2.928910000000000124e+00 1.005925000000000011e+02 1.623345000000000027e+03
1.400000000000000203e-02 6.234045000000000281e-01 -3.628064999999999873e+00 9.847820000000000107e+01 1.622880000000000109e+03
1.499999999999999944e-02 6.230189999999999895e-01 -4.097578000000000387e+00 9.643074999999998909e+01 1.622404999999999973e+03
1.600000000000000033e-02 6.227234999999999854e-01 -4.255015000000000214e+00 9.461449999999999250e+01 1.621965000000000146e+03
1.700000000000000122e-02 6.225050000000000860e-01 -4.104965500000000489e+00 9.308265000000000100e+01 1.621565000000000055e+03
1.800000000000000211e-02 6.223235000000000294e-01 -3.718337500000000073e+00 9.178129999999998745e+01 1.621204999999999927e+03
1.900000000000000300e-02 6.221345000000000347e-01 -3.194158999999999970e+00 9.058975000000000932e+01 1.620865000000000009e+03
2.000000000000000042e-02 6.219014999999999960e-01 -2.621143000000000001e+00 8.937584999999999980e+01 1.620519999999999982e+03
2.100000000000000130e-02 6.216110000000000246e-01 -2.050300000000000011e+00 8.804524999999999579e+01 1.620154999999999973e+03
2.200000000000000219e-02 6.212709999999999066e-01 -1.486314999999999831e+00 8.656935000000000002e+01 1.619764999999999873e+03
2.299999999999999961e-02 6.209059999999999580e-01 -8.995349999999999735e-01 8.498339999999998895e+01 1.619345000000000027e+03
2.400000000000000050e-02 6.205415000000000791e-01 -2.515049999999998676e-01 8.335790000000000077e+01 1.618920000000000073e+03
2.500000000000000139e-02 6.201950000000000518e-01 4.785599999999998744e-01 8.175964999999999350e+01 1.618494999999999891e+03
2.600000000000000228e-02 6.198660000000000281e-01 1.276954999999999840e+00 8.021899999999999409e+01 1.618079999999999927e+03
2.700000000000000316e-02 6.195395000000000207e-01 2.092404999999999848e+00 7.871330000000000382e+01 1.617674999999999955e+03
2.800000000000000058e-02 6.191860000000000142e-01 2.845394999999999897e+00 7.716915000000000191e+01 1.617259999999999991e+03
2.900000000000000147e-02 6.187759999999999927e-01 3.445644999999999847e+00 7.548069999999999879e+01 1.616815000000000055e+03
3.000000000000000236e-02 6.182814999999999284e-01 3.813190000000000524e+00 7.353829999999999245e+01 1.616325000000000045e+03
3.099999999999999978e-02 6.176915000000000600e-01 3.897574999999999790e+00 7.125985000000000014e+01 1.615769999999999982e+03
3.200000000000000067e-02 6.170089999999999186e-01 3.690444999999999531e+00 6.861735000000000184e+01 1.615144999999999982e+03
3.300000000000000155e-02 6.162575000000000136e-01 3.227120000000000211e+00 6.564934999999999832e+01 1.614450000000000045e+03
3.400000000000000244e-02 6.154724999999999779e-01 2.577784999999999993e+00 6.245739999999999270e+01 1.613699999999999818e+03
3.500000000000000333e-02 6.146949999999999914e-01 1.831304999999999517e+00 5.918755000000000166e+01 1.612934999999999945e+03
3.600000000000000422e-02 6.139654999999999418e-01 1.078105000000000757e+00 5.600525000000000375e+01 1.612174999999999955e+03
3.700000000000000511e-02 6.133170000000000011e-01 3.962150000000006500e-01 5.306980000000000075e+01 1.611454999999999927e+03
3.799999999999999906e-02 6.127724999999999422e-01 -1.566000000000000725e-01 5.051515000000000555e+01 1.610815000000000055e+03
3.899999999999999994e-02 6.123454999999999870e-01 -5.446300000000001695e-01 4.843854999999999933e+01 1.610269999999999982e+03
4.000000000000000083e-02 6.120395000000000696e-01 -7.514950000000000241e-01 4.689795000000000158e+01 1.609839999999999918e+03
4.100000000000000172e-02 6.118544999999999678e-01 -7.745349999999999735e-01 4.591544999999999987e+01 1.609539999999999964e+03
4.200000000000000261e-02 6.117850000000000232e-01 -6.182885000000000186e-01 4.548609999999999332e+01 1.609365000000000009e+03
4.300000000000000350e-02 6.118239999999999235e-01 -2.888149999999999884e-01 4.558769999999999811e+01 1.609315000000000055e+03
4.400000000000000439e-02 6.119660000000000100e-01 2.099650000000000682e-01 4.619029999999999347e+01 1.609389999999999873e+03
4.499999999999999833e-02 6.122060000000000279e-01 8.772649999999997394e-01 4.726259999999999906e+01 1.609579999999999927e+03
4.599999999999999922e-02 6.125395000000000145e-01 1.713965000000000183e+00 4.877424999999999500e+01 1.609880000000000109e+03
4.700000000000000011e-02 6.129630000000000356e-01 2.719614999999999672e+00 5.069545000000000101e+01 1.610279999999999973e+03
4.800000000000000100e-02 6.134684999999999722e-01 3.889095000000000191e+00 5.299380000000000024e+01 1.610780000000000200e+03
4.900000000000000189e-02 6.140479999999999272e-01 5.210124999999999673e+00 5.563110000000000355e+01 1.611360000000000127e+03
5.000000000000000278e-02 6.146905000000000285e-01 6.661939999999999529e+00 5.856074999999999875e+01 1.612019999999999982e+03
5.100000000000000366e-02 6.153809999999999558e-01 8.216174937499999942e+00 6.172710000000000008e+01 1.612744999999999891e+03
5.200000000000000455e-02 6.161045000000000549e-01 9.838425000000000864e+00 6.506704999999999472e+01 1.613519999999999982e+03
5.300000000000000544e-02 6.168449999999999767e-01 1.149152999999999913e+01 6.851290000000000191e+01 1.614329999999999927e+03
5.399999999999999939e-02 6.175874999999999559e-01 1.313825500000000090e+01 7.199670000000000414e+01 1.615159999999999854e+03
5.500000000000000028e-02 6.183179999999999232e-01 1.474458000000000091e+01 7.545499999999999829e+01 1.615994999999999891e+03
5.600000000000000117e-02 6.190275000000000638e-01 1.628164999999999907e+01 7.883240000000000691e+01 1.616825000000000045e+03
5.700000000000000205e-02 6.197059999999999791e-01 1.772729999999999961e+01 8.208520000000000039e+01 1.617634999999999991e+03
5.800000000000000294e-02 6.203499999999999570e-01 1.906649999999999778e+01 8.518269999999999698e+01 1.618414999999999964e+03
5.900000000000000383e-02 6.209580000000000100e-01 2.029100000000000037e+01 8.810765000000000668e+01 1.619160000000000082e+03
6.000000000000000472e-02 6.215310000000000556e-01 2.139860000000000184e+01 9.085529999999999973e+01 1.619869999999999891e+03
6.099999999999999867e-02 6.220704999999999707e-01 2.239204999999999757e+01 9.343264999999999532e+01 1.620534999999999854e+03
6.199999999999999956e-02 6.225819999999999688e-01 2.327785000000000082e+01 9.585454999999998904e+01 1.621175000000000182e+03
6.300000000000000044e-02 6.230694999999999428e-01 2.406504999999999939e+01 9.814199999999999591e+01 1.621779999999999973e+03
6.400000000000000133e-02 6.235390000000000654e-01 2.476445000000000007e+01 1.003199000000000041e+02 1.622360000000000127e+03
6.500000000000000222e-02 6.239964999999999540e-01 2.538725000000000165e+01 1.024141500000000065e+02 1.622914999999999964e+03
6.600000000000000311e-02 6.244450000000000278e-01 2.594460000000000122e+01 1.044505000000000052e+02 1.623454999999999927e+03
6.700000000000000400e-02 6.248905000000000154e-01 2.644640000000000057e+01 1.064495000000000005e+02 1.623985000000000127e+03
6.800000000000000488e-02 6.253340000000000565e-01 2.690064999999999884e+01 1.084290000000000020e+02 1.624505000000000109e+03
6.900000000000000577e-02 6.257779999999999454e-01 2.731320000000000192e+01 1.103979999999999961e+02 1.625014999999999873e+03
7.000000000000000666e-02 6.262214999999999865e-01 2.768690000000000140e+01 1.123619999999999948e+02 1.625535000000000082e+03
7.100000000000000755e-02 6.266629999999999701e-01 2.802170000000000272e+01 1.143155000000000001e+02 1.626045000000000073e+03
7.200000000000000844e-02 6.270995000000000319e-01 2.831499999999999773e+01 1.162475000000000023e+02 1.626545000000000073e+03
7.300000000000000933e-02 6.275260000000000282e-01 2.856179999999999808e+01 1.181405000000000030e+02 1.627039999999999964e+03
7.399999999999999634e-02 6.279375000000000373e-01 2.875560000000000116e+01 1.199739999999999895e+02 1.627514999999999873e+03
7.499999999999999722e-02 6.283279999999999976e-01 2.888904999999999745e+01 1.217224999999999966e+02 1.627980000000000018e+03
7.599999999999999811e-02 6.286925000000000985e-01 2.895469999999999899e+01 1.233605000000000018e+02 1.628414999999999964e+03
7.699999999999999900e-02 6.290259999999999740e-01 2.894565000000000055e+01 1.248644999999999925e+02 1.628815000000000055e+03
7.799999999999999989e-02 6.293239999999999945e-01 2.885620000000000118e+01 1.262109999999999985e+02 1.629190000000000055e+03
7.900000000000000078e-02 6.295820000000000860e-01 2.868200000000000216e+01 1.273820000000000050e+02 1.629515000000000100e+03
8.000000000000000167e-02 6.297980000000000800e-01 2.842070000000000007e+01 1.283625000000000114e+02 1.629795000000000073e+03
8.100000000000000255e-02 6.299704999999999888e-01 2.807195000000000107e+01 1.291440000000000055e+02 1.630029999999999973e+03
8.200000000000000344e-02 6.300995000000000346e-01 2.763714999999999833e+01 1.297224999999999966e+02 1.630215000000000146e+03
8.300000000000000433e-02 6.301844999999999253e-01 2.711995000000000289e+01 1.300989999999999895e+02 1.630349999999999909e+03
8.400000000000000522e-02 6.302284999999999693e-01 2.652595000000000169e+01 1.302800000000000011e+02 1.630434999999999945e+03
8.500000000000000611e-02 6.302335000000000020e-01 2.586245000000000260e+01 1.302764999999999986e+02 1.630470000000000027e+03
8.600000000000000699e-02 6.302024999999999988e-01 2.513824999999999932e+01 1.301039999999999850e+02 1.630470000000000027e+03
8.700000000000000788e-02 6.301404999999999923e-01 2.436374999999999957e+01 1.297800000000000011e+02 1.630425000000000182e+03
8.800000000000000877e-02 6.300514999999999866e-01 2.355040000000000333e+01 1.293259999999999934e+02 1.630340000000000146e+03
8.899999999999999578e-02 6.299409999999999732e-01 2.271024999999999849e+01 1.287665000000000077e+02 1.630230000000000018e+03
8.999999999999999667e-02 6.298135000000000261e-01 2.185560000000000258e+01 1.281240000000000236e+02 1.630094999999999800e+03
9.099999999999999756e-02 6.296749999999999847e-01 2.099869999999999948e+01 1.274249999999999972e+02 1.629940000000000055e+03
9.199999999999999845e-02 6.295300000000000340e-01 2.015109999999999957e+01 1.266920000000000073e+02 1.629769999999999982e+03
9.299999999999999933e-02 6.293834999999999846e-01 1.932325000000000159e+01 1.259470000000000027e+02 1.629595000000000027e+03
9.400000000000000022e-02 6.292389999999999928e-01 1.852390000000000114e+01 1.252100000000000080e+02 1.629420000000000073e+03
9.500000000000000111e-02 6.290995000000000337e-01 1.776030000000000086e+01 1.244969999999999857e+02 1.629240000000000009e+03
9.600000000000000200e-02 6.289675000000000127e-01 1.703705000000000069e+01 1.238209999999999980e+02 1.629070000000000164e+03
9.700000000000000289e-02 6.288434999999999997e-01 1.635679999999999978e+01 1.231879999999999882e+02 1.628909999999999854e+03
9.800000000000000377e-02 6.287294999999999412e-01 1.571979999999999933e+01 1.226045000000000016e+02 1.628759999999999991e+03
9.900000000000000466e-02 6.286235000000000017e-01 1.512424999999999997e+01 1.220690000000000026e+02 1.628615000000000009e+03
1.000000000000000056e-01 6.285250000000000004e-01 1.456639999999999802e+01 1.215769999999999982e+02 1.628485000000000127e+03
1.010000000000000064e-01 6.284324999999999495e-01 1.404075000000000095e+01 1.211219999999999999e+02 1.628355000000000018e+03
1.020000000000000073e-01 6.283429999999999849e-01 1.354074999999999918e+01 1.206939999999999884e+02 1.628235000000000127e+03
1.030000000000000082e-01 6.282539999999999791e-01 1.305895500000000098e+01 1.202805000000000035e+02 1.628125000000000000e+03
1.040000000000000091e-01 6.281630000000000269e-01 1.258749000000000073e+01 1.198689999999999998e+02 1.628009999999999991e+03
1.050000000000000100e-01 6.280675000000000008e-01 1.211858999999999931e+01 1.194470000000000027e+02 1.627900000000000091e+03
1.059999999999999970e-01 6.279649999999999954e-01 1.164473500000000072e+01 1.190014999999999930e+02 1.627785000000000082e+03
1.069999999999999979e-01 6.278529999999999944e-01 1.115935999999999950e+01 1.185215000000000032e+02 1.627659999999999854e+03
1.079999999999999988e-01 6.277300000000000102e-01 1.065685500000000019e+01 1.179989999999999952e+02 1.627529999999999973e+03
1.089999999999999997e-01 6.275954999999999728e-01 1.013299999999999912e+01 1.174254999999999995e+02 1.627389999999999873e+03
1.100000000000000006e-01 6.274489999999999235e-01 9.585335000000000605e+00 1.167984999999999900e+02 1.627235000000000127e+03
1.110000000000000014e-01 6.272900000000000142e-01 9.012904999999999944e+00 1.161179999999999950e+02 1.627065000000000055e+03
1.120000000000000023e-01 6.271204999999999696e-01 8.416750000000000398e+00 1.153855000000000075e+02 1.626889999999999873e+03
1.130000000000000032e-01 6.269415000000000404e-01 7.799529999999999852e+00 1.146075000000000017e+02 1.626704999999999927e+03
1.140000000000000041e-01 6.267555000000000209e-01 7.165790000000000326e+00 1.137934999999999945e+02 1.626505000000000109e+03
1.150000000000000050e-01 6.265665000000000262e-01 6.521324999999999150e+00 1.129540000000000077e+02 1.626299999999999955e+03
1.160000000000000059e-01 6.263765000000000027e-01 5.873324999999999463e+00 1.121050000000000040e+02 1.626090000000000146e+03
1.170000000000000068e-01 6.261894999999999545e-01 5.229870000000000019e+00 1.112600000000000051e+02 1.625884999999999991e+03
1.180000000000000077e-01 6.260084999999999678e-01 4.599565000000000126e+00 1.104369999999999976e+02 1.625674999999999955e+03
1.190000000000000085e-01 6.258384999999999643e-01 3.991219999999999768e+00 1.096519999999999868e+02 1.625485000000000127e+03
1.200000000000000094e-01 6.256815000000000015e-01 3.413413499999999878e+00 1.089215000000000089e+02 1.625295000000000073e+03
1.209999999999999964e-01 6.255420000000000424e-01 2.874120000000000008e+00 1.082599999999999909e+02 1.625125000000000000e+03
1.219999999999999973e-01 6.254210000000000047e-01 2.380369500000000027e+00 1.076804999999999950e+02 1.624969999999999800e+03
1.229999999999999982e-01 6.253219999999999335e-01 1.937951500000000049e+00 1.071935000000000002e+02 1.624839999999999918e+03
1.239999999999999991e-01 6.252455000000000096e-01 1.551157499999999967e+00 1.068064999999999998e+02 1.624724999999999909e+03
1.250000000000000000e-01 6.251915000000000111e-01 1.222655999999999965e+00 1.065234999999999985e+02 1.624640000000000100e+03
1.260000000000000009e-01 6.251609999999999667e-01 9.533924999999999761e-01 1.063460000000000036e+02 1.624579999999999927e+03
1.270000000000000018e-01 6.251519999999999300e-01 7.426234999999999919e-01 1.062694999999999936e+02 1.624539999999999964e+03
1.280000000000000027e-01 6.251640000000000530e-01 5.880095000000000738e-01 1.062905000000000086e+02 1.624525000000000091e+03
1.290000000000000036e-01 6.251934999999999576e-01 4.857810000000000183e-01 1.063994999999999891e+02 1.624534999999999854e+03
1.300000000000000044e-01 6.252389999999999892e-01 4.309675000000000034e-01 1.065854999999999961e+02 1.624565000000000055e+03
1.310000000000000053e-01 6.252969999999999917e-01 4.176650000000000640e-01 1.068360000000000127e+02 1.624609999999999900e+03
1.320000000000000062e-01 6.253649999999999487e-01 4.393139999999999823e-01 1.071380000000000052e+02 1.624670000000000073e+03
1.330000000000000071e-01 6.254404999999999548e-01 4.890144999999999631e-01 1.074770000000000039e+02 1.624740000000000009e+03
1.340000000000000080e-01 6.255189999999999362e-01 5.597599999999999243e-01 1.078385000000000105e+02 1.624819999999999936e+03
1.350000000000000089e-01 6.255984999999999463e-01 6.447339999999999183e-01 1.082100000000000080e+02 1.624900000000000091e+03
1.360000000000000098e-01 6.256764999999999688e-01 7.374840000000000284e-01 1.085794999999999959e+02 1.624990000000000009e+03
1.370000000000000107e-01 6.257504999999999873e-01 8.321319999999999828e-01 1.089344999999999999e+02 1.625069999999999936e+03
1.380000000000000115e-01 6.258194999999999730e-01 9.234778000000000153e-01 1.092665000000000077e+02 1.625150000000000091e+03
1.390000000000000124e-01 6.258809999999999096e-01 1.007125000000000048e+00 1.095680000000000121e+02 1.625224999999999909e+03
1.400000000000000133e-01 6.259349999999999081e-01 1.079509999999999970e+00 1.098344999999999914e+02 1.625289999999999964e+03
1.410000000000000142e-01 6.259805000000000508e-01 1.137942000000000009e+00 1.100604999999999905e+02 1.625349999999999909e+03
1.420000000000000151e-01 6.260170000000000456e-01 1.180595999999999979e+00 1.102450000000000045e+02 1.625400000000000091e+03
1.430000000000000160e-01 6.260445000000000038e-01 1.206475000000000186e+00 1.103875000000000028e+02 1.625445000000000164e+03
1.440000000000000169e-01 6.260634999999999950e-01 1.215349999999999930e+00 1.104894999999999925e+02 1.625470000000000027e+03
1.450000000000000178e-01 6.260749999999999371e-01 1.207694999999999963e+00 1.105525000000000091e+02 1.625494999999999891e+03
1.459999999999999909e-01 6.260795000000000110e-01 1.184600000000000097e+00 1.105805000000000007e+02 1.625505000000000109e+03
1.469999999999999918e-01 6.260780000000000234e-01 1.147639999999999993e+00 1.105765000000000100e+02 1.625515000000000100e+03
1.479999999999999927e-01 6.260710000000000441e-01 1.098772000000000082e+00 1.105465000000000089e+02 1.625514999999999873e+03
1.489999999999999936e-01 6.260600000000000609e-01 1.040214999999999890e+00 1.104934999999999974e+02 1.625505000000000109e+03
1.499999999999999944e-01 6.260459999999999914e-01 9.742954999999999810e-01 1.104234999999999900e+02 1.625494999999999891e+03
1.509999999999999953e-01 6.260295000000000165e-01 9.033459999999999823e-01 1.103404999999999916e+02 1.625480000000000018e+03
1.519999999999999962e-01 6.260120000000000129e-01 8.295844999999999470e-01 1.102479999999999905e+02 1.625460000000000036e+03
1.529999999999999971e-01 6.259930000000000216e-01 7.550010000000000332e-01 1.101494999999999891e+02 1.625440000000000055e+03
1.539999999999999980e-01 6.259734999999999605e-01 6.812799999999999967e-01 1.100480000000000018e+02 1.625414999999999964e+03
1.549999999999999989e-01 6.259544999999999693e-01 6.097545000000000881e-01 1.099445000000000050e+02 1.625394999999999982e+03
1.559999999999999998e-01 6.259350000000000191e-01 5.413590000000000346e-01 1.098400000000000034e+02 1.625369999999999891e+03
1.570000000000000007e-01 6.259149999999999991e-01 4.766454999999999997e-01 1.097349999999999994e+02 1.625345000000000027e+03
1.580000000000000016e-01 6.258950000000000902e-01 4.158008999999999733e-01 1.096280000000000001e+02 1.625320000000000164e+03
1.590000000000000024e-01 6.258740000000000414e-01 3.587025400000000142e-01 1.095175000000000125e+02 1.625295000000000073e+03
