# t [s], A [cm^2], U [cm/s], P [cPa], c [cm/s]
1.000000000000000021e-03 1.776880000000000126e-01 2.230175000000000074e-01 9.162940000000000396e+01 2.107695000000000164e+03
2.000000000000000042e-03 1.776455000000000117e-01 1.587818999999999869e+00 8.866445000000000221e+01 2.107295000000000073e+03
3.000000000000000062e-03 1.775249999999999884e-01 3.319293000000000049e+00 8.442230000000000700e+01 2.106244999999999891e+03
4.000000000000000083e-03 1.773589999999999889e-01 5.290601499999999291e+00 7.966575000000000273e+01 2.104809999999999945e+03
5.000000000000000104e-03 1.771800000000000042e-01 7.437205000000000510e+00 7.529540000000000077e+01 2.103274999999999636e+03
6.000000000000000125e-03 1.770079999999999987e-01 9.594379999999999242e+00 7.167874999999999375e+01 2.101819999999999709e+03
7.000000000000000146e-03 1.768474999999999908e-01 1.153277500000000089e+01 6.860054999999999836e+01 2.100484999999999673e+03
8.000000000000000167e-03 1.767000000000000237e-01 1.314959499999999970e+01 6.580594999999999573e+01 2.099284999999999854e+03
9.000000000000001055e-03 1.765700000000000047e-01 1.448270000000000124e+01 6.335160000000000480e+01 2.098244999999999891e+03
1.000000000000000194e-02 1.764604999999999924e-01 1.557284999999999897e+01 6.133715000000000117e+01 2.097375000000000000e+03
1.099999999999999936e-02 1.763715000000000144e-01 1.644004999999999939e+01 5.975565000000000282e+01 2.096679999999999836e+03
1.200000000000000025e-02 1.763020000000000143e-01 1.710449999999999804e+01 5.855989999999999895e+01 2.096140000000000327e+03
1.300000000000000114e-02 1.762485000000000024e-01 1.757100000000000151e+01 5.765309999999999491e+01 2.095730000000000018e+03
1.400000000000000203e-02 1.762050000000000005e-01 1.783975000000000222e+01 5.689079999999999870e+01 2.095409999999999854e+03
1.499999999999999944e-02 1.761690000000000200e-01 1.796450000000000102e+01 5.622944999999999993e+01 2.095149999999999636e+03
1.600000000000000033e-02 1.761455000000000104e-01 1.808164999999999978e+01 5.587234999999999729e+01 2.094979999999999563e+03
1.700000000000000122e-02 1.761435000000000084e-01 1.835909999999999798e+01 5.620855000000000246e+01 2.094980000000000018e+03
1.800000000000000211e-02 1.761725000000000096e-01 1.890294999999999703e+01 5.756040000000000134e+01 2.095210000000000036e+03
1.900000000000000300e-02 1.762345000000000161e-01 1.969205000000000183e+01 5.993645000000000067e+01 2.095699999999999818e+03
2.000000000000000042e-02 1.763220000000000065e-01 2.058214999999999861e+01 6.295619999999999550e+01 2.096399999999999636e+03
2.100000000000000130e-02 1.764200000000000212e-01 2.136715000000000231e+01 6.597735000000000127e+01 2.097190000000000055e+03
2.200000000000000219e-02 1.765079999999999982e-01 2.186244999999999905e+01 6.833889999999999532e+01 2.097909999999999854e+03
2.299999999999999961e-02 1.765714999999999923e-01 2.197014999999999674e+01 6.959704999999999586e+01 2.098449999999999818e+03
2.400000000000000050e-02 1.766014999999999946e-01 2.170360000000000156e+01 6.965784999999999627e+01 2.098720000000000255e+03
2.500000000000000139e-02 1.766004999999999936e-01 2.116760000000000019e+01 6.876654999999999518e+01 2.098744999999999891e+03
2.600000000000000228e-02 1.765780000000000127e-01 2.050799999999999912e+01 6.737454999999999927e+01 2.098585000000000036e+03
2.700000000000000316e-02 1.765450000000000075e-01 1.985415000000000063e+01 6.595185000000000741e+01 2.098324999999999818e+03
2.800000000000000058e-02 1.765125000000000166e-01 1.927745000000000175e+01 6.482300000000000750e+01 2.098065000000000055e+03
2.900000000000000147e-02 1.764860000000000040e-01 1.877765000000000128e+01 6.408169999999999789e+01 2.097850000000000364e+03
3.000000000000000236e-02 1.764660000000000117e-01 1.829759999999999920e+01 6.360210000000000008e+01 2.097680000000000291e+03
3.099999999999999978e-02 1.764470000000000205e-01 1.775554999999999950e+01 6.312525000000000119e+01 2.097519999999999982e+03
3.200000000000000067e-02 1.764219999999999955e-01 1.708389999999999986e+01 6.238195000000000334e+01 2.097329999999999927e+03
3.300000000000000155e-02 1.763859999999999872e-01 1.626054999999999851e+01 6.121059999999999945e+01 2.097050000000000182e+03
3.400000000000000244e-02 1.763379999999999947e-01 1.532469999999999999e+01 5.963170000000000215e+01 2.096675000000000182e+03
3.500000000000000333e-02 1.762819999999999943e-01 1.437105000000000032e+01 5.785814999999999486e+01 2.096229999999999563e+03
3.600000000000000422e-02 1.762255000000000071e-01 1.352565000000000062e+01 5.623799999999999955e+01 2.095775000000000091e+03
3.700000000000000511e-02 1.761800000000000033e-01 1.291005000000000003e+01 5.515075000000000216e+01 2.095399999999999636e+03
3.799999999999999906e-02 1.761554999999999926e-01 1.260774999999999935e+01 5.489369999999999550e+01 2.095189999999999600e+03
3.899999999999999994e-02 1.761584999999999956e-01 1.264235000000000042e+01 5.559525000000000006e+01 2.095189999999999600e+03
4.000000000000000083e-02 1.761900000000000133e-01 1.297214999999999918e+01 5.717955000000000609e+01 2.095414999999999964e+03
4.100000000000000172e-02 1.762454999999999994e-01 1.350175000000000125e+01 5.938595000000000113e+01 2.095840000000000146e+03
4.200000000000000261e-02 1.763160000000000005e-01 1.410360000000000014e+01 6.183164999999999623e+01 2.096394999999999982e+03
4.300000000000000350e-02 1.763899999999999912e-01 1.464385000000000048e+01 6.409470000000000312e+01 2.096985000000000127e+03
4.400000000000000439e-02 1.764545000000000141e-01 1.500539999999999985e+01 6.579540000000000077e+01 2.097505000000000109e+03
4.499999999999999833e-02 1.764994999999999759e-01 1.510399999999999920e+01 6.665739999999999554e+01 2.097885000000000218e+03
4.599999999999999922e-02 1.765174999999999939e-01 1.489584999999999937e+01 6.654009999999999536e+01 2.098045000000000073e+03
4.700000000000000011e-02 1.765054999999999819e-01 1.437604999999999933e+01 6.543959999999999866e+01 2.097965000000000146e+03
4.800000000000000100e-02 1.764624999999999944e-01 1.357104999999999961e+01 6.346385000000000076e+01 2.097635000000000218e+03
4.900000000000000189e-02 1.763934999999999809e-01 1.252734000000000059e+01 6.079319999999999879e+01 2.097095000000000255e+03
5.000000000000000278e-02 1.763020000000000143e-01 1.130059999999999931e+01 5.763689999999999714e+01 2.096375000000000000e+03
5.100000000000000366e-02 1.761955000000000049e-01 9.946505000000000152e+00 5.419750000000000512e+01 2.095520000000000437e+03
5.200000000000000455e-02 1.760784999999999989e-01 8.516144999999999854e+00 5.064789999999999992e+01 2.094585000000000036e+03
5.300000000000000544e-02 1.759565000000000157e-01 7.054425000000000168e+00 4.712359999999999616e+01 2.093610000000000127e+03
5.399999999999999939e-02 1.758339999999999903e-01 5.601490000000000080e+00 4.372700000000000387e+01 2.092625000000000000e+03
5.500000000000000028e-02 1.757154999999999967e-01 4.195598999999999634e+00 4.053869999999999862e+01 2.091664999999999964e+03
5.600000000000000117e-02 1.756030000000000091e-01 2.875611499999999765e+00 3.763094999999999857e+01 2.090750000000000000e+03
5.700000000000000205e-02 1.754995000000000027e-01 1.682535000000000114e+00 3.507809999999999917e+01 2.089909999999999854e+03
5.800000000000000294e-02 1.754085000000000227e-01 6.593750000000000444e-01 3.296160000000000423e+01 2.089175000000000182e+03
5.900000000000000383e-02 1.753339999999999899e-01 -1.506300000000000416e-01 3.136919999999999931e+01 2.088554999999999836e+03
6.000000000000000472e-02 1.752779999999999894e-01 -7.070500000000000673e-01 3.038799999999999812e+01 2.088090000000000146e+03
6.099999999999999867e-02 1.752434999999999965e-01 -9.758169999999999344e-01 3.009530000000000172e+01 2.087795000000000073e+03
6.199999999999999956e-02 1.752345000000000153e-01 -9.326060000000000461e-01 3.054800000000000182e+01 2.087694999999999709e+03
6.300000000000000044e-02 1.752509999999999901e-01 -5.653159999999999297e-01 3.177405000000000257e+01 2.087804999999999836e+03
6.400000000000000133e-02 1.752949999999999786e-01 1.246099999999999985e-01 3.376744999999999663e+01 2.088130000000000109e+03
6.500000000000000222e-02 1.753649999999999931e-01 1.122250000000000192e+00 3.648725000000000307e+01 2.088675000000000182e+03
6.600000000000000311e-02 1.754605000000000192e-01 2.400425499999999879e+00 3.986034999999999684e+01 2.089414999999999964e+03
6.700000000000000400e-02 1.755784999999999985e-01 3.921767499999999629e+00 4.378770000000000095e+01 2.090345000000000255e+03
6.800000000000000488e-02 1.757154999999999967e-01 5.641325000000000145e+00 4.815184999999999604e+01 2.091434999999999945e+03
6.900000000000000577e-02 1.758679999999999966e-01 7.509370000000000545e+00 5.282540000000000191e+01 2.092650000000000091e+03
7.000000000000000666e-02 1.760320000000000218e-01 9.474375000000000213e+00 5.767904999999999660e+01 2.093965000000000146e+03
7.100000000000000755e-02 1.762019999999999975e-01 1.148553000000000068e+01 6.258990000000000009e+01 2.095335000000000036e+03
7.200000000000000844e-02 1.763754999999999906e-01 1.349554999999999971e+01 6.744735000000000014e+01 2.096735000000000127e+03
7.300000000000000933e-02 1.765479999999999827e-01 1.546300000000000097e+01 7.215979999999998995e+01 2.098135000000000218e+03
7.399999999999999634e-02 1.767164999999999986e-01 1.735390000000000299e+01 7.665805000000000291e+01 2.099510000000000218e+03
7.499999999999999722e-02 1.768784999999999941e-01 1.914355000000000118e+01 8.089875000000000682e+01 2.100835000000000036e+03
7.599999999999999811e-02 1.770335000000000103e-01 2.081654999999999944e+01 8.486459999999999582e+01 2.102100000000000364e+03
7.699999999999999900e-02 1.771790000000000032e-01 2.236710000000000065e+01 8.856300000000000239e+01 2.103304999999999836e+03
7.799999999999999989e-02 1.773170000000000024e-01 2.379789999999999850e+01 9.202260000000001128e+01 2.104444999999999709e+03
7.900000000000000078e-02 1.774479999999999946e-01 2.511854999999999905e+01 9.528785000000000593e+01 2.105525000000000091e+03
8.000000000000000167e-02 1.775729999999999809e-01 2.634360000000000213e+01 9.841294999999999504e+01 2.106559999999999945e+03
8.100000000000000255e-02 1.776935000000000042e-01 2.749020000000000152e+01 1.014543000000000035e+02 2.107559999999999945e+03
8.200000000000000344e-02 1.778115000000000112e-01 2.857600000000000051e+01 1.044654500000000041e+02 2.108539999999999964e+03
8.300000000000000433e-02 1.779284999999999894e-01 2.961735000000000184e+01 1.074904999999999973e+02 2.109510000000000218e+03
8.400000000000000522e-02 1.780459999999999821e-01 3.062770000000000081e+01 1.105610000000000070e+02 2.110480000000000018e+03
8.500000000000000611e-02 1.781650000000000178e-01 3.161655000000000015e+01 1.136945000000000050e+02 2.111460000000000036e+03
8.600000000000000699e-02 1.782845000000000124e-01 3.258889999999999532e+01 1.168930000000000007e+02 2.112454999999999927e+03
8.700000000000000788e-02 1.784069999999999823e-01 3.354524999999999579e+01 1.201440000000000055e+02 2.113465000000000146e+03
8.800000000000000877e-02 1.785304999999999809e-01 3.448170000000000357e+01 1.234240000000000066e+02 2.114484999999999673e+03
8.899999999999999578e-02 1.786535000000000206e-01 3.539074999999999704e+01 1.266984999999999957e+02 2.115505000000000109e+03
8.999999999999999667e-02 1.787765000000000049e-01 3.626160000000000139e+01 1.299259999999999877e+02 2.116524999999999636e+03
9.099999999999999756e-02 1.788970000000000005e-01 3.708135000000000048e+01 1.330620000000000118e+02 2.117524999999999636e+03
9.199999999999999845e-02 1.790140000000000065e-01 3.783579999999999899e+01 1.360595000000000141e+02 2.118494999999999891e+03
9.299999999999999933e-02 1.791250000000000064e-01 3.851014999999999588e+01 1.388729999999999905e+02 2.119425000000000182e+03
9.400000000000000022e-02 1.792300000000000004e-01 3.909005000000000507e+01 1.414619999999999891e+02 2.120300000000000182e+03
9.500000000000000111e-02 1.793264999999999998e-01 3.956224999999999881e+01 1.437875000000000227e+02 2.121105000000000018e+03
9.600000000000000200e-02 1.794140000000000179e-01 3.991544999999999987e+01 1.458209999999999980e+02 2.121840000000000146e+03
9.700000000000000289e-02 1.794904999999999973e-01 4.014090000000000202e+01 1.475380000000000109e+02 2.122484999999999673e+03
9.800000000000000377e-02 1.795554999999999790e-01 4.023305000000000575e+01 1.489270000000000209e+02 2.123034999999999854e+03
9.900000000000000466e-02 1.796095000000000053e-01 4.018984999999999985e+01 1.499830000000000041e+02 2.123494999999999891e+03
1.000000000000000056e-01 1.796515000000000195e-01 4.001285000000000025e+01 1.507110000000000127e+02 2.123855000000000018e+03
1.010000000000000064e-01 1.796814999999999940e-01 3.970749999999999602e+01 1.511265000000000214e+02 2.124119999999999891e+03
1.020000000000000073e-01 1.797009999999999996e-01 3.928284999999999627e+01 1.512529999999999859e+02 2.124295000000000073e+03
1.030000000000000082e-01 1.797100000000000086e-01 3.875100000000000477e+01 1.511214999999999975e+02 2.124380000000000109e+03
1.040000000000000091e-01 1.797099999999999809e-01 3.812685000000000457e+01 1.507690000000000055e+02 2.124385000000000218e+03
1.050000000000000100e-01 1.797015000000000140e-01 3.742690000000000339e+01 1.502365000000000066e+02 2.124324999999999818e+03
1.059999999999999970e-01 1.796869999999999856e-01 3.666895000000000238e+01 1.495654999999999859e+02 2.124210000000000036e+03
1.069999999999999979e-01 1.796669999999999934e-01 3.587120000000000175e+01 1.488000000000000114e+02 2.124054999999999836e+03
1.079999999999999988e-01 1.796435000000000115e-01 3.505114999999999981e+01 1.479784999999999968e+02 2.123864999999999782e+03
1.089999999999999997e-01 1.796169999999999989e-01 3.422549999999999670e+01 1.471394999999999982e+02 2.123649999999999636e+03
1.100000000000000006e-01 1.795904999999999863e-01 3.340905000000000058e+01 1.463135000000000048e+02 2.123429999999999836e+03
1.110000000000000014e-01 1.795630000000000004e-01 3.261440000000000339e+01 1.455264999999999986e+02 2.123204999999999927e+03
1.120000000000000023e-01 1.795364999999999878e-01 3.185155000000000314e+01 1.447980000000000018e+02 2.122989999999999782e+03
1.130000000000000032e-01 1.795120000000000049e-01 3.112774999999999892e+01 1.441399999999999864e+02 2.122784999999999854e+03
1.140000000000000041e-01 1.794894999999999963e-01 3.044704999999999728e+01 1.435570000000000164e+02 2.122590000000000146e+03
1.150000000000000050e-01 1.794685000000000030e-01 2.981044999999999945e+01 1.430480000000000018e+02 2.122414999999999964e+03
1.160000000000000059e-01 1.794505000000000128e-01 2.921614999999999895e+01 1.426030000000000086e+02 2.122255000000000109e+03
1.170000000000000068e-01 1.794334999999999958e-01 2.865944999999999965e+01 1.422065000000000055e+02 2.122114999999999782e+03
1.180000000000000077e-01 1.794184999999999808e-01 2.813329999999999842e+01 1.418399999999999750e+02 2.121984999999999673e+03
1.190000000000000085e-01 1.794034999999999935e-01 2.762894999999999968e+01 1.414789999999999850e+02 2.121859999999999673e+03
1.200000000000000094e-01 1.793889999999999929e-01 2.713615000000000066e+01 1.410974999999999966e+02 2.121734999999999673e+03
1.209999999999999964e-01 1.793735000000000190e-01 2.664399999999999835e+01 1.406680000000000064e+02 2.121599999999999909e+03
1.219999999999999973e-01 1.793555000000000010e-01 2.614175000000000182e+01 1.401649999999999920e+02 2.121454999999999927e+03
1.229999999999999982e-01 1.793354999999999810e-01 2.561919999999999931e+01 1.395645000000000095e+02 2.121289999999999964e+03
1.239999999999999991e-01 1.793115000000000125e-01 2.506735000000000113e+01 1.388474999999999966e+02 2.121090000000000146e+03
1.250000000000000000e-01 1.792839999999999989e-01 2.447914999999999708e+01 1.379975000000000023e+02 2.120859999999999673e+03
1.260000000000000009e-01 1.792515000000000081e-01 2.384984999999999999e+01 1.370079999999999814e+02 2.120590000000000146e+03
1.270000000000000018e-01 1.792144999999999988e-01 2.317719999999999914e+01 1.358765000000000214e+02 2.120289999999999964e+03
1.280000000000000027e-01 1.791719999999999979e-01 2.246180000000000021e+01 1.346089999999999804e+02 2.119944999999999709e+03
1.290000000000000036e-01 1.791254999999999931e-01 2.170705000000000240e+01 1.332175000000000011e+02 2.119555000000000291e+03
1.300000000000000044e-01 1.790749999999999842e-01 2.091915000000000191e+01 1.317214999999999918e+02 2.119140000000000327e+03
1.310000000000000053e-01 1.790204999999999991e-01 2.010644999999999882e+01 1.301454999999999984e+02 2.118695000000000164e+03
1.320000000000000062e-01 1.789630000000000110e-01 1.927944999999999709e+01 1.285184999999999889e+02 2.118225000000000364e+03
1.330000000000000071e-01 1.789040000000000075e-01 1.845015000000000072e+01 1.268729999999999905e+02 2.117739999999999782e+03
1.340000000000000080e-01 1.788449999999999762e-01 1.763129999999999953e+01 1.252415000000000020e+02 2.117250000000000000e+03
1.350000000000000089e-01 1.787860000000000005e-01 1.683589999999999876e+01 1.236585000000000036e+02 2.116765000000000327e+03
1.360000000000000098e-01 1.787289999999999990e-01 1.607654999999999745e+01 1.221539999999999964e+02 2.116289999999999964e+03
1.370000000000000107e-01 1.786745000000000139e-01 1.536469999999999914e+01 1.207565000000000026e+02 2.115835000000000036e+03
1.380000000000000115e-01 1.786240000000000050e-01 1.471035000000000181e+01 1.194885000000000019e+02 2.115409999999999854e+03
1.390000000000000124e-01 1.785769999999999857e-01 1.412160000000000082e+01 1.183700000000000045e+02 2.115025000000000091e+03
1.400000000000000133e-01 1.785360000000000003e-01 1.360430000000000028e+01 1.174110000000000014e+02 2.114684999999999945e+03
1.410000000000000142e-01 1.785005000000000064e-01 1.316189999999999927e+01 1.166179999999999950e+02 2.114380000000000109e+03
1.420000000000000151e-01 1.784705000000000041e-01 1.279560000000000031e+01 1.159915000000000020e+02 2.114125000000000000e+03
1.430000000000000160e-01 1.784459999999999935e-01 1.250420000000000087e+01 1.155254999999999939e+02 2.113920000000000073e+03
1.440000000000000169e-01 1.784270000000000023e-01 1.228460000000000107e+01 1.152115000000000009e+02 2.113760000000000218e+03
1.450000000000000178e-01 1.784135000000000026e-01 1.213170000000000037e+01 1.150345000000000084e+02 2.113640000000000327e+03
1.459999999999999909e-01 1.784049999999999803e-01 1.203914999999999935e+01 1.149774999999999920e+02 2.113564999999999600e+03
1.469999999999999918e-01 1.784005000000000174e-01 1.199944999999999951e+01 1.150229999999999961e+02 2.113519999999999982e+03
1.479999999999999927e-01 1.784000000000000030e-01 1.200434999999999874e+01 1.151504999999999939e+02 2.113505000000000109e+03
1.489999999999999936e-01 1.784024999999999916e-01 1.204510000000000147e+01 1.153404999999999916e+02 2.113519999999999982e+03
1.499999999999999944e-01 1.784069999999999823e-01 1.211305000000000121e+01 1.155740000000000123e+02 2.113555000000000291e+03
1.509999999999999953e-01 1.784135000000000026e-01 1.219969999999999999e+01 1.158324999999999960e+02 2.113609999999999673e+03
1.519999999999999962e-01 1.784209999999999963e-01 1.229700000000000060e+01 1.160989999999999895e+02 2.113664999999999964e+03
1.529999999999999971e-01 1.784290000000000043e-01 1.239760000000000062e+01 1.163594999999999970e+02 2.113730000000000018e+03
1.539999999999999980e-01 1.784370000000000123e-01 1.249514999999999887e+01 1.166020000000000039e+02 2.113795000000000073e+03
1.549999999999999989e-01 1.784445000000000059e-01 1.258419999999999916e+01 1.168160000000000025e+02 2.113855000000000018e+03
1.559999999999999998e-01 1.784509999999999985e-01 1.266055000000000064e+01 1.169950000000000045e+02 2.113914999999999964e+03
1.570000000000000007e-01 1.784564999999999901e-01 1.272119999999999962e+01 1.171355000000000075e+02 2.113960000000000036e+03
1.580000000000000016e-01 1.784614999999999951e-01 1.276440000000000019e+01 1.172344999999999970e+02 2.113994999999999891e+03
1.590000000000000024e-01 1.784649999999999848e-01 1.278955000000000020e+01 1.172950000000000017e+02 2.114024999999999636e+03
