# t [s], A [cm^2], U [cm/s], P [cPa], c [cm/s]
1.000000000000000021e-03 1.991054999999999908e-01 4.138592649999999762e-01 8.734189999999999543e+01 2.051849999999999909e+03
2.000000000000000042e-03 1.990325000000000011e-01 2.037275000000000169e+00 8.374199999999999022e+01 2.051355000000000018e+03
3.000000000000000062e-03 1.988604999999999956e-01 3.999858500000000205e+00 7.882410000000000139e+01 2.050224999999999909e+03
4.000000000000000083e-03 1.986420000000000130e-01 6.209198500000000287e+00 7.383474999999999966e+01 2.048804999999999836e+03
5.000000000000000104e-03 1.984225000000000017e-01 8.553884999999999295e+00 6.974405000000000143e+01 2.047390000000000100e+03
6.000000000000000125e-03 1.982209999999999805e-01 1.075250499999999931e+01 6.654959999999999809e+01 2.046110000000000127e+03
7.000000000000000146e-03 1.980355000000000032e-01 1.256967000000000034e+01 6.374275000000000091e+01 2.044960000000000036e+03
8.000000000000000167e-03 1.978719999999999923e-01 1.402228999999999992e+01 6.122834999999999894e+01 2.043960000000000036e+03
9.000000000000001055e-03 1.977355000000000085e-01 1.519020000000000081e+01 5.918670000000000186e+01 2.043139999999999873e+03
1.000000000000000194e-02 1.976259999999999961e-01 1.609675000000000011e+01 5.761639999999999873e+01 2.042490000000000009e+03
1.099999999999999936e-02 1.975414999999999810e-01 1.677420000000000044e+01 5.645589999999999975e+01 2.041994999999999891e+03
1.200000000000000025e-02 1.974790000000000156e-01 1.725455000000000183e+01 5.565500000000000114e+01 2.041640000000000100e+03
1.300000000000000114e-02 1.974329999999999974e-01 1.753880000000000194e+01 5.507280000000000086e+01 2.041380000000000109e+03
1.400000000000000203e-02 1.973980000000000179e-01 1.766640000000000299e+01 5.460215000000000174e+01 2.041190000000000055e+03
1.499999999999999944e-02 1.973765000000000103e-01 1.779299999999999926e+01 5.444705000000000439e+01 2.041079999999999927e+03
1.600000000000000033e-02 1.973840000000000039e-01 1.814345000000000141e+01 5.512389999999999901e+01 2.041139999999999873e+03
1.700000000000000122e-02 1.974360000000000004e-01 1.886355000000000004e+01 5.708840000000000003e+01 2.041450000000000045e+03
1.800000000000000211e-02 1.975370000000000181e-01 1.990350000000000108e+01 6.031449999999999534e+01 2.042059999999999945e+03
1.900000000000000300e-02 1.976720000000000144e-01 2.101874999999999716e+01 6.416304999999999836e+01 2.042875000000000000e+03
2.000000000000000042e-02 1.978119999999999878e-01 2.187559999999999860e+01 6.760914999999999964e+01 2.043735000000000127e+03
2.100000000000000130e-02 1.979219999999999868e-01 2.219424999999999670e+01 6.966980000000000928e+01 2.044425000000000182e+03
2.200000000000000219e-02 1.979754999999999987e-01 2.186129999999999995e+01 6.980684999999999718e+01 2.044785000000000082e+03
2.299999999999999961e-02 1.979640000000000011e-01 2.096390000000000242e+01 6.812350000000000705e+01 2.044750000000000000e+03
2.400000000000000050e-02 1.979000000000000203e-01 1.973834999999999695e+01 6.527965000000000373e+01 2.044384999999999991e+03
2.500000000000000139e-02 1.978064999999999962e-01 1.846274999999999977e+01 6.218359999999999843e+01 2.043835000000000036e+03
2.600000000000000228e-02 1.977125000000000132e-01 1.734915000000000163e+01 5.962089999999999890e+01 2.043260000000000218e+03
2.700000000000000316e-02 1.976360000000000061e-01 1.648114999999999952e+01 5.799014999999999986e+01 2.042784999999999854e+03
2.800000000000000058e-02 1.975854999999999972e-01 1.581285000000000096e+01 5.723505000000000109e+01 2.042465000000000146e+03
2.900000000000000147e-02 1.975545000000000218e-01 1.521715000000000018e+01 5.695964999999999634e+01 2.042269999999999982e+03
3.000000000000000236e-02 1.975304999999999978e-01 1.455499999999999972e+01 5.664820000000000277e+01 2.042119999999999891e+03
3.099999999999999978e-02 1.974994999999999945e-01 1.374005000000000010e+01 5.589549999999999841e+01 2.041929999999999836e+03
3.200000000000000067e-02 1.974525000000000030e-01 1.277795000000000059e+01 5.457094999999999629e+01 2.041654999999999973e+03
3.300000000000000155e-02 1.973909999999999831e-01 1.177052499999999924e+01 5.287045000000000528e+01 2.041284999999999854e+03
3.400000000000000244e-02 1.973254999999999870e-01 1.088274000000000008e+01 5.124434999999999718e+01 2.040884999999999991e+03
3.500000000000000333e-02 1.972734999999999905e-01 1.028717999999999932e+01 5.023324999999999818e+01 2.040559999999999945e+03
3.600000000000000422e-02 1.972499999999999809e-01 1.010498499999999922e+01 5.027244999999999919e+01 2.040405000000000200e+03
3.700000000000000511e-02 1.972679999999999989e-01 1.036499999999999844e+01 5.153825000000000500e+01 2.040490000000000009e+03
3.799999999999999906e-02 1.973284999999999900e-01 1.099285000000000068e+01 5.388374999999999915e+01 2.040835000000000036e+03
3.899999999999999994e-02 1.974214999999999998e-01 1.182859999999999978e+01 5.687355000000000160e+01 2.041380000000000109e+03
4.000000000000000083e-02 1.975304999999999978e-01 1.266434999999999889e+01 5.989464999999999861e+01 2.042035000000000082e+03
4.100000000000000172e-02 1.976335000000000175e-01 1.328805000000000014e+01 6.229954999999999643e+01 2.042664999999999964e+03
4.200000000000000261e-02 1.977079999999999949e-01 1.352155000000000129e+01 6.353945000000000221e+01 2.043125000000000000e+03
4.300000000000000350e-02 1.977364999999999817e-01 1.324670000000000059e+01 6.325794999999999391e+01 2.043315000000000055e+03
4.400000000000000439e-02 1.977074999999999805e-01 1.241525000000000034e+01 6.133020000000000493e+01 2.043160000000000082e+03
4.499999999999999833e-02 1.976185000000000025e-01 1.104510499999999951e+01 5.785129999999999484e+01 2.042634999999999991e+03
4.599999999999999922e-02 1.974720000000000086e-01 9.206414999999999793e+00 5.308464999999999634e+01 2.041764999999999873e+03
4.700000000000000011e-02 1.972780000000000089e-01 7.002894999999999648e+00 4.739229999999999876e+01 2.040605000000000018e+03
4.800000000000000100e-02 1.970494999999999886e-01 4.553796499999999803e+00 4.116585000000000605e+01 2.039219999999999800e+03
4.900000000000000189e-02 1.968000000000000027e-01 1.979879999999999862e+00 3.477394999999999925e+01 2.037710000000000036e+03
5.000000000000000278e-02 1.965425000000000089e-01 -6.041600000000002524e-01 2.853354999999999819e+01 2.036144999999999982e+03
5.100000000000000366e-02 1.962885000000000046e-01 -3.092705000000000037e+00 2.270320000000000249e+01 2.034599999999999909e+03
5.200000000000000455e-02 1.960500000000000020e-01 -5.388396999999999437e+00 1.749239499999999836e+01 2.033139999999999873e+03
5.300000000000000544e-02 1.958349999999999813e-01 -7.400574999999999903e+00 1.307682499999999948e+01 2.031820000000000164e+03
5.399999999999999939e-02 1.956510000000000193e-01 -9.044394999999999740e+00 9.612014999999999532e+00 2.030690000000000055e+03
5.500000000000000028e-02 1.955054999999999987e-01 -1.024243500000000040e+01 7.238949999999999996e+00 2.029779999999999973e+03
5.600000000000000117e-02 1.954055000000000097e-01 -1.092815500000000029e+01 6.081025000000000347e+00 2.029150000000000091e+03
5.700000000000000205e-02 1.953555000000000152e-01 -1.105164999999999864e+01 6.232255000000000322e+00 2.028815000000000055e+03
5.800000000000000294e-02 1.953599999999999781e-01 -1.058506999999999998e+01 7.741859999999999964e+00 2.028809999999999945e+03
5.900000000000000383e-02 1.954199999999999826e-01 -9.527390000000000470e+00 1.059993500000000033e+01 2.029139999999999873e+03
6.000000000000000472e-02 1.955355000000000010e-01 -7.906344999999999956e+00 1.472895000000000110e+01 2.029809999999999945e+03
6.099999999999999867e-02 1.957019999999999871e-01 -5.777190000000000047e+00 1.998440000000000083e+01 2.030795000000000073e+03
6.199999999999999956e-02 1.959144999999999914e-01 -3.218479999999999563e+00 2.616485000000000127e+01 2.032055000000000064e+03
6.300000000000000044e-02 1.961650000000000060e-01 -3.255050000000001553e-01 3.302949999999999875e+01 2.033554999999999836e+03
6.400000000000000133e-02 1.964445000000000219e-01 2.797274999999999956e+00 4.031969999999999743e+01 2.035240000000000009e+03
6.500000000000000222e-02 1.967415000000000136e-01 6.043436999999999948e+00 4.777984999999999616e+01 2.037039999999999964e+03
6.600000000000000311e-02 1.970474999999999866e-01 9.310639999999999361e+00 5.517445000000000732e+01 2.038904999999999973e+03
6.700000000000000400e-02 1.973535000000000150e-01 1.250498999999999938e+01 6.229964999999999975e+01 2.040775000000000091e+03
6.800000000000000488e-02 1.976505000000000067e-01 1.554439999999999955e+01 6.898955000000000837e+01 2.042595000000000027e+03
6.900000000000000577e-02 1.979314999999999825e-01 1.836035000000000039e+01 7.511834999999999241e+01 2.044335000000000036e+03
7.000000000000000666e-02 1.981924999999999937e-01 2.089994999999999692e+01 8.060075000000000500e+01 2.045944999999999936e+03
7.100000000000000755e-02 1.984285000000000077e-01 2.312715000000000032e+01 8.539199999999999591e+01 2.047420000000000073e+03
7.200000000000000844e-02 1.986374999999999946e-01 2.502400000000000091e+01 8.948779999999999291e+01 2.048730000000000018e+03
7.300000000000000933e-02 1.988205000000000111e-01 2.659110000000000085e+01 9.292394999999999072e+01 2.049880000000000109e+03
7.399999999999999634e-02 1.989774999999999738e-01 2.784765000000000157e+01 9.577445000000000164e+01 2.050875000000000000e+03
7.499999999999999722e-02 1.991120000000000112e-01 2.882920000000000016e+01 9.814685000000000059e+01 2.051730000000000018e+03
7.599999999999999811e-02 1.992280000000000162e-01 2.958559999999999945e+01 1.001759500000000003e+02 2.052469999999999800e+03
7.699999999999999900e-02 1.993309999999999804e-01 3.017640000000000100e+01 1.020134500000000060e+02 2.053125000000000000e+03
7.799999999999999989e-02 1.994265000000000065e-01 3.066655000000000086e+01 1.038170000000000073e+02 2.053735000000000127e+03
7.900000000000000078e-02 1.995204999999999895e-01 3.112075000000000102e+01 1.057359999999999900e+02 2.054335000000000036e+03
8.000000000000000167e-02 1.996185000000000043e-01 3.159894999999999854e+01 1.079020000000000010e+02 2.054954999999999927e+03
8.100000000000000255e-02 1.997265000000000013e-01 3.215169999999999817e+01 1.104170000000000016e+02 2.055630000000000109e+03
8.200000000000000344e-02 1.998469999999999969e-01 3.281650000000000489e+01 1.133470000000000084e+02 2.056380000000000109e+03
8.300000000000000433e-02 1.999839999999999951e-01 3.361599999999999966e+01 1.167170000000000130e+02 2.057225000000000364e+03
8.400000000000000522e-02 2.001370000000000093e-01 3.455634999999999479e+01 1.205125000000000028e+02 2.058175000000000182e+03
8.500000000000000611e-02 2.003054999999999974e-01 3.562810000000000343e+01 1.246779999999999973e+02 2.059220000000000255e+03
8.600000000000000699e-02 2.004885000000000139e-01 3.680710000000000548e+01 1.291274999999999977e+02 2.060350000000000364e+03
8.700000000000000788e-02 2.006805000000000117e-01 3.805734999999999957e+01 1.337470000000000141e+02 2.061545000000000073e+03
8.800000000000000877e-02 2.008794999999999886e-01 3.933379999999999654e+01 1.384080000000000155e+02 2.062775000000000091e+03
8.899999999999999578e-02 2.010784999999999934e-01 4.058565000000000111e+01 1.429714999999999918e+02 2.064019999999999982e+03
8.999999999999999667e-02 2.012729999999999797e-01 4.176035000000000252e+01 1.473034999999999854e+02 2.065235000000000127e+03
9.099999999999999756e-02 2.014579999999999982e-01 4.280669999999999931e+01 1.512769999999999868e+02 2.066390000000000327e+03
9.199999999999999845e-02 2.016280000000000017e-01 4.367804999999999893e+01 1.547839999999999918e+02 2.067460000000000036e+03
9.299999999999999933e-02 2.017784999999999995e-01 4.433525000000000205e+01 1.577365000000000066e+02 2.068414999999999964e+03
9.400000000000000022e-02 2.019070000000000031e-01 4.474819999999999709e+01 1.600755000000000052e+02 2.069230000000000018e+03
9.500000000000000111e-02 2.020104999999999817e-01 4.489785000000000537e+01 1.617680000000000007e+02 2.069885000000000218e+03
9.600000000000000200e-02 2.020875000000000032e-01 4.477625000000000455e+01 1.628100000000000023e+02 2.070385000000000218e+03
9.700000000000000289e-02 2.021379999999999844e-01 4.438719999999999999e+01 1.632245000000000061e+02 2.070720000000000255e+03
9.800000000000000377e-02 2.021634999999999960e-01 4.374504999999999910e+01 1.630564999999999998e+02 2.070894999999999982e+03
9.900000000000000466e-02 2.021644999999999970e-01 4.287369999999999948e+01 1.623735000000000070e+02 2.070920000000000073e+03
1.000000000000000056e-01 2.021445000000000047e-01 4.180490000000000350e+01 1.612560000000000002e+02 2.070809999999999945e+03
1.010000000000000064e-01 2.021060000000000079e-01 4.057644999999999413e+01 1.597964999999999804e+02 2.070585000000000036e+03
1.020000000000000073e-01 2.020534999999999970e-01 3.923004999999999853e+01 1.580919999999999845e+02 2.070269999999999982e+03
1.030000000000000082e-01 2.019894999999999885e-01 3.780939999999999657e+01 1.562409999999999854e+02 2.069880000000000109e+03
1.040000000000000091e-01 2.019195000000000018e-01 3.635795000000000243e+01 1.543379999999999939e+02 2.069449999999999818e+03
1.050000000000000100e-01 2.018459999999999976e-01 3.491734999999999900e+01 1.524694999999999823e+02 2.068994999999999891e+03
1.059999999999999970e-01 2.017725000000000213e-01 3.352550000000000097e+01 1.507150000000000034e+02 2.068534999999999854e+03
1.069999999999999979e-01 2.017034999999999800e-01 3.221529999999999916e+01 1.491385000000000218e+02 2.068104999999999563e+03
1.079999999999999988e-01 2.016405000000000003e-01 3.101339999999999719e+01 1.477905000000000086e+02 2.067704999999999927e+03
1.089999999999999997e-01 2.015859999999999874e-01 2.993925000000000125e+01 1.467040000000000077e+02 2.067359999999999673e+03
1.100000000000000006e-01 2.015409999999999979e-01 2.900444999999999851e+01 1.458960000000000150e+02 2.067074999999999818e+03
1.110000000000000014e-01 2.015064999999999773e-01 2.821274999999999977e+01 1.453654999999999973e+02 2.066850000000000364e+03
1.120000000000000023e-01 2.014830000000000232e-01 2.755999999999999872e+01 1.450935000000000059e+02 2.066689999999999600e+03
1.130000000000000032e-01 2.014694999999999958e-01 2.703475000000000250e+01 1.450465000000000089e+02 2.066595000000000255e+03
1.140000000000000041e-01 2.014640000000000042e-01 2.661909999999999954e+01 1.451779999999999973e+02 2.066550000000000182e+03
1.150000000000000050e-01 2.014650000000000052e-01 2.629010000000000247e+01 1.454300000000000068e+02 2.066555000000000291e+03
1.160000000000000059e-01 2.014710000000000112e-01 2.602094999999999914e+01 1.457384999999999877e+02 2.066585000000000036e+03
1.170000000000000068e-01 2.014795000000000058e-01 2.578269999999999840e+01 1.460364999999999895e+02 2.066630000000000109e+03
1.180000000000000077e-01 2.014874999999999861e-01 2.554585000000000150e+01 1.462570000000000050e+02 2.066670000000000073e+03
1.190000000000000085e-01 2.014914999999999901e-01 2.528215000000000146e+01 1.463375000000000057e+02 2.066699999999999818e+03
1.200000000000000094e-01 2.014905000000000168e-01 2.496589999999999776e+01 1.462239999999999895e+02 2.066690000000000055e+03
1.209999999999999964e-01 2.014819999999999944e-01 2.457549999999999812e+01 1.458729999999999905e+02 2.066635000000000218e+03
1.219999999999999973e-01 2.014635000000000176e-01 2.409459999999999980e+01 1.452549999999999955e+02 2.066519999999999982e+03
1.229999999999999982e-01 2.014344999999999886e-01 2.351295000000000002e+01 1.443534999999999968e+02 2.066345000000000255e+03
1.239999999999999991e-01 2.013944999999999763e-01 2.282665000000000077e+01 1.431714999999999804e+02 2.066099999999999909e+03
1.250000000000000000e-01 2.013435000000000086e-01 2.203869999999999862e+01 1.417224999999999966e+02 2.065779999999999745e+03
1.260000000000000009e-01 2.012815000000000021e-01 2.115834999999999866e+01 1.400389999999999873e+02 2.065405000000000200e+03
1.270000000000000018e-01 2.012105000000000143e-01 2.020080000000000098e+01 1.381634999999999991e+02 2.064970000000000255e+03
1.280000000000000027e-01 2.011314999999999908e-01 1.918615000000000137e+01 1.361504999999999939e+02 2.064480000000000018e+03
1.290000000000000036e-01 2.010470000000000035e-01 1.813810000000000144e+01 1.340589999999999975e+02 2.063954999999999927e+03
1.300000000000000044e-01 2.009595000000000131e-01 1.708285000000000053e+01 1.319549999999999841e+02 2.063414999999999964e+03
1.310000000000000053e-01 2.008719999999999950e-01 1.604759999999999920e+01 1.299025000000000034e+02 2.062869999999999891e+03
1.320000000000000062e-01 2.007859999999999923e-01 1.505894999999999939e+01 1.279639999999999986e+02 2.062329999999999927e+03
1.330000000000000071e-01 2.007049999999999945e-01 1.414170000000000016e+01 1.261945000000000050e+02 2.061824999999999818e+03
1.340000000000000080e-01 2.006300000000000028e-01 1.331775000000000020e+01 1.246419999999999959e+02 2.061355000000000018e+03
1.350000000000000089e-01 2.005639999999999923e-01 1.260490000000000066e+01 1.233430000000000035e+02 2.060940000000000055e+03
1.360000000000000098e-01 2.005080000000000195e-01 1.201630000000000109e+01 1.223234999999999957e+02 2.060585000000000036e+03
1.370000000000000107e-01 2.004635000000000167e-01 1.155979999999999919e+01 1.215955000000000013e+02 2.060300000000000182e+03
1.380000000000000115e-01 2.004305000000000114e-01 1.123787500000000072e+01 1.211585000000000036e+02 2.060085000000000036e+03
1.390000000000000124e-01 2.004090000000000038e-01 1.104769999999999897e+01 1.210014999999999930e+02 2.059945000000000164e+03
1.400000000000000133e-01 2.003995000000000082e-01 1.098160000000000025e+01 1.211004999999999967e+02 2.059869999999999891e+03
1.410000000000000142e-01 2.003995000000000082e-01 1.102725000000000044e+01 1.214250000000000114e+02 2.059869999999999891e+03
1.420000000000000151e-01 2.004095000000000182e-01 1.116884999999999906e+01 1.219344999999999999e+02 2.059920000000000073e+03
1.430000000000000160e-01 2.004270000000000218e-01 1.138759999999999906e+01 1.225835000000000008e+02 2.060019999999999982e+03
1.440000000000000169e-01 2.004504999999999759e-01 1.166314999999999991e+01 1.233264999999999958e+02 2.060159999999999854e+03
1.450000000000000178e-01 2.004779999999999895e-01 1.197385000000000055e+01 1.241135000000000019e+02 2.060324999999999818e+03
1.459999999999999909e-01 2.005075000000000052e-01 1.229824999999999946e+01 1.248990000000000009e+02 2.060505000000000109e+03
1.469999999999999918e-01 2.005374999999999797e-01 1.261595000000000155e+01 1.256380000000000052e+02 2.060689999999999600e+03
1.479999999999999927e-01 2.005655000000000077e-01 1.290804999999999936e+01 1.262930000000000064e+02 2.060864999999999782e+03
1.489999999999999936e-01 2.005915000000000059e-01 1.315814999999999912e+01 1.268315000000000055e+02 2.061019999999999982e+03
1.499999999999999944e-01 2.006124999999999992e-01 1.335265000000000057e+01 1.272275000000000063e+02 2.061154999999999745e+03
1.509999999999999953e-01 2.006275000000000142e-01 1.348144999999999882e+01 1.274639999999999986e+02 2.061255000000000109e+03
1.519999999999999962e-01 2.006364999999999954e-01 1.353800000000000026e+01 1.275314999999999941e+02 2.061309999999999945e+03
1.529999999999999971e-01 2.006394999999999984e-01 1.351919999999999966e+01 1.274284999999999997e+02 2.061329999999999927e+03
1.539999999999999980e-01 2.006350000000000078e-01 1.342600000000000016e+01 1.271620000000000061e+02 2.061309999999999945e+03
1.549999999999999989e-01 2.006244999999999834e-01 1.326229999999999976e+01 1.267450000000000045e+02 2.061250000000000000e+03
1.559999999999999998e-01 2.006084999999999952e-01 1.303519999999999968e+01 1.261974999999999909e+02 2.061150000000000091e+03
1.570000000000000007e-01 2.005865000000000009e-01 1.275440000000000040e+01 1.255434999999999945e+02 2.061019999999999982e+03
1.580000000000000016e-01 2.005600000000000160e-01 1.243135000000000012e+01 1.248114999999999952e+02 2.060859999999999673e+03
1.590000000000000024e-01 2.005305000000000004e-01 1.207894999999999897e+01 1.240300000000000011e+02 2.060680000000000291e+03
