# t [s], A [cm^2], U [cm/s], P [cPa], c [cm/s]
1.000000000000000021e-03 7.496059999999999945e-01 4.466500000000005188e-03 9.176064999999999827e+01 1.629880000000000109e+03
2.000000000000000042e-03 7.495974999999999167e-01 6.997799999999999333e-03 9.173075000000000045e+01 1.629875000000000000e+03
3.000000000000000062e-03 7.496920000000000250e-01 1.618005500000000152e-01 9.189220000000000255e+01 1.629904999999999973e+03
4.000000000000000083e-03 7.497249999999999748e-01 2.415670000000000039e-01 9.197065000000000623e+01 1.629924999999999955e+03
5.000000000000000104e-03 7.496294999999999487e-01 1.321489999999999609e-01 9.174434999999999718e+01 1.629880000000000109e+03
6.000000000000000125e-03 7.495165000000000299e-01 -1.868150000000001754e-02 9.135229999999999961e+01 1.629799999999999955e+03
7.000000000000000146e-03 7.493834999999999802e-01 -2.179200000000000026e-01 9.082175000000000864e+01 1.629690000000000055e+03
8.000000000000000167e-03 7.491419999999999746e-01 -6.059099999999999486e-01 8.996710000000000207e+01 1.629514999999999873e+03
9.000000000000001055e-03 7.487989999999999924e-01 -1.169910000000000005e+00 8.874060000000000059e+01 1.629269999999999982e+03
1.000000000000000194e-02 7.483495000000000008e-01 -1.900565000000000060e+00 8.710580000000000211e+01 1.628924999999999955e+03
1.099999999999999936e-02 7.477525000000000421e-01 -2.832914999999999850e+00 8.496750000000000114e+01 1.628474999999999909e+03
1.200000000000000025e-02 7.470319999999999183e-01 -3.900985000000000369e+00 8.234969999999999857e+01 1.627914999999999964e+03
1.300000000000000114e-02 7.463070000000000537e-01 -4.879057999999999673e+00 7.952254999999999541e+01 1.627289999999999964e+03
1.400000000000000203e-02 7.457169999999999632e-01 -5.499854000000000021e+00 7.689374999999999716e+01 1.626674999999999955e+03
1.499999999999999944e-02 7.453359999999999985e-01 -5.605624999999999858e+00 7.479044999999999277e+01 1.626150000000000091e+03
1.600000000000000033e-02 7.451419999999999710e-01 -5.208600000000000563e+00 7.331780000000000541e+01 1.625735000000000127e+03
1.700000000000000122e-02 7.450440000000000396e-01 -4.460679999999999978e+00 7.234495000000001141e+01 1.625420000000000073e+03
1.800000000000000211e-02 7.449274999999999647e-01 -3.577194999999999681e+00 7.158455000000000723e+01 1.625154999999999973e+03
1.900000000000000300e-02 7.447000000000000286e-01 -2.749184999999999768e+00 7.072039999999999793e+01 1.624884999999999991e+03
2.000000000000000042e-02 7.443279999999999896e-01 -2.074041500000000315e+00 6.953440000000000509e+01 1.624555000000000064e+03
2.100000000000000130e-02 7.438385000000000691e-01 -1.535439999999999916e+00 6.797825000000000273e+01 1.624159999999999854e+03
2.200000000000000219e-02 7.432985000000000841e-01 -1.042170000000000263e+00 6.615514999999999191e+01 1.623715000000000146e+03
2.299999999999999961e-02 7.427715000000000289e-01 -4.980549999999999145e-01 6.423404999999999632e+01 1.623240000000000009e+03
2.400000000000000050e-02 7.422885000000000177e-01 1.381049999999999223e-01 6.235034999999999883e+01 1.622759999999999991e+03
2.500000000000000139e-02 7.418344999999999523e-01 8.260849999999999582e-01 6.053840000000000288e+01 1.622289999999999964e+03
2.600000000000000228e-02 7.413585000000000313e-01 1.451869999999999994e+00 5.871219999999999573e+01 1.621815000000000055e+03
2.700000000000000316e-02 7.407900000000000595e-01 1.859515000000000029e+00 5.668990000000000151e+01 1.621304999999999836e+03
2.800000000000000058e-02 7.400614999999999277e-01 1.895599999999999508e+00 5.425019999999999953e+01 1.620715000000000146e+03
2.900000000000000147e-02 7.391289999999999250e-01 1.454850000000000421e+00 5.120479999999999876e+01 1.620005000000000109e+03
3.000000000000000236e-02 7.379919999999999813e-01 5.140399999999996083e-01 4.746600000000000108e+01 1.619154999999999973e+03
3.099999999999999978e-02 7.366924999999999724e-01 -8.577500000000002345e-01 4.308655000000000257e+01 1.618170000000000073e+03
3.200000000000000067e-02 7.353110000000000479e-01 -2.515524999999999345e+00 3.825880000000000081e+01 1.617079999999999927e+03
3.300000000000000155e-02 7.339420000000000943e-01 -4.273925000000000196e+00 3.327604999999999791e+01 1.615934999999999945e+03
3.400000000000000244e-02 7.326804999999999568e-01 -5.945684999999999221e+00 2.847500000000000142e+01 1.614809999999999945e+03
3.500000000000000333e-02 7.316019999999999746e-01 -7.371829999999999217e+00 2.417834999999999823e+01 1.613775000000000091e+03
3.600000000000000422e-02 7.307615000000000638e-01 -8.438092499999999774e+00 2.065094500000000011e+01 1.612885000000000218e+03
3.700000000000000511e-02 7.301870000000000305e-01 -9.078739999999999810e+00 1.807513000000000147e+01 1.612184999999999945e+03
3.799999999999999906e-02 7.298860000000000348e-01 -9.269959999999999312e+00 1.654444999999999766e+01 1.611715000000000146e+03
3.899999999999999994e-02 7.298485000000000111e-01 -9.018754999999998745e+00 1.607324999999999804e+01 1.611480000000000018e+03
4.000000000000000083e-02 7.300569999999999560e-01 -8.349230000000000373e+00 1.661619999999999919e+01 1.611480000000000018e+03
4.100000000000000172e-02 7.304880000000000262e-01 -7.291970000000000063e+00 1.809089999999999776e+01 1.611710000000000036e+03
4.200000000000000261e-02 7.311175000000000868e-01 -5.877205000000000013e+00 2.039836999999999989e+01 1.612130000000000109e+03
4.300000000000000350e-02 7.319234999999999491e-01 -4.134285000000000210e+00 2.343532499999999885e+01 1.612740000000000009e+03
4.400000000000000439e-02 7.328835000000000210e-01 -2.094790000000000596e+00 2.709884999999999877e+01 1.613514999999999873e+03
4.499999999999999833e-02 7.339720000000000688e-01 2.020499999999998408e-01 3.128405000000000058e+01 1.614424999999999955e+03
4.599999999999999922e-02 7.351600000000000357e-01 2.705134999999999401e+00 3.587910000000000110e+01 1.615445000000000164e+03
4.700000000000000011e-02 7.364139999999999020e-01 5.350404999999999411e+00 4.076239999999999952e+01 1.616545000000000073e+03
4.800000000000000100e-02 7.376979999999999649e-01 8.063335000000000363e+00 4.580270000000000152e+01 1.617704999999999927e+03
4.900000000000000189e-02 7.389755000000000074e-01 1.076420050000000117e+01 5.086419999999999675e+01 1.618889999999999873e+03
5.000000000000000278e-02 7.402109999999999523e-01 1.337497999999999898e+01 5.581465000000000032e+01 1.620065000000000055e+03
5.100000000000000366e-02 7.413760000000000350e-01 1.582647000000000048e+01 6.053560000000000230e+01 1.621204999999999927e+03
5.200000000000000455e-02 7.424489999999999146e-01 1.806354999999999933e+01 6.493139999999999645e+01 1.622295000000000073e+03
5.300000000000000544e-02 7.434180000000000232e-01 2.004875000000000185e+01 6.893585000000000207e+01 1.623304999999999836e+03
5.399999999999999939e-02 7.442794999999999828e-01 2.176290000000000191e+01 7.251585000000000036e+01 1.624224999999999909e+03
5.500000000000000028e-02 7.450375000000000192e-01 2.320385000000000275e+01 7.567029999999999745e+01 1.625054999999999836e+03
5.600000000000000117e-02 7.457030000000000047e-01 2.438384999999999891e+01 7.842634999999999934e+01 1.625800000000000182e+03
5.700000000000000205e-02 7.462914999999999965e-01 2.532600000000000051e+01 8.083384999999999820e+01 1.626454999999999927e+03
5.800000000000000294e-02 7.468200000000000394e-01 2.606139999999999901e+01 8.295855000000000246e+01 1.627045000000000073e+03
5.900000000000000383e-02 7.473079999999999723e-01 2.662659999999999982e+01 8.487610000000000809e+01 1.627590000000000146e+03
6.000000000000000472e-02 7.477759999999999962e-01 2.706130000000000280e+01 8.666700000000000159e+01 1.628085000000000036e+03
6.099999999999999867e-02 7.482429999999999914e-01 2.740740000000000265e+01 8.841225000000000023e+01 1.628565000000000055e+03
6.199999999999999956e-02 7.487289999999999779e-01 2.770725000000000193e+01 9.019010000000000105e+01 1.629045000000000073e+03
6.300000000000000044e-02 7.492499999999999716e-01 2.800185000000000102e+01 9.207235000000000014e+01 1.629539999999999964e+03
6.400000000000000133e-02 7.498225000000000584e-01 2.832835000000000036e+01 9.412069999999999936e+01 1.630065000000000055e+03
6.500000000000000222e-02 7.504560000000000120e-01 2.871780000000000044e+01 9.638304999999999723e+01 1.630630000000000109e+03
6.600000000000000311e-02 7.511559999999999349e-01 2.919225000000000136e+01 9.888894999999999413e+01 1.631250000000000000e+03
6.700000000000000400e-02 7.519230000000000080e-01 2.976270000000000238e+01 1.016473500000000030e+02 1.631924999999999955e+03
6.800000000000000488e-02 7.527505000000001001e-01 3.042804999999999893e+01 1.046444999999999936e+02 1.632650000000000091e+03
6.900000000000000577e-02 7.536259999999999071e-01 3.117544999999999789e+01 1.078420000000000130e+02 1.633424999999999955e+03
7.000000000000000666e-02 7.545325000000000504e-01 3.198120000000000118e+01 1.111835000000000093e+02 1.634235000000000127e+03
7.100000000000000755e-02 7.554490000000000371e-01 3.281340000000000146e+01 1.145955000000000013e+02 1.635065000000000055e+03
7.200000000000000844e-02 7.563519999999999133e-01 3.363445000000000107e+01 1.179929999999999950e+02 1.635894999999999982e+03
7.300000000000000933e-02 7.572185000000000166e-01 3.440439999999999543e+01 1.212860000000000014e+02 1.636714999999999918e+03
7.399999999999999634e-02 7.580270000000000064e-01 3.508384999999999820e+01 1.243870000000000005e+02 1.637494999999999891e+03
7.499999999999999722e-02 7.587565000000000559e-01 3.563665000000000305e+01 1.272150000000000034e+02 1.638220000000000027e+03
7.599999999999999811e-02 7.593914999999999971e-01 3.603209999999999980e+01 1.297019999999999982e+02 1.638869999999999891e+03
7.699999999999999900e-02 7.599210000000000687e-01 3.624639999999999418e+01 1.317944999999999993e+02 1.639429999999999836e+03
7.799999999999999989e-02 7.603374999999999995e-01 3.626409999999999911e+01 1.334599999999999795e+02 1.639894999999999982e+03
7.900000000000000078e-02 7.606384999999999952e-01 3.607820000000000249e+01 1.346814999999999998e+02 1.640264999999999873e+03
8.000000000000000167e-02 7.608280000000000598e-01 3.569035000000000224e+01 1.354635000000000105e+02 1.640525000000000091e+03
8.100000000000000255e-02 7.609120000000000328e-01 3.511059999999999803e+01 1.358285000000000196e+02 1.640684999999999945e+03
8.200000000000000344e-02 7.609025000000000372e-01 3.435650000000000404e+01 1.358129999999999882e+02 1.640744999999999891e+03
8.300000000000000433e-02 7.608125000000000027e-01 3.345185000000000031e+01 1.354680000000000177e+02 1.640724999999999909e+03
8.400000000000000522e-02 7.606585000000000152e-01 3.242579999999999529e+01 1.348555000000000064e+02 1.640634999999999991e+03
8.500000000000000611e-02 7.604580000000000783e-01 3.131080000000000041e+01 1.340420000000000016e+02 1.640490000000000009e+03
8.600000000000000699e-02 7.602299999999999613e-01 3.014130000000000109e+01 1.330974999999999966e+02 1.640299999999999955e+03
8.700000000000000788e-02 7.599899999999999434e-01 2.895175000000000054e+01 1.320925000000000011e+02 1.640090000000000146e+03
8.800000000000000877e-02 7.597564999999999458e-01 2.777510000000000190e+01 1.310919999999999845e+02 1.639869999999999891e+03
8.899999999999999578e-02 7.595414999999999806e-01 2.664120000000000132e+01 1.301544999999999845e+02 1.639655000000000200e+03
8.999999999999999667e-02 7.593585000000000473e-01 2.557554999999999978e+01 1.293290000000000077e+02 1.639454999999999927e+03
9.099999999999999756e-02 7.592155000000000431e-01 2.459805000000000064e+01 1.286530000000000200e+02 1.639284999999999854e+03
9.199999999999999845e-02 7.591170000000000417e-01 2.372285000000000110e+01 1.281520000000000152e+02 1.639150000000000091e+03
9.299999999999999933e-02 7.590660000000000185e-01 2.295750000000000313e+01 1.278379999999999939e+02 1.639054999999999836e+03
9.400000000000000022e-02 7.590609999999999857e-01 2.230335000000000178e+01 1.277120000000000033e+02 1.639005000000000109e+03
9.500000000000000111e-02 7.590974999999999806e-01 2.175554999999999950e+01 1.277604999999999933e+02 1.638985000000000127e+03
9.600000000000000200e-02 7.591699999999999005e-01 2.130395000000000039e+01 1.279615000000000009e+02 1.639009999999999991e+03
9.700000000000000289e-02 7.592689999999999717e-01 2.093365000000000009e+01 1.282844999999999800e+02 1.639065000000000055e+03
9.800000000000000377e-02 7.593849999999999767e-01 2.062599999999999767e+01 1.286920000000000073e+02 1.639144999999999982e+03
9.900000000000000466e-02 7.595069999999999322e-01 2.035970000000000013e+01 1.291415000000000077e+02 1.639235000000000127e+03
1.000000000000000056e-01 7.596225000000000893e-01 2.011209999999999809e+01 1.295894999999999868e+02 1.639329999999999927e+03
1.010000000000000064e-01 7.597214999999999385e-01 1.986039999999999850e+01 1.299919999999999902e+02 1.639420000000000073e+03
1.020000000000000073e-01 7.597939999999999694e-01 1.958275000000000077e+01 1.303079999999999927e+02 1.639494999999999891e+03
1.030000000000000082e-01 7.598309999999999231e-01 1.925990000000000180e+01 1.305024999999999977e+02 1.639545000000000073e+03
1.040000000000000091e-01 7.598255000000000425e-01 1.887555000000000049e+01 1.305444999999999993e+02 1.639559999999999945e+03
1.050000000000000100e-01 7.597739999999999494e-01 1.841779999999999973e+01 1.304150000000000205e+02 1.639539999999999964e+03
1.059999999999999970e-01 7.596739999999999604e-01 1.787964999999999804e+01 1.301025000000000205e+02 1.639480000000000018e+03
1.069999999999999979e-01 7.595270000000000632e-01 1.725905000000000200e+01 1.296055000000000064e+02 1.639380000000000109e+03
1.079999999999999988e-01 7.593360000000000110e-01 1.655920000000000059e+01 1.289329999999999927e+02 1.639234999999999900e+03
1.089999999999999997e-01 7.591060000000000585e-01 1.578835000000000122e+01 1.281030000000000086e+02 1.639054999999999836e+03
1.100000000000000006e-01 7.588459999999999095e-01 1.495899999999999963e+01 1.271424999999999983e+02 1.638845000000000027e+03
1.110000000000000014e-01 7.585645000000000859e-01 1.408774000000000015e+01 1.260850000000000080e+02 1.638599999999999909e+03
1.120000000000000023e-01 7.582725000000000160e-01 1.319390500000000088e+01 1.249689999999999941e+02 1.638345000000000027e+03
1.130000000000000032e-01 7.579799999999999871e-01 1.229865999999999993e+01 1.238365000000000009e+02 1.638079999999999927e+03
1.140000000000000041e-01 7.576994999999999703e-01 1.142403499999999994e+01 1.227305000000000064e+02 1.637815000000000055e+03
1.150000000000000050e-01 7.574404999999999610e-01 1.059149000000000029e+01 1.216924999999999955e+02 1.637559999999999945e+03
1.160000000000000059e-01 7.572119999999999962e-01 9.821114999999998929e+00 1.207595000000000027e+02 1.637329999999999927e+03
1.170000000000000068e-01 7.570225000000000426e-01 9.130325000000000912e+00 1.199639999999999986e+02 1.637125000000000000e+03
1.180000000000000077e-01 7.568770000000000220e-01 8.533220000000000027e+00 1.193324999999999960e+02 1.636954999999999927e+03
1.190000000000000085e-01 7.567794999999999384e-01 8.039819999999998856e+00 1.188814999999999884e+02 1.636819999999999936e+03
1.200000000000000094e-01 7.567314999999998903e-01 7.655815000000000481e+00 1.186200000000000045e+02 1.636730000000000018e+03
1.209999999999999964e-01 7.567319999999999602e-01 7.382260000000000488e+00 1.185469999999999970e+02 1.636690000000000055e+03
1.219999999999999973e-01 7.567779999999999507e-01 7.215849999999999653e+00 1.186550000000000011e+02 1.636684999999999945e+03
1.229999999999999982e-01 7.568634999999999113e-01 7.149189999999999934e+00 1.189275000000000091e+02 1.636719999999999800e+03
1.239999999999999991e-01 7.569829999999999615e-01 7.171364999999999768e+00 1.193409999999999940e+02 1.636795000000000073e+03
1.250000000000000000e-01 7.571285000000000931e-01 7.268589999999999662e+00 1.198684999999999974e+02 1.636900000000000091e+03
1.260000000000000009e-01 7.572920000000000762e-01 7.424979999999999691e+00 1.204784999999999968e+02 1.637025000000000091e+03
1.270000000000000018e-01 7.574650000000000549e-01 7.623325000000000351e+00 1.211380000000000052e+02 1.637170000000000073e+03
1.280000000000000027e-01 7.576384999999999925e-01 7.845945000000000391e+00 1.218135000000000048e+02 1.637320000000000164e+03
1.290000000000000036e-01 7.578050000000000619e-01 8.075404999999999944e+00 1.224739999999999895e+02 1.637470000000000027e+03
1.300000000000000044e-01 7.579569999999999919e-01 8.295284999999999798e+00 1.230895000000000010e+02 1.637615000000000009e+03
1.310000000000000053e-01 7.580890000000000128e-01 8.490735000000000809e+00 1.236364999999999981e+02 1.637750000000000000e+03
1.320000000000000062e-01 7.581959999999999811e-01 8.649045000000000982e+00 1.240919999999999987e+02 1.637865000000000009e+03
1.330000000000000071e-01 7.582744999999999624e-01 8.759999999999999787e+00 1.244414999999999907e+02 1.637954999999999927e+03
1.340000000000000080e-01 7.583219999999999406e-01 8.816185000000000827e+00 1.246754999999999995e+02 1.638025000000000091e+03
1.350000000000000089e-01 7.583385000000000264e-01 8.813105000000000189e+00 1.247874999999999943e+02 1.638065000000000055e+03
1.360000000000000098e-01 7.583250000000000268e-01 8.749124999999999375e+00 1.247804999999999893e+02 1.638074999999999818e+03
1.370000000000000107e-01 7.582830000000000403e-01 8.625550000000000495e+00 1.246589999999999918e+02 1.638065000000000055e+03
1.380000000000000115e-01 7.582154999999999312e-01 8.446210000000000662e+00 1.244335000000000093e+02 1.638025000000000091e+03
1.390000000000000124e-01 7.581275000000000652e-01 8.217309999999999448e+00 1.241184999999999974e+02 1.637964999999999918e+03
1.400000000000000133e-01 7.580219999999999736e-01 7.946944999999999482e+00 1.237300000000000040e+02 1.637885000000000218e+03
1.410000000000000142e-01 7.579050000000000509e-01 7.644610000000000127e+00 1.232864999999999895e+02 1.637789999999999964e+03
1.420000000000000151e-01 7.577810000000000379e-01 7.320899999999999963e+00 1.228084999999999951e+02 1.637684999999999945e+03
1.430000000000000160e-01 7.576555000000000373e-01 6.986695000000000100e+00 1.223160000000000025e+02 1.637575000000000045e+03
1.440000000000000169e-01 7.575330000000000119e-01 6.652834999999999610e+00 1.218269999999999982e+02 1.637460000000000036e+03
1.450000000000000178e-01 7.574179999999999247e-01 6.329525000000000290e+00 1.213599999999999994e+02 1.637355000000000018e+03
1.459999999999999909e-01 7.573140000000000427e-01 6.025884999999999714e+00 1.209295000000000044e+02 1.637250000000000000e+03
1.469999999999999918e-01 7.572239999999998972e-01 5.749549999999999272e+00 1.205475000000000136e+02 1.637154999999999973e+03
1.479999999999999927e-01 7.571489999999999609e-01 5.506359999999999921e+00 1.202220000000000084e+02 1.637069999999999936e+03
1.489999999999999936e-01 7.570900000000000407e-01 5.300184999999999924e+00 1.199569999999999936e+02 1.636994999999999891e+03
1.499999999999999944e-01 7.570464999999999556e-01 5.132830000000000226e+00 1.197535000000000025e+02 1.636940000000000055e+03
1.509999999999999953e-01 7.570179999999999687e-01 5.004084999999999894e+00 1.196090000000000089e+02 1.636900000000000091e+03
1.519999999999999962e-01 7.570015000000001049e-01 4.911830000000000140e+00 1.195165000000000077e+02 1.636865000000000009e+03
1.529999999999999971e-01 7.569954999999999323e-01 4.852325000000000443e+00 1.194675000000000011e+02 1.636840000000000146e+03
1.539999999999999980e-01 7.569949999999999735e-01 4.820470000000000255e+00 1.194495000000000005e+02 1.636829999999999927e+03
1.549999999999999989e-01 7.569989999999999775e-01 4.810164999999999580e+00 1.194515000000000100e+02 1.636824999999999818e+03
1.559999999999999998e-01 7.570019999999999527e-01 4.814719999999999445e+00 1.194600000000000080e+02 1.636820000000000164e+03
1.570000000000000007e-01 7.570019999999999527e-01 4.827189999999999870e+00 1.194604999999999961e+02 1.636815000000000055e+03
1.580000000000000016e-01 7.569949999999999735e-01 4.840799999999999770e+00 1.194424999999999955e+02 1.636805000000000064e+03
1.590000000000000024e-01 7.569790000000000685e-01 4.849244999999999806e+00 1.193944999999999936e+02 1.636789999999999964e+03
