# t [s], A [cm^2], U [cm/s], P [cPa], c [cm/s]
1.000000000000000021e-03 1.191129999999999967e-01 3.125800000000000245e-01 9.474129999999999541e+01 2.054545000000000073e+03
2.000000000000000042e-03 1.190859999999999974e-01 1.781614499999999879e+00 9.155320000000000391e+01 2.054130000000000109e+03
3.000000000000000062e-03 1.190065000000000012e-01 3.586891999999999747e+00 8.722605000000000075e+01 2.052965000000000146e+03
4.000000000000000083e-03 1.188950000000000007e-01 5.609372999999999720e+00 8.252559999999999718e+01 2.051349999999999909e+03
5.000000000000000104e-03 1.187735000000000041e-01 7.784254999999999924e+00 7.829070000000000107e+01 2.049605000000000018e+03
6.000000000000000125e-03 1.186550000000000105e-01 9.954269999999999285e+00 7.481515000000000271e+01 2.047920000000000073e+03
7.000000000000000146e-03 1.185424999999999951e-01 1.191798000000000002e+01 7.187205000000000155e+01 2.046355000000000018e+03
8.000000000000000167e-03 1.184385000000000021e-01 1.358728499999999961e+01 6.921405000000000030e+01 2.044930000000000064e+03
9.000000000000001055e-03 1.183454999999999924e-01 1.499355000000000082e+01 6.687055000000000859e+01 2.043674999999999955e+03
1.000000000000000194e-02 1.182654999999999956e-01 1.617295000000000016e+01 6.492464999999999975e+01 2.042605000000000018e+03
1.099999999999999936e-02 1.181989999999999985e-01 1.713994999999999891e+01 6.336475000000000080e+01 2.041724999999999909e+03
1.200000000000000025e-02 1.181444999999999995e-01 1.790555000000000163e+01 6.213419999999999277e+01 2.041014999999999873e+03
1.300000000000000114e-02 1.181000000000000105e-01 1.847244999999999848e+01 6.114294999999999902e+01 2.040449999999999818e+03
1.400000000000000203e-02 1.180634999999999879e-01 1.884394999999999953e+01 6.027549999999999386e+01 2.039985000000000127e+03
1.499999999999999944e-02 1.180324999999999985e-01 1.906640000000000157e+01 5.949975000000000591e+01 2.039605000000000018e+03
1.600000000000000033e-02 1.180090000000000028e-01 1.925209999999999866e+01 5.897979999999999734e+01 2.039315000000000055e+03
1.700000000000000122e-02 1.179979999999999918e-01 1.954370000000000118e+01 5.903910000000000480e+01 2.039184999999999945e+03
1.800000000000000211e-02 1.180049999999999988e-01 2.004220000000000113e+01 5.997044999999999959e+01 2.039289999999999964e+03
1.900000000000000300e-02 1.180325000000000124e-01 2.075164999999999793e+01 6.183254999999999768e+01 2.039659999999999854e+03
2.000000000000000042e-02 1.180785000000000029e-01 2.157334999999999781e+01 6.436814999999999998e+01 2.040275000000000091e+03
2.100000000000000130e-02 1.181349999999999900e-01 2.234710000000000107e+01 6.707999999999999829e+01 2.041034999999999854e+03
2.200000000000000219e-02 1.181915000000000049e-01 2.291414999999999935e+01 6.940925000000000011e+01 2.041804999999999836e+03
2.299999999999999961e-02 1.182390000000000108e-01 2.317094999999999771e+01 7.092595000000000027e+01 2.042460000000000036e+03
2.400000000000000050e-02 1.182694999999999996e-01 2.309725000000000250e+01 7.145404999999999518e+01 2.042905000000000200e+03
2.500000000000000139e-02 1.182824999999999988e-01 2.274994999999999834e+01 7.109335000000000093e+01 2.043105000000000018e+03
2.600000000000000228e-02 1.182799999999999963e-01 2.223245000000000005e+01 7.014475000000000193e+01 2.043089999999999918e+03
2.700000000000000316e-02 1.182669999999999971e-01 2.165265000000000128e+01 6.897874999999999091e+01 2.042945000000000164e+03
2.800000000000000058e-02 1.182505000000000084e-01 2.108745000000000047e+01 6.790285000000000082e+01 2.042724999999999909e+03
2.900000000000000147e-02 1.182335000000000053e-01 2.056475000000000009e+01 6.707484999999999786e+01 2.042509999999999991e+03
3.000000000000000236e-02 1.182194999999999913e-01 2.006559999999999988e+01 6.648284999999999911e+01 2.042315000000000055e+03
3.099999999999999978e-02 1.182070000000000065e-01 1.954245000000000232e+01 6.598664999999999736e+01 2.042139999999999873e+03
3.200000000000000067e-02 1.181930000000000064e-01 1.894470000000000098e+01 6.539655000000000484e+01 2.041965000000000146e+03
3.300000000000000155e-02 1.181750000000000023e-01 1.824340000000000117e+01 6.456015000000000725e+01 2.041730000000000018e+03
3.400000000000000244e-02 1.181520000000000070e-01 1.744715000000000060e+01 6.342914999999999992e+01 2.041424999999999955e+03
3.500000000000000333e-02 1.181234999999999924e-01 1.660569999999999879e+01 6.208804999999999552e+01 2.041049999999999955e+03
3.600000000000000422e-02 1.180925000000000030e-01 1.579920000000000080e+01 6.073765000000000214e+01 2.040634999999999764e+03
3.700000000000000511e-02 1.180635000000000018e-01 1.511850000000000094e+01 5.964020000000000010e+01 2.040250000000000000e+03
3.799999999999999906e-02 1.180419999999999942e-01 1.464114999999999966e+01 5.904449999999999932e+01 2.039944999999999936e+03
3.899999999999999994e-02 1.180314999999999975e-01 1.441155000000000008e+01 5.911594999999999800e+01 2.039799999999999955e+03
4.000000000000000083e-02 1.180355000000000015e-01 1.443029999999999902e+01 5.989050000000000296e+01 2.039835000000000036e+03
4.100000000000000172e-02 1.180545000000000067e-01 1.465450000000000053e+01 6.126449999999999818e+01 2.040065000000000055e+03
4.200000000000000261e-02 1.180839999999999945e-01 1.500750000000000028e+01 6.301814999999999856e+01 2.040450000000000045e+03
4.300000000000000350e-02 1.181210000000000038e-01 1.539455000000000062e+01 6.486305000000000121e+01 2.040924999999999955e+03
4.400000000000000439e-02 1.181584999999999996e-01 1.572005000000000052e+01 6.649904999999999688e+01 2.041434999999999945e+03
4.499999999999999833e-02 1.181914999999999910e-01 1.590225000000000044e+01 6.766625000000000512e+01 2.041875000000000000e+03
4.599999999999999922e-02 1.182145000000000001e-01 1.588295000000000101e+01 6.818215000000000714e+01 2.042184999999999945e+03
4.700000000000000011e-02 1.182235000000000091e-01 1.563200000000000145e+01 6.795904999999999063e+01 2.042325000000000045e+03
4.800000000000000100e-02 1.182175000000000031e-01 1.514550000000000018e+01 6.700159999999999627e+01 2.042250000000000000e+03
4.900000000000000189e-02 1.181949999999999945e-01 1.444095000000000084e+01 6.538900000000001000e+01 2.041965000000000146e+03
5.000000000000000278e-02 1.181584999999999996e-01 1.355044999999999966e+01 6.324869999999999948e+01 2.041489999999999782e+03
5.100000000000000366e-02 1.181105000000000071e-01 1.251341500000000018e+01 6.072934999999999661e+01 2.040845000000000255e+03
5.200000000000000455e-02 1.180529999999999913e-01 1.137162999999999968e+01 5.797860000000000014e+01 2.040079999999999927e+03
5.300000000000000544e-02 1.179884999999999962e-01 1.016594500000000068e+01 5.512940000000000396e+01 2.039230000000000018e+03
5.399999999999999939e-02 1.179215000000000124e-01 8.935449999999999449e+00 5.229495000000000005e+01 2.038329999999999927e+03
5.500000000000000028e-02 1.178534999999999999e-01 7.718009999999999593e+00 4.957124999999999915e+01 2.037414999999999964e+03
5.600000000000000117e-02 1.177865000000000023e-01 6.551490000000000258e+00 4.704290000000000305e+01 2.036525000000000091e+03
5.700000000000000205e-02 1.177239999999999953e-01 5.474845000000000184e+00 4.479059999999999775e+01 2.035674999999999955e+03
5.800000000000000294e-02 1.176669999999999938e-01 4.528654999999999653e+00 4.289620000000000033e+01 2.034909999999999854e+03
5.900000000000000383e-02 1.176185000000000008e-01 3.754445000000000032e+00 4.144459999999999411e+01 2.034250000000000000e+03
6.000000000000000472e-02 1.175815000000000055e-01 3.193114999999999704e+00 4.052210000000000178e+01 2.033734999999999900e+03
6.099999999999999867e-02 1.175559999999999938e-01 2.882579999999999920e+00 4.021120000000000516e+01 2.033384999999999991e+03
6.199999999999999956e-02 1.175460000000000116e-01 2.855129999999999946e+00 4.058350000000000080e+01 2.033230000000000018e+03
6.300000000000000044e-02 1.175525000000000042e-01 3.134859999999999758e+00 4.169280000000000541e+01 2.033299999999999955e+03
6.400000000000000133e-02 1.175770000000000010e-01 3.735710000000000086e+00 4.356860000000000355e+01 2.033599999999999909e+03
6.500000000000000222e-02 1.176200000000000023e-01 4.660270000000000579e+00 4.621240000000000236e+01 2.034154999999999973e+03
6.600000000000000311e-02 1.176814999999999944e-01 5.899510000000000254e+00 4.959644999999999726e+01 2.034954999999999927e+03
6.700000000000000400e-02 1.177614999999999912e-01 7.433419999999999916e+00 5.366530000000000200e+01 2.036005000000000109e+03
6.800000000000000488e-02 1.178585000000000049e-01 9.232389999999998764e+00 5.833979999999999677e+01 2.037284999999999854e+03
6.900000000000000577e-02 1.179705000000000059e-01 1.125914000000000037e+01 6.352264999999999873e+01 2.038775000000000091e+03
7.000000000000000666e-02 1.180960000000000065e-01 1.347081499999999998e+01 6.910495000000000232e+01 2.040450000000000045e+03
7.100000000000000755e-02 1.182320000000000038e-01 1.582155000000000200e+01 7.497305000000000064e+01 2.042264999999999873e+03
7.200000000000000844e-02 1.183754999999999946e-01 1.826485000000000269e+01 8.101515000000000555e+01 2.044200000000000045e+03
7.300000000000000933e-02 1.185249999999999915e-01 2.075584999999999880e+01 8.712749999999999773e+01 2.046220000000000027e+03
7.399999999999999634e-02 1.186775000000000052e-01 2.325319999999999965e+01 9.321899999999999409e+01 2.048289999999999964e+03
7.499999999999999722e-02 1.188310000000000061e-01 2.572109999999999985e+01 9.921690000000000964e+01 2.050375000000000000e+03
7.599999999999999811e-02 1.189835000000000059e-01 2.813045000000000329e+01 1.050663000000000125e+02 2.052454999999999927e+03
7.699999999999999900e-02 1.191330000000000028e-01 3.045929999999999893e+01 1.107344999999999970e+02 2.054510000000000218e+03
7.799999999999999989e-02 1.192799999999999971e-01 3.269315000000000282e+01 1.162075000000000102e+02 2.056534999999999854e+03
7.900000000000000078e-02 1.194230000000000014e-01 3.482464999999999833e+01 1.214890000000000043e+02 2.058505000000000109e+03
8.000000000000000167e-02 1.195625000000000021e-01 3.685210000000000008e+01 1.265974999999999966e+02 2.060430000000000291e+03
8.100000000000000255e-02 1.196979999999999988e-01 3.877870000000000061e+01 1.315589999999999975e+02 2.062309999999999945e+03
8.200000000000000344e-02 1.198305000000000065e-01 4.061055000000000348e+01 1.364055000000000177e+02 2.064154999999999745e+03
8.300000000000000433e-02 1.199604999999999977e-01 4.235549999999999926e+01 1.411684999999999945e+02 2.065965000000000146e+03
8.400000000000000522e-02 1.200885000000000008e-01 4.402129999999999654e+01 1.458725000000000023e+02 2.067750000000000000e+03
8.500000000000000611e-02 1.202149999999999885e-01 4.561449999999999960e+01 1.505384999999999991e+02 2.069514999999999873e+03
8.600000000000000699e-02 1.203400000000000025e-01 4.713989999999999725e+01 1.551740000000000066e+02 2.071264999999999873e+03
8.700000000000000788e-02 1.204645000000000021e-01 4.859919999999999618e+01 1.597780000000000200e+02 2.073005000000000109e+03
8.800000000000000877e-02 1.205875000000000002e-01 4.999170000000000158e+01 1.643385000000000105e+02 2.074734999999999673e+03
8.899999999999999578e-02 1.207094999999999974e-01 5.131349999999999767e+01 1.688354999999999961e+02 2.076444999999999709e+03
8.999999999999999667e-02 1.208289999999999920e-01 5.255835000000000434e+01 1.732394999999999925e+02 2.078130000000000109e+03
9.099999999999999756e-02 1.209459999999999980e-01 5.371774999999999523e+01 1.775159999999999911e+02 2.079779999999999745e+03
9.199999999999999845e-02 1.210600000000000009e-01 5.478175000000000239e+01 1.816289999999999907e+02 2.081389999999999873e+03
9.299999999999999933e-02 1.211694999999999994e-01 5.573945000000000505e+01 1.855384999999999991e+02 2.082940000000000055e+03
9.400000000000000022e-02 1.212740000000000068e-01 5.657970000000000255e+01 1.892069999999999936e+02 2.084420000000000073e+03
9.500000000000000111e-02 1.213724999999999943e-01 5.729189999999999827e+01 1.925999999999999943e+02 2.085820000000000164e+03
9.600000000000000200e-02 1.214645000000000030e-01 5.786634999999999707e+01 1.956850000000000023e+02 2.087125000000000000e+03
9.700000000000000289e-02 1.215485000000000038e-01 5.829500000000000171e+01 1.984375000000000000e+02 2.088324999999999818e+03
9.800000000000000377e-02 1.216244999999999965e-01 5.857184999999999775e+01 2.008385000000000105e+02 2.089409999999999854e+03
9.900000000000000466e-02 1.216915000000000080e-01 5.869364999999999810e+01 2.028759999999999764e+02 2.090375000000000000e+03
1.000000000000000056e-01 1.217489999999999961e-01 5.865994999999999493e+01 2.045450000000000159e+02 2.091210000000000036e+03
1.010000000000000064e-01 1.217985000000000040e-01 5.847334999999999638e+01 2.058520000000000039e+02 2.091914999999999964e+03
1.020000000000000073e-01 1.218380000000000019e-01 5.813979999999999393e+01 2.068085000000000093e+02 2.092500000000000000e+03
1.030000000000000082e-01 1.218690000000000051e-01 5.766830000000000211e+01 2.074350000000000023e+02 2.092949999999999818e+03
1.040000000000000091e-01 1.218914999999999860e-01 5.707075000000000387e+01 2.077590000000000146e+02 2.093284999999999854e+03
1.050000000000000100e-01 1.219065000000000010e-01 5.636145000000000493e+01 2.078139999999999930e+02 2.093515000000000327e+03
1.059999999999999970e-01 1.219144999999999951e-01 5.555665000000000475e+01 2.076380000000000052e+02 2.093635000000000218e+03
1.069999999999999979e-01 1.219159999999999966e-01 5.467390000000000327e+01 2.072704999999999984e+02 2.093675000000000182e+03
1.079999999999999988e-01 1.219125000000000070e-01 5.373104999999999620e+01 2.067524999999999977e+02 2.093635000000000218e+03
1.089999999999999997e-01 1.219044999999999990e-01 5.274615000000000009e+01 2.061239999999999952e+02 2.093534999999999854e+03
1.100000000000000006e-01 1.218934999999999880e-01 5.173610000000000042e+01 2.054219999999999970e+02 2.093385000000000218e+03
1.110000000000000014e-01 1.218800000000000022e-01 5.071649999999999636e+01 2.046795000000000186e+02 2.093199999999999818e+03
1.120000000000000023e-01 1.218650000000000011e-01 4.970094999999999885e+01 2.039245000000000232e+02 2.092985000000000127e+03
1.130000000000000032e-01 1.218484999999999985e-01 4.870090000000000430e+01 2.031790000000000020e+02 2.092760000000000218e+03
1.140000000000000041e-01 1.218324999999999964e-01 4.772494999999999976e+01 2.024585000000000150e+02 2.092524999999999636e+03
1.150000000000000050e-01 1.218160000000000076e-01 4.677924999999999756e+01 2.017724999999999795e+02 2.092295000000000073e+03
1.160000000000000059e-01 1.217995000000000050e-01 4.586714999999999520e+01 2.011234999999999786e+02 2.092064999999999600e+03
1.170000000000000068e-01 1.217840000000000034e-01 4.498940000000000339e+01 2.005090000000000146e+02 2.091840000000000146e+03
1.180000000000000077e-01 1.217685000000000017e-01 4.414444999999999908e+01 1.999209999999999923e+02 2.091619999999999891e+03
1.190000000000000085e-01 1.217535000000000006e-01 4.332859999999999445e+01 1.993474999999999966e+02 2.091399999999999636e+03
1.200000000000000094e-01 1.217384999999999995e-01 4.253655000000000541e+01 1.987735000000000127e+02 2.091184999999999945e+03
1.209999999999999964e-01 1.217235000000000122e-01 4.176170000000000471e+01 1.981809999999999832e+02 2.090970000000000255e+03
1.219999999999999973e-01 1.217074999999999962e-01 4.099649999999999750e+01 1.975525000000000091e+02 2.090744999999999891e+03
1.229999999999999982e-01 1.216910000000000075e-01 4.023324999999999818e+01 1.968684999999999832e+02 2.090500000000000000e+03
1.239999999999999991e-01 1.216730000000000034e-01 3.946424999999999983e+01 1.961125000000000114e+02 2.090244999999999891e+03
1.250000000000000000e-01 1.216529999999999972e-01 3.868224999999999625e+01 1.952684999999999889e+02 2.089960000000000036e+03
1.260000000000000009e-01 1.216310000000000030e-01 3.788089999999999691e+01 1.943245000000000005e+02 2.089649999999999636e+03
1.270000000000000018e-01 1.216065000000000063e-01 3.705519999999999925e+01 1.932710000000000150e+02 2.089305000000000291e+03
1.280000000000000027e-01 1.215795000000000070e-01 3.620154999999999745e+01 1.921024999999999920e+02 2.088920000000000073e+03
1.290000000000000036e-01 1.215495000000000048e-01 3.531804999999999950e+01 1.908185000000000002e+02 2.088500000000000000e+03
1.300000000000000044e-01 1.215169999999999861e-01 3.440455000000000041e+01 1.894225000000000136e+02 2.088045000000000073e+03
1.310000000000000053e-01 1.214814999999999923e-01 3.346289999999999765e+01 1.879220000000000255e+02 2.087545000000000073e+03
1.320000000000000062e-01 1.214439999999999964e-01 3.249670000000000414e+01 1.863294999999999959e+02 2.087015000000000327e+03
1.330000000000000071e-01 1.214039999999999980e-01 3.151109999999999900e+01 1.846614999999999895e+02 2.086444999999999709e+03
1.340000000000000080e-01 1.213615000000000110e-01 3.051304999999999978e+01 1.829365000000000236e+02 2.085859999999999673e+03
1.350000000000000089e-01 1.213179999999999953e-01 2.951040000000000063e+01 1.811759999999999877e+02 2.085244999999999891e+03
1.360000000000000098e-01 1.212735000000000063e-01 2.851205000000000211e+01 1.794044999999999845e+02 2.084619999999999891e+03
1.370000000000000107e-01 1.212285000000000029e-01 2.752745000000000175e+01 1.776444999999999936e+02 2.083985000000000127e+03
1.380000000000000115e-01 1.211834999999999996e-01 2.656609999999999872e+01 1.759214999999999804e+02 2.083354999999999563e+03
1.390000000000000124e-01 1.211394999999999972e-01 2.563710000000000022e+01 1.742570000000000050e+02 2.082734999999999673e+03
1.400000000000000133e-01 1.210970000000000102e-01 2.474915000000000020e+01 1.726720000000000255e+02 2.082130000000000109e+03
1.410000000000000142e-01 1.210554999999999964e-01 2.390964999999999918e+01 1.711839999999999975e+02 2.081555000000000291e+03
1.420000000000000151e-01 1.210170000000000134e-01 2.312494999999999834e+01 1.698064999999999998e+02 2.081000000000000000e+03
1.430000000000000160e-01 1.209810000000000052e-01 2.239974999999999739e+01 1.685500000000000114e+02 2.080489999999999782e+03
1.440000000000000169e-01 1.209469999999999990e-01 2.173714999999999975e+01 1.674200000000000159e+02 2.080015000000000327e+03
1.450000000000000178e-01 1.209164999999999962e-01 2.113870000000000005e+01 1.664189999999999827e+02 2.079579999999999927e+03
1.459999999999999909e-01 1.208889999999999965e-01 2.060415000000000063e+01 1.655455000000000041e+02 2.079190000000000055e+03
1.469999999999999918e-01 1.208650000000000002e-01 2.013175000000000026e+01 1.647930000000000064e+02 2.078840000000000146e+03
1.479999999999999927e-01 1.208434999999999926e-01 1.971844999999999715e+01 1.641525000000000034e+02 2.078529999999999745e+03
1.489999999999999936e-01 1.208245000000000013e-01 1.936005000000000109e+01 1.636144999999999925e+02 2.078265000000000327e+03
1.499999999999999944e-01 1.208084999999999992e-01 1.905140000000000100e+01 1.631655000000000086e+02 2.078029999999999745e+03
1.509999999999999953e-01 1.207944999999999991e-01 1.878675000000000139e+01 1.627924999999999898e+02 2.077829999999999927e+03
1.519999999999999962e-01 1.207825000000000010e-01 1.855984999999999729e+01 1.624809999999999945e+02 2.077659999999999854e+03
1.529999999999999971e-01 1.207725000000000048e-01 1.836435000000000173e+01 1.622175000000000011e+02 2.077510000000000218e+03
1.539999999999999980e-01 1.207639999999999963e-01 1.819395000000000095e+01 1.619884999999999877e+02 2.077380000000000109e+03
1.549999999999999989e-01 1.207560000000000022e-01 1.804269999999999996e+01 1.617819999999999823e+02 2.077270000000000437e+03
1.559999999999999998e-01 1.207485000000000086e-01 1.790504999999999924e+01 1.615865000000000009e+02 2.077164999999999964e+03
1.570000000000000007e-01 1.207425000000000026e-01 1.777595000000000169e+01 1.613934999999999889e+02 2.077069999999999709e+03
1.580000000000000016e-01 1.207360000000000100e-01 1.765125000000000099e+01 1.611959999999999980e+02 2.076980000000000018e+03
1.590000000000000024e-01 1.207294999999999896e-01 1.752740000000000009e+01 1.609875000000000114e+02 2.076890000000000327e+03
