# t [s], A [cm^2], U [cm/s], P [cPa], c [cm/s]
1.000000000000000021e-03 4.931260000000000088e-01 3.461000000000005739e-03 1.097880000000000109e+02 1.449720000000000027e+03
2.000000000000000042e-03 4.931195000000000439e-01 1.069674999999999966e-03 1.097729999999999961e+02 1.449720000000000027e+03
3.000000000000000062e-03 4.931455000000000144e-01 4.950424999999999964e-02 1.098189999999999884e+02 1.449730000000000018e+03
4.000000000000000083e-03 4.931884999999999741e-01 1.287487499999999951e-01 1.099155000000000086e+02 1.449759999999999991e+03
5.000000000000000104e-03 4.931980000000000253e-01 1.487977500000000064e-01 1.099470000000000027e+02 1.449769999999999982e+03
6.000000000000000125e-03 4.931735000000000424e-01 1.021505499999999789e-01 1.098714999999999975e+02 1.449759999999999991e+03
7.000000000000000146e-03 4.931419999999999693e-01 3.899600000000000288e-02 1.097299999999999898e+02 1.449724999999999909e+03
8.000000000000000167e-03 4.931094999999999784e-01 -2.842699999999998006e-02 1.095414999999999992e+02 1.449690000000000055e+03
9.000000000000001055e-03 4.930559999999999388e-01 -1.429520000000000235e-01 1.092614999999999981e+02 1.449625000000000000e+03
1.000000000000000194e-02 4.929685000000000317e-01 -3.337649999999999784e-01 1.088414999999999964e+02 1.449535000000000082e+03
1.099999999999999936e-02 4.928400000000000558e-01 -6.084350000000000591e-01 1.082500000000000000e+02 1.449394999999999982e+03
1.200000000000000025e-02 4.926629999999999621e-01 -9.755699999999999372e-01 1.074515000000000100e+02 1.449210000000000036e+03
1.300000000000000114e-02 4.924319999999999808e-01 -1.435999999999999943e+00 1.064159999999999968e+02 1.448960000000000036e+03
1.400000000000000203e-02 4.921539999999999804e-01 -1.959725000000000161e+00 1.051520000000000010e+02 1.448650000000000091e+03
1.499999999999999944e-02 4.918504999999999683e-01 -2.482425000000000104e+00 1.037149000000000001e+02 1.448289999999999964e+03
1.600000000000000033e-02 4.915495000000000281e-01 -2.925824999999999676e+00 1.021952500000000015e+02 1.447894999999999982e+03
1.700000000000000122e-02 4.912725000000000009e-01 -3.224480000000000235e+00 1.006859000000000037e+02 1.447480000000000018e+03
1.800000000000000211e-02 4.910304999999999809e-01 -3.342975500000000100e+00 9.925614999999999100e+01 1.447070000000000164e+03
1.900000000000000300e-02 4.908179999999999765e-01 -3.279105999999999632e+00 9.793744999999999834e+01 1.446679999999999836e+03
2.000000000000000042e-02 4.906249999999999778e-01 -3.056703999999999866e+00 9.672485000000000355e+01 1.446299999999999955e+03
2.100000000000000130e-02 4.904359999999999831e-01 -2.713631000000000348e+00 9.558684999999999832e+01 1.445930000000000064e+03
2.200000000000000219e-02 4.902364999999999640e-01 -2.289334999999999898e+00 9.447979999999999734e+01 1.445569999999999936e+03
2.299999999999999961e-02 4.900184999999999680e-01 -1.814970000000000194e+00 9.336285000000000878e+01 1.445195000000000164e+03
2.400000000000000050e-02 4.897790000000000199e-01 -1.307910000000000128e+00 9.220874999999999488e+01 1.444820000000000164e+03
2.500000000000000139e-02 4.895209999999999839e-01 -7.716499999999999471e-01 9.100874999999999204e+01 1.444425000000000182e+03
2.600000000000000228e-02 4.892509999999999915e-01 -2.004749999999999588e-01 8.977094999999999914e+01 1.444025000000000091e+03
2.700000000000000316e-02 4.889769999999999950e-01 4.131749999999998479e-01 8.851290000000000191e+01 1.443615000000000009e+03
2.800000000000000058e-02 4.887029999999999985e-01 1.071450000000000014e+00 8.725244999999999607e+01 1.443210000000000036e+03
2.900000000000000147e-02 4.884300000000000308e-01 1.766205000000000025e+00 8.599895000000000778e+01 1.442800000000000182e+03
3.000000000000000236e-02 4.881544999999999912e-01 2.477545000000000552e+00 8.474889999999999191e+01 1.442384999999999991e+03
3.099999999999999978e-02 4.878689999999999971e-01 3.175835000000000186e+00 8.348490000000001032e+01 1.441974999999999909e+03
3.200000000000000067e-02 4.875644999999999563e-01 3.826200000000000045e+00 8.217869999999999209e+01 1.441545000000000073e+03
3.300000000000000155e-02 4.872330000000000272e-01 4.394584999999999297e+00 8.079800000000000182e+01 1.441110000000000127e+03
3.400000000000000244e-02 4.868689999999999962e-01 4.853475000000000428e+00 7.931395000000000550e+01 1.440644999999999982e+03
3.500000000000000333e-02 4.864694999999999991e-01 5.187054999999999971e+00 7.770900000000000318e+01 1.440154999999999973e+03
3.600000000000000422e-02 4.860394999999999577e-01 5.393784999999999386e+00 7.598245000000000005e+01 1.439639999999999873e+03
3.700000000000000511e-02 4.855869999999999909e-01 5.486615000000000464e+00 7.415379999999998972e+01 1.439099999999999909e+03
3.799999999999999906e-02 4.851249999999999729e-01 5.490829999999999878e+00 7.226160000000000139e+01 1.438539999999999964e+03
3.899999999999999994e-02 4.846679999999999877e-01 5.439915000000000056e+00 7.035999999999999943e+01 1.437980000000000018e+03
4.000000000000000083e-02 4.842324999999999546e-01 5.370885000000000353e+00 6.851304999999999268e+01 1.437434999999999945e+03
4.100000000000000172e-02 4.838335000000000274e-01 5.319939999999999891e+00 6.678770000000000095e+01 1.436914999999999964e+03
4.200000000000000261e-02 4.834829999999999961e-01 5.318965000000000387e+00 6.524824999999999875e+01 1.436434999999999945e+03
4.300000000000000350e-02 4.831930000000000391e-01 5.393886000000000180e+00 6.395125000000000171e+01 1.436025000000000091e+03
4.400000000000000439e-02 4.829694999999999960e-01 5.564104000000000383e+00 6.294289999999999452e+01 1.435684999999999945e+03
4.499999999999999833e-02 4.828185000000000393e-01 5.843034999999999535e+00 6.225785000000000480e+01 1.435425000000000182e+03
4.599999999999999922e-02 4.827434999999999921e-01 6.239555000000000184e+00 6.191959999999999553e+01 1.435264999999999873e+03
4.700000000000000011e-02 4.827449999999999797e-01 6.759404999999999220e+00 6.194215000000000515e+01 1.435200000000000045e+03
4.800000000000000100e-02 4.828244999999999898e-01 7.406584999999999752e+00 6.233174999999999955e+01 1.435240000000000009e+03
4.900000000000000189e-02 4.829820000000000224e-01 8.184225000000001415e+00 6.308889999999999532e+01 1.435384999999999991e+03
5.000000000000000278e-02 4.832165000000000488e-01 9.094860000000000610e+00 6.420964999999999634e+01 1.435630000000000109e+03
5.100000000000000366e-02 4.835269999999999846e-01 1.014007999999999932e+01 6.568680000000000518e+01 1.435984999999999900e+03
5.200000000000000455e-02 4.839120000000000088e-01 1.132003500000000074e+01 6.750964999999999350e+01 1.436440000000000055e+03
5.300000000000000544e-02 4.843684999999999796e-01 1.263245000000000040e+01 6.966394999999999982e+01 1.436994999999999891e+03
5.399999999999999939e-02 4.848925000000000041e-01 1.407172000000000089e+01 7.213129999999999598e+01 1.437644999999999982e+03
5.500000000000000028e-02 4.854785000000000350e-01 1.562863999999999898e+01 7.488855000000000928e+01 1.438384999999999991e+03
5.600000000000000117e-02 4.861199999999999966e-01 1.729024000000000072e+01 7.790784999999999627e+01 1.439204999999999927e+03
5.700000000000000205e-02 4.868105000000000349e-01 1.903983000000000203e+01 8.115649999999999409e+01 1.440095000000000027e+03
5.800000000000000294e-02 4.875404999999999878e-01 2.085790000000000077e+01 8.459794999999999732e+01 1.441055000000000064e+03
5.900000000000000383e-02 4.883015000000000549e-01 2.272305000000000064e+01 8.819280000000000541e+01 1.442069999999999936e+03
6.000000000000000472e-02 4.890839999999999632e-01 2.461289999999999978e+01 9.189979999999999905e+01 1.443125000000000000e+03
6.099999999999999867e-02 4.898799999999999821e-01 2.650515000000000043e+01 9.567879999999999541e+01 1.444214999999999918e+03
6.199999999999999956e-02 4.906814999999999927e-01 2.837875000000000014e+01 9.949029999999999063e+01 1.445320000000000164e+03
6.300000000000000044e-02 4.914804999999999868e-01 3.021454999999999913e+01 1.032990000000000066e+02 1.446445000000000164e+03
6.400000000000000133e-02 4.922725000000000017e-01 3.199585000000000079e+01 1.070723500000000001e+02 1.447565000000000055e+03
6.500000000000000222e-02 4.930505000000000582e-01 3.370900000000000318e+01 1.107853499999999940e+02 1.448684999999999945e+03
6.600000000000000311e-02 4.938130000000000019e-01 3.534315000000000140e+01 1.144159500000000094e+02 1.449784999999999854e+03
6.700000000000000400e-02 4.945559999999999956e-01 3.689045000000000130e+01 1.179500000000000028e+02 1.450865000000000009e+03
6.800000000000000488e-02 4.952785000000000104e-01 3.834559999999999746e+01 1.213764999999999930e+02 1.451925000000000182e+03
6.900000000000000577e-02 4.959805000000000463e-01 3.970584999999999809e+01 1.246925000000000097e+02 1.452954999999999927e+03
7.000000000000000666e-02 4.966619999999999924e-01 4.097020000000000550e+01 1.278954999999999984e+02 1.453960000000000036e+03
7.100000000000000755e-02 4.973230000000000151e-01 4.213930000000000575e+01 1.309895000000000209e+02 1.454940000000000055e+03
7.200000000000000844e-02 4.979649999999999910e-01 4.321490000000000009e+01 1.339789999999999850e+02 1.455884999999999991e+03
7.300000000000000933e-02 4.985895000000000188e-01 4.419939999999999714e+01 1.368695000000000164e+02 1.456815000000000055e+03
7.399999999999999634e-02 4.991974999999999607e-01 4.509550000000000125e+01 1.396684999999999945e+02 1.457710000000000036e+03
7.499999999999999722e-02 4.997894999999999976e-01 4.590590000000000259e+01 1.423820000000000050e+02 1.458585000000000036e+03
7.599999999999999811e-02 5.003670000000000062e-01 4.663325000000000387e+01 1.450155000000000030e+02 1.459429999999999836e+03
7.699999999999999900e-02 5.009299999999999864e-01 4.727930000000000632e+01 1.475724999999999909e+02 1.460259999999999991e+03
7.799999999999999989e-02 5.014779999999999793e-01 4.784560000000000457e+01 1.500540000000000020e+02 1.461065000000000055e+03
7.900000000000000078e-02 5.020104999999999151e-01 4.833294999999999675e+01 1.524599999999999795e+02 1.461855000000000018e+03
8.000000000000000167e-02 5.025279999999999747e-01 4.874155000000000371e+01 1.547874999999999943e+02 1.462610000000000127e+03
8.100000000000000255e-02 5.030270000000000019e-01 4.907104999999999961e+01 1.570314999999999941e+02 1.463344999999999800e+03
8.200000000000000344e-02 5.035064999999999680e-01 4.932094999999999629e+01 1.591860000000000070e+02 1.464054999999999836e+03
8.300000000000000433e-02 5.039660000000000251e-01 4.949034999999999940e+01 1.612434999999999832e+02 1.464735000000000127e+03
8.400000000000000522e-02 5.044020000000000170e-01 4.957860000000000156e+01 1.631954999999999814e+02 1.465384999999999991e+03
8.500000000000000611e-02 5.048135000000000261e-01 4.958504999999999541e+01 1.650330000000000155e+02 1.466000000000000000e+03
8.600000000000000699e-02 5.051984999999999948e-01 4.950955000000000439e+01 1.667485000000000070e+02 1.466585000000000036e+03
8.700000000000000788e-02 5.055560000000000054e-01 4.935240000000000293e+01 1.683344999999999914e+02 1.467119999999999891e+03
8.800000000000000877e-02 5.058840000000000003e-01 4.911449999999999960e+01 1.697845000000000084e+02 1.467625000000000000e+03
8.899999999999999578e-02 5.061824999999999797e-01 4.879749999999999943e+01 1.710939999999999941e+02 1.468085000000000036e+03
8.999999999999999667e-02 5.064494999999999969e-01 4.840364999999999895e+01 1.722605000000000075e+02 1.468505000000000109e+03
9.099999999999999756e-02 5.066859999999999697e-01 4.793580000000000041e+01 1.732814999999999941e+02 1.468875000000000000e+03
9.199999999999999845e-02 5.068920000000000092e-01 4.739770000000000039e+01 1.741580000000000155e+02 1.469204999999999927e+03
9.299999999999999933e-02 5.070679999999999632e-01 4.679359999999999786e+01 1.748919999999999959e+02 1.469485000000000127e+03
9.400000000000000022e-02 5.072140000000000537e-01 4.612819999999999965e+01 1.754884999999999877e+02 1.469730000000000018e+03
9.500000000000000111e-02 5.073324999999999640e-01 4.540704999999999814e+01 1.759519999999999982e+02 1.469925000000000182e+03
9.600000000000000200e-02 5.074239999999999862e-01 4.463589999999999947e+01 1.762895000000000039e+02 1.470085000000000036e+03
9.700000000000000289e-02 5.074905000000000665e-01 4.382104999999999961e+01 1.765099999999999909e+02 1.470200000000000045e+03
9.800000000000000377e-02 5.075340000000000407e-01 4.296900000000000119e+01 1.766220000000000141e+02 1.470285000000000082e+03
9.900000000000000466e-02 5.075560000000000072e-01 4.208650000000000091e+01 1.766359999999999957e+02 1.470335000000000036e+03
1.000000000000000056e-01 5.075594999999999413e-01 4.118050000000000210e+01 1.765625000000000000e+02 1.470355000000000018e+03
1.010000000000000064e-01 5.075465000000000115e-01 4.025780000000000314e+01 1.764125000000000227e+02 1.470349999999999909e+03
1.020000000000000073e-01 5.075190000000000534e-01 3.932495000000000118e+01 1.761974999999999909e+02 1.470315000000000055e+03
1.030000000000000082e-01 5.074799999999999311e-01 3.838844999999999885e+01 1.759284999999999854e+02 1.470265000000000100e+03
1.040000000000000091e-01 5.074309999999999654e-01 3.745409999999999684e+01 1.756159999999999854e+02 1.470194999999999936e+03
1.050000000000000100e-01 5.073745000000000616e-01 3.652714999999999890e+01 1.752694999999999936e+02 1.470110000000000127e+03
1.059999999999999970e-01 5.073115000000000263e-01 3.561214999999999975e+01 1.748985000000000127e+02 1.470014999999999873e+03
1.069999999999999979e-01 5.072440000000000282e-01 3.471269999999999811e+01 1.745099999999999909e+02 1.469914999999999964e+03
1.079999999999999988e-01 5.071729999999999849e-01 3.383135000000000048e+01 1.741114999999999782e+02 1.469799999999999955e+03
1.089999999999999997e-01 5.070999999999999952e-01 3.296975000000000477e+01 1.737069999999999936e+02 1.469684999999999945e+03
1.100000000000000006e-01 5.070249999999999480e-01 3.212850000000000250e+01 1.732989999999999782e+02 1.469565000000000055e+03
1.110000000000000014e-01 5.069485000000000241e-01 3.130700000000000216e+01 1.728899999999999864e+02 1.469445000000000164e+03
1.120000000000000023e-01 5.068694999999999729e-01 3.050394999999999612e+01 1.724784999999999968e+02 1.469320000000000164e+03
1.130000000000000032e-01 5.067885000000000861e-01 2.971700000000000230e+01 1.720639999999999930e+02 1.469190000000000055e+03
1.140000000000000041e-01 5.067040000000000433e-01 2.894330000000000069e+01 1.716429999999999723e+02 1.469054999999999836e+03
1.150000000000000050e-01 5.066165000000000251e-01 2.817929999999999779e+01 1.712110000000000127e+02 1.468925000000000182e+03
1.160000000000000059e-01 5.065230000000000565e-01 2.742119999999999891e+01 1.707644999999999982e+02 1.468784999999999854e+03
1.170000000000000068e-01 5.064244999999999441e-01 2.666505000000000081e+01 1.702980000000000018e+02 1.468644999999999982e+03
1.180000000000000077e-01 5.063180000000000458e-01 2.590695000000000192e+01 1.698050000000000068e+02 1.468489999999999782e+03
1.190000000000000085e-01 5.062050000000000161e-01 2.514329999999999998e+01 1.692824999999999989e+02 1.468329999999999927e+03
1.200000000000000094e-01 5.060820000000000318e-01 2.437069999999999936e+01 1.687249999999999943e+02 1.468159999999999854e+03
1.209999999999999964e-01 5.059504999999999697e-01 2.358640000000000114e+01 1.681295000000000073e+02 1.467980000000000018e+03
1.219999999999999973e-01 5.058095000000000230e-01 2.278824999999999790e+01 1.674929999999999950e+02 1.467789999999999964e+03
1.229999999999999982e-01 5.056589999999999696e-01 2.197489999999999810e+01 1.668135000000000048e+02 1.467590000000000146e+03
1.239999999999999991e-01 5.054990000000000316e-01 2.114569999999999794e+01 1.660919999999999845e+02 1.467375000000000000e+03
1.250000000000000000e-01 5.053300000000000569e-01 2.030075000000000074e+01 1.653290000000000077e+02 1.467150000000000091e+03
1.260000000000000009e-01 5.051525000000000043e-01 1.944099999999999895e+01 1.645264999999999986e+02 1.466909999999999854e+03
1.270000000000000018e-01 5.049675000000000136e-01 1.856824999999999903e+01 1.636889999999999930e+02 1.466664999999999964e+03
1.280000000000000027e-01 5.047760000000000025e-01 1.768479999999999919e+01 1.628204999999999814e+02 1.466404999999999973e+03
1.290000000000000036e-01 5.045800000000000285e-01 1.679370000000000118e+01 1.619269999999999925e+02 1.466139999999999873e+03
1.300000000000000044e-01 5.043809999999999683e-01 1.589849500000000049e+01 1.610144999999999982e+02 1.465869999999999891e+03
1.310000000000000053e-01 5.041795000000000027e-01 1.500319999999999965e+01 1.600904999999999916e+02 1.465594999999999800e+03
1.320000000000000062e-01 5.039784999999999959e-01 1.411192499999999939e+01 1.591625000000000227e+02 1.465309999999999945e+03
1.330000000000000071e-01 5.037780000000000591e-01 1.322915499999999867e+01 1.582370000000000232e+02 1.465034999999999854e+03
1.340000000000000080e-01 5.035810000000000564e-01 1.235933999999999955e+01 1.573235000000000241e+02 1.464755000000000109e+03
1.350000000000000089e-01 5.033885000000000165e-01 1.150676499999999969e+01 1.564265000000000043e+02 1.464480000000000018e+03
1.360000000000000098e-01 5.032020000000000381e-01 1.067567500000000003e+01 1.555550000000000068e+02 1.464215000000000146e+03
1.370000000000000107e-01 5.030220000000000802e-01 9.869875000000000398e+00 1.547129999999999939e+02 1.463949999999999818e+03
1.380000000000000115e-01 5.028504999999999781e-01 9.092919999999999447e+00 1.539069999999999823e+02 1.463695000000000164e+03
1.390000000000000124e-01 5.026880000000000237e-01 8.347894999999999399e+00 1.531404999999999745e+02 1.463454999999999927e+03
1.400000000000000133e-01 5.025349999999999540e-01 7.637249999999999872e+00 1.524175000000000182e+02 1.463224999999999909e+03
1.410000000000000142e-01 5.023914999999999909e-01 6.963025000000000020e+00 1.517400000000000091e+02 1.463005000000000109e+03
1.420000000000000151e-01 5.022584999999999411e-01 6.326620000000000132e+00 1.511084999999999923e+02 1.462800000000000182e+03
1.430000000000000160e-01 5.021360000000000268e-01 5.728944999999999510e+00 1.505240000000000009e+02 1.462605000000000018e+03
1.440000000000000169e-01 5.020225000000000382e-01 5.170270000000000366e+00 1.499865000000000066e+02 1.462429999999999836e+03
1.450000000000000178e-01 5.019190000000000040e-01 4.650360000000000049e+00 1.494929999999999950e+02 1.462259999999999991e+03
1.459999999999999909e-01 5.018234999999999779e-01 4.168479999999999741e+00 1.490414999999999850e+02 1.462110000000000127e+03
1.469999999999999918e-01 5.017369999999999886e-01 3.723465000000000025e+00 1.486299999999999955e+02 1.461964999999999918e+03
1.479999999999999927e-01 5.016574999999999784e-01 3.313744999999999941e+00 1.482535000000000025e+02 1.461835000000000036e+03
1.489999999999999936e-01 5.015844999999999887e-01 2.937435000000000240e+00 1.479094999999999800e+02 1.461714999999999918e+03
1.499999999999999944e-01 5.015174999999999494e-01 2.592405000000000292e+00 1.475925000000000011e+02 1.461599999999999909e+03
1.509999999999999953e-01 5.014544999999999142e-01 2.276320499999999747e+00 1.472989999999999782e+02 1.461494999999999891e+03
1.519999999999999962e-01 5.013959999999999528e-01 1.986746999999999819e+00 1.470250000000000057e+02 1.461400000000000091e+03
1.529999999999999971e-01 5.013395000000000490e-01 1.721183499999999977e+00 1.467649999999999864e+02 1.461309999999999945e+03
1.539999999999999980e-01 5.012849999999999806e-01 1.477152000000000021e+00 1.465159999999999911e+02 1.461215000000000146e+03
1.549999999999999989e-01 5.012320000000000109e-01 1.252214500000000008e+00 1.462735000000000127e+02 1.461134999999999991e+03
1.559999999999999998e-01 5.011795000000000000e-01 1.044063449999999893e+00 1.460344999999999800e+02 1.461050000000000182e+03
1.570000000000000007e-01 5.011265000000000303e-01 8.505214999999999304e-01 1.457959999999999923e+02 1.460969999999999800e+03
1.580000000000000016e-01 5.010734999999999495e-01 6.695949999999999402e-01 1.455554999999999950e+02 1.460884999999999991e+03
1.590000000000000024e-01 5.010194999999999510e-01 4.994820000000000371e-01 1.453110000000000070e+02 1.460804999999999836e+03
