# t [s], A [cm^2], U [cm/s], P [cPa], c [cm/s]
1.000000000000000021e-03 6.002060000000000173e-01 3.396049999999997682e-03 9.408905000000000030e+01 1.540950000000000045e+03
2.000000000000000042e-03 6.001980000000000093e-01 7.602100000000003126e-04 9.406640000000000157e+01 1.540944999999999936e+03
3.000000000000000062e-03 6.002534999999999954e-01 1.006109000000000031e-01 9.416530000000000200e+01 1.540974999999999909e+03
4.000000000000000083e-03 6.002994999999999859e-01 1.920041700000000018e-01 9.427449999999998909e+01 1.541000000000000000e+03
5.000000000000000104e-03 6.002749999999998920e-01 1.640698949999999934e-01 9.421959999999999980e+01 1.540994999999999891e+03
6.000000000000000125e-03 6.002125000000000377e-01 6.435449999999998116e-02 9.401130000000000564e+01 1.540945000000000164e+03
7.000000000000000146e-03 6.001520000000000188e-01 -3.939650000000000096e-02 9.372970000000000823e+01 1.540880000000000109e+03
8.000000000000000167e-03 6.000594999999999679e-01 -2.125150000000000095e-01 9.331270000000000664e+01 1.540785000000000082e+03
9.000000000000001055e-03 5.999039999999999928e-01 -5.098150000000000182e-01 9.267279999999999518e+01 1.540630000000000109e+03
1.000000000000000194e-02 5.996850000000000236e-01 -9.314649999999998764e-01 9.177100000000000080e+01 1.540420000000000073e+03
1.099999999999999936e-02 5.993874999999999620e-01 -1.489440000000000097e+00 9.055734999999999957e+01 1.540119999999999891e+03
1.200000000000000025e-02 5.989990000000000592e-01 -2.190750000000000419e+00 8.898414999999999964e+01 1.539735000000000127e+03
1.300000000000000114e-02 5.985389999999999322e-01 -2.976960000000000051e+00 8.708395000000000152e+01 1.539255000000000109e+03
1.400000000000000203e-02 5.980639999999999290e-01 -3.716755000000000031e+00 8.500309999999998922e+01 1.538714999999999918e+03
1.499999999999999944e-02 5.976380000000000026e-01 -4.262304999999999566e+00 8.294939999999999714e+01 1.538160000000000082e+03
1.600000000000000033e-02 5.973005000000000120e-01 -4.513948499999999697e+00 8.110484999999999900e+01 1.537634999999999991e+03
1.700000000000000122e-02 5.970535000000000148e-01 -4.450475500000000473e+00 7.956315000000000737e+01 1.537159999999999854e+03
1.800000000000000211e-02 5.968685000000000240e-01 -4.121834999999999916e+00 7.831424999999998704e+01 1.536750000000000000e+03
1.900000000000000300e-02 5.967044999999999710e-01 -3.619815000000000005e+00 7.726654999999999518e+01 1.536380000000000109e+03
2.000000000000000042e-02 5.965184999999999516e-01 -3.042283499999999918e+00 7.629034999999998945e+01 1.536035000000000082e+03
2.100000000000000130e-02 5.962859999999999827e-01 -2.462277500000000341e+00 7.526564999999999372e+01 1.535680000000000064e+03
2.200000000000000219e-02 5.959999999999999742e-01 -1.910835000000000061e+00 7.411930000000000973e+01 1.535305000000000064e+03
2.299999999999999961e-02 5.956744999999999957e-01 -1.378460000000000241e+00 7.283905000000000030e+01 1.534894999999999982e+03
2.400000000000000050e-02 5.953300000000000258e-01 -8.326999999999999957e-01 7.146189999999999998e+01 1.534465000000000146e+03
2.500000000000000139e-02 5.949870000000000436e-01 -2.424599999999998978e-01 7.004519999999999413e+01 1.534025000000000091e+03
2.600000000000000228e-02 5.946555000000000035e-01 4.015600000000003611e-01 6.863470000000000937e+01 1.533585000000000036e+03
2.700000000000000316e-02 5.943304999999999838e-01 1.076924999999999910e+00 6.724165000000000703e+01 1.533139999999999873e+03
2.800000000000000058e-02 5.939950000000000507e-01 1.730979999999999741e+00 6.583395000000000152e+01 1.532690000000000055e+03
2.900000000000000147e-02 5.936230000000000118e-01 2.291565000000000296e+00 6.434225000000000705e+01 1.532219999999999800e+03
3.000000000000000236e-02 5.931885000000000074e-01 2.683044999999999902e+00 6.267680000000000007e+01 1.531714999999999918e+03
3.099999999999999978e-02 5.926709999999999479e-01 2.843750000000000000e+00 6.075169999999999959e+01 1.531155000000000200e+03
3.200000000000000067e-02 5.920634999999999648e-01 2.740544999999999565e+00 5.850929999999999609e+01 1.530515000000000100e+03
3.300000000000000155e-02 5.913725000000000787e-01 2.377245000000000275e+00 5.593949999999999534e+01 1.529789999999999964e+03
3.400000000000000244e-02 5.906199999999999228e-01 1.794425000000000381e+00 5.308804999999999552e+01 1.529005000000000109e+03
3.500000000000000333e-02 5.898394999999999611e-01 1.061399999999999899e+00 5.005270000000000152e+01 1.528164999999999964e+03
3.600000000000000422e-02 5.890699999999999825e-01 2.633549999999997837e-01 4.696885000000000332e+01 1.527299999999999955e+03
3.700000000000000511e-02 5.883495000000000807e-01 -5.128000000000003666e-01 4.398959999999999582e+01 1.526454999999999927e+03
3.799999999999999906e-02 5.877120000000000122e-01 -1.189624999999999932e+00 4.126574999999999704e+01 1.525660000000000082e+03
3.899999999999999994e-02 5.871824999999999406e-01 -1.706615000000000215e+00 3.892889999999999873e+01 1.524954999999999927e+03
4.000000000000000083e-02 5.867780000000000218e-01 -2.022809999999999775e+00 3.708030000000000115e+01 1.524369999999999891e+03
4.100000000000000172e-02 5.865074999999999594e-01 -2.115639999999999965e+00 3.578679999999999950e+01 1.523924999999999955e+03
4.200000000000000261e-02 5.863724999999999632e-01 -1.977204349999999833e+00 3.508124999999999716e+01 1.523630000000000109e+03
4.300000000000000350e-02 5.863699999999999468e-01 -1.609395000000000131e+00 3.496805000000000518e+01 1.523500000000000000e+03
4.400000000000000439e-02 5.864945000000000297e-01 -1.019220499999999863e+00 3.543039999999999878e+01 1.523525000000000091e+03
4.499999999999999833e-02 5.867390000000000105e-01 -2.153999999999998138e-01 3.643809999999999860e+01 1.523704999999999927e+03
4.599999999999999922e-02 5.870950000000000335e-01 7.932449999999997559e-01 3.795360000000000156e+01 1.524045000000000073e+03
4.700000000000000011e-02 5.875555000000000083e-01 1.997600000000000264e+00 3.993585000000000207e+01 1.524509999999999991e+03
4.800000000000000100e-02 5.881115000000000093e-01 3.386755000000000404e+00 4.234154999999999802e+01 1.525115000000000009e+03
4.900000000000000189e-02 5.887530000000000818e-01 4.946155000000000079e+00 4.512485000000000213e+01 1.525824999999999818e+03
5.000000000000000278e-02 5.894690000000000207e-01 6.655745000000000466e+00 4.823605000000000587e+01 1.526644999999999982e+03
5.100000000000000366e-02 5.902465000000000073e-01 8.489644999999999442e+00 5.162024999999999864e+01 1.527545000000000073e+03
5.200000000000000455e-02 5.910705000000000542e-01 1.041621900000000167e+01 5.521750000000000114e+01 1.528525000000000091e+03
5.300000000000000544e-02 5.919250000000000345e-01 1.239978499999999961e+01 5.896415000000000362e+01 1.529554999999999836e+03
5.399999999999999939e-02 5.927945000000000020e-01 1.440280999999999878e+01 6.279459999999999553e+01 1.530630000000000109e+03
5.500000000000000028e-02 5.936639999999999695e-01 1.638831000000000060e+01 6.664494999999999436e+01 1.531720000000000027e+03
5.600000000000000117e-02 5.945209999999999662e-01 1.832235999999999976e+01 7.045629999999999882e+01 1.532815000000000055e+03
5.700000000000000205e-02 5.953539999999999388e-01 2.017595000000000027e+01 7.417759999999999820e+01 1.533894999999999982e+03
5.800000000000000294e-02 5.961554999999999493e-01 2.192620000000000147e+01 7.776874999999999716e+01 1.534960000000000036e+03
5.900000000000000383e-02 5.969210000000000349e-01 2.355729999999999791e+01 8.120124999999998749e+01 1.535985000000000127e+03
6.000000000000000472e-02 5.976485000000000269e-01 2.505995000000000061e+01 8.445955000000000723e+01 1.536980000000000018e+03
6.099999999999999867e-02 5.983384999999999954e-01 2.643119999999999692e+01 8.753974999999999795e+01 1.537924999999999955e+03
6.199999999999999956e-02 5.989934999999999565e-01 2.767340000000000089e+01 9.044839999999999236e+01 1.538829999999999927e+03
6.300000000000000044e-02 5.996175000000000255e-01 2.879319999999999879e+01 9.320130000000000337e+01 1.539690000000000055e+03
6.400000000000000133e-02 6.002170000000000005e-01 2.980040000000000333e+01 9.582060000000001310e+01 1.540514999999999873e+03
6.500000000000000222e-02 6.007974999999999843e-01 3.070714999999999861e+01 9.833185000000000286e+01 1.541309999999999945e+03
6.600000000000000311e-02 6.013650000000000384e-01 3.152660000000000196e+01 1.007629000000000019e+02 1.542075000000000045e+03
6.700000000000000400e-02 6.019259999999999611e-01 3.227259999999999707e+01 1.031426500000000033e+02 1.542829999999999927e+03
6.800000000000000488e-02 6.024850000000000483e-01 3.295815000000000339e+01 1.054964999999999975e+02 1.543569999999999936e+03
6.900000000000000577e-02 6.030465000000000408e-01 3.359510000000000218e+01 1.078460000000000036e+02 1.544309999999999945e+03
7.000000000000000666e-02 6.036144999999999428e-01 3.419315000000000282e+01 1.102085000000000008e+02 1.545045000000000073e+03
7.100000000000000755e-02 6.041895000000000460e-01 3.475939999999999941e+01 1.125939999999999941e+02 1.545785000000000082e+03
7.200000000000000844e-02 6.047715000000000174e-01 3.529770000000000607e+01 1.150045000000000073e+02 1.546529999999999973e+03
7.300000000000000933e-02 6.053580000000000627e-01 3.580859999999999843e+01 1.174354999999999905e+02 1.547279999999999973e+03
7.399999999999999634e-02 6.059460000000000957e-01 3.628940000000000055e+01 1.198745000000000118e+02 1.548034999999999854e+03
7.499999999999999722e-02 6.065300000000000136e-01 3.673440000000000083e+01 1.223024999999999949e+02 1.548780000000000200e+03
7.599999999999999811e-02 6.071035000000000181e-01 3.713564999999999827e+01 1.246954999999999956e+02 1.549525000000000091e+03
7.699999999999999900e-02 6.076610000000000067e-01 3.748340000000000316e+01 1.270244999999999891e+02 1.550244999999999891e+03
7.799999999999999989e-02 6.081940000000000124e-01 3.776715000000000089e+01 1.292599999999999909e+02 1.550940000000000055e+03
7.900000000000000078e-02 6.086960000000000148e-01 3.797634999999999650e+01 1.313715000000000259e+02 1.551610000000000127e+03
8.000000000000000167e-02 6.091604999999999936e-01 3.810110000000000241e+01 1.333299999999999841e+02 1.552235000000000127e+03
8.100000000000000255e-02 6.095825000000000271e-01 3.813289999999999935e+01 1.351090000000000089e+02 1.552809999999999945e+03
8.200000000000000344e-02 6.099565000000000126e-01 3.806530000000000058e+01 1.366889999999999930e+02 1.553335000000000036e+03
8.300000000000000433e-02 6.102805000000000035e-01 3.789405000000000001e+01 1.380519999999999925e+02 1.553789999999999964e+03
8.400000000000000522e-02 6.105514999999999137e-01 3.761740000000000350e+01 1.391899999999999977e+02 1.554190000000000055e+03
8.500000000000000611e-02 6.107700000000000351e-01 3.723640000000000327e+01 1.400985000000000014e+02 1.554519999999999982e+03
8.600000000000000699e-02 6.109370000000000633e-01 3.675469999999999970e+01 1.407799999999999727e+02 1.554784999999999854e+03
8.700000000000000788e-02 6.110539999999999861e-01 3.617840000000000344e+01 1.412429999999999950e+02 1.554980000000000018e+03
8.800000000000000877e-02 6.111254999999999882e-01 3.551595000000000368e+01 1.415024999999999977e+02 1.555119999999999891e+03
8.899999999999999578e-02 6.111549999999998928e-01 3.477790000000000248e+01 1.415749999999999886e+02 1.555200000000000045e+03
8.999999999999999667e-02 6.111480000000000246e-01 3.397635000000000360e+01 1.414844999999999970e+02 1.555224999999999909e+03
9.099999999999999756e-02 6.111100000000000421e-01 3.312454999999999927e+01 1.412549999999999955e+02 1.555210000000000036e+03
9.199999999999999845e-02 6.110480000000000356e-01 3.223655000000000115e+01 1.409139999999999873e+02 1.555154999999999973e+03
9.299999999999999933e-02 6.109679999999999556e-01 3.132659999999999911e+01 1.404890000000000043e+02 1.555065000000000055e+03
9.400000000000000022e-02 6.108744999999999870e-01 3.040869999999999962e+01 1.400065000000000168e+02 1.554950000000000045e+03
9.500000000000000111e-02 6.107755000000000267e-01 2.949600000000000222e+01 1.394934999999999832e+02 1.554824999999999818e+03
9.600000000000000200e-02 6.106740000000000501e-01 2.860045000000000215e+01 1.389730000000000132e+02 1.554690000000000055e+03
9.700000000000000289e-02 6.105764999999999665e-01 2.773225000000000051e+01 1.384655000000000200e+02 1.554555000000000064e+03
9.800000000000000377e-02 6.104845000000000965e-01 2.689954999999999785e+01 1.379879999999999995e+02 1.554420000000000073e+03
9.900000000000000466e-02 6.104020000000000001e-01 2.610824999999999818e+01 1.375529999999999973e+02 1.554289999999999964e+03
1.000000000000000056e-01 6.103304999999999980e-01 2.536185000000000045e+01 1.371684999999999945e+02 1.554170000000000073e+03
1.010000000000000064e-01 6.102689999999999504e-01 2.466140000000000043e+01 1.368385000000000105e+02 1.554070000000000164e+03
1.020000000000000073e-01 6.102180000000000382e-01 2.400560000000000116e+01 1.365614999999999952e+02 1.553974999999999909e+03
1.030000000000000082e-01 6.101754999999999818e-01 2.339085000000000036e+01 1.363324999999999818e+02 1.553894999999999982e+03
1.040000000000000091e-01 6.101404999999999745e-01 2.281194999999999951e+01 1.361435000000000173e+02 1.553824999999999818e+03
1.050000000000000100e-01 6.101095000000000823e-01 2.226205000000000211e+01 1.359819999999999993e+02 1.553764999999999873e+03
1.059999999999999970e-01 6.100790000000000379e-01 2.173320000000000007e+01 1.358354999999999961e+02 1.553710000000000036e+03
1.069999999999999979e-01 6.100460000000000882e-01 2.121685000000000088e+01 1.356879999999999882e+02 1.553654999999999973e+03
1.079999999999999988e-01 6.100075000000000358e-01 2.070420000000000016e+01 1.355249999999999773e+02 1.553594999999999800e+03
1.089999999999999997e-01 6.099589999999999179e-01 2.018679999999999808e+01 1.353310000000000173e+02 1.553534999999999854e+03
1.100000000000000006e-01 6.098989999999999689e-01 1.965680000000000049e+01 1.350929999999999893e+02 1.553460000000000036e+03
1.110000000000000014e-01 6.098244999999999916e-01 1.910735000000000028e+01 1.347990000000000066e+02 1.553375000000000000e+03
1.120000000000000023e-01 6.097339999999999982e-01 1.853300000000000125e+01 1.344395000000000095e+02 1.553275000000000091e+03
1.130000000000000032e-01 6.096260000000000012e-01 1.792980000000000018e+01 1.340084999999999980e+02 1.553150000000000091e+03
1.140000000000000041e-01 6.095005000000000006e-01 1.729574999999999818e+01 1.335029999999999859e+02 1.553009999999999991e+03
1.150000000000000050e-01 6.093580000000000663e-01 1.663069999999999737e+01 1.329225000000000136e+02 1.552845000000000027e+03
1.160000000000000059e-01 6.091999999999999638e-01 1.593614999999999959e+01 1.322725000000000080e+02 1.552664999999999964e+03
1.170000000000000068e-01 6.090280000000000138e-01 1.521579999999999977e+01 1.315595000000000141e+02 1.552460000000000036e+03
1.180000000000000077e-01 6.088455000000000394e-01 1.447474000000000061e+01 1.307934999999999945e+02 1.552244999999999891e+03
1.190000000000000085e-01 6.086544999999999872e-01 1.371959999999999980e+01 1.299879999999999995e+02 1.552019999999999982e+03
1.200000000000000094e-01 6.084594999999999310e-01 1.295815999999999946e+01 1.291574999999999989e+02 1.551779999999999973e+03
1.209999999999999964e-01 6.082640000000000269e-01 1.219914999999999949e+01 1.283185000000000002e+02 1.551534999999999854e+03
1.219999999999999973e-01 6.080725000000000158e-01 1.145156000000000063e+01 1.274875000000000114e+02 1.551295000000000073e+03
1.229999999999999982e-01 6.078879999999999839e-01 1.072464000000000084e+01 1.266814999999999998e+02 1.551054999999999836e+03
1.239999999999999991e-01 6.077144999999999353e-01 1.002729499999999874e+01 1.259170000000000016e+02 1.550829999999999927e+03
1.250000000000000000e-01 6.075555000000000261e-01 9.367684999999999818e+00 1.252095000000000056e+02 1.550610000000000127e+03
1.260000000000000009e-01 6.074140000000000095e-01 8.753154999999999575e+00 1.245709999999999980e+02 1.550409999999999854e+03
1.270000000000000018e-01 6.072910000000000252e-01 8.189515000000000100e+00 1.240114999999999981e+02 1.550235000000000127e+03
1.280000000000000027e-01 6.071889999999999787e-01 7.681340000000000501e+00 1.235399999999999920e+02 1.550074999999999818e+03
1.290000000000000036e-01 6.071085000000000509e-01 7.231430000000000469e+00 1.231589999999999918e+02 1.549945000000000164e+03
1.300000000000000044e-01 6.070484999999999909e-01 6.840920000000000556e+00 1.228714999999999975e+02 1.549835000000000036e+03
1.310000000000000053e-01 6.070094999999999796e-01 6.509309999999999263e+00 1.226735000000000042e+02 1.549759999999999991e+03
1.320000000000000062e-01 6.069895000000000707e-01 6.234530000000000349e+00 1.225620000000000118e+02 1.549704999999999927e+03
1.330000000000000071e-01 6.069869999999999433e-01 6.013094999999999857e+00 1.225275000000000034e+02 1.549670000000000073e+03
1.340000000000000080e-01 6.069990000000000663e-01 5.840334999999999610e+00 1.225630000000000024e+02 1.549659999999999854e+03
1.350000000000000089e-01 6.070229999999999793e-01 5.710639999999999716e+00 1.226550000000000011e+02 1.549664999999999964e+03
1.360000000000000098e-01 6.070565000000001099e-01 5.617720000000000269e+00 1.227925000000000040e+02 1.549690000000000055e+03
1.370000000000000107e-01 6.070964999999999279e-01 5.554890000000000327e+00 1.229619999999999891e+02 1.549720000000000027e+03
1.380000000000000115e-01 6.071389999999999842e-01 5.515320000000000000e+00 1.231520000000000010e+02 1.549759999999999991e+03
1.390000000000000124e-01 6.071834999999999871e-01 5.492304999999999993e+00 1.233495000000000061e+02 1.549805000000000064e+03
1.400000000000000133e-01 6.072250000000000147e-01 5.479440000000000310e+00 1.235430000000000064e+02 1.549855000000000018e+03
1.410000000000000142e-01 6.072640000000000260e-01 5.470824999999999605e+00 1.237235000000000014e+02 1.549900000000000091e+03
1.420000000000000151e-01 6.072965000000000169e-01 5.461204999999999643e+00 1.238815000000000026e+02 1.549940000000000055e+03
1.430000000000000160e-01 6.073224999999999874e-01 5.446064999999999934e+00 1.240114999999999981e+02 1.549980000000000018e+03
1.440000000000000169e-01 6.073409999999999087e-01 5.421685000000000088e+00 1.241069999999999993e+02 1.550005000000000109e+03
1.450000000000000178e-01 6.073500000000000565e-01 5.385180000000000078e+00 1.241655000000000086e+02 1.550025000000000091e+03
1.459999999999999909e-01 6.073505000000000154e-01 5.334514999999999674e+00 1.241855000000000047e+02 1.550034999999999854e+03
1.469999999999999918e-01 6.073425000000000074e-01 5.268440000000000012e+00 1.241655000000000086e+02 1.550029999999999973e+03
1.479999999999999927e-01 6.073260000000000325e-01 5.186485000000000234e+00 1.241075000000000017e+02 1.550019999999999982e+03
1.489999999999999936e-01 6.073014999999999386e-01 5.088859999999999495e+00 1.240139999999999958e+02 1.549994999999999891e+03
1.499999999999999944e-01 6.072699999999999765e-01 4.976404999999999745e+00 1.238870000000000005e+02 1.549969999999999800e+03
1.509999999999999953e-01 6.072325000000000639e-01 4.850474999999999426e+00 1.237314999999999969e+02 1.549929999999999836e+03
1.519999999999999962e-01 6.071895000000000486e-01 4.712875000000000369e+00 1.235510000000000019e+02 1.549880000000000109e+03
1.529999999999999971e-01 6.071425000000000294e-01 4.565725000000000477e+00 1.233499999999999943e+02 1.549829999999999927e+03
1.539999999999999980e-01 6.070925000000000349e-01 4.411394999999999733e+00 1.231334999999999980e+02 1.549775000000000091e+03
1.549999999999999989e-01 6.070409999999999417e-01 4.252349999999999852e+00 1.229070000000000107e+02 1.549710000000000036e+03
1.559999999999999998e-01 6.069880000000000830e-01 4.091104999999999769e+00 1.226724999999999994e+02 1.549644999999999982e+03
1.570000000000000007e-01 6.069344999999999324e-01 3.930085000000000051e+00 1.224364999999999952e+02 1.549575000000000045e+03
1.580000000000000016e-01 6.068824999999999914e-01 3.771569999999999645e+00 1.222015000000000100e+02 1.549509999999999991e+03
1.590000000000000024e-01 6.068309999999998983e-01 3.617580000000000240e+00 1.219705000000000013e+02 1.549440000000000055e+03
