# t [s], A [cm^2], U [cm/s], P [cPa], c [cm/s]
1.000000000000000021e-03 1.420210000000000083e-01 5.022624500000000269e-01 9.672220000000000084e+01 1.928295000000000073e+03
2.000000000000000042e-03 1.419790000000000219e-01 2.268491000000000035e+00 9.298255000000000337e+01 1.927884999999999991e+03
3.000000000000000062e-03 1.418645000000000045e-01 4.355111499999999580e+00 8.817060000000000741e+01 1.926799999999999955e+03
4.000000000000000083e-03 1.417080000000000006e-01 6.655410000000000714e+00 8.327779999999999916e+01 1.925335000000000036e+03
5.000000000000000104e-03 1.415399999999999991e-01 9.081699999999999662e+00 7.913660000000000139e+01 1.923779999999999973e+03
6.000000000000000125e-03 1.413774999999999893e-01 1.143289500000000025e+01 7.585065000000000168e+01 1.922289999999999964e+03
7.000000000000000146e-03 1.412240000000000162e-01 1.351275000000000048e+01 7.306419999999999959e+01 1.920909999999999854e+03
8.000000000000000167e-03 1.410835000000000006e-01 1.527643000000000129e+01 7.056459999999999866e+01 1.919660000000000082e+03
9.000000000000001055e-03 1.409580000000000000e-01 1.677329999999999899e+01 6.841500000000000625e+01 1.918559999999999945e+03
1.000000000000000194e-02 1.408510000000000040e-01 1.803125000000000000e+01 6.665540000000000020e+01 1.917634999999999991e+03
1.099999999999999936e-02 1.407609999999999972e-01 1.905935000000000201e+01 6.522665000000000646e+01 1.916860000000000127e+03
1.200000000000000025e-02 1.406859999999999777e-01 1.987265000000000015e+01 6.406194999999999595e+01 1.916224999999999909e+03
1.300000000000000114e-02 1.406250000000000000e-01 2.048404999999999987e+01 6.309199999999999875e+01 1.915710000000000036e+03
1.400000000000000203e-02 1.405734999999999901e-01 2.091284999999999883e+01 6.224645000000000294e+01 1.915284999999999854e+03
1.499999999999999944e-02 1.405309999999999893e-01 2.122145000000000081e+01 6.154899999999999949e+01 1.914940000000000055e+03
1.600000000000000033e-02 1.404994999999999994e-01 2.152879999999999683e+01 6.119834999999999781e+01 1.914694999999999936e+03
1.700000000000000122e-02 1.404865000000000141e-01 2.196845000000000070e+01 6.150305000000000177e+01 1.914599999999999909e+03
1.800000000000000211e-02 1.404980000000000118e-01 2.261939999999999884e+01 6.269084999999999752e+01 1.914704999999999927e+03
1.900000000000000300e-02 1.405359999999999943e-01 2.345944999999999681e+01 6.473349999999999227e+01 1.915039999999999964e+03
2.000000000000000042e-02 1.405965000000000131e-01 2.436824999999999974e+01 6.730070000000000618e+01 1.915565000000000055e+03
2.100000000000000130e-02 1.406685000000000019e-01 2.517370000000000019e+01 6.986129999999999995e+01 1.916199999999999818e+03
2.200000000000000219e-02 1.407390000000000030e-01 2.571484999999999843e+01 7.186719999999999686e+01 1.916819999999999936e+03
2.299999999999999961e-02 1.407944999999999891e-01 2.589430000000000121e+01 7.293370000000000175e+01 1.917325000000000045e+03
2.400000000000000050e-02 1.408265000000000211e-01 2.570260000000000034e+01 7.294610000000000127e+01 1.917625000000000000e+03
2.500000000000000139e-02 1.408335000000000004e-01 2.520949999999999847e+01 7.206385000000000218e+01 1.917710000000000036e+03
2.600000000000000228e-02 1.408185000000000131e-01 2.453034999999999854e+01 7.063105000000000189e+01 1.917605000000000018e+03
2.700000000000000316e-02 1.407899999999999985e-01 2.378294999999999959e+01 6.904005000000000791e+01 1.917369999999999891e+03
2.800000000000000058e-02 1.407559999999999922e-01 2.305279999999999774e+01 6.760245000000000459e+01 1.917079999999999927e+03
2.900000000000000147e-02 1.407229999999999870e-01 2.237570000000000192e+01 6.647280000000000655e+01 1.916795000000000073e+03
3.000000000000000236e-02 1.406934999999999991e-01 2.174155000000000015e+01 6.563925000000000409e+01 1.916545000000000073e+03
3.099999999999999978e-02 1.406680000000000152e-01 2.111270000000000024e+01 6.497164999999999679e+01 1.916319999999999936e+03
3.200000000000000067e-02 1.406439999999999912e-01 2.044825000000000159e+01 6.429984999999999218e+01 1.916115000000000009e+03
3.300000000000000155e-02 1.406179999999999930e-01 1.972615000000000052e+01 6.349224999999999852e+01 1.915884999999999991e+03
3.400000000000000244e-02 1.405885000000000051e-01 1.895700000000000074e+01 6.251194999999999879e+01 1.915634999999999991e+03
3.500000000000000333e-02 1.405554999999999999e-01 1.818574999999999875e+01 6.143569999999999709e+01 1.915349999999999909e+03
3.600000000000000422e-02 1.405210000000000070e-01 1.748250000000000171e+01 6.043489999999999895e+01 1.915059999999999945e+03
3.700000000000000511e-02 1.404914999999999914e-01 1.692385000000000161e+01 5.972509999999999764e+01 1.914795000000000073e+03
3.799999999999999906e-02 1.404714999999999991e-01 1.657300000000000040e+01 5.950155000000000172e+01 1.914619999999999891e+03
3.899999999999999994e-02 1.404659999999999798e-01 1.646164999999999878e+01 5.988054999999999950e+01 1.914555000000000064e+03
4.000000000000000083e-02 1.404765000000000041e-01 1.658064999999999856e+01 6.086155000000000115e+01 1.914639999999999873e+03
4.100000000000000172e-02 1.405035000000000034e-01 1.687995000000000090e+01 6.232025000000000148e+01 1.914860000000000127e+03
4.200000000000000261e-02 1.405440000000000023e-01 1.727709999999999724e+01 6.403079999999999927e+01 1.915194999999999936e+03
4.300000000000000350e-02 1.405905000000000071e-01 1.767199999999999704e+01 6.570850000000000080e+01 1.915595000000000027e+03
4.400000000000000439e-02 1.406355000000000244e-01 1.796294999999999931e+01 6.706090000000000373e+01 1.915985000000000127e+03
4.499999999999999833e-02 1.406725000000000059e-01 1.806119999999999948e+01 6.783535000000000537e+01 1.916304999999999836e+03
4.599999999999999922e-02 1.406934999999999991e-01 1.790129999999999910e+01 6.785335000000000605e+01 1.916490000000000009e+03
4.700000000000000011e-02 1.406934999999999991e-01 1.744640000000000057e+01 6.702764999999999418e+01 1.916500000000000000e+03
4.800000000000000100e-02 1.406699999999999895e-01 1.668860000000000099e+01 6.536194999999999311e+01 1.916300000000000182e+03
4.900000000000000189e-02 1.406219999999999970e-01 1.564535000000000053e+01 6.293695000000000306e+01 1.915894999999999982e+03
5.000000000000000278e-02 1.405510000000000093e-01 1.435340000000000060e+01 5.988810000000000144e+01 1.915289999999999964e+03
5.100000000000000366e-02 1.404604999999999881e-01 1.286235500000000087e+01 5.638134999999999764e+01 1.914509999999999991e+03
5.200000000000000455e-02 1.403540000000000065e-01 1.122907499999999992e+01 5.259150000000000347e+01 1.913590000000000146e+03
5.300000000000000544e-02 1.402364999999999862e-01 9.512985000000000468e+00 4.868699999999999761e+01 1.912579999999999927e+03
5.399999999999999939e-02 1.401129999999999876e-01 7.773405000000000342e+00 4.482124999999999915e+01 1.911509999999999991e+03
5.500000000000000028e-02 1.399880000000000013e-01 6.067989999999999995e+00 4.113004999999999711e+01 1.910425000000000182e+03
5.600000000000000117e-02 1.398659999999999903e-01 4.452308999999999628e+00 3.773310000000000031e+01 1.909365000000000009e+03
5.700000000000000205e-02 1.397510000000000141e-01 2.979416999999999760e+00 3.473655000000000115e+01 1.908360000000000127e+03
5.800000000000000294e-02 1.396469999999999934e-01 1.699499999999999789e+00 3.223655000000000115e+01 1.907454999999999927e+03
5.900000000000000383e-02 1.395575000000000010e-01 6.588600000000000012e-01 3.031924999999999670e+01 1.906670000000000073e+03
6.000000000000000472e-02 1.394854999999999845e-01 -1.015350000000000419e-01 2.906015000000000015e+01 1.906029999999999973e+03
6.099999999999999867e-02 1.394334999999999880e-01 -5.479289999999999994e-01 2.852029999999999887e+01 1.905559999999999945e+03
6.199999999999999956e-02 1.394040000000000001e-01 -6.557969500000000451e-01 2.874214999999999876e+01 1.905295000000000073e+03
6.300000000000000044e-02 1.393985000000000085e-01 -4.116164999999999963e-01 2.974474999999999980e+01 1.905230000000000018e+03
6.400000000000000133e-02 1.394190000000000151e-01 1.859015000000000528e-01 3.152040000000000219e+01 1.905380000000000109e+03
6.500000000000000222e-02 1.394640000000000046e-01 1.125392999999999866e+00 3.403284999999999627e+01 1.905755000000000109e+03
6.600000000000000311e-02 1.395335000000000047e-01 2.383321200000000140e+00 3.721869999999999834e+01 1.906339999999999918e+03
6.700000000000000400e-02 1.396260000000000001e-01 3.925327999999999928e+00 4.099025000000000318e+01 1.907125000000000000e+03
6.800000000000000488e-02 1.397390000000000021e-01 5.708289999999999864e+00 4.524099999999999966e+01 1.908085000000000036e+03
6.900000000000000577e-02 1.398694999999999800e-01 7.682824999999999349e+00 4.985269999999999868e+01 1.909194999999999936e+03
7.000000000000000666e-02 1.400129999999999986e-01 9.795954999999999302e+00 5.470179999999999865e+01 1.910440000000000055e+03
7.100000000000000755e-02 1.401675000000000004e-01 1.199375500000000017e+01 5.966694999999999993e+01 1.911775000000000091e+03
7.200000000000000844e-02 1.403280000000000083e-01 1.422387499999999960e+01 6.463454999999999018e+01 1.913164999999999964e+03
7.300000000000000933e-02 1.404914999999999914e-01 1.643769999999999953e+01 6.950390000000000157e+01 1.914585000000000036e+03
7.399999999999999634e-02 1.406540000000000012e-01 1.859199999999999875e+01 7.419085000000001173e+01 1.916009999999999991e+03
7.499999999999999722e-02 1.408134999999999803e-01 2.065050000000000097e+01 7.863044999999999618e+01 1.917404999999999973e+03
7.599999999999999811e-02 1.409670000000000090e-01 2.258520000000000039e+01 8.277844999999999231e+01 1.918759999999999991e+03
7.699999999999999900e-02 1.411135000000000028e-01 2.437659999999999982e+01 8.661175000000000068e+01 1.920050000000000182e+03
7.799999999999999989e-02 1.412510000000000154e-01 2.601425000000000054e+01 9.012809999999998922e+01 1.921269999999999982e+03
7.900000000000000078e-02 1.413794999999999913e-01 2.749670000000000059e+01 9.334435000000000571e+01 1.922410000000000082e+03
8.000000000000000167e-02 1.414995000000000003e-01 2.883044999999999902e+01 9.629415000000000191e+01 1.923480000000000018e+03
8.100000000000000255e-02 1.416120000000000156e-01 3.002895000000000181e+01 9.902524999999999977e+01 1.924480000000000018e+03
8.200000000000000344e-02 1.417164999999999953e-01 3.111134999999999806e+01 1.015930500000000052e+02 1.925420000000000073e+03
8.300000000000000433e-02 1.418159999999999976e-01 3.210040000000000049e+01 1.040594999999999999e+02 1.926315000000000055e+03
8.400000000000000522e-02 1.419114999999999960e-01 3.302085000000000292e+01 1.064859999999999900e+02 1.927170000000000073e+03
8.500000000000000611e-02 1.420055000000000067e-01 3.389719999999999800e+01 1.089294999999999902e+02 1.928009999999999991e+03
8.600000000000000699e-02 1.420990000000000031e-01 3.475224999999999653e+01 1.114385000000000048e+02 1.928849999999999909e+03
8.700000000000000788e-02 1.421939999999999871e-01 3.560515000000000185e+01 1.140500000000000114e+02 1.929700000000000045e+03
8.800000000000000877e-02 1.422910000000000008e-01 3.647074999999999534e+01 1.167874999999999943e+02 1.930570000000000164e+03
8.899999999999999578e-02 1.423920000000000186e-01 3.735814999999999486e+01 1.196589999999999918e+02 1.931464999999999918e+03
8.999999999999999667e-02 1.424960000000000115e-01 3.827065000000000339e+01 1.226580000000000013e+02 1.932394999999999982e+03
9.099999999999999756e-02 1.426034999999999942e-01 3.920579999999999643e+01 1.257635000000000076e+02 1.933349999999999909e+03
9.199999999999999845e-02 1.427140000000000075e-01 4.015574999999999761e+01 1.289420000000000073e+02 1.934339999999999918e+03
9.299999999999999933e-02 1.428264999999999951e-01 4.110765000000000668e+01 1.321504999999999939e+02 1.935335000000000036e+03
9.400000000000000022e-02 1.429394999999999971e-01 4.204514999999999958e+01 1.353389999999999986e+02 1.936349999999999909e+03
9.500000000000000111e-02 1.430524999999999991e-01 4.294915000000000305e+01 1.384524999999999864e+02 1.937360000000000127e+03
9.600000000000000200e-02 1.431634999999999991e-01 4.379905000000000115e+01 1.414370000000000118e+02 1.938349999999999909e+03
9.700000000000000289e-02 1.432700000000000085e-01 4.457404999999999973e+01 1.442384999999999877e+02 1.939309999999999945e+03
9.800000000000000377e-02 1.433709999999999984e-01 4.525430000000000064e+01 1.468090000000000259e+02 1.940214999999999918e+03
9.900000000000000466e-02 1.434654999999999958e-01 4.582184999999999775e+01 1.491059999999999945e+02 1.941059999999999945e+03
1.000000000000000056e-01 1.435514999999999985e-01 4.626149999999999807e+01 1.510970000000000084e+02 1.941839999999999918e+03
1.010000000000000064e-01 1.436270000000000047e-01 4.656165000000000020e+01 1.527584999999999980e+02 1.942530000000000200e+03
1.020000000000000073e-01 1.436925000000000008e-01 4.671460000000000434e+01 1.540760000000000218e+02 1.943125000000000000e+03
1.030000000000000082e-01 1.437470000000000137e-01 4.671705000000000041e+01 1.550475000000000136e+02 1.943619999999999891e+03
1.040000000000000091e-01 1.437899999999999734e-01 4.657004999999999484e+01 1.556800000000000068e+02 1.944014999999999873e+03
1.050000000000000100e-01 1.438220000000000054e-01 4.627890000000000015e+01 1.559900000000000091e+02 1.944309999999999945e+03
1.059999999999999970e-01 1.438429999999999986e-01 4.585304999999999609e+01 1.560020000000000095e+02 1.944509999999999991e+03
1.069999999999999979e-01 1.438540000000000096e-01 4.530519999999999925e+01 1.557489999999999952e+02 1.944615000000000009e+03
1.079999999999999988e-01 1.438550000000000106e-01 4.465120000000000289e+01 1.552674999999999841e+02 1.944634999999999991e+03
1.089999999999999997e-01 1.438484999999999903e-01 4.390914999999999679e+01 1.546005000000000109e+02 1.944585000000000036e+03
1.100000000000000006e-01 1.438345000000000040e-01 4.309839999999999804e+01 1.537905000000000086e+02 1.944470000000000027e+03
1.110000000000000014e-01 1.438145000000000118e-01 4.223915000000000219e+01 1.528815000000000168e+02 1.944304999999999836e+03
1.120000000000000023e-01 1.437910000000000021e-01 4.135119999999999862e+01 1.519164999999999850e+02 1.944095000000000027e+03
1.130000000000000032e-01 1.437640000000000029e-01 4.045374999999999943e+01 1.509325000000000045e+02 1.943860000000000127e+03
1.140000000000000041e-01 1.437355000000000160e-01 3.956409999999999627e+01 1.499660000000000082e+02 1.943609999999999900e+03
1.150000000000000050e-01 1.437065000000000148e-01 3.869745000000000346e+01 1.490444999999999993e+02 1.943349999999999909e+03
1.160000000000000059e-01 1.436780000000000002e-01 3.786620000000000630e+01 1.481915000000000191e+02 1.943089999999999918e+03
1.170000000000000068e-01 1.436505000000000143e-01 3.707979999999999876e+01 1.474214999999999804e+02 1.942844999999999800e+03
1.180000000000000077e-01 1.436244999999999883e-01 3.634444999999999482e+01 1.467425000000000068e+02 1.942614999999999782e+03
1.190000000000000085e-01 1.436014999999999930e-01 3.566289999999999338e+01 1.461560000000000059e+02 1.942405000000000200e+03
1.200000000000000094e-01 1.435804999999999998e-01 3.503485000000000582e+01 1.456544999999999845e+02 1.942215000000000146e+03
1.209999999999999964e-01 1.435615000000000085e-01 3.445669999999999789e+01 1.452280000000000086e+02 1.942039999999999964e+03
1.219999999999999973e-01 1.435454999999999925e-01 3.392249999999999943e+01 1.448569999999999993e+02 1.941889999999999873e+03
1.229999999999999982e-01 1.435299999999999909e-01 3.342399999999999949e+01 1.445204999999999984e+02 1.941750000000000000e+03
1.239999999999999991e-01 1.435164999999999913e-01 3.295104999999999507e+01 1.441945000000000050e+02 1.941630000000000109e+03
1.250000000000000000e-01 1.435029999999999917e-01 3.249255000000000138e+01 1.438530000000000086e+02 1.941505000000000109e+03
1.260000000000000009e-01 1.434894999999999921e-01 3.203699999999999903e+01 1.434699999999999989e+02 1.941375000000000000e+03
1.270000000000000018e-01 1.434745000000000048e-01 3.157285000000000252e+01 1.430204999999999984e+02 1.941234999999999900e+03
1.280000000000000027e-01 1.434575000000000156e-01 3.108910000000000196e+01 1.424814999999999827e+02 1.941085000000000036e+03
1.290000000000000036e-01 1.434374999999999956e-01 3.057625000000000171e+01 1.418344999999999914e+02 1.940909999999999854e+03
1.300000000000000044e-01 1.434150000000000147e-01 3.002624999999999744e+01 1.410654999999999859e+02 1.940704999999999927e+03
1.310000000000000053e-01 1.433885000000000021e-01 2.943339999999999890e+01 1.401650000000000205e+02 1.940465000000000146e+03
1.320000000000000062e-01 1.433574999999999988e-01 2.879420000000000002e+01 1.391290000000000191e+02 1.940190000000000055e+03
1.330000000000000071e-01 1.433229999999999782e-01 2.810764999999999958e+01 1.379610000000000127e+02 1.939880000000000109e+03
1.340000000000000080e-01 1.432835000000000081e-01 2.737565000000000026e+01 1.366680000000000064e+02 1.939535000000000082e+03
1.350000000000000089e-01 1.432410000000000072e-01 2.660245000000000104e+01 1.352655000000000030e+02 1.939150000000000091e+03
1.360000000000000098e-01 1.431939999999999880e-01 2.579475000000000051e+01 1.337719999999999914e+02 1.938735000000000127e+03
1.370000000000000107e-01 1.431439999999999935e-01 2.496134999999999948e+01 1.322110000000000127e+02 1.938289999999999964e+03
1.380000000000000115e-01 1.430914999999999826e-01 2.411280000000000001e+01 1.306090000000000089e+02 1.937824999999999818e+03
1.390000000000000124e-01 1.430374999999999841e-01 2.326089999999999947e+01 1.289950000000000045e+02 1.937344999999999800e+03
1.400000000000000133e-01 1.429825000000000124e-01 2.241825000000000045e+01 1.273979999999999961e+02 1.936849999999999909e+03
1.410000000000000142e-01 1.429274999999999851e-01 2.159750000000000014e+01 1.258489999999999895e+02 1.936365000000000009e+03
1.420000000000000151e-01 1.428740000000000010e-01 2.081114999999999782e+01 1.243750000000000000e+02 1.935889999999999873e+03
1.430000000000000160e-01 1.428224999999999911e-01 2.007075000000000031e+01 1.230014999999999930e+02 1.935425000000000182e+03
1.440000000000000169e-01 1.427740000000000120e-01 1.938669999999999760e+01 1.217500000000000000e+02 1.934990000000000009e+03
1.450000000000000178e-01 1.427285000000000081e-01 1.876749999999999829e+01 1.206389999999999958e+02 1.934585000000000036e+03
1.459999999999999909e-01 1.426874999999999949e-01 1.821999999999999886e+01 1.196800000000000068e+02 1.934220000000000027e+03
1.469999999999999918e-01 1.426514999999999866e-01 1.774869999999999948e+01 1.188815000000000026e+02 1.933889999999999873e+03
1.479999999999999927e-01 1.426199999999999968e-01 1.735575000000000045e+01 1.182454999999999927e+02 1.933605000000000018e+03
1.489999999999999936e-01 1.425939999999999985e-01 1.704129999999999967e+01 1.177699999999999960e+02 1.933369999999999891e+03
1.499999999999999944e-01 1.425724999999999909e-01 1.680310000000000059e+01 1.174465000000000003e+02 1.933174999999999955e+03
1.509999999999999953e-01 1.425569999999999893e-01 1.663705000000000211e+01 1.172650000000000006e+02 1.933030000000000200e+03
1.519999999999999962e-01 1.425454999999999917e-01 1.653744999999999976e+01 1.172100000000000080e+02 1.932925000000000182e+03
1.529999999999999971e-01 1.425389999999999990e-01 1.649685000000000201e+01 1.172650000000000006e+02 1.932855000000000018e+03
1.539999999999999980e-01 1.425359999999999960e-01 1.650710000000000122e+01 1.174104999999999990e+02 1.932829999999999927e+03
1.549999999999999989e-01 1.425370000000000248e-01 1.655910000000000082e+01 1.176264999999999930e+02 1.932825000000000045e+03
1.559999999999999998e-01 1.425400000000000000e-01 1.664345000000000141e+01 1.178934999999999889e+02 1.932855000000000018e+03
1.570000000000000007e-01 1.425454999999999917e-01 1.675090000000000146e+01 1.181920000000000073e+02 1.932894999999999982e+03
1.580000000000000016e-01 1.425524999999999987e-01 1.687245000000000061e+01 1.185035000000000025e+02 1.932954999999999927e+03
1.590000000000000024e-01 1.425605000000000067e-01 1.699965000000000259e+01 1.188119999999999976e+02 1.933019999999999982e+03
