# t [s], A [cm^2], U [cm/s], P [cPa], c [cm/s]
1.000000000000000021e-03 1.973130000000000162e-01 4.857525499999999496e-01 8.766320000000000334e+01 2.289689999999999600e+03
2.000000000000000042e-03 1.972369999999999957e-01 2.102831500000000187e+00 8.344830000000000325e+01 2.289059999999999945e+03
3.000000000000000062e-03 1.970755000000000146e-01 4.045470499999999525e+00 7.791830000000000211e+01 2.287769999999999982e+03
4.000000000000000083e-03 1.968845000000000178e-01 6.245585000000000164e+00 7.276009999999999422e+01 2.286250000000000000e+03
5.000000000000000104e-03 1.967019999999999880e-01 8.508649999999999380e+00 6.885150000000000148e+01 2.284815000000000055e+03
6.000000000000000125e-03 1.965355000000000019e-01 1.047067000000000014e+01 6.571649999999999636e+01 2.283539999999999964e+03
7.000000000000000146e-03 1.963860000000000050e-01 1.200723999999999947e+01 6.285529999999999973e+01 2.282409999999999854e+03
8.000000000000000167e-03 1.962590000000000168e-01 1.321909499999999937e+01 6.046760000000000446e+01 2.281475000000000364e+03
9.000000000000001055e-03 1.961579999999999990e-01 1.414835000000000065e+01 5.864740000000000464e+01 2.280735000000000127e+03
1.000000000000000194e-02 1.960800000000000043e-01 1.481765000000000043e+01 5.730039999999999623e+01 2.280175000000000182e+03
1.099999999999999936e-02 1.960220000000000018e-01 1.525029999999999930e+01 5.632245000000000346e+01 2.279760000000000218e+03
1.200000000000000025e-02 1.959764999999999979e-01 1.544575000000000031e+01 5.550710000000000122e+01 2.279449999999999818e+03
1.300000000000000114e-02 1.959400000000000031e-01 1.548830000000000062e+01 5.480469999999999686e+01 2.279204999999999927e+03
1.400000000000000203e-02 1.959210000000000118e-01 1.562784999999999869e+01 5.471699999999999875e+01 2.279085000000000036e+03
1.499999999999999944e-02 1.959400000000000031e-01 1.614705000000000013e+01 5.607890000000000441e+01 2.279230000000000018e+03
1.600000000000000033e-02 1.960120000000000196e-01 1.713149999999999906e+01 5.931135000000000446e+01 2.279760000000000218e+03
1.700000000000000122e-02 1.961315000000000142e-01 1.836880000000000024e+01 6.388535000000000252e+01 2.280635000000000218e+03
1.800000000000000211e-02 1.962694999999999856e-01 1.944814999999999827e+01 6.845480000000000587e+01 2.281664999999999964e+03
1.900000000000000300e-02 1.963864999999999916e-01 1.997200000000000131e+01 7.151149999999999807e+01 2.282560000000000400e+03
2.000000000000000042e-02 1.964505000000000001e-01 1.974429999999999907e+01 7.211500000000000909e+01 2.283074999999999818e+03
2.100000000000000130e-02 1.964480000000000115e-01 1.884185000000000088e+01 7.029110000000000014e+01 2.283095000000000255e+03
2.200000000000000219e-02 1.963900000000000090e-01 1.754614999999999725e+01 6.692475000000000307e+01 2.282694999999999709e+03
2.299999999999999961e-02 1.963024999999999909e-01 1.618874999999999886e+01 6.325525000000000375e+01 2.282059999999999945e+03
2.400000000000000050e-02 1.962139999999999995e-01 1.500185000000000102e+01 6.028549999999999898e+01 2.281400000000000091e+03
2.500000000000000139e-02 1.961430000000000118e-01 1.404550000000000054e+01 5.840900000000000603e+01 2.280859999999999673e+03
2.600000000000000228e-02 1.960930000000000173e-01 1.322840000000000060e+01 5.738629999999999853e+01 2.280474999999999909e+03
2.700000000000000316e-02 1.960545000000000204e-01 1.239194999999999958e+01 5.660545000000000471e+01 2.280180000000000291e+03
2.800000000000000058e-02 1.960135000000000072e-01 1.141000999999999976e+01 5.545770000000000266e+01 2.279880000000000109e+03
2.900000000000000147e-02 1.959589999999999943e-01 1.026242500000000035e+01 5.365744999999999720e+01 2.279480000000000018e+03
3.000000000000000236e-02 1.958914999999999962e-01 9.056955000000000311e+00 5.138954999999999984e+01 2.278980000000000018e+03
3.099999999999999978e-02 1.958205000000000084e-01 7.993085000000000662e+00 4.923765000000000214e+01 2.278454999999999927e+03
3.200000000000000067e-02 1.957650000000000223e-01 7.285214999999999108e+00 4.793800000000000239e+01 2.278024999999999636e+03
3.300000000000000155e-02 1.957419999999999993e-01 7.078535000000000466e+00 4.806900000000000261e+01 2.277835000000000036e+03
3.400000000000000244e-02 1.957625000000000060e-01 7.392079999999999984e+00 4.981045000000000300e+01 2.277965000000000146e+03
3.500000000000000333e-02 1.958265000000000144e-01 8.107704999999999274e+00 5.285829999999999984e+01 2.278409999999999854e+03
3.600000000000000422e-02 1.959199999999999831e-01 9.002659999999998774e+00 5.651005000000000678e+01 2.279090000000000146e+03
3.700000000000000511e-02 1.960220000000000018e-01 9.808324999999999960e+00 5.986444999999999794e+01 2.279840000000000146e+03
3.799999999999999906e-02 1.961074999999999902e-01 1.027273500000000084e+01 6.205689999999999884e+01 2.280480000000000018e+03
3.899999999999999994e-02 1.961530000000000218e-01 1.020979999999999954e+01 6.245265000000000555e+01 2.280835000000000036e+03
4.000000000000000083e-02 1.961439999999999850e-01 9.524760000000000559e+00 6.075424999999999898e+01 2.280784999999999854e+03
4.100000000000000172e-02 1.960729999999999973e-01 8.215769999999999129e+00 5.701109999999999900e+01 2.280284999999999854e+03
4.200000000000000261e-02 1.959434999999999927e-01 6.356344999999999246e+00 5.154945000000000022e+01 2.279340000000000146e+03
4.300000000000000350e-02 1.957645000000000080e-01 4.068920499999999940e+00 4.486005000000000109e+01 2.278019999999999982e+03
4.400000000000000439e-02 1.955494999999999872e-01 1.497899999999999787e+00 3.748319999999999652e+01 2.276434999999999945e+03
4.499999999999999833e-02 1.953134999999999732e-01 -1.210185000000000066e+00 2.992235000000000156e+01 2.274684999999999945e+03
4.599999999999999922e-02 1.950709999999999944e-01 -3.917540000000000244e+00 2.259984999999999999e+01 2.272885000000000218e+03
4.700000000000000011e-02 1.948349999999999804e-01 -6.498134999999999550e+00 1.585135000000000005e+01 2.271119999999999891e+03
4.800000000000000100e-02 1.946149999999999824e-01 -8.836285000000000167e+00 9.943353000000000108e+00 2.269480000000000018e+03
4.900000000000000189e-02 1.944214999999999971e-01 -1.082499999999999929e+01 5.097960000000000491e+00 2.268024999999999636e+03
5.000000000000000278e-02 1.942625000000000046e-01 -1.236585000000000001e+01 1.509974999999999845e+00 2.266819999999999709e+03
5.100000000000000366e-02 1.941444999999999976e-01 -1.337314999999999898e+01 -6.505600000000000271e-01 2.265914999999999964e+03
5.200000000000000455e-02 1.940729999999999955e-01 -1.377990000000000137e+01 -1.250464999999999938e+00 2.265355000000000018e+03
5.300000000000000544e-02 1.940534999999999899e-01 -1.354584999999999972e+01 -2.139770000000000283e-01 2.265175000000000182e+03
5.399999999999999939e-02 1.940870000000000095e-01 -1.266304999999999836e+01 2.456385500000000111e+00 2.265385000000000218e+03
5.500000000000000028e-02 1.941740000000000133e-01 -1.115922000000000125e+01 6.667164999999999786e+00 2.265994999999999891e+03
5.600000000000000117e-02 1.943099999999999827e-01 -9.096370000000000289e+00 1.223447999999999958e+01 2.266969999999999800e+03
5.700000000000000205e-02 1.944895000000000096e-01 -6.564960000000000129e+00 1.889884999999999948e+01 2.268275000000000091e+03
5.800000000000000294e-02 1.947050000000000169e-01 -3.675850000000000062e+00 2.635020000000000095e+01 2.269850000000000364e+03
5.900000000000000383e-02 1.949454999999999938e-01 -5.508049999999999891e-01 3.425769999999999982e+01 2.271625000000000000e+03
6.000000000000000472e-02 1.952019999999999866e-01 2.686575000000000379e+00 4.229820000000000135e+01 2.273525000000000091e+03
6.099999999999999867e-02 1.954635000000000122e-01 5.918422999999999767e+00 5.017869999999999919e+01 2.275474999999999909e+03
6.199999999999999956e-02 1.957220000000000071e-01 9.038650000000000517e+00 5.765209999999999724e+01 2.277404999999999745e+03
6.300000000000000044e-02 1.959690000000000043e-01 1.195753500000000003e+01 6.452655000000000030e+01 2.279264999999999873e+03
6.400000000000000133e-02 1.961979999999999835e-01 1.460545000000000115e+01 7.067150000000000887e+01 2.281000000000000000e+03
6.500000000000000222e-02 1.964059999999999973e-01 1.693570000000000064e+01 7.602015000000000100e+01 2.282574999999999818e+03
6.600000000000000311e-02 1.965895000000000004e-01 1.892650000000000077e+01 8.057079999999999131e+01 2.283980000000000018e+03
6.700000000000000400e-02 1.967490000000000072e-01 2.058109999999999928e+01 8.438429999999999609e+01 2.285215000000000146e+03
6.800000000000000488e-02 1.968870000000000064e-01 2.192665000000000219e+01 8.757779999999999632e+01 2.286274999999999636e+03
6.900000000000000577e-02 1.970064999999999733e-01 2.301055000000000206e+01 9.031405000000000882e+01 2.287199999999999818e+03
7.000000000000000666e-02 1.971125000000000238e-01 2.389545000000000030e+01 9.278539999999999566e+01 2.288024999999999636e+03
7.100000000000000755e-02 1.972105000000000108e-01 2.465234999999999843e+01 9.519534999999999059e+01 2.288789999999999964e+03
7.200000000000000844e-02 1.973074999999999968e-01 2.535374999999999801e+01 9.773845000000000027e+01 2.289539999999999964e+03
7.300000000000000933e-02 1.974095000000000155e-01 2.606660000000000110e+01 1.005813500000000005e+02 2.290319999999999709e+03
7.399999999999999634e-02 1.975200000000000011e-01 2.684604999999999819e+01 1.038479999999999990e+02 2.291164999999999964e+03
7.499999999999999722e-02 1.976434999999999997e-01 2.773094999999999999e+01 1.076099999999999994e+02 2.292109999999999673e+03
7.599999999999999811e-02 1.977820000000000134e-01 2.874115000000000109e+01 1.118799999999999955e+02 2.293159999999999854e+03
7.699999999999999900e-02 1.979354999999999865e-01 2.987655000000000172e+01 1.166129999999999995e+02 2.294320000000000164e+03
7.799999999999999989e-02 1.981020000000000003e-01 3.111820000000000164e+01 1.217145000000000010e+02 2.295585000000000036e+03
7.900000000000000078e-02 1.982794999999999974e-01 3.243090000000000117e+01 1.270494999999999948e+02 2.296930000000000291e+03
8.000000000000000167e-02 1.984635000000000149e-01 3.376709999999999923e+01 1.324555000000000007e+02 2.298324999999999818e+03
8.100000000000000255e-02 1.986475000000000046e-01 3.507124999999999915e+01 1.377579999999999814e+02 2.299734999999999673e+03
8.200000000000000344e-02 1.988280000000000047e-01 3.628480000000000416e+01 1.427824999999999989e+02 2.301105000000000018e+03
8.300000000000000433e-02 1.989985000000000226e-01 3.735079999999999956e+01 1.473695000000000164e+02 2.302414999999999964e+03
8.400000000000000522e-02 1.991539999999999977e-01 3.821829999999999927e+01 1.513845000000000027e+02 2.303614999999999782e+03
8.500000000000000611e-02 1.992909999999999959e-01 3.884560000000000457e+01 1.547245000000000061e+02 2.304675000000000182e+03
8.600000000000000699e-02 1.994064999999999865e-01 3.920300000000000296e+01 1.573254999999999768e+02 2.305569999999999709e+03
8.700000000000000788e-02 1.994980000000000087e-01 3.927434999999999832e+01 1.591620000000000061e+02 2.306284999999999854e+03
8.800000000000000877e-02 1.995645000000000058e-01 3.905774999999999864e+01 1.602475000000000023e+02 2.306815000000000055e+03
8.899999999999999578e-02 1.996069999999999789e-01 3.856470000000000198e+01 1.606299999999999955e+02 2.307154999999999745e+03
8.999999999999999667e-02 1.996269999999999989e-01 3.781935000000000002e+01 1.603879999999999768e+02 2.307324999999999818e+03
9.099999999999999756e-02 1.996259999999999979e-01 3.685599999999999454e+01 1.596220000000000141e+02 2.307340000000000146e+03
9.199999999999999845e-02 1.996080000000000076e-01 3.571679999999999922e+01 1.584480000000000075e+02 2.307220000000000255e+03
9.299999999999999933e-02 1.995770000000000044e-01 3.444930000000000092e+01 1.569895000000000209e+02 2.306994999999999891e+03
9.400000000000000022e-02 1.995355000000000045e-01 3.310320000000000107e+01 1.553710000000000093e+02 2.306690000000000055e+03
9.500000000000000111e-02 1.994889999999999997e-01 3.172794999999999987e+01 1.537130000000000223e+02 2.306340000000000146e+03
9.600000000000000200e-02 1.994400000000000062e-01 3.037015000000000242e+01 1.521209999999999809e+02 2.305970000000000255e+03
9.700000000000000289e-02 1.993925000000000003e-01 2.907114999999999938e+01 1.506875000000000000e+02 2.305610000000000127e+03
9.800000000000000377e-02 1.993489999999999984e-01 2.786520000000000152e+01 1.494850000000000136e+02 2.305279999999999745e+03
9.900000000000000466e-02 1.993130000000000179e-01 2.677799999999999869e+01 1.485610000000000070e+02 2.305000000000000000e+03
1.000000000000000056e-01 1.992845000000000033e-01 2.582554999999999978e+01 1.479404999999999859e+02 2.304774999999999636e+03
1.010000000000000064e-01 1.992649999999999977e-01 2.501399999999999935e+01 1.476220000000000141e+02 2.304619999999999891e+03
1.020000000000000073e-01 1.992545000000000011e-01 2.433939999999999770e+01 1.475810000000000173e+02 2.304524999999999636e+03
1.030000000000000082e-01 1.992524999999999991e-01 2.378869999999999862e+01 1.477715000000000032e+02 2.304500000000000000e+03
1.040000000000000091e-01 1.992570000000000174e-01 2.334094999999999942e+01 1.481295000000000073e+02 2.304524999999999636e+03
1.050000000000000100e-01 1.992659999999999987e-01 2.296910000000000096e+01 1.485774999999999864e+02 2.304585000000000036e+03
1.059999999999999970e-01 1.992774999999999963e-01 2.264185000000000159e+01 1.490310000000000059e+02 2.304670000000000073e+03
1.069999999999999979e-01 1.992889999999999939e-01 2.232629999999999981e+01 1.494035000000000082e+02 2.304755000000000109e+03
1.079999999999999988e-01 1.992975000000000163e-01 2.199009999999999820e+01 1.496139999999999759e+02 2.304815000000000055e+03
1.089999999999999997e-01 1.993004999999999916e-01 2.160360000000000014e+01 1.495919999999999845e+02 2.304835000000000036e+03
1.100000000000000006e-01 1.992964999999999876e-01 2.114215000000000089e+01 1.492820000000000107e+02 2.304805000000000291e+03
1.110000000000000014e-01 1.992829999999999879e-01 2.058769999999999811e+01 1.486479999999999961e+02 2.304704999999999927e+03
1.120000000000000023e-01 1.992590000000000194e-01 1.992980000000000018e+01 1.476770000000000209e+02 2.304524999999999636e+03
1.130000000000000032e-01 1.992244999999999988e-01 1.916669999999999874e+01 1.463765000000000214e+02 2.304265000000000327e+03
1.140000000000000041e-01 1.991799999999999959e-01 1.830495000000000161e+01 1.447785000000000082e+02 2.303929999999999836e+03
1.150000000000000050e-01 1.991259999999999974e-01 1.735904999999999987e+01 1.429334999999999809e+02 2.303519999999999982e+03
1.160000000000000059e-01 1.990644999999999776e-01 1.635020000000000095e+01 1.409085000000000036e+02 2.303050000000000182e+03
1.170000000000000068e-01 1.989969999999999795e-01 1.530494999999999983e+01 1.387805000000000177e+02 2.302545000000000073e+03
1.180000000000000077e-01 1.989265000000000061e-01 1.425314999999999976e+01 1.366349999999999909e+02 2.302010000000000218e+03
1.190000000000000085e-01 1.988555000000000184e-01 1.322589999999999932e+01 1.345560000000000116e+02 2.301470000000000255e+03
1.200000000000000094e-01 1.987875000000000059e-01 1.225359999999999872e+01 1.326220000000000141e+02 2.300944999999999709e+03
1.209999999999999964e-01 1.987234999999999974e-01 1.136431499999999950e+01 1.309044999999999845e+02 2.300460000000000036e+03
1.219999999999999973e-01 1.986664999999999959e-01 1.058159500000000008e+01 1.294590000000000032e+02 2.300019999999999982e+03
1.229999999999999982e-01 1.986180000000000168e-01 9.923804999999999765e+00 1.283259999999999934e+02 2.299644999999999982e+03
1.239999999999999991e-01 1.985795000000000199e-01 9.402765000000000484e+00 1.275279999999999916e+02 2.299345000000000255e+03
1.250000000000000000e-01 1.985520000000000063e-01 9.023810000000000997e+00 1.270700000000000074e+02 2.299125000000000000e+03
1.260000000000000009e-01 1.985349999999999893e-01 8.785354999999999137e+00 1.269395000000000095e+02 2.298989999999999782e+03
1.270000000000000018e-01 1.985284999999999966e-01 8.679629999999999512e+00 1.271094999999999970e+02 2.298929999999999836e+03
1.280000000000000027e-01 1.985319999999999863e-01 8.693224999999999980e+00 1.275390000000000015e+02 2.298945000000000164e+03
1.290000000000000036e-01 1.985434999999999839e-01 8.808135000000000048e+00 1.281769999999999925e+02 2.299025000000000091e+03
1.300000000000000044e-01 1.985620000000000163e-01 9.002970000000001249e+00 1.289669999999999845e+02 2.299155000000000200e+03
1.310000000000000053e-01 1.985850000000000115e-01 9.254184999999999661e+00 1.298480000000000132e+02 2.299324999999999818e+03
1.320000000000000062e-01 1.986114999999999964e-01 9.537410000000001276e+00 1.307604999999999791e+02 2.299519999999999982e+03
1.330000000000000071e-01 1.986390000000000100e-01 9.828655000000001252e+00 1.316465000000000032e+02 2.299730000000000018e+03
1.340000000000000080e-01 1.986664999999999959e-01 1.010549999999999926e+01 1.324550000000000125e+02 2.299930000000000291e+03
1.350000000000000089e-01 1.986910000000000065e-01 1.034805000000000064e+01 1.331430000000000007e+02 2.300119999999999891e+03
1.360000000000000098e-01 1.987125000000000141e-01 1.053985000000000127e+01 1.336754999999999995e+02 2.300284999999999854e+03
1.370000000000000107e-01 1.987285000000000024e-01 1.066825000000000045e+01 1.340300000000000011e+02 2.300409999999999854e+03
1.380000000000000115e-01 1.987395000000000134e-01 1.072514999999999930e+01 1.341930000000000121e+02 2.300494999999999891e+03
1.390000000000000124e-01 1.987450000000000050e-01 1.070680000000000121e+01 1.341645000000000039e+02 2.300534999999999854e+03
1.400000000000000133e-01 1.987435000000000174e-01 1.061374500000000154e+01 1.339515000000000100e+02 2.300534999999999854e+03
1.410000000000000142e-01 1.987369999999999970e-01 1.045068000000000019e+01 1.335734999999999957e+02 2.300489999999999782e+03
1.420000000000000151e-01 1.987254999999999994e-01 1.022566000000000130e+01 1.330554999999999950e+02 2.300404999999999745e+03
1.430000000000000160e-01 1.987089999999999967e-01 9.949500000000000455e+00 1.324284999999999854e+02 2.300284999999999854e+03
1.440000000000000169e-01 1.986895000000000189e-01 9.634854999999999947e+00 1.317259999999999991e+02 2.300135000000000218e+03
1.450000000000000178e-01 1.986669999999999825e-01 9.295329999999999870e+00 1.309830000000000041e+02 2.299974999999999909e+03
1.459999999999999909e-01 1.986430000000000140e-01 8.944684999999999775e+00 1.302330000000000041e+02 2.299789999999999964e+03
1.469999999999999918e-01 1.986195000000000044e-01 8.595819999999999794e+00 1.295049999999999955e+02 2.299609999999999673e+03
1.479999999999999927e-01 1.985959999999999948e-01 8.260204999999999131e+00 1.288245000000000005e+02 2.299430000000000291e+03
1.489999999999999936e-01 1.985735000000000139e-01 7.947285000000000821e+00 1.282110000000000127e+02 2.299260000000000218e+03
1.499999999999999944e-01 1.985534999999999939e-01 7.664089999999999847e+00 1.276754999999999995e+02 2.299109999999999673e+03
1.509999999999999953e-01 1.985355000000000036e-01 7.415024999999999977e+00 1.272235000000000014e+02 2.298970000000000255e+03
1.519999999999999962e-01 1.985200000000000020e-01 7.201885000000000758e+00 1.268540000000000134e+02 2.298855000000000018e+03
1.529999999999999971e-01 1.985075000000000034e-01 7.023949999999999250e+00 1.265600000000000023e+02 2.298750000000000000e+03
1.539999999999999980e-01 1.984969999999999790e-01 6.878309999999999924e+00 1.263290000000000077e+02 2.298670000000000073e+03
1.549999999999999989e-01 1.984879999999999978e-01 6.760210000000000719e+00 1.261450000000000102e+02 2.298600000000000364e+03
1.559999999999999998e-01 1.984805000000000041e-01 6.663549999999999862e+00 1.259904999999999973e+02 2.298539999999999964e+03
1.570000000000000007e-01 1.984739999999999838e-01 6.581369999999999720e+00 1.258460000000000036e+02 2.298489999999999782e+03
1.580000000000000016e-01 1.984675000000000189e-01 6.506384999999999863e+00 1.256930000000000121e+02 2.298440000000000055e+03
1.590000000000000024e-01 1.984609999999999985e-01 6.431515000000000093e+00 1.255134999999999934e+02 2.298389999999999873e+03
