# t [s], A [cm^2], U [cm/s], P [cPa], c [cm/s]
1.000000000000000021e-03 2.035264999999999991e-01 9.671399999999999442e-02 9.147769999999999868e+01 2.081565000000000055e+03
2.000000000000000042e-03 2.034944999999999948e-01 1.241427999999999976e+00 8.906284999999999741e+01 2.081319999999999709e+03
3.000000000000000062e-03 2.033844999999999958e-01 2.752940500000000235e+00 8.557885000000000275e+01 2.080534999999999854e+03
4.000000000000000083e-03 2.032214999999999994e-01 4.488704499999999875e+00 8.141755000000000564e+01 2.079404999999999745e+03
5.000000000000000104e-03 2.030349999999999933e-01 6.398253500000000038e+00 7.728464999999999918e+01 2.078114999999999782e+03
6.000000000000000125e-03 2.028475000000000139e-01 8.388735000000000497e+00 7.364545000000001096e+01 2.076829999999999927e+03
7.000000000000000146e-03 2.026695000000000024e-01 1.029475000000000051e+01 7.054630000000000223e+01 2.075635000000000218e+03
8.000000000000000167e-03 2.025025000000000019e-01 1.197055000000000113e+01 6.778849999999999909e+01 2.074524999999999636e+03
9.000000000000001055e-03 2.023495000000000155e-01 1.338442000000000043e+01 6.529095000000000937e+01 2.073534999999999854e+03
1.000000000000000194e-02 2.022154999999999925e-01 1.456610000000000049e+01 6.312429999999999808e+01 2.072675000000000182e+03
1.099999999999999936e-02 2.021020000000000039e-01 1.553989999999999938e+01 6.134194999999999709e+01 2.071954999999999927e+03
1.200000000000000025e-02 2.020095000000000085e-01 1.632140000000000057e+01 5.993645000000000778e+01 2.071380000000000109e+03
1.300000000000000114e-02 2.019364999999999910e-01 1.692024999999999935e+01 5.885960000000000036e+01 2.070925000000000182e+03
1.400000000000000203e-02 2.018784999999999885e-01 1.733455000000000013e+01 5.801604999999999990e+01 2.070574999999999818e+03
1.499999999999999944e-02 2.018309999999999826e-01 1.756985000000000241e+01 5.729680000000000462e+01 2.070289999999999964e+03
1.600000000000000033e-02 2.017919999999999991e-01 1.767349999999999710e+01 5.668035000000000423e+01 2.070064999999999600e+03
1.700000000000000122e-02 2.017649999999999999e-01 1.774569999999999936e+01 5.630509999999999593e+01 2.069909999999999854e+03
1.800000000000000211e-02 2.017570000000000197e-01 1.790594999999999715e+01 5.642419999999999902e+01 2.069875000000000000e+03
1.900000000000000300e-02 2.017760000000000109e-01 1.823864999999999981e+01 5.726364999999999839e+01 2.069994999999999891e+03
2.000000000000000042e-02 2.018244999999999900e-01 1.875370000000000203e+01 5.887985000000000468e+01 2.070305000000000291e+03
2.100000000000000130e-02 2.018984999999999808e-01 1.938329999999999842e+01 6.110155000000000314e+01 2.070779999999999745e+03
2.200000000000000219e-02 2.019880000000000009e-01 2.001109999999999900e+01 6.357710000000000150e+01 2.071359999999999673e+03
2.299999999999999961e-02 2.020800000000000096e-01 2.051619999999999777e+01 6.589225000000000421e+01 2.071960000000000036e+03
2.400000000000000050e-02 2.021609999999999796e-01 2.081255000000000166e+01 6.770040000000000191e+01 2.072505000000000109e+03
2.500000000000000139e-02 2.022229999999999861e-01 2.087010000000000076e+01 6.881465000000000032e+01 2.072925000000000182e+03
2.600000000000000228e-02 2.022625000000000117e-01 2.071475000000000222e+01 6.923720000000000141e+01 2.073199999999999818e+03
2.700000000000000316e-02 2.022809999999999886e-01 2.040990000000000038e+01 6.912425000000000352e+01 2.073335000000000036e+03
2.800000000000000058e-02 2.022845000000000060e-01 2.002909999999999968e+01 6.870905000000000484e+01 2.073375000000000000e+03
2.900000000000000147e-02 2.022789999999999866e-01 1.963025000000000020e+01 6.821340000000000714e+01 2.073345000000000255e+03
3.000000000000000236e-02 2.022714999999999930e-01 1.923910000000000053e+01 6.777835000000000321e+01 2.073295000000000073e+03
3.099999999999999978e-02 2.022625000000000117e-01 1.884655000000000058e+01 6.743325000000000102e+01 2.073239999999999782e+03
3.200000000000000067e-02 2.022525000000000017e-01 1.841815000000000069e+01 6.710689999999999600e+01 2.073175000000000182e+03
3.300000000000000155e-02 2.022380000000000011e-01 1.791120000000000090e+01 6.667089999999998895e+01 2.073090000000000146e+03
3.400000000000000244e-02 2.022160000000000069e-01 1.729404999999999859e+01 6.599975000000000591e+01 2.072949999999999818e+03
3.500000000000000333e-02 2.021824999999999872e-01 1.656184999999999974e+01 6.502700000000000102e+01 2.072739999999999782e+03
3.600000000000000422e-02 2.021384999999999987e-01 1.574395000000000167e+01 6.378199999999999648e+01 2.072465000000000146e+03
3.700000000000000511e-02 2.020875000000000032e-01 1.490060000000000073e+01 6.239549999999999841e+01 2.072144999999999982e+03
3.799999999999999906e-02 2.020355000000000067e-01 1.411045000000000016e+01 6.107319999999999993e+01 2.071809999999999945e+03
3.899999999999999994e-02 2.019894999999999885e-01 1.345230000000000103e+01 6.004569999999999652e+01 2.071505000000000109e+03
4.000000000000000083e-02 2.019579999999999986e-01 1.298659999999999926e+01 5.951055000000000206e+01 2.071295000000000073e+03
4.100000000000000172e-02 2.019469999999999876e-01 1.274259999999999948e+01 5.958334999999999582e+01 2.071204999999999927e+03
4.200000000000000261e-02 2.019569999999999976e-01 1.271294999999999931e+01 6.027170000000000272e+01 2.071255000000000109e+03
4.300000000000000350e-02 2.019885000000000153e-01 1.285709999999999908e+01 6.147535000000000593e+01 2.071445000000000164e+03
4.400000000000000439e-02 2.020355000000000067e-01 1.311129999999999995e+01 6.301044999999999874e+01 2.071735000000000127e+03
4.499999999999999833e-02 2.020925000000000082e-01 1.340115000000000123e+01 6.464795000000000869e+01 2.072095000000000255e+03
4.599999999999999922e-02 2.021509999999999974e-01 1.365480000000000160e+01 6.615664999999999907e+01 2.072470000000000255e+03
4.700000000000000011e-02 2.022019999999999929e-01 1.381305000000000049e+01 6.734064999999999657e+01 2.072804999999999836e+03
4.800000000000000100e-02 2.022415000000000185e-01 1.383535000000000004e+01 6.806374999999999886e+01 2.073065000000000055e+03
4.900000000000000189e-02 2.022634999999999850e-01 1.370159999999999911e+01 6.825985000000000014e+01 2.073215000000000146e+03
5.000000000000000278e-02 2.022660000000000013e-01 1.340939999999999976e+01 6.792834999999999468e+01 2.073244999999999891e+03
5.100000000000000366e-02 2.022504999999999997e-01 1.296975000000000122e+01 6.711920000000000641e+01 2.073150000000000091e+03
5.200000000000000455e-02 2.022169999999999801e-01 1.240104999999999968e+01 6.591239999999999100e+01 2.072944999999999709e+03
5.300000000000000544e-02 2.021689999999999876e-01 1.172433499999999995e+01 6.439855000000000018e+01 2.072644999999999982e+03
5.399999999999999939e-02 2.021089999999999831e-01 1.095949999999999847e+01 6.266284999999999883e+01 2.072260000000000218e+03
5.500000000000000028e-02 2.020394999999999830e-01 1.012429999999999986e+01 6.077655000000000030e+01 2.071815000000000055e+03
5.600000000000000117e-02 2.019635000000000180e-01 9.234270000000000422e+00 5.879500000000000171e+01 2.071319999999999709e+03
5.700000000000000205e-02 2.018820000000000059e-01 8.304714999999999847e+00 5.676179999999999382e+01 2.070795000000000073e+03
5.800000000000000294e-02 2.017980000000000051e-01 7.352529999999999788e+00 5.471545000000000414e+01 2.070255000000000109e+03
5.900000000000000383e-02 2.017130000000000034e-01 6.398109999999999964e+00 5.269724999999999682e+01 2.069699999999999818e+03
6.000000000000000472e-02 2.016284999999999883e-01 5.466590000000000060e+00 5.075730000000000075e+01 2.069154999999999745e+03
6.099999999999999867e-02 2.015480000000000049e-01 4.587805000000000355e+00 4.895774999999999721e+01 2.068635000000000218e+03
6.199999999999999956e-02 2.014734999999999998e-01 3.795360000000000067e+00 4.737205000000000155e+01 2.068144999999999982e+03
6.300000000000000044e-02 2.014090000000000047e-01 3.124775000000000080e+00 4.608174999999999955e+01 2.067720000000000255e+03
6.400000000000000133e-02 2.013575000000000226e-01 2.611009999999999831e+00 4.516984999999999673e+01 2.067375000000000000e+03
6.500000000000000222e-02 2.013214999999999866e-01 2.285935000000000272e+00 4.471399999999999864e+01 2.067130000000000109e+03
6.600000000000000311e-02 2.013050000000000117e-01 2.175904999999999756e+00 4.477915000000000134e+01 2.067010000000000218e+03
6.700000000000000400e-02 2.013099999999999890e-01 2.299929999999999808e+00 4.541185000000000116e+01 2.067024999999999636e+03
6.800000000000000488e-02 2.013380000000000170e-01 2.668490000000000251e+00 4.663629999999999853e+01 2.067194999999999709e+03
6.900000000000000577e-02 2.013905000000000001e-01 3.283070000000000377e+00 4.845289999999999964e+01 2.067510000000000218e+03
7.000000000000000666e-02 2.014670000000000072e-01 4.136435000000000528e+00 5.083870000000000289e+01 2.067989999999999782e+03
7.100000000000000755e-02 2.015665000000000096e-01 5.213435000000000485e+00 5.375010000000000332e+01 2.068614999999999782e+03
7.200000000000000844e-02 2.016874999999999918e-01 6.492304999999999993e+00 5.712669999999999959e+01 2.069380000000000109e+03
7.300000000000000933e-02 2.018274999999999930e-01 7.946215000000000472e+00 6.089619999999999322e+01 2.070274999999999636e+03
7.399999999999999634e-02 2.019834999999999825e-01 9.545154999999999390e+00 6.497950000000000159e+01 2.071279999999999745e+03
7.499999999999999722e-02 2.021529999999999994e-01 1.125752499999999934e+01 6.929644999999999300e+01 2.072375000000000000e+03
7.599999999999999811e-02 2.023329999999999851e-01 1.305222000000000016e+01 7.377055000000000007e+01 2.073534999999999854e+03
7.699999999999999900e-02 2.025200000000000056e-01 1.489995000000000047e+01 7.833329999999999416e+01 2.074744999999999891e+03
7.799999999999999989e-02 2.027114999999999889e-01 1.677435000000000187e+01 8.292764999999999986e+01 2.075994999999999891e+03
7.900000000000000078e-02 2.029050000000000020e-01 1.865340000000000131e+01 8.750960000000000605e+01 2.077260000000000218e+03
8.000000000000000167e-02 2.031000000000000028e-01 2.051914999999999978e+01 9.204910000000000991e+01 2.078534999999999854e+03
8.100000000000000255e-02 2.032940000000000025e-01 2.235804999999999865e+01 9.652920000000000300e+01 2.079809999999999945e+03
8.200000000000000344e-02 2.034870000000000012e-01 2.416049999999999898e+01 1.009440000000000026e+02 2.081079999999999927e+03
8.300000000000000433e-02 2.036784999999999846e-01 2.591995000000000005e+01 1.052952500000000100e+02 2.082335000000000036e+03
8.400000000000000522e-02 2.038679999999999937e-01 2.763200000000000145e+01 1.095900000000000034e+02 2.083590000000000146e+03
8.500000000000000611e-02 2.040555000000000008e-01 2.929380000000000095e+01 1.138365000000000009e+02 2.084829999999999927e+03
8.600000000000000699e-02 2.042420000000000069e-01 3.090294999999999703e+01 1.180405000000000086e+02 2.086069999999999709e+03
8.700000000000000788e-02 2.044269999999999976e-01 3.245704999999999529e+01 1.222079999999999984e+02 2.087295000000000073e+03
8.800000000000000877e-02 2.046105000000000007e-01 3.395324999999999704e+01 1.263365000000000009e+02 2.088515000000000327e+03
8.899999999999999578e-02 2.047924999999999884e-01 3.538835000000000264e+01 1.304209999999999923e+02 2.089724999999999909e+03
8.999999999999999667e-02 2.049725000000000019e-01 3.675830000000000553e+01 1.344515000000000100e+02 2.090925000000000182e+03
9.099999999999999756e-02 2.051499999999999990e-01 3.805915000000000248e+01 1.384144999999999754e+02 2.092105000000000018e+03
9.199999999999999845e-02 2.053245000000000209e-01 3.928624999999999545e+01 1.422950000000000159e+02 2.093275000000000091e+03
9.299999999999999933e-02 2.054960000000000120e-01 4.043509999999999849e+01 1.460760000000000218e+02 2.094414999999999964e+03
9.400000000000000022e-02 2.056629999999999847e-01 4.150124999999999886e+01 1.497400000000000091e+02 2.095539999999999964e+03
9.500000000000000111e-02 2.058249999999999802e-01 4.248014999999999475e+01 1.532694999999999936e+02 2.096619999999999891e+03
9.600000000000000200e-02 2.059809999999999974e-01 4.336744999999999806e+01 1.566485000000000127e+02 2.097670000000000073e+03
9.700000000000000289e-02 2.061310000000000087e-01 4.415865000000000151e+01 1.598594999999999970e+02 2.098675000000000182e+03
9.800000000000000377e-02 2.062734999999999985e-01 4.484945000000000448e+01 1.628865000000000123e+02 2.099635000000000218e+03
9.900000000000000466e-02 2.064079999999999804e-01 4.543540000000000134e+01 1.657139999999999986e+02 2.100539999999999964e+03
1.000000000000000056e-01 2.065339999999999954e-01 4.591259999999999764e+01 1.683254999999999768e+02 2.101394999999999982e+03
1.010000000000000064e-01 2.066509999999999736e-01 4.627740000000000009e+01 1.707079999999999984e+02 2.102185000000000400e+03
1.020000000000000073e-01 2.067574999999999830e-01 4.652729999999999677e+01 1.728485000000000014e+02 2.102909999999999854e+03
1.030000000000000082e-01 2.068544999999999967e-01 4.666055000000000064e+01 1.747395000000000209e+02 2.103569999999999709e+03
1.040000000000000091e-01 2.069404999999999994e-01 4.667725000000000080e+01 1.763735000000000070e+02 2.104154999999999745e+03
1.050000000000000100e-01 2.070155000000000189e-01 4.657909999999999684e+01 1.777520000000000095e+02 2.104670000000000073e+03
1.059999999999999970e-01 2.070794999999999997e-01 4.636984999999999957e+01 1.788790000000000191e+02 2.105109999999999673e+03
1.069999999999999979e-01 2.071330000000000116e-01 4.605514999999999759e+01 1.797630000000000052e+02 2.105475000000000364e+03
1.079999999999999988e-01 2.071764999999999857e-01 4.564260000000000161e+01 1.804205000000000041e+02 2.105779999999999745e+03
1.089999999999999997e-01 2.072105000000000197e-01 4.514159999999999684e+01 1.808709999999999809e+02 2.106015000000000327e+03
1.100000000000000006e-01 2.072350000000000025e-01 4.456274999999999409e+01 1.811359999999999957e+02 2.106190000000000055e+03
1.110000000000000014e-01 2.072519999999999918e-01 4.391779999999999973e+01 1.812420000000000186e+02 2.106315000000000055e+03
1.120000000000000023e-01 2.072614999999999874e-01 4.321880000000000166e+01 1.812164999999999964e+02 2.106390000000000327e+03
1.130000000000000032e-01 2.072665000000000202e-01 4.247794999999999987e+01 1.810840000000000032e+02 2.106425000000000182e+03
1.140000000000000041e-01 2.072654999999999914e-01 4.170720000000000027e+01 1.808714999999999975e+02 2.106425000000000182e+03
1.150000000000000050e-01 2.072610000000000008e-01 4.091754999999999853e+01 1.806019999999999754e+02 2.106399999999999636e+03
1.160000000000000059e-01 2.072534999999999794e-01 4.011905000000000143e+01 1.802950000000000159e+02 2.106355000000000018e+03
1.170000000000000068e-01 2.072444999999999982e-01 3.932039999999999935e+01 1.799669999999999845e+02 2.106295000000000073e+03
1.180000000000000077e-01 2.072340000000000015e-01 3.852875000000000227e+01 1.796320000000000050e+02 2.106224999999999909e+03
1.190000000000000085e-01 2.072225000000000039e-01 3.774965000000000259e+01 1.792980000000000018e+02 2.106150000000000091e+03
1.200000000000000094e-01 2.072104999999999919e-01 3.698699999999999477e+01 1.789699999999999989e+02 2.106065000000000055e+03
1.209999999999999964e-01 2.071979999999999933e-01 3.624290000000000589e+01 1.786499999999999773e+02 2.105985000000000127e+03
1.219999999999999973e-01 2.071859999999999813e-01 3.551805000000000234e+01 1.783344999999999914e+02 2.105899999999999636e+03
1.229999999999999982e-01 2.071729999999999960e-01 3.481135000000000446e+01 1.780190000000000055e+02 2.105815000000000055e+03
1.239999999999999991e-01 2.071600000000000108e-01 3.412069999999999936e+01 1.776945000000000050e+02 2.105719999999999800e+03
1.250000000000000000e-01 2.071465000000000112e-01 3.344265000000000043e+01 1.773505000000000109e+02 2.105625000000000000e+03
1.260000000000000009e-01 2.071315000000000239e-01 3.277304999999999779e+01 1.769764999999999873e+02 2.105529999999999745e+03
1.270000000000000018e-01 2.071144999999999792e-01 3.210719999999999885e+01 1.765600000000000023e+02 2.105414999999999964e+03
1.280000000000000027e-01 2.070965000000000167e-01 3.144000000000000128e+01 1.760875000000000057e+02 2.105289999999999964e+03
1.290000000000000036e-01 2.070755000000000234e-01 3.076664999999999850e+01 1.755489999999999782e+02 2.105144999999999982e+03
1.300000000000000044e-01 2.070514999999999994e-01 3.008254999999999768e+01 1.749329999999999927e+02 2.104989999999999782e+03
1.310000000000000053e-01 2.070239999999999858e-01 2.938385000000000247e+01 1.742319999999999993e+02 2.104804999999999836e+03
1.320000000000000062e-01 2.069940000000000113e-01 2.866750000000000043e+01 1.734404999999999859e+02 2.104599999999999909e+03
1.330000000000000071e-01 2.069590000000000041e-01 2.793169999999999931e+01 1.725559999999999832e+02 2.104369999999999891e+03
1.340000000000000080e-01 2.069205000000000072e-01 2.717595000000000027e+01 1.715799999999999841e+02 2.104114999999999782e+03
1.350000000000000089e-01 2.068784999999999930e-01 2.640099999999999980e+01 1.705160000000000196e+02 2.103835000000000036e+03
1.360000000000000098e-01 2.068329999999999891e-01 2.560909999999999798e+01 1.693734999999999786e+02 2.103529999999999745e+03
1.370000000000000107e-01 2.067839999999999956e-01 2.480389999999999873e+01 1.681624999999999943e+02 2.103204999999999927e+03
1.380000000000000115e-01 2.067319999999999991e-01 2.399034999999999940e+01 1.668985000000000127e+02 2.102860000000000127e+03
1.390000000000000124e-01 2.066779999999999728e-01 2.317425000000000068e+01 1.655974999999999966e+02 2.102500000000000000e+03
1.400000000000000133e-01 2.066230000000000011e-01 2.236260000000000048e+01 1.642785000000000082e+02 2.102135000000000218e+03
1.410000000000000142e-01 2.065664999999999862e-01 2.156269999999999953e+01 1.629610000000000127e+02 2.101760000000000218e+03
1.420000000000000151e-01 2.065104999999999857e-01 2.078200000000000003e+01 1.616650000000000205e+02 2.101380000000000109e+03
1.430000000000000160e-01 2.064555000000000140e-01 2.002795000000000059e+01 1.604099999999999966e+02 2.101010000000000218e+03
1.440000000000000169e-01 2.064015000000000155e-01 1.930750000000000099e+01 1.592125000000000057e+02 2.100650000000000091e+03
1.450000000000000178e-01 2.063510000000000066e-01 1.862685000000000102e+01 1.580869999999999891e+02 2.100309999999999945e+03
1.459999999999999909e-01 2.063019999999999854e-01 1.799105000000000132e+01 1.570475000000000136e+02 2.099985000000000127e+03
1.469999999999999918e-01 2.062575000000000103e-01 1.740409999999999968e+01 1.561020000000000039e+02 2.099684999999999945e+03
1.479999999999999927e-01 2.062164999999999970e-01 1.686874999999999858e+01 1.552560000000000002e+02 2.099400000000000091e+03
1.489999999999999936e-01 2.061790000000000012e-01 1.638629999999999853e+01 1.545120000000000005e+02 2.099144999999999982e+03
1.499999999999999944e-01 2.061459999999999959e-01 1.595680000000000121e+01 1.538679999999999950e+02 2.098920000000000073e+03
1.509999999999999953e-01 2.061169999999999947e-01 1.557910000000000039e+01 1.533209999999999980e+02 2.098725000000000364e+03
1.519999999999999962e-01 2.060919999999999974e-01 1.525109999999999921e+01 1.528645000000000209e+02 2.098555000000000291e+03
1.529999999999999971e-01 2.060710000000000042e-01 1.496959999999999980e+01 1.524904999999999973e+02 2.098404999999999745e+03
1.539999999999999980e-01 2.060524999999999995e-01 1.473094999999999999e+01 1.521889999999999930e+02 2.098284999999999854e+03
1.549999999999999989e-01 2.060379999999999989e-01 1.453085000000000093e+01 1.519510000000000218e+02 2.098175000000000182e+03
1.559999999999999998e-01 2.060255000000000003e-01 1.436465000000000103e+01 1.517649999999999864e+02 2.098090000000000146e+03
1.570000000000000007e-01 2.060155000000000181e-01 1.422765000000000057e+01 1.516214999999999975e+02 2.098025000000000091e+03
1.580000000000000016e-01 2.060075000000000101e-01 1.411514999999999986e+01 1.515104999999999791e+02 2.097960000000000036e+03
1.590000000000000024e-01 2.060005000000000031e-01 1.402254999999999896e+01 1.514234999999999900e+02 2.097914999999999964e+03
