# t [s], A [cm^2], U [cm/s], P [cPa], c [cm/s]
1.000000000000000021e-03 4.601034999999999986e-01 2.845599999999996743e-03 1.048344999999999914e+02 1.498599999999999909e+03
2.000000000000000042e-03 4.600980000000000070e-01 2.989290000000000350e-03 1.048174999999999955e+02 1.498594999999999800e+03
3.000000000000000062e-03 4.601385000000000058e-01 9.178319999999998147e-02 1.049039999999999964e+02 1.498625000000000000e+03
4.000000000000000083e-03 4.601750000000000007e-01 1.753742500000000093e-01 1.050079999999999956e+02 1.498659999999999854e+03
5.000000000000000104e-03 4.601640000000000175e-01 1.560326499999999950e-01 1.049774999999999920e+02 1.498655000000000200e+03
6.000000000000000125e-03 4.601250000000000062e-01 7.081949999999997969e-02 1.048110000000000070e+02 1.498615000000000009e+03
7.000000000000000146e-03 4.600854999999999806e-01 -2.244749999999995360e-02 1.045685000000000002e+02 1.498554999999999836e+03
8.000000000000000167e-03 4.600255000000000316e-01 -1.671369999999999800e-01 1.042100000000000080e+02 1.498465000000000146e+03
9.000000000000001055e-03 4.599229999999999707e-01 -4.161850000000001382e-01 1.036580000000000013e+02 1.498319999999999936e+03
1.000000000000000194e-02 4.597740000000000160e-01 -7.765400000000000080e-01 1.028675000000000068e+02 1.498119999999999891e+03
1.099999999999999936e-02 4.595685000000000464e-01 -1.255239999999999689e+00 1.017964000000000055e+02 1.497825000000000045e+03
1.200000000000000025e-02 4.592975000000000252e-01 -1.859535000000000160e+00 1.003997999999999990e+02 1.497440000000000055e+03
1.300000000000000114e-02 4.589674999999999727e-01 -2.552604999999999791e+00 9.868559999999999377e+01 1.496960000000000036e+03
1.400000000000000203e-02 4.586105000000000320e-01 -3.236995000000000289e+00 9.674859999999999616e+01 1.496389999999999873e+03
1.499999999999999944e-02 4.582669999999999799e-01 -3.788020000000000387e+00 9.475000000000000000e+01 1.495789999999999964e+03
1.600000000000000033e-02 4.579705000000000026e-01 -4.104796499999999959e+00 9.285245000000000459e+01 1.495190000000000055e+03
1.700000000000000122e-02 4.577320000000000277e-01 -4.143144000000000382e+00 9.116774999999999807e+01 1.494625000000000000e+03
1.800000000000000211e-02 4.575424999999999631e-01 -3.919776950000000149e+00 8.972905000000000086e+01 1.494099999999999909e+03
1.900000000000000300e-02 4.573789999999999800e-01 -3.495541049999999927e+00 8.849674999999999159e+01 1.493634999999999991e+03
2.000000000000000042e-02 4.572154999999999969e-01 -2.949445499999999942e+00 8.738389999999999702e+01 1.493190000000000055e+03
2.100000000000000130e-02 4.570309999999999651e-01 -2.352998000000000367e+00 8.629099999999999682e+01 1.492755000000000109e+03
2.200000000000000219e-02 4.568134999999999835e-01 -1.751984999999999904e+00 8.513765000000000782e+01 1.492305000000000064e+03
2.299999999999999961e-02 4.565640000000000254e-01 -1.160309999999999953e+00 8.388245000000000573e+01 1.491839999999999918e+03
2.400000000000000050e-02 4.562920000000000309e-01 -5.664849999999999053e-01 8.252625000000000455e+01 1.491345000000000027e+03
2.500000000000000139e-02 4.560089999999999977e-01 5.135500000000003951e-02 8.109895000000000209e+01 1.490829999999999927e+03
2.600000000000000228e-02 4.557255000000000056e-01 7.088299999999998491e-01 7.963835000000000264e+01 1.490299999999999955e+03
2.700000000000000316e-02 4.554440000000000155e-01 1.403239999999999821e+00 7.817019999999999413e+01 1.489764999999999873e+03
2.800000000000000058e-02 4.551600000000000090e-01 2.109094999999999942e+00 7.669459999999999411e+01 1.489230000000000018e+03
2.900000000000000147e-02 4.548625000000000029e-01 2.781144999999999534e+00 7.518264999999999532e+01 1.488674999999999955e+03
3.000000000000000236e-02 4.545369999999999688e-01 3.363050000000000317e+00 7.358240000000000691e+01 1.488099999999999909e+03
3.099999999999999978e-02 4.541695000000000038e-01 3.798994999999999678e+00 7.183135000000000048e+01 1.487485000000000127e+03
3.200000000000000067e-02 4.537499999999999867e-01 4.045460000000000278e+00 6.987274999999999636e+01 1.486820000000000164e+03
3.300000000000000155e-02 4.532760000000000122e-01 4.080584999999999241e+00 6.767185000000000628e+01 1.486085000000000036e+03
3.400000000000000244e-02 4.527514999999999734e-01 3.909200000000000230e+00 6.522769999999999868e+01 1.485285000000000082e+03
3.500000000000000333e-02 4.521910000000000096e-01 3.562050000000000161e+00 6.257840000000000202e+01 1.484429999999999836e+03
3.600000000000000422e-02 4.516140000000000154e-01 3.090574999999999850e+00 5.979809999999999803e+01 1.483534999999999854e+03
3.700000000000000511e-02 4.510440000000000005e-01 2.558234999999999815e+00 5.698825000000000074e+01 1.482619999999999891e+03
3.799999999999999906e-02 4.505035000000000012e-01 2.031084999999999585e+00 5.426449999999999818e+01 1.481724999999999909e+03
3.899999999999999994e-02 4.500150000000000539e-01 1.569890000000000008e+00 5.174304999999999666e+01 1.480875000000000000e+03
4.000000000000000083e-02 4.495949999999999669e-01 1.224650000000000460e+00 4.952899999999999636e+01 1.480110000000000127e+03
4.100000000000000172e-02 4.492559999999999887e-01 1.031734999999999847e+00 4.770759999999999934e+01 1.479444999999999936e+03
4.200000000000000261e-02 4.490055000000000573e-01 1.014219999999999899e+00 4.634035000000000082e+01 1.478914999999999964e+03
4.300000000000000350e-02 4.488484999999999836e-01 1.183729999999999727e+00 4.546365000000000123e+01 1.478529999999999973e+03
4.400000000000000439e-02 4.487835000000000019e-01 1.543428000000000022e+00 4.509189999999999543e+01 1.478299999999999955e+03
4.499999999999999833e-02 4.488094999999999724e-01 2.091155000000000097e+00 4.522119999999999607e+01 1.478224999999999909e+03
4.599999999999999922e-02 4.489225000000000021e-01 2.821969999999999867e+00 4.583469999999999800e+01 1.478309999999999945e+03
4.700000000000000011e-02 4.491184999999999761e-01 3.729643999999999959e+00 4.690684999999999860e+01 1.478545000000000073e+03
4.800000000000000100e-02 4.493920000000000137e-01 4.807066500000000353e+00 4.840690000000000026e+01 1.478924999999999955e+03
4.900000000000000189e-02 4.497375000000000123e-01 6.045676499999999898e+00 5.030055000000000121e+01 1.479434999999999945e+03
5.000000000000000278e-02 4.501494999999999802e-01 7.434439999999999493e+00 5.255084999999999695e+01 1.480069999999999936e+03
5.100000000000000366e-02 4.506195000000000617e-01 8.958814999999999529e+00 5.511759999999999593e+01 1.480829999999999927e+03
5.200000000000000455e-02 4.511404999999999998e-01 1.060025000000000084e+01 5.795730000000000359e+01 1.481680000000000064e+03
5.300000000000000544e-02 4.517025000000000068e-01 1.233603000000000094e+01 6.102289999999999992e+01 1.482610000000000127e+03
5.399999999999999939e-02 4.522964999999999902e-01 1.413996000000000031e+01 6.426444999999999652e+01 1.483619999999999891e+03
5.500000000000000028e-02 4.529125000000000512e-01 1.598384499999999875e+01 6.763039999999999452e+01 1.484680000000000064e+03
5.600000000000000117e-02 4.535399999999999432e-01 1.783890500000000046e+01 7.106945000000000334e+01 1.485779999999999973e+03
5.700000000000000205e-02 4.541704999999999770e-01 1.967755000000000010e+01 7.453275000000000716e+01 1.486910000000000082e+03
5.800000000000000294e-02 4.547959999999999781e-01 2.147500000000000142e+01 7.797639999999999816e+01 1.488035000000000082e+03
5.900000000000000383e-02 4.554104999999999959e-01 2.321030000000000015e+01 8.136329999999999529e+01 1.489170000000000073e+03
6.000000000000000472e-02 4.560089999999999977e-01 2.486730000000000018e+01 8.466464999999999463e+01 1.490284999999999854e+03
6.099999999999999867e-02 4.565890000000000226e-01 2.643500000000000227e+01 8.786105000000000587e+01 1.491380000000000109e+03
6.199999999999999956e-02 4.571505000000000152e-01 2.790715000000000146e+01 9.094190000000000396e+01 1.492445000000000164e+03
6.300000000000000044e-02 4.576930000000000165e-01 2.928229999999999933e+01 9.390670000000000073e+01 1.493485000000000127e+03
6.400000000000000133e-02 4.582174999999999998e-01 3.056275000000000119e+01 9.676165000000000305e+01 1.494494999999999891e+03
6.500000000000000222e-02 4.587284999999999835e-01 3.175359999999999872e+01 9.951885000000000048e+01 1.495474999999999909e+03
6.600000000000000311e-02 4.592279999999999696e-01 3.286249999999999716e+01 1.021954999999999956e+02 1.496429999999999836e+03
6.700000000000000400e-02 4.597204999999999764e-01 3.389820000000000277e+01 1.048121999999999900e+02 1.497369999999999891e+03
6.800000000000000488e-02 4.602089999999999792e-01 3.487010000000000076e+01 1.073890000000000100e+02 1.498295000000000073e+03
6.900000000000000577e-02 4.606959999999999944e-01 3.578735000000000355e+01 1.099465000000000003e+02 1.499210000000000036e+03
7.000000000000000666e-02 4.611865000000000547e-01 3.665840000000000032e+01 1.125010000000000048e+02 1.500125000000000000e+03
7.100000000000000755e-02 4.616804999999999937e-01 3.749030000000000484e+01 1.150674999999999955e+02 1.501039999999999964e+03
7.200000000000000844e-02 4.621804999999999941e-01 3.828815000000000168e+01 1.176555000000000035e+02 1.501960000000000036e+03
7.300000000000000933e-02 4.626865000000000006e-01 3.905499999999999972e+01 1.202690000000000055e+02 1.502889999999999873e+03
7.399999999999999634e-02 4.631969999999999699e-01 3.979149999999999920e+01 1.229059999999999917e+02 1.503825000000000045e+03
7.499999999999999722e-02 4.637099999999999556e-01 4.049590000000000600e+01 1.255584999999999951e+02 1.504759999999999991e+03
7.599999999999999811e-02 4.642239999999999700e-01 4.116400000000000148e+01 1.282144999999999868e+02 1.505700000000000045e+03
7.699999999999999900e-02 4.647339999999999804e-01 4.178985000000000127e+01 1.308549999999999898e+02 1.506639999999999873e+03
7.799999999999999989e-02 4.652364999999999973e-01 4.236580000000000013e+01 1.334594999999999914e+02 1.507565000000000055e+03
7.900000000000000078e-02 4.657264999999999877e-01 4.288299999999999557e+01 1.360039999999999907e+02 1.508474999999999909e+03
8.000000000000000167e-02 4.661994999999999889e-01 4.333239999999999981e+01 1.384615000000000009e+02 1.509364999999999782e+03
8.100000000000000255e-02 4.666500000000000092e-01 4.370475000000000421e+01 1.408070000000000164e+02 1.510220000000000027e+03
8.200000000000000344e-02 4.670739999999999892e-01 4.399170000000000158e+01 1.430160000000000196e+02 1.511029999999999973e+03
8.300000000000000433e-02 4.674684999999999535e-01 4.418580000000000041e+01 1.450670000000000073e+02 1.511795000000000073e+03
8.400000000000000522e-02 4.678289999999999949e-01 4.428140000000000498e+01 1.469410000000000025e+02 1.512500000000000000e+03
8.500000000000000611e-02 4.681540000000000146e-01 4.427445000000000164e+01 1.486229999999999905e+02 1.513150000000000091e+03
8.600000000000000699e-02 4.684415000000000107e-01 4.416320000000000334e+01 1.501034999999999968e+02 1.513730000000000018e+03
8.700000000000000788e-02 4.686910000000000243e-01 4.394795000000000584e+01 1.513779999999999859e+02 1.514244999999999891e+03
8.800000000000000877e-02 4.689020000000000410e-01 4.363119999999999976e+01 1.524459999999999980e+02 1.514690000000000055e+03
8.899999999999999578e-02 4.690765000000000073e-01 4.321775000000000233e+01 1.533125000000000000e+02 1.515065000000000055e+03
8.999999999999999667e-02 4.692160000000000220e-01 4.271399999999999864e+01 1.539859999999999900e+02 1.515375000000000000e+03
9.099999999999999756e-02 4.693230000000000457e-01 4.212834999999999752e+01 1.544805000000000064e+02 1.515625000000000000e+03
9.199999999999999845e-02 4.694004999999999983e-01 4.147064999999999912e+01 1.548120000000000118e+02 1.515809999999999945e+03
9.299999999999999933e-02 4.694515000000000216e-01 4.075185000000000457e+01 1.549989999999999952e+02 1.515945000000000164e+03
9.400000000000000022e-02 4.694800000000000084e-01 3.998359999999999559e+01 1.550625000000000000e+02 1.516030000000000200e+03
9.500000000000000111e-02 4.694905000000000328e-01 3.917810000000000059e+01 1.550240000000000009e+02 1.516074999999999818e+03
9.600000000000000200e-02 4.694859999999999589e-01 3.834750000000000369e+01 1.549050000000000011e+02 1.516090000000000146e+03
9.700000000000000289e-02 4.694710000000000272e-01 3.750350000000000250e+01 1.547269999999999754e+02 1.516075000000000045e+03
9.800000000000000377e-02 4.694490000000000052e-01 3.665725000000000477e+01 1.545105000000000075e+02 1.516034999999999854e+03
9.900000000000000466e-02 4.694224999999999648e-01 3.581860000000000355e+01 1.542729999999999961e+02 1.515985000000000127e+03
1.000000000000000056e-01 4.693944999999999923e-01 3.499600000000000222e+01 1.540294999999999845e+02 1.515924999999999955e+03
1.010000000000000064e-01 4.693674999999999931e-01 3.419639999999999702e+01 1.537930000000000064e+02 1.515865000000000009e+03
1.020000000000000073e-01 4.693424999999999958e-01 3.342470000000000141e+01 1.535724999999999909e+02 1.515799999999999955e+03
1.030000000000000082e-01 4.693205000000000293e-01 3.268390000000000128e+01 1.533739999999999952e+02 1.515740000000000009e+03
1.040000000000000091e-01 4.693014999999999826e-01 3.197514999999999930e+01 1.531990000000000123e+02 1.515680000000000064e+03
1.050000000000000100e-01 4.692850000000000077e-01 3.129765000000000086e+01 1.530469999999999970e+02 1.515625000000000000e+03
1.059999999999999970e-01 4.692709999999999937e-01 3.064894999999999925e+01 1.529130000000000109e+02 1.515579999999999927e+03
1.069999999999999979e-01 4.692565000000000208e-01 3.002510000000000190e+01 1.527900000000000205e+02 1.515529999999999973e+03
1.079999999999999988e-01 4.692414999999999781e-01 2.942110000000000269e+01 1.526700000000000159e+02 1.515485000000000127e+03
1.089999999999999997e-01 4.692224999999999868e-01 2.883109999999999928e+01 1.525414999999999850e+02 1.515440000000000055e+03
1.100000000000000006e-01 4.691990000000000327e-01 2.824855000000000160e+01 1.523930000000000007e+02 1.515384999999999991e+03
1.110000000000000014e-01 4.691675000000000151e-01 2.766720000000000113e+01 1.522135000000000105e+02 1.515320000000000164e+03
1.120000000000000023e-01 4.691269999999999607e-01 2.708070000000000022e+01 1.519915000000000020e+02 1.515240000000000009e+03
1.130000000000000032e-01 4.690759999999999930e-01 2.648329999999999984e+01 1.517175000000000011e+02 1.515150000000000091e+03
1.140000000000000041e-01 4.690124999999999988e-01 2.587024999999999864e+01 1.513830000000000098e+02 1.515039999999999964e+03
1.150000000000000050e-01 4.689355000000000606e-01 2.523754999999999882e+01 1.509809999999999945e+02 1.514914999999999964e+03
1.160000000000000059e-01 4.688444999999999974e-01 2.458270000000000266e+01 1.505095000000000027e+02 1.514759999999999991e+03
1.170000000000000068e-01 4.687405000000000044e-01 2.390444999999999709e+01 1.499644999999999868e+02 1.514585000000000036e+03
1.180000000000000077e-01 4.686230000000000118e-01 2.320295000000000130e+01 1.493499999999999943e+02 1.514389999999999873e+03
1.190000000000000085e-01 4.684935000000000072e-01 2.247979999999999734e+01 1.486675000000000182e+02 1.514170000000000073e+03
1.200000000000000094e-01 4.683519999999999905e-01 2.173809999999999931e+01 1.479259999999999877e+02 1.513929999999999836e+03
1.209999999999999964e-01 4.682024999999999659e-01 2.098199999999999932e+01 1.471324999999999932e+02 1.513670000000000073e+03
1.219999999999999973e-01 4.680455000000000032e-01 2.021689999999999898e+01 1.462990000000000066e+02 1.513394999999999982e+03
1.229999999999999982e-01 4.678844999999999810e-01 1.944919999999999760e+01 1.454375000000000000e+02 1.513109999999999900e+03
1.239999999999999991e-01 4.677215000000000122e-01 1.868590000000000018e+01 1.445614999999999952e+02 1.512819999999999936e+03
1.250000000000000000e-01 4.675584999999999880e-01 1.793440000000000012e+01 1.436854999999999905e+02 1.512519999999999982e+03
1.260000000000000009e-01 4.673995000000000233e-01 1.720240000000000080e+01 1.428245000000000005e+02 1.512224999999999909e+03
1.270000000000000018e-01 4.672459999999999392e-01 1.649725000000000108e+01 1.419915000000000020e+02 1.511940000000000055e+03
1.280000000000000027e-01 4.671015000000000583e-01 1.582620000000000005e+01 1.412005000000000052e+02 1.511659999999999854e+03
1.290000000000000036e-01 4.669670000000000210e-01 1.519565000000000055e+01 1.404635000000000105e+02 1.511400000000000091e+03
1.300000000000000044e-01 4.668449999999999545e-01 1.461105000000000054e+01 1.397895000000000039e+02 1.511154999999999973e+03
1.310000000000000053e-01 4.667364999999999986e-01 1.407701499999999939e+01 1.391884999999999764e+02 1.510934999999999945e+03
1.320000000000000062e-01 4.666420000000000012e-01 1.359669500000000042e+01 1.386645000000000039e+02 1.510730000000000018e+03
1.330000000000000071e-01 4.665635000000000199e-01 1.317217000000000127e+01 1.382219999999999800e+02 1.510554999999999836e+03
1.340000000000000080e-01 4.664995000000000114e-01 1.280404000000000053e+01 1.378619999999999948e+02 1.510405000000000200e+03
1.350000000000000089e-01 4.664499999999999758e-01 1.249157500000000098e+01 1.375825000000000102e+02 1.510285000000000082e+03
1.360000000000000098e-01 4.664150000000000240e-01 1.223300000000000054e+01 1.373799999999999955e+02 1.510184999999999945e+03
1.370000000000000107e-01 4.663920000000000288e-01 1.202529000000000003e+01 1.372489999999999952e+02 1.510115000000000009e+03
1.380000000000000115e-01 4.663804999999999756e-01 1.186454499999999967e+01 1.371820000000000164e+02 1.510065000000000055e+03
1.390000000000000124e-01 4.663784999999999736e-01 1.174619000000000035e+01 1.371705000000000041e+02 1.510034999999999854e+03
1.400000000000000133e-01 4.663844999999999796e-01 1.166497000000000028e+01 1.372060000000000173e+02 1.510019999999999982e+03
1.410000000000000142e-01 4.663964999999999916e-01 1.161543500000000151e+01 1.372779999999999916e+02 1.510014999999999873e+03
1.420000000000000151e-01 4.664130000000000220e-01 1.159205000000000041e+01 1.373774999999999977e+02 1.510029999999999973e+03
1.430000000000000160e-01 4.664329999999999865e-01 1.158930000000000149e+01 1.374939999999999998e+02 1.510050000000000182e+03
1.440000000000000169e-01 4.664534999999999654e-01 1.160184999999999889e+01 1.376204999999999927e+02 1.510074999999999818e+03
1.450000000000000178e-01 4.664734999999999854e-01 1.162495000000000012e+01 1.377479999999999905e+02 1.510109999999999900e+03
1.459999999999999909e-01 4.664930000000000465e-01 1.165419999999999945e+01 1.378714999999999975e+02 1.510139999999999873e+03
1.469999999999999918e-01 4.665105000000000501e-01 1.168585000000000029e+01 1.379844999999999970e+02 1.510170000000000073e+03
1.479999999999999927e-01 4.665254999999999819e-01 1.171679999999999922e+01 1.380829999999999984e+02 1.510195000000000164e+03
1.489999999999999936e-01 4.665374999999999939e-01 1.174459999999999837e+01 1.381659999999999968e+02 1.510220000000000027e+03
1.499999999999999944e-01 4.665465000000000306e-01 1.176730000000000054e+01 1.382309999999999945e+02 1.510240000000000009e+03
1.509999999999999953e-01 4.665520000000000223e-01 1.178385000000000105e+01 1.382780000000000200e+02 1.510255000000000109e+03
1.519999999999999962e-01 4.665544999999999831e-01 1.179345499999999980e+01 1.383075000000000045e+02 1.510264999999999873e+03
1.529999999999999971e-01 4.665549999999999975e-01 1.179611000000000054e+01 1.383224999999999909e+02 1.510275000000000091e+03
1.539999999999999980e-01 4.665529999999999955e-01 1.179202000000000083e+01 1.383240000000000123e+02 1.510280000000000200e+03
1.549999999999999989e-01 4.665500000000000203e-01 1.178194500000000033e+01 1.383159999999999741e+02 1.510275000000000091e+03
1.559999999999999998e-01 4.665454999999999464e-01 1.176679999999999993e+01 1.383000000000000114e+02 1.510275000000000091e+03
1.570000000000000007e-01 4.665409999999999835e-01 1.174774999999999991e+01 1.382799999999999727e+02 1.510269999999999982e+03
1.580000000000000016e-01 4.665369999999999795e-01 1.172600500000000068e+01 1.382595000000000027e+02 1.510264999999999873e+03
1.590000000000000024e-01 4.665329999999999755e-01 1.170301500000000061e+01 1.382404999999999973e+02 1.510259999999999991e+03
