# t [s], A [cm^2], U [cm/s], P [cPa], c [cm/s]
1.000000000000000021e-03 1.651154999999999984e-01 2.482945000000000291e-01 9.948829999999999529e+01 1.850014999999999873e+03
2.000000000000000042e-03 1.650840000000000085e-01 1.754475999999999924e+00 9.661565000000000225e+01 1.849740000000000009e+03
3.000000000000000062e-03 1.649694999999999911e-01 3.632360499999999881e+00 9.273425000000000296e+01 1.848829999999999927e+03
4.000000000000000083e-03 1.648000000000000020e-01 5.727305134999999936e+00 8.830510000000001014e+01 1.847494999999999891e+03
5.000000000000000104e-03 1.646050000000000013e-01 7.984160000000000146e+00 8.406460000000001287e+01 1.845974999999999909e+03
6.000000000000000125e-03 1.644065000000000110e-01 1.029452000000000034e+01 8.042695000000000505e+01 1.844444999999999936e+03
7.000000000000000146e-03 1.642175000000000162e-01 1.248982499999999973e+01 7.738720000000000709e+01 1.843005000000000109e+03
8.000000000000000167e-03 1.640400000000000191e-01 1.443183000000000149e+01 7.473205000000000098e+01 1.841674999999999955e+03
9.000000000000001055e-03 1.638775000000000093e-01 1.608970000000000056e+01 7.235474999999999568e+01 1.840474999999999909e+03
1.000000000000000194e-02 1.637329999999999897e-01 1.749515000000000242e+01 7.029954999999999643e+01 1.839430000000000064e+03
1.099999999999999936e-02 1.636094999999999910e-01 1.867409999999999926e+01 6.860660000000000025e+01 1.838539999999999964e+03
1.200000000000000025e-02 1.635064999999999991e-01 1.964134999999999920e+01 6.725820000000000221e+01 1.837804999999999836e+03
1.300000000000000114e-02 1.634229999999999849e-01 2.041114999999999924e+01 6.621289999999999054e+01 1.837210000000000036e+03
1.400000000000000203e-02 1.633560000000000012e-01 2.099329999999999785e+01 6.541190000000000282e+01 1.836755000000000109e+03
1.499999999999999944e-02 1.633030000000000037e-01 2.139475000000000193e+01 6.477729999999999677e+01 1.836389999999999873e+03
1.600000000000000033e-02 1.632595000000000018e-01 2.164189999999999969e+01 6.425849999999999795e+01 1.836110000000000127e+03
1.700000000000000122e-02 1.632274999999999976e-01 2.180120000000000147e+01 6.390169999999999817e+01 1.835900000000000091e+03
1.800000000000000211e-02 1.632085000000000063e-01 2.197165000000000035e+01 6.386594999999999800e+01 1.835784999999999854e+03
1.900000000000000300e-02 1.632099999999999940e-01 2.224889999999999901e+01 6.435425000000000750e+01 1.835809999999999945e+03
2.000000000000000042e-02 1.632359999999999922e-01 2.268440000000000012e+01 6.550069999999999482e+01 1.836005000000000109e+03
2.100000000000000130e-02 1.632875000000000021e-01 2.326239999999999952e+01 6.728145000000000664e+01 1.836384999999999991e+03
2.200000000000000219e-02 1.633610000000000062e-01 2.390530000000000044e+01 6.949554999999999438e+01 1.836914999999999964e+03
2.299999999999999961e-02 1.634454999999999936e-01 2.450099999999999767e+01 7.181745000000000800e+01 1.837539999999999964e+03
2.400000000000000050e-02 1.635324999999999973e-01 2.493925000000000125e+01 7.389230000000000587e+01 1.838184999999999945e+03
2.500000000000000139e-02 1.636084999999999900e-01 2.514349999999999952e+01 7.543514999999999304e+01 1.838755000000000109e+03
2.600000000000000228e-02 1.636675000000000213e-01 2.508830000000000027e+01 7.630065000000000452e+01 1.839200000000000045e+03
2.700000000000000316e-02 1.637040000000000162e-01 2.480035000000000167e+01 7.650469999999999970e+01 1.839490000000000009e+03
2.800000000000000058e-02 1.637210000000000054e-01 2.434299999999999997e+01 7.619765000000001010e+01 1.839630000000000109e+03
2.900000000000000147e-02 1.637215000000000198e-01 2.379335000000000022e+01 7.560214999999999463e+01 1.839655000000000200e+03
3.000000000000000236e-02 1.637129999999999974e-01 2.321855000000000047e+01 7.493999999999999773e+01 1.839605000000000018e+03
3.099999999999999978e-02 1.637009999999999854e-01 2.265954999999999941e+01 7.437120000000000175e+01 1.839525000000000091e+03
3.200000000000000067e-02 1.636894999999999878e-01 2.212514999999999787e+01 7.396174999999999500e+01 1.839440000000000055e+03
3.300000000000000155e-02 1.636805000000000065e-01 2.159700000000000131e+01 7.368415000000000248e+01 1.839375000000000000e+03
3.400000000000000244e-02 1.636710000000000109e-01 2.104180000000000206e+01 7.344540000000000646e+01 1.839309999999999945e+03
3.500000000000000333e-02 1.636604999999999865e-01 2.042650000000000077e+01 7.313049999999999784e+01 1.839235000000000127e+03
3.600000000000000422e-02 1.636444999999999983e-01 1.973254999999999981e+01 7.264715000000001055e+01 1.839125000000000000e+03
3.700000000000000511e-02 1.636225000000000041e-01 1.896499999999999986e+01 7.196119999999999095e+01 1.838965000000000146e+03
3.799999999999999906e-02 1.635935000000000028e-01 1.815520000000000067e+01 7.111394999999998845e+01 1.838765000000000100e+03
3.899999999999999994e-02 1.635610000000000119e-01 1.735634999999999906e+01 7.021719999999999118e+01 1.838529999999999973e+03
4.000000000000000083e-02 1.635284999999999933e-01 1.663264999999999816e+01 6.942934999999999945e+01 1.838295000000000073e+03
4.100000000000000172e-02 1.635014999999999941e-01 1.604570000000000007e+01 6.891854999999999620e+01 1.838099999999999909e+03
4.200000000000000261e-02 1.634864999999999791e-01 1.564110000000000156e+01 6.882235000000000014e+01 1.837985000000000127e+03
4.300000000000000350e-02 1.634875000000000078e-01 1.543935000000000102e+01 6.921600000000000819e+01 1.837974999999999909e+03
4.400000000000000439e-02 1.635050000000000114e-01 1.543104999999999905e+01 7.009420000000000073e+01 1.838090000000000146e+03
4.499999999999999833e-02 1.635395000000000043e-01 1.557939999999999969e+01 7.137099999999999511e+01 1.838329999999999927e+03
4.599999999999999922e-02 1.635880000000000112e-01 1.582634999999999970e+01 7.289535000000000764e+01 1.838664999999999964e+03
4.700000000000000011e-02 1.636440000000000117e-01 1.610245000000000104e+01 7.447720000000001050e+01 1.839069999999999936e+03
4.800000000000000100e-02 1.637014999999999998e-01 1.633694999999999808e+01 7.591809999999999548e+01 1.839485000000000127e+03
4.900000000000000189e-02 1.637534999999999963e-01 1.646675000000000111e+01 7.703954999999999131e+01 1.839865000000000009e+03
5.000000000000000278e-02 1.637939999999999952e-01 1.644310000000000116e+01 7.770515000000000327e+01 1.840164999999999964e+03
5.100000000000000366e-02 1.638185000000000058e-01 1.623509999999999920e+01 7.783279999999999177e+01 1.840344999999999800e+03
5.200000000000000455e-02 1.638229999999999964e-01 1.582995000000000019e+01 7.739714999999999634e+01 1.840389999999999873e+03
5.300000000000000544e-02 1.638074999999999948e-01 1.523134999999999906e+01 7.642385000000000161e+01 1.840284999999999854e+03
5.399999999999999939e-02 1.637715000000000143e-01 1.445550000000000068e+01 7.497749999999999204e+01 1.840035000000000082e+03
5.500000000000000028e-02 1.637175000000000158e-01 1.352740000000000009e+01 7.314740000000000464e+01 1.839650000000000091e+03
5.600000000000000117e-02 1.636475000000000013e-01 1.247674999999999912e+01 7.103334999999999866e+01 1.839144999999999982e+03
5.700000000000000205e-02 1.635655000000000026e-01 1.133501500000000028e+01 6.873445000000000960e+01 1.838559999999999945e+03
5.800000000000000294e-02 1.634749999999999814e-01 1.013373999999999953e+01 6.634184999999999377e+01 1.837900000000000091e+03
5.900000000000000383e-02 1.633780000000000232e-01 8.903584999999999638e+00 6.393600000000000705e+01 1.837204999999999927e+03
6.000000000000000472e-02 1.632800000000000085e-01 7.674635000000000318e+00 6.158670000000000755e+01 1.836485000000000127e+03
6.099999999999999867e-02 1.631825000000000081e-01 6.476725000000000065e+00 5.935585000000000377e+01 1.835775000000000091e+03
6.199999999999999956e-02 1.630880000000000107e-01 5.340139999999999887e+00 5.730100000000000193e+01 1.835085000000000036e+03
6.300000000000000044e-02 1.629999999999999782e-01 4.295709999999999695e+00 5.547789999999999822e+01 1.834440000000000055e+03
6.400000000000000133e-02 1.629209999999999825e-01 3.374702000000000091e+00 5.394265000000000043e+01 1.833859999999999900e+03
6.500000000000000222e-02 1.628529999999999978e-01 2.608093499999999842e+00 5.275119999999999720e+01 1.833355000000000018e+03
6.600000000000000311e-02 1.627985000000000126e-01 2.025393000000000221e+00 5.195824999999999960e+01 1.832954999999999927e+03
6.700000000000000400e-02 1.627605000000000024e-01 1.653172000000000086e+00 5.161379999999999768e+01 1.832664999999999964e+03
6.800000000000000488e-02 1.627415000000000112e-01 1.513505000000000100e+00 5.175979999999999848e+01 1.832505000000000109e+03
6.900000000000000577e-02 1.627415000000000112e-01 1.622524999999999995e+00 5.242654999999999887e+01 1.832494999999999891e+03
7.000000000000000666e-02 1.627635000000000054e-01 1.989329999999999821e+00 5.362950000000000017e+01 1.832634999999999991e+03
7.100000000000000755e-02 1.628080000000000083e-01 2.615314999999999834e+00 5.536745000000000516e+01 1.832940000000000055e+03
7.200000000000000844e-02 1.628745000000000054e-01 3.494015000000000093e+00 5.762189999999999657e+01 1.833409999999999854e+03
7.300000000000000933e-02 1.629625000000000101e-01 4.611489999999999867e+00 6.035790000000000077e+01 1.834029999999999973e+03
7.399999999999999634e-02 1.630709999999999937e-01 5.947085000000000399e+00 6.352595000000000169e+01 1.834804999999999836e+03
7.499999999999999722e-02 1.631984999999999963e-01 7.474559999999999427e+00 6.706489999999999441e+01 1.835715000000000146e+03
7.599999999999999811e-02 1.633419999999999872e-01 9.163434999999999775e+00 7.090549999999998931e+01 1.836750000000000000e+03
7.699999999999999900e-02 1.634990000000000054e-01 1.098034999999999961e+01 7.497405000000000541e+01 1.837890000000000100e+03
7.799999999999999989e-02 1.636670000000000069e-01 1.289068999999999932e+01 7.919615000000000293e+01 1.839105000000000018e+03
7.900000000000000078e-02 1.638435000000000030e-01 1.485979999999999990e+01 8.350015000000000498e+01 1.840389999999999873e+03
8.000000000000000167e-02 1.640245000000000175e-01 1.685454999999999970e+01 8.782005000000000905e+01 1.841715000000000146e+03
8.100000000000000255e-02 1.642075000000000062e-01 1.884424999999999883e+01 9.209829999999999472e+01 1.843055000000000064e+03
8.200000000000000344e-02 1.643914999999999960e-01 2.080194999999999794e+01 9.628675000000001205e+01 1.844404999999999973e+03
8.300000000000000433e-02 1.645725000000000104e-01 2.270490000000000208e+01 1.003504999999999967e+02 1.845744999999999891e+03
8.400000000000000522e-02 1.647509999999999808e-01 2.453529999999999944e+01 1.042651999999999930e+02 1.847059999999999945e+03
8.500000000000000611e-02 1.649240000000000150e-01 2.628049999999999997e+01 1.080194999999999936e+02 1.848349999999999909e+03
8.600000000000000699e-02 1.650915000000000021e-01 2.793249999999999744e+01 1.116125000000000114e+02 1.849595000000000027e+03
8.700000000000000788e-02 1.652534999999999976e-01 2.948819999999999908e+01 1.150534999999999997e+02 1.850799999999999955e+03
8.800000000000000877e-02 1.654100000000000015e-01 3.094819999999999993e+01 1.183590000000000089e+02 1.851969999999999800e+03
8.899999999999999578e-02 1.655615000000000003e-01 3.231629999999999825e+01 1.215500000000000114e+02 1.853110000000000127e+03
8.999999999999999667e-02 1.657085000000000086e-01 3.359854999999999592e+01 1.246514999999999986e+02 1.854210000000000036e+03
9.099999999999999756e-02 1.658519999999999994e-01 3.480205000000000126e+01 1.276864999999999952e+02 1.855289999999999964e+03
9.199999999999999845e-02 1.659930000000000017e-01 3.593420000000000414e+01 1.306765000000000043e+02 1.856349999999999909e+03
9.299999999999999933e-02 1.661314999999999875e-01 3.700195000000000078e+01 1.336385000000000218e+02 1.857394999999999982e+03
9.400000000000000022e-02 1.662690000000000001e-01 3.801109999999999900e+01 1.365840000000000032e+02 1.858424999999999955e+03
9.500000000000000111e-02 1.664049999999999974e-01 3.896585000000000321e+01 1.395190000000000055e+02 1.859454999999999927e+03
9.600000000000000200e-02 1.665405000000000080e-01 3.986825000000000330e+01 1.424420000000000073e+02 1.860480000000000018e+03
9.700000000000000289e-02 1.666750000000000176e-01 4.071840000000000259e+01 1.453444999999999823e+02 1.861489999999999782e+03
9.800000000000000377e-02 1.668084999999999984e-01 4.151460000000000150e+01 1.482139999999999986e+02 1.862494999999999891e+03
9.900000000000000466e-02 1.669399999999999773e-01 4.225305000000000177e+01 1.510314999999999941e+02 1.863490000000000009e+03
1.000000000000000056e-01 1.670689999999999953e-01 4.292849999999999966e+01 1.537769999999999868e+02 1.864470000000000027e+03
1.010000000000000064e-01 1.671949999999999825e-01 4.353480000000000416e+01 1.564254999999999995e+02 1.865425000000000182e+03
1.020000000000000073e-01 1.673169999999999935e-01 4.406465000000000032e+01 1.589534999999999911e+02 1.866349999999999909e+03
1.030000000000000082e-01 1.674335000000000129e-01 4.451075000000000159e+01 1.613360000000000127e+02 1.867230000000000018e+03
1.040000000000000091e-01 1.675439999999999985e-01 4.486565000000000225e+01 1.635504999999999995e+02 1.868070000000000164e+03
1.050000000000000100e-01 1.676475000000000048e-01 4.512250000000000227e+01 1.655749999999999886e+02 1.868860000000000127e+03
1.059999999999999970e-01 1.677425000000000166e-01 4.527530000000000143e+01 1.673915000000000077e+02 1.869585000000000036e+03
1.069999999999999979e-01 1.678290000000000060e-01 4.531909999999999883e+01 1.689865000000000066e+02 1.870250000000000000e+03
1.079999999999999988e-01 1.679065000000000141e-01 4.525029999999999575e+01 1.703480000000000132e+02 1.870845000000000027e+03
1.089999999999999997e-01 1.679740000000000122e-01 4.506719999999999970e+01 1.714705000000000155e+02 1.871360000000000127e+03
1.100000000000000006e-01 1.680309999999999859e-01 4.476975000000000193e+01 1.723509999999999991e+02 1.871804999999999836e+03
1.110000000000000014e-01 1.680780000000000052e-01 4.435985000000000156e+01 1.729934999999999832e+02 1.872170000000000073e+03
1.120000000000000023e-01 1.681145000000000000e-01 4.384144999999999470e+01 1.734035000000000082e+02 1.872454999999999927e+03
1.130000000000000032e-01 1.681410000000000127e-01 4.322039999999999793e+01 1.735929999999999893e+02 1.872664999999999964e+03
1.140000000000000041e-01 1.681584999999999885e-01 4.250450000000000017e+01 1.735780000000000030e+02 1.872805000000000064e+03
1.150000000000000050e-01 1.681659999999999822e-01 4.170315000000000083e+01 1.733764999999999930e+02 1.872875000000000000e+03
1.160000000000000059e-01 1.681654999999999955e-01 4.082704999999999984e+01 1.730104999999999791e+02 1.872880000000000109e+03
1.170000000000000068e-01 1.681570000000000009e-01 3.988810000000000144e+01 1.725029999999999859e+02 1.872825000000000045e+03
1.180000000000000077e-01 1.681429999999999869e-01 3.889894999999999925e+01 1.718799999999999955e+02 1.872724999999999909e+03
1.190000000000000085e-01 1.681229999999999947e-01 3.787250000000000227e+01 1.711655000000000086e+02 1.872579999999999927e+03
1.200000000000000094e-01 1.680980000000000252e-01 3.682155000000000200e+01 1.703849999999999909e+02 1.872400000000000091e+03
1.209999999999999964e-01 1.680699999999999972e-01 3.575849999999999795e+01 1.695615000000000236e+02 1.872190000000000055e+03
1.219999999999999973e-01 1.680389999999999939e-01 3.469494999999999862e+01 1.687160000000000082e+02 1.871960000000000036e+03
1.229999999999999982e-01 1.680065000000000031e-01 3.364135000000000275e+01 1.678675000000000068e+02 1.871715000000000146e+03
1.239999999999999991e-01 1.679729999999999834e-01 3.260674999999999812e+01 1.670314999999999941e+02 1.871465000000000146e+03
1.250000000000000000e-01 1.679394999999999916e-01 3.159870000000000090e+01 1.662199999999999989e+02 1.871215000000000146e+03
1.260000000000000009e-01 1.679059999999999997e-01 3.062295000000000300e+01 1.654410000000000025e+02 1.870960000000000036e+03
1.270000000000000018e-01 1.678735000000000088e-01 2.968359999999999843e+01 1.646999999999999886e+02 1.870710000000000036e+03
1.280000000000000027e-01 1.678419999999999912e-01 2.878275000000000006e+01 1.639970000000000141e+02 1.870470000000000027e+03
1.290000000000000036e-01 1.678115000000000023e-01 2.792089999999999961e+01 1.633305000000000007e+02 1.870235000000000127e+03
1.300000000000000044e-01 1.677825000000000011e-01 2.709700000000000131e+01 1.626945000000000050e+02 1.870009999999999991e+03
1.310000000000000053e-01 1.677534999999999998e-01 2.630834999999999724e+01 1.620819999999999936e+02 1.869789999999999964e+03
1.320000000000000062e-01 1.677259999999999862e-01 2.555120000000000147e+01 1.614815000000000111e+02 1.869579999999999927e+03
1.330000000000000071e-01 1.676985000000000003e-01 2.482055000000000078e+01 1.608829999999999814e+02 1.869369999999999891e+03
1.340000000000000080e-01 1.676710000000000145e-01 2.411094999999999899e+01 1.602729999999999961e+02 1.869159999999999854e+03
1.350000000000000089e-01 1.676424999999999998e-01 2.341624999999999801e+01 1.596385000000000218e+02 1.868944999999999936e+03
1.360000000000000098e-01 1.676134999999999986e-01 2.273024999999999807e+01 1.589669999999999845e+02 1.868714999999999918e+03
1.370000000000000107e-01 1.675829999999999820e-01 2.204684999999999917e+01 1.582465000000000259e+02 1.868485000000000127e+03
1.380000000000000115e-01 1.675504999999999911e-01 2.136034999999999684e+01 1.574664999999999964e+02 1.868235000000000127e+03
1.390000000000000124e-01 1.675149999999999972e-01 2.066570000000000107e+01 1.566175000000000068e+02 1.867970000000000027e+03
1.400000000000000133e-01 1.674775000000000014e-01 1.995874999999999844e+01 1.556940000000000168e+02 1.867684999999999945e+03
1.410000000000000142e-01 1.674360000000000015e-01 1.923639999999999972e+01 1.546915000000000191e+02 1.867375000000000000e+03
1.420000000000000151e-01 1.673919999999999852e-01 1.849680000000000035e+01 1.536094999999999970e+02 1.867039999999999964e+03
1.430000000000000160e-01 1.673445000000000071e-01 1.773944999999999794e+01 1.524490000000000123e+02 1.866680000000000064e+03
1.440000000000000169e-01 1.672939999999999983e-01 1.696509999999999962e+01 1.512155000000000200e+02 1.866304999999999836e+03
1.450000000000000178e-01 1.672399999999999998e-01 1.617600000000000193e+01 1.499170000000000016e+02 1.865900000000000091e+03
1.459999999999999909e-01 1.671834999999999849e-01 1.537569999999999837e+01 1.485634999999999764e+02 1.865474999999999909e+03
1.469999999999999918e-01 1.671245000000000092e-01 1.456879999999999953e+01 1.471674999999999898e+02 1.865029999999999973e+03
1.479999999999999927e-01 1.670639999999999903e-01 1.376115000000000066e+01 1.457439999999999998e+02 1.864574999999999818e+03
1.489999999999999936e-01 1.670014999999999972e-01 1.295925000000000082e+01 1.443095000000000141e+02 1.864110000000000127e+03
1.499999999999999944e-01 1.669390000000000041e-01 1.217025500000000093e+01 1.428809999999999718e+02 1.863634999999999991e+03
1.509999999999999953e-01 1.668764999999999832e-01 1.140164000000000044e+01 1.414755000000000109e+02 1.863170000000000073e+03
1.519999999999999962e-01 1.668144999999999767e-01 1.066092500000000065e+01 1.401100000000000136e+02 1.862704999999999927e+03
1.529999999999999971e-01 1.667540000000000133e-01 9.955304999999999183e+00 1.388015000000000043e+02 1.862244999999999891e+03
1.539999999999999980e-01 1.666960000000000108e-01 9.291554999999998898e+00 1.375629999999999882e+02 1.861805000000000064e+03
1.549999999999999989e-01 1.666400000000000103e-01 8.675675000000000026e+00 1.364085000000000036e+02 1.861389999999999873e+03
1.559999999999999998e-01 1.665874999999999995e-01 8.112714999999999677e+00 1.353480000000000132e+02 1.860990000000000009e+03
1.570000000000000007e-01 1.665389999999999926e-01 7.606559999999999988e+00 1.343884999999999934e+02 1.860625000000000000e+03
1.580000000000000016e-01 1.664944999999999897e-01 7.159959999999999880e+00 1.335349999999999966e+02 1.860284999999999854e+03
1.590000000000000024e-01 1.664545000000000052e-01 6.774330000000000851e+00 1.327900000000000205e+02 1.859980000000000018e+03
