# t [s], A [cm^2], U [cm/s], P [cPa], c [cm/s]
1.000000000000000021e-03 1.948369999999999824e-01 3.062735999999999792e-01 9.566210000000000946e+01 2.262050000000000182e+03
2.000000000000000042e-03 1.947844999999999993e-01 1.759686000000000083e+00 9.219984999999999786e+01 2.261569999999999709e+03
3.000000000000000062e-03 1.946510000000000185e-01 3.564871000000000123e+00 8.736055000000000348e+01 2.260414999999999964e+03
4.000000000000000083e-03 1.944734999999999936e-01 5.611063999999999830e+00 8.221609999999999729e+01 2.258904999999999745e+03
5.000000000000000104e-03 1.942905000000000049e-01 7.807185000000000485e+00 7.776415000000000077e+01 2.257355000000000018e+03
6.000000000000000125e-03 1.941180000000000128e-01 9.923439999999999372e+00 7.418590000000000373e+01 2.255909999999999854e+03
7.000000000000000146e-03 1.939575000000000049e-01 1.173098000000000063e+01 7.108490000000000464e+01 2.254605000000000018e+03
8.000000000000000167e-03 1.938134999999999997e-01 1.320057999999999865e+01 6.831225000000000591e+01 2.253449999999999818e+03
9.000000000000001055e-03 1.936919999999999753e-01 1.439059999999999917e+01 6.601035000000000252e+01 2.252485000000000127e+03
1.000000000000000194e-02 1.935925000000000007e-01 1.532904999999999873e+01 6.422384999999999877e+01 2.251715000000000146e+03
1.099999999999999936e-02 1.935155000000000070e-01 1.603144999999999953e+01 6.289029999999999632e+01 2.251119999999999891e+03
1.200000000000000025e-02 1.934559999999999891e-01 1.650084999999999980e+01 6.188475000000000392e+01 2.250670000000000073e+03
1.300000000000000114e-02 1.934084999999999832e-01 1.673639999999999972e+01 6.102689999999999770e+01 2.250324999999999818e+03
1.400000000000000203e-02 1.933690000000000131e-01 1.679970000000000141e+01 6.026279999999999859e+01 2.250039999999999964e+03
1.499999999999999944e-02 1.933429999999999871e-01 1.685340000000000060e+01 5.986485000000000412e+01 2.249855000000000018e+03
1.600000000000000033e-02 1.933420000000000138e-01 1.709574999999999889e+01 6.034264999999999901e+01 2.249859999999999673e+03
1.700000000000000122e-02 1.933769999999999933e-01 1.764069999999999894e+01 6.208579999999999899e+01 2.250144999999999982e+03
1.800000000000000211e-02 1.934505000000000252e-01 1.844299999999999784e+01 6.503780000000000427e+01 2.250715000000000146e+03
1.900000000000000300e-02 1.935510000000000008e-01 1.931729999999999947e+01 6.864025000000000887e+01 2.251519999999999982e+03
2.000000000000000042e-02 1.936589999999999978e-01 2.002640000000000242e+01 7.205690000000001305e+01 2.252385000000000218e+03
2.100000000000000130e-02 1.937520000000000076e-01 2.038349999999999795e+01 7.452060000000000173e+01 2.253144999999999982e+03
2.200000000000000219e-02 1.938139999999999863e-01 2.031855000000000189e+01 7.561850000000001160e+01 2.253675000000000182e+03
2.299999999999999961e-02 1.938404999999999989e-01 1.988660000000000139e+01 7.539734999999998877e+01 2.253914999999999964e+03
2.400000000000000050e-02 1.938354999999999939e-01 1.922415000000000163e+01 7.427020000000000266e+01 2.253899999999999636e+03
2.500000000000000139e-02 1.938119999999999843e-01 1.848120000000000118e+01 7.279364999999999952e+01 2.253730000000000018e+03
2.600000000000000228e-02 1.937805000000000222e-01 1.776079999999999970e+01 7.142919999999999447e+01 2.253484999999999673e+03
2.700000000000000316e-02 1.937515000000000209e-01 1.709025000000000105e+01 7.038855000000000928e+01 2.253250000000000000e+03
2.800000000000000058e-02 1.937254999999999949e-01 1.642849999999999966e+01 6.960910000000001219e+01 2.253039999999999964e+03
2.900000000000000147e-02 1.936994999999999967e-01 1.570094999999999885e+01 6.884354999999999336e+01 2.252835000000000036e+03
3.000000000000000236e-02 1.936680000000000068e-01 1.484405000000000108e+01 6.781235000000000923e+01 2.252585000000000036e+03
3.099999999999999978e-02 1.936249999999999916e-01 1.384280000000000044e+01 6.635389999999999588e+01 2.252255000000000109e+03
3.200000000000000067e-02 1.935715000000000074e-01 1.274844999999999828e+01 6.451935000000000286e+01 2.251829999999999927e+03
3.300000000000000155e-02 1.935109999999999886e-01 1.166995000000000005e+01 6.257930000000000348e+01 2.251355000000000018e+03
3.400000000000000244e-02 1.934540000000000148e-01 1.074331499999999906e+01 6.094325000000000614e+01 2.250900000000000091e+03
3.500000000000000333e-02 1.934120000000000006e-01 1.009031500000000037e+01 6.002505000000000024e+01 2.250559999999999945e+03
3.600000000000000422e-02 1.933949999999999836e-01 9.781620000000000203e+00 6.010545000000000471e+01 2.250399999999999636e+03
3.700000000000000511e-02 1.934084999999999832e-01 9.817194999999999894e+00 6.124130000000000251e+01 2.250485000000000127e+03
3.799999999999999906e-02 1.934500000000000108e-01 1.012728000000000073e+01 6.324625000000000341e+01 2.250795000000000073e+03
3.899999999999999994e-02 1.935129999999999906e-01 1.059130000000000038e+01 6.574029999999999063e+01 2.251284999999999854e+03
4.000000000000000083e-02 1.935860000000000081e-01 1.106638500000000036e+01 6.824450000000000216e+01 2.251850000000000364e+03
4.100000000000000172e-02 1.936550000000000216e-01 1.141655000000000086e+01 7.028835000000000832e+01 2.252400000000000091e+03
4.200000000000000261e-02 1.937079999999999913e-01 1.153539999999999921e+01 7.149969999999999004e+01 2.252824999999999818e+03
4.300000000000000350e-02 1.937349999999999905e-01 1.135855000000000103e+01 7.165954999999999586e+01 2.253050000000000182e+03
4.400000000000000439e-02 1.937300000000000133e-01 1.086522499999999880e+01 7.071444999999999936e+01 2.253034999999999854e+03
4.499999999999999833e-02 1.936935000000000184e-01 1.007120499999999907e+01 6.875300000000000011e+01 2.252755000000000109e+03
4.599999999999999922e-02 1.936269999999999936e-01 9.017054999999999154e+00 6.595929999999999893e+01 2.252239999999999782e+03
4.700000000000000011e-02 1.935359999999999858e-01 7.755760000000000431e+00 6.256020000000000181e+01 2.251525000000000091e+03
4.800000000000000100e-02 1.934259999999999868e-01 6.343054999999999666e+00 5.878164999999999907e+01 2.250654999999999745e+03
4.900000000000000189e-02 1.933030000000000026e-01 4.832185000000000841e+00 5.482079999999999842e+01 2.249684999999999945e+03
5.000000000000000278e-02 1.931734999999999980e-01 3.272397999999999918e+00 5.083704999999999785e+01 2.248654999999999745e+03
5.100000000000000366e-02 1.930425000000000058e-01 1.710585000000000022e+00 4.695805000000000007e+01 2.247600000000000364e+03
5.200000000000000455e-02 1.929130000000000011e-01 1.938800000000000523e-01 4.329234999999999900e+01 2.246569999999999709e+03
5.300000000000000544e-02 1.927899999999999892e-01 -1.228239999999999998e+00 3.994409999999999883e+01 2.245590000000000146e+03
5.399999999999999939e-02 1.926775000000000015e-01 -2.503407499999999786e+00 3.702224999999999966e+01 2.244679999999999836e+03
5.500000000000000028e-02 1.925795000000000146e-01 -3.577844999999999942e+00 3.464229999999999876e+01 2.243890000000000327e+03
5.600000000000000117e-02 1.925004999999999911e-01 -4.399544999999999817e+00 3.292110000000000269e+01 2.243239999999999782e+03
5.700000000000000205e-02 1.924430000000000029e-01 -4.922444999999999737e+00 3.196600000000000108e+01 2.242765000000000327e+03
5.800000000000000294e-02 1.924115000000000131e-01 -5.110805000000000042e+00 3.186175000000000068e+01 2.242494999999999891e+03
5.900000000000000383e-02 1.924089999999999967e-01 -4.942759999999999820e+00 3.265859999999999985e+01 2.242444999999999709e+03
6.000000000000000472e-02 1.924359999999999959e-01 -4.412569999999999659e+00 3.436430000000000007e+01 2.242639999999999873e+03
6.099999999999999867e-02 1.924925000000000108e-01 -3.531194999999999862e+00 3.694115000000000038e+01 2.243060000000000400e+03
6.199999999999999956e-02 1.925779999999999992e-01 -2.325352500000000155e+00 4.030825000000000102e+01 2.243715000000000146e+03
6.300000000000000044e-02 1.926889999999999992e-01 -8.352500000000000480e-01 4.434890000000000043e+01 2.244574999999999818e+03
6.400000000000000133e-02 1.928219999999999934e-01 8.885949999999998017e-01 4.892020000000000124e+01 2.245619999999999891e+03
6.500000000000000222e-02 1.929724999999999913e-01 2.789044999999999774e+00 5.386509999999999820e+01 2.246809999999999945e+03
6.600000000000000311e-02 1.931360000000000021e-01 4.806269500000000860e+00 5.902434999999999832e+01 2.248105000000000018e+03
6.700000000000000400e-02 1.933070000000000066e-01 6.881610000000000227e+00 6.424795000000000300e+01 2.249465000000000146e+03
6.800000000000000488e-02 1.934810000000000141e-01 8.960985000000000866e+00 6.940519999999999357e+01 2.250859999999999673e+03
6.900000000000000577e-02 1.936545000000000072e-01 1.099812499999999993e+01 7.439244999999999663e+01 2.252244999999999891e+03
7.000000000000000666e-02 1.938229999999999953e-01 1.295646999999999949e+01 7.913835000000000264e+01 2.253609999999999673e+03
7.100000000000000755e-02 1.939849999999999908e-01 1.481039999999999957e+01 8.360554999999999382e+01 2.254925000000000182e+03
7.200000000000000844e-02 1.941404999999999936e-01 1.654554999999999865e+01 8.778940000000000055e+01 2.256180000000000291e+03
7.300000000000000933e-02 1.942869999999999875e-01 1.815759999999999863e+01 9.171309999999999718e+01 2.257375000000000000e+03
7.399999999999999634e-02 1.944265000000000021e-01 1.965090000000000003e+01 9.542105000000000814e+01 2.258510000000000218e+03
7.499999999999999722e-02 1.945594999999999963e-01 2.103584999999999994e+01 9.897005000000000052e+01 2.259599999999999909e+03
7.599999999999999811e-02 1.946890000000000009e-01 2.232659999999999911e+01 1.024213499999999897e+02 2.260659999999999854e+03
7.699999999999999900e-02 1.948150000000000159e-01 2.353859999999999886e+01 1.058315000000000055e+02 2.261694999999999709e+03
7.799999999999999989e-02 1.949400000000000022e-01 2.468619999999999948e+01 1.092475000000000023e+02 2.262720000000000255e+03
7.900000000000000078e-02 1.950655000000000028e-01 2.578154999999999930e+01 1.127015000000000100e+02 2.263750000000000000e+03
8.000000000000000167e-02 1.951915000000000178e-01 2.683295000000000030e+01 1.162079999999999984e+02 2.264779999999999745e+03
8.100000000000000255e-02 1.953189999999999926e-01 2.784450000000000003e+01 1.197665000000000077e+02 2.265824999999999818e+03
8.200000000000000344e-02 1.954480000000000106e-01 2.881599999999999895e+01 1.233600000000000136e+02 2.266880000000000109e+03
8.300000000000000433e-02 1.955770000000000008e-01 2.974324999999999974e+01 1.269579999999999984e+02 2.267940000000000055e+03
8.400000000000000522e-02 1.957055000000000045e-01 3.061845000000000283e+01 1.305219999999999914e+02 2.268994999999999891e+03
8.500000000000000611e-02 1.958330000000000071e-01 3.143084999999999951e+01 1.340055000000000121e+02 2.270039999999999964e+03
8.600000000000000699e-02 1.959569999999999923e-01 3.216779999999999973e+01 1.373569999999999993e+02 2.271059999999999945e+03
8.700000000000000788e-02 1.960760000000000003e-01 3.281539999999999679e+01 1.405269999999999868e+02 2.272039999999999964e+03
8.800000000000000877e-02 1.961890000000000023e-01 3.335934999999999917e+01 1.434655000000000200e+02 2.272975000000000364e+03
8.899999999999999578e-02 1.962939999999999963e-01 3.378620000000000090e+01 1.461295000000000073e+02 2.273835000000000036e+03
8.999999999999999667e-02 1.963890000000000080e-01 3.408395000000000152e+01 1.484789999999999850e+02 2.274630000000000109e+03
9.099999999999999756e-02 1.964734999999999954e-01 3.424275000000000091e+01 1.504845000000000255e+02 2.275329999999999927e+03
9.199999999999999845e-02 1.965459999999999985e-01 3.425620000000000687e+01 1.521260000000000048e+02 2.275940000000000055e+03
9.299999999999999933e-02 1.966065000000000174e-01 3.412154999999999916e+01 1.533950000000000102e+02 2.276444999999999709e+03
9.400000000000000022e-02 1.966545000000000099e-01 3.384024999999999750e+01 1.542939999999999827e+02 2.276850000000000364e+03
9.500000000000000111e-02 1.966894999999999893e-01 3.341809999999999548e+01 1.548374999999999773e+02 2.277154999999999745e+03
9.600000000000000200e-02 1.967134999999999856e-01 3.286514999999999986e+01 1.550525000000000091e+02 2.277364999999999782e+03
9.700000000000000289e-02 1.967260000000000120e-01 3.219514999999999816e+01 1.549739999999999895e+02 2.277475000000000364e+03
9.800000000000000377e-02 1.967285000000000006e-01 3.142499999999999716e+01 1.546465000000000032e+02 2.277510000000000218e+03
9.900000000000000466e-02 1.967225000000000223e-01 3.057390000000000185e+01 1.541165000000000020e+02 2.277470000000000255e+03
1.000000000000000056e-01 1.967090000000000227e-01 2.966244999999999976e+01 1.534364999999999952e+02 2.277369999999999891e+03
1.010000000000000064e-01 1.966910000000000047e-01 2.871150000000000091e+01 1.526569999999999823e+02 2.277224999999999909e+03
1.020000000000000073e-01 1.966689999999999827e-01 2.774139999999999873e+01 1.518245000000000005e+02 2.277045000000000073e+03
1.030000000000000082e-01 1.966444999999999999e-01 2.677110000000000056e+01 1.509825000000000159e+02 2.276850000000000364e+03
1.040000000000000091e-01 1.966189999999999882e-01 2.581705000000000183e+01 1.501665000000000134e+02 2.276644999999999982e+03
1.050000000000000100e-01 1.965945000000000054e-01 2.489325000000000188e+01 1.494035000000000082e+02 2.276444999999999709e+03
1.059999999999999970e-01 1.965704999999999814e-01 2.401004999999999967e+01 1.487135000000000105e+02 2.276250000000000000e+03
1.069999999999999979e-01 1.965485000000000149e-01 2.317454999999999998e+01 1.481050000000000182e+02 2.276065000000000055e+03
1.079999999999999988e-01 1.965284999999999949e-01 2.238969999999999771e+01 1.475784999999999911e+02 2.275899999999999636e+03
1.089999999999999997e-01 1.965109999999999912e-01 2.165530000000000044e+01 1.471250000000000000e+02 2.275755000000000109e+03
1.100000000000000006e-01 1.964954999999999896e-01 2.096750000000000114e+01 1.467284999999999968e+02 2.275619999999999891e+03
1.110000000000000014e-01 1.964814999999999756e-01 2.031954999999999956e+01 1.463654999999999973e+02 2.275494999999999891e+03
1.120000000000000023e-01 1.964675000000000171e-01 1.970259999999999678e+01 1.460095000000000027e+02 2.275380000000000109e+03
1.130000000000000032e-01 1.964540000000000175e-01 1.910589999999999833e+01 1.456290000000000191e+02 2.275269999999999982e+03
1.140000000000000041e-01 1.964389999999999747e-01 1.851810000000000045e+01 1.451935000000000002e+02 2.275139999999999873e+03
1.150000000000000050e-01 1.964219999999999855e-01 1.792764999999999986e+01 1.446739999999999782e+02 2.275000000000000000e+03
1.160000000000000059e-01 1.964025000000000076e-01 1.732379999999999853e+01 1.440424999999999898e+02 2.274840000000000146e+03
1.170000000000000068e-01 1.963789999999999980e-01 1.669764999999999944e+01 1.432805000000000177e+02 2.274639999999999873e+03
1.180000000000000077e-01 1.963509999999999978e-01 1.604210000000000136e+01 1.423729999999999905e+02 2.274414999999999964e+03
1.190000000000000085e-01 1.963185000000000069e-01 1.535310000000000130e+01 1.413145000000000095e+02 2.274144999999999982e+03
1.200000000000000094e-01 1.962804999999999966e-01 1.462945000000000029e+01 1.401084999999999923e+02 2.273840000000000146e+03
1.209999999999999964e-01 1.962379999999999958e-01 1.387330000000000041e+01 1.387660000000000196e+02 2.273494999999999891e+03
1.219999999999999973e-01 1.961915000000000187e-01 1.308994999999999997e+01 1.373069999999999879e+02 2.273114999999999782e+03
1.229999999999999982e-01 1.961410000000000098e-01 1.228749999999999964e+01 1.357595000000000027e+02 2.272704999999999927e+03
1.239999999999999991e-01 1.960874999999999979e-01 1.147655499999999940e+01 1.341564999999999941e+02 2.272269999999999982e+03
1.250000000000000000e-01 1.960324999999999984e-01 1.066939499999999974e+01 1.325345000000000084e+02 2.271819999999999709e+03
1.260000000000000009e-01 1.959770000000000123e-01 9.879509999999999792e+00 1.309329999999999927e+02 2.271369999999999891e+03
1.270000000000000018e-01 1.959224999999999994e-01 9.120560000000001111e+00 1.293894999999999982e+02 2.270920000000000073e+03
1.280000000000000027e-01 1.958695000000000019e-01 8.405704999999999316e+00 1.279395000000000095e+02 2.270485000000000127e+03
1.290000000000000036e-01 1.958194999999999797e-01 7.746954999999999814e+00 1.266154999999999973e+02 2.270074999999999818e+03
1.300000000000000044e-01 1.957745000000000180e-01 7.154415000000000191e+00 1.254410000000000025e+02 2.269699999999999818e+03
1.310000000000000053e-01 1.957329999999999903e-01 6.635930000000000106e+00 1.244344999999999999e+02 2.269360000000000127e+03
1.320000000000000062e-01 1.956974999999999965e-01 6.196735000000000326e+00 1.236075000000000017e+02 2.269064999999999600e+03
1.330000000000000071e-01 1.956684999999999952e-01 5.839339999999999975e+00 1.229635000000000105e+02 2.268815000000000055e+03
1.340000000000000080e-01 1.956450000000000133e-01 5.563525000000000276e+00 1.224969999999999999e+02 2.268619999999999891e+03
1.350000000000000089e-01 1.956269999999999953e-01 5.366534999999999833e+00 1.221995000000000005e+02 2.268465000000000146e+03
1.360000000000000098e-01 1.956149999999999833e-01 5.243344999999999700e+00 1.220550000000000068e+02 2.268355000000000018e+03
1.370000000000000107e-01 1.956074999999999897e-01 5.187034999999999840e+00 1.220434999999999945e+02 2.268295000000000073e+03
1.380000000000000115e-01 1.956050000000000011e-01 5.189165000000000028e+00 1.221440000000000055e+02 2.268265000000000327e+03
1.390000000000000124e-01 1.956060000000000021e-01 5.240255000000000329e+00 1.223310000000000031e+02 2.268265000000000327e+03
1.400000000000000133e-01 1.956100000000000061e-01 5.330185000000000173e+00 1.225805000000000007e+02 2.268295000000000073e+03
1.410000000000000142e-01 1.956164999999999987e-01 5.448644999999999960e+00 1.228689999999999998e+02 2.268340000000000146e+03
1.420000000000000151e-01 1.956240000000000201e-01 5.585499999999999687e+00 1.231744999999999948e+02 2.268400000000000091e+03
1.430000000000000160e-01 1.956324999999999870e-01 5.731170000000000542e+00 1.234745000000000061e+02 2.268465000000000146e+03
1.440000000000000169e-01 1.956410000000000093e-01 5.876879999999999882e+00 1.237530000000000001e+02 2.268534999999999854e+03
1.450000000000000178e-01 1.956494999999999762e-01 6.014974999999999739e+00 1.239945000000000022e+02 2.268600000000000364e+03
1.459999999999999909e-01 1.956559999999999966e-01 6.139065000000000438e+00 1.241889999999999930e+02 2.268654999999999745e+03
1.469999999999999918e-01 1.956620000000000026e-01 6.244144999999999612e+00 1.243265000000000100e+02 2.268699999999999818e+03
1.479999999999999927e-01 1.956660000000000066e-01 6.326719999999999899e+00 1.244044999999999987e+02 2.268735000000000127e+03
1.489999999999999936e-01 1.956680000000000086e-01 6.384759999999999991e+00 1.244214999999999947e+02 2.268755000000000109e+03
1.499999999999999944e-01 1.956684999999999952e-01 6.417639999999999567e+00 1.243795000000000073e+02 2.268760000000000218e+03
1.509999999999999953e-01 1.956669999999999798e-01 6.426054999999999851e+00 1.242840000000000060e+02 2.268744999999999891e+03
1.519999999999999962e-01 1.956640000000000046e-01 6.411794999999999689e+00 1.241414999999999935e+02 2.268724999999999909e+03
1.529999999999999971e-01 1.956594999999999862e-01 6.377534999999999954e+00 1.239609999999999985e+02 2.268685000000000400e+03
1.539999999999999980e-01 1.956530000000000213e-01 6.326579999999999870e+00 1.237519999999999953e+02 2.268640000000000327e+03
1.549999999999999989e-01 1.956465000000000010e-01 6.262550000000000061e+00 1.235245000000000033e+02 2.268590000000000146e+03
1.559999999999999998e-01 1.956390000000000073e-01 6.189149999999999707e+00 1.232874999999999943e+02 2.268529999999999745e+03
1.570000000000000007e-01 1.956315000000000137e-01 6.109844999999999970e+00 1.230484999999999900e+02 2.268474999999999909e+03
1.580000000000000016e-01 1.956235000000000057e-01 6.027699999999999392e+00 1.228139999999999930e+02 2.268404999999999745e+03
1.590000000000000024e-01 1.956160000000000121e-01 5.945165000000000255e+00 1.225884999999999962e+02 2.268345000000000255e+03
