# t [s], A [cm^2], U [cm/s], P [cPa], c [cm/s]
1.000000000000000021e-03 6.097230000000000150e-01 4.759049999999993841e-03 9.863049999999999784e+01 1.529815000000000055e+03
2.000000000000000042e-03 6.097120000000000317e-01 -3.229934999999999751e-03 9.860534999999998718e+01 1.529809999999999945e+03
3.000000000000000062e-03 6.097569999999999935e-01 7.417125000000000801e-02 9.868129999999999313e+01 1.529829999999999927e+03
4.000000000000000083e-03 6.098109999999999919e-01 1.733692500000000025e-01 9.879859999999999332e+01 1.529860000000000127e+03
5.000000000000000104e-03 6.098004999999999676e-01 1.734379999999999811e-01 9.878364999999999441e+01 1.529860000000000127e+03
6.000000000000000125e-03 6.097380000000000022e-01 8.357149999999999301e-02 9.860660000000000025e+01 1.529819999999999936e+03
7.000000000000000146e-03 6.096805000000000696e-01 -4.944999999999977192e-03 9.836695000000000277e+01 1.529765000000000100e+03
8.000000000000000167e-03 6.096084999999999976e-01 -1.273000000000000242e-01 9.804449999999999932e+01 1.529684999999999945e+03
9.000000000000001055e-03 6.094839999999999147e-01 -3.546399999999999553e-01 9.754879999999999995e+01 1.529565000000000055e+03
1.000000000000000194e-02 6.093034999999999979e-01 -6.928100000000000369e-01 9.684059999999999491e+01 1.529400000000000091e+03
1.099999999999999936e-02 6.090599999999999348e-01 -1.145774999999999988e+00 9.588304999999999723e+01 1.529170000000000073e+03
1.200000000000000025e-02 6.087329999999999686e-01 -1.732979999999999965e+00 9.461779999999998836e+01 1.528860000000000127e+03
1.300000000000000114e-02 6.083255000000000745e-01 -2.432560000000000056e+00 9.303040000000000020e+01 1.528460000000000036e+03
1.400000000000000203e-02 6.078790000000000582e-01 -3.146844999999999892e+00 9.120850000000000080e+01 1.527994999999999891e+03
1.499999999999999944e-02 6.074554999999999261e-01 -3.735819999999999474e+00 8.932259999999999422e+01 1.527494999999999891e+03
1.600000000000000033e-02 6.071044999999999359e-01 -4.081504999999999939e+00 8.755065000000000452e+01 1.527000000000000000e+03
1.700000000000000122e-02 6.068405000000000049e-01 -4.131621499999999614e+00 8.600839999999999463e+01 1.526549999999999955e+03
1.800000000000000211e-02 6.066454999999999487e-01 -3.905831999999999748e+00 8.471969999999998890e+01 1.526139999999999873e+03
1.900000000000000300e-02 6.064810000000000478e-01 -3.475359500000000157e+00 8.362529999999999575e+01 1.525775000000000091e+03
2.000000000000000042e-02 6.063045000000000240e-01 -2.931470000000000020e+00 8.261639999999999873e+01 1.525424999999999955e+03
2.100000000000000130e-02 6.060829999999999274e-01 -2.354438000000000031e+00 8.157734999999999559e+01 1.525079999999999927e+03
2.200000000000000219e-02 6.058025000000000215e-01 -1.791209999999999969e+00 8.042385000000000161e+01 1.524700000000000045e+03
2.299999999999999961e-02 6.054699999999999527e-01 -1.247820000000000151e+00 7.912624999999999886e+01 1.524289999999999964e+03
2.400000000000000050e-02 6.051060000000000327e-01 -6.982699999999999463e-01 7.770924999999999727e+01 1.523855000000000018e+03
2.500000000000000139e-02 6.047365000000000101e-01 -1.048350000000000115e-01 7.623220000000000596e+01 1.523400000000000091e+03
2.600000000000000228e-02 6.043804999999999872e-01 5.596200000000002284e-01 7.475894999999999868e+01 1.522940000000000055e+03
2.700000000000000316e-02 6.040440000000000254e-01 1.295779999999999932e+00 7.333064999999999145e+01 1.522490000000000009e+03
2.800000000000000058e-02 6.037185000000000468e-01 2.072324999999999751e+00 7.194915000000000305e+01 1.522050000000000182e+03
2.900000000000000147e-02 6.033835000000000726e-01 2.830289999999999750e+00 7.057359999999999900e+01 1.521605000000000018e+03
3.000000000000000236e-02 6.030115000000000336e-01 3.494850000000000012e+00 6.912980000000000302e+01 1.521150000000000091e+03
3.099999999999999978e-02 6.025750000000000828e-01 3.991059999999999608e+00 6.752824999999999989e+01 1.520659999999999854e+03
3.200000000000000067e-02 6.020575000000000232e-01 4.260314999999999408e+00 6.568744999999999834e+01 1.520119999999999891e+03
3.300000000000000155e-02 6.014515000000000278e-01 4.273579999999999934e+00 6.355660000000000309e+01 1.519514999999999873e+03
3.400000000000000244e-02 6.007675000000000098e-01 4.038349999999999440e+00 6.113204999999999956e+01 1.518835000000000036e+03
3.500000000000000333e-02 6.000305000000000222e-01 3.596684999999999466e+00 5.846255000000000024e+01 1.518090000000000146e+03
3.600000000000000422e-02 5.992740000000000844e-01 3.016419999999999657e+00 5.564339999999999975e+01 1.517309999999999945e+03
3.700000000000000511e-02 5.985365000000000268e-01 2.377609999999999779e+00 5.280084999999999695e+01 1.516509999999999991e+03
3.799999999999999906e-02 5.978525000000000089e-01 1.759330000000000283e+00 5.007295000000000584e+01 1.515735000000000127e+03
3.899999999999999994e-02 5.972530000000000339e-01 1.229454999999999742e+00 4.759114999999999895e+01 1.515009999999999991e+03
4.000000000000000083e-02 5.967584999999999695e-01 8.386799999999996480e-01 4.546644999999999470e+01 1.514375000000000000e+03
4.100000000000000172e-02 5.963810000000000500e-01 6.191450000000000564e-01 4.378085000000000093e+01 1.513845000000000027e+03
4.200000000000000261e-02 5.961265000000000036e-01 5.863550000000001816e-01 4.258504999999999541e+01 1.513434999999999945e+03
4.300000000000000350e-02 5.959935000000000649e-01 7.434049999999999825e-01 4.190039999999999765e+01 1.513164999999999964e+03
4.400000000000000439e-02 5.959780000000000078e-01 1.086019499999999915e+00 4.172504999999999598e+01 1.513029999999999973e+03
4.499999999999999833e-02 5.960735000000000339e-01 1.607261999999999968e+00 4.204129999999999967e+01 1.513034999999999854e+03
4.599999999999999922e-02 5.962739999999999707e-01 2.300923249999999864e+00 4.282290000000000418e+01 1.513179999999999836e+03
4.700000000000000011e-02 5.965734999999999788e-01 3.162970500000000129e+00 4.404075000000000273e+01 1.513444999999999936e+03
4.800000000000000100e-02 5.969679999999999431e-01 4.191108999999999973e+00 4.566599999999999682e+01 1.513829999999999927e+03
4.900000000000000189e-02 5.974519999999999831e-01 5.382807000000000563e+00 4.767045000000000243e+01 1.514335000000000036e+03
5.000000000000000278e-02 5.980195000000000372e-01 6.732876000000000083e+00 5.002504999999999313e+01 1.514940000000000055e+03
5.100000000000000366e-02 5.986629999999999452e-01 8.231089499999999504e+00 5.269765000000000299e+01 1.515650000000000091e+03
5.200000000000000455e-02 5.993735000000000035e-01 9.860794999999999533e+00 5.565094999999999459e+01 1.516440000000000055e+03
5.300000000000000544e-02 6.001380000000000603e-01 1.159902999999999906e+01 5.884114999999999895e+01 1.517300000000000182e+03
5.399999999999999939e-02 6.009439999999999227e-01 1.341708999999999996e+01 6.221835000000000093e+01 1.518230000000000018e+03
5.500000000000000028e-02 6.017770000000000064e-01 1.528280999999999956e+01 6.572829999999999018e+01 1.519210000000000036e+03
5.600000000000000117e-02 6.026230000000000198e-01 1.716289000000000087e+01 6.931479999999999109e+01 1.520215000000000146e+03
5.700000000000000205e-02 6.034680000000000044e-01 1.902510000000000190e+01 7.292340000000000089e+01 1.521244999999999891e+03
5.800000000000000294e-02 6.043020000000000058e-01 2.084070000000000178e+01 7.650415000000000987e+01 1.522280000000000200e+03
5.900000000000000383e-02 6.051155000000000284e-01 2.258569999999999922e+01 8.001480000000000814e+01 1.523305000000000064e+03
6.000000000000000472e-02 6.059025000000000105e-01 2.424184999999999945e+01 8.342230000000000700e+01 1.524309999999999945e+03
6.099999999999999867e-02 6.066595000000000182e-01 2.579700000000000060e+01 8.670425000000000182e+01 1.525284999999999854e+03
6.199999999999999956e-02 6.073850000000000637e-01 2.724450000000000216e+01 8.984874999999999545e+01 1.526240000000000009e+03
6.300000000000000044e-02 6.080805000000000238e-01 2.858255000000000123e+01 9.285275000000000034e+01 1.527150000000000091e+03
6.400000000000000133e-02 6.087480000000000668e-01 2.981340000000000146e+01 9.572305000000000064e+01 1.528034999999999854e+03
6.500000000000000222e-02 6.093915000000000859e-01 3.094245000000000090e+01 9.847129999999999939e+01 1.528884999999999991e+03
6.600000000000000311e-02 6.100155000000000438e-01 3.197729999999999961e+01 1.011152000000000015e+02 1.529700000000000045e+03
6.700000000000000400e-02 6.106249999999999734e-01 3.292690000000000339e+01 1.036742500000000007e+02 1.530500000000000000e+03
6.800000000000000488e-02 6.112235000000000307e-01 3.380105000000000359e+01 1.061692000000000036e+02 1.531279999999999973e+03
6.900000000000000577e-02 6.118170000000000552e-01 3.460949999999999704e+01 1.086214999999999975e+02 1.532039999999999964e+03
7.000000000000000666e-02 6.124080000000000634e-01 3.536129999999999995e+01 1.110490000000000066e+02 1.532789999999999964e+03
7.100000000000000755e-02 6.130005000000000592e-01 3.606430000000000291e+01 1.134660000000000082e+02 1.533539999999999964e+03
7.200000000000000844e-02 6.135950000000000015e-01 3.672435000000000116e+01 1.158834999999999980e+02 1.534289999999999964e+03
7.300000000000000933e-02 6.141925000000000301e-01 3.734505000000000052e+01 1.183060000000000116e+02 1.535034999999999854e+03
7.399999999999999634e-02 6.147910000000000874e-01 3.792730000000000246e+01 1.207315000000000111e+02 1.535779999999999973e+03
7.499999999999999722e-02 6.153885000000000050e-01 3.846940000000000026e+01 1.231525000000000034e+02 1.536525000000000091e+03
7.599999999999999811e-02 6.159810000000000008e-01 3.896715000000000373e+01 1.255554999999999950e+02 1.537264999999999873e+03
7.699999999999999900e-02 6.165629999999999722e-01 3.941429999999999723e+01 1.279219999999999970e+02 1.537994999999999891e+03
7.799999999999999989e-02 6.171290000000000386e-01 3.980324999999999847e+01 1.302300000000000182e+02 1.538704999999999927e+03
7.900000000000000078e-02 6.176729999999999166e-01 4.012539999999999907e+01 1.324549999999999841e+02 1.539400000000000091e+03
8.000000000000000167e-02 6.181889999999999885e-01 4.037224999999999397e+01 1.345720000000000027e+02 1.540059999999999945e+03
8.100000000000000255e-02 6.186709999999999710e-01 4.053569999999999851e+01 1.365570000000000164e+02 1.540684999999999945e+03
8.200000000000000344e-02 6.191139999999999421e-01 4.060880000000000223e+01 1.383870000000000005e+02 1.541275000000000091e+03
8.300000000000000433e-02 6.195144999999999680e-01 4.058630000000000138e+01 1.400434999999999945e+02 1.541815000000000055e+03
8.400000000000000522e-02 6.198695000000000732e-01 4.046455000000000268e+01 1.415120000000000005e+02 1.542295000000000073e+03
8.500000000000000611e-02 6.201765000000000194e-01 4.024230000000000018e+01 1.427819999999999823e+02 1.542724999999999909e+03
8.600000000000000699e-02 6.204350000000000698e-01 3.992020000000000124e+01 1.438480000000000132e+02 1.543095000000000027e+03
8.700000000000000788e-02 6.206460000000000310e-01 3.950119999999999720e+01 1.447105000000000246e+02 1.543400000000000091e+03
8.800000000000000877e-02 6.208099999999999730e-01 3.899030000000000484e+01 1.453739999999999952e+02 1.543654999999999973e+03
8.899999999999999578e-02 6.209299999999999820e-01 3.839440000000000452e+01 1.458485000000000014e+02 1.543845000000000027e+03
8.999999999999999667e-02 6.210094999999999921e-01 3.772220000000000084e+01 1.461460000000000150e+02 1.543990000000000009e+03
9.099999999999999756e-02 6.210519999999999374e-01 3.698389999999999844e+01 1.462835000000000036e+02 1.544079999999999927e+03
9.199999999999999845e-02 6.210634999999999906e-01 3.619079999999999586e+01 1.462810000000000059e+02 1.544125000000000000e+03
9.299999999999999933e-02 6.210474999999999746e-01 3.535500000000000398e+01 1.461589999999999918e+02 1.544130000000000109e+03
9.400000000000000022e-02 6.210105000000000208e-01 3.448904999999999887e+01 1.459404999999999859e+02 1.544105000000000018e+03
9.500000000000000111e-02 6.209564999999999113e-01 3.360564999999999714e+01 1.456475000000000080e+02 1.544049999999999955e+03
9.600000000000000200e-02 6.208919999999999995e-01 3.271695000000000420e+01 1.453025000000000091e+02 1.543970000000000027e+03
9.700000000000000289e-02 6.208204999999999973e-01 3.183409999999999940e+01 1.449270000000000209e+02 1.543884999999999991e+03
9.800000000000000377e-02 6.207475000000000076e-01 3.096744999999999948e+01 1.445384999999999991e+02 1.543784999999999854e+03
9.900000000000000466e-02 6.206749999999999767e-01 3.012530000000000285e+01 1.441550000000000011e+02 1.543684999999999945e+03
1.000000000000000056e-01 6.206064999999999499e-01 2.931434999999999746e+01 1.437884999999999991e+02 1.543579999999999927e+03
1.010000000000000064e-01 6.205439999999999845e-01 2.853925000000000267e+01 1.434480000000000075e+02 1.543480000000000018e+03
1.020000000000000073e-01 6.204879999999999285e-01 2.780239999999999867e+01 1.431405000000000030e+02 1.543389999999999873e+03
1.030000000000000082e-01 6.204389999999999628e-01 2.710415000000000418e+01 1.428659999999999854e+02 1.543304999999999836e+03
1.040000000000000091e-01 6.203954999999999886e-01 2.644290000000000163e+01 1.426239999999999952e+02 1.543224999999999909e+03
1.050000000000000100e-01 6.203560000000000185e-01 2.581510000000000105e+01 1.424095000000000084e+02 1.543150000000000091e+03
1.059999999999999970e-01 6.203194999999999126e-01 2.521594999999999942e+01 1.422144999999999868e+02 1.543085000000000036e+03
1.069999999999999979e-01 6.202825000000000699e-01 2.463945000000000007e+01 1.420289999999999964e+02 1.543025000000000091e+03
1.079999999999999988e-01 6.202425000000000299e-01 2.407870000000000132e+01 1.418414999999999964e+02 1.542965000000000146e+03
1.089999999999999997e-01 6.201965000000000394e-01 2.352640000000000242e+01 1.416394999999999982e+02 1.542894999999999982e+03
1.100000000000000006e-01 6.201425000000000409e-01 2.297534999999999883e+01 1.414110000000000014e+02 1.542825000000000045e+03
1.110000000000000014e-01 6.200765000000000304e-01 2.241859999999999786e+01 1.411444999999999936e+02 1.542744999999999891e+03
1.120000000000000023e-01 6.199970000000000203e-01 2.184975000000000023e+01 1.408294999999999959e+02 1.542650000000000091e+03
1.130000000000000032e-01 6.199025000000000230e-01 2.126350000000000051e+01 1.404560000000000173e+02 1.542539999999999964e+03
1.140000000000000041e-01 6.197915000000000507e-01 2.065569999999999951e+01 1.400190000000000055e+02 1.542414999999999964e+03
1.150000000000000050e-01 6.196635000000000337e-01 2.002339999999999876e+01 1.395124999999999886e+02 1.542275000000000091e+03
1.160000000000000059e-01 6.195180000000000131e-01 1.936550000000000082e+01 1.389370000000000118e+02 1.542110000000000127e+03
1.170000000000000068e-01 6.193569999999999354e-01 1.868210000000000193e+01 1.382930000000000064e+02 1.541925000000000182e+03
1.180000000000000077e-01 6.191805000000000225e-01 1.797514999999999930e+01 1.375844999999999914e+02 1.541730000000000018e+03
1.190000000000000085e-01 6.189914999999999168e-01 1.724804999999999922e+01 1.368190000000000168e+02 1.541510000000000218e+03
1.200000000000000094e-01 6.187914999999999388e-01 1.650570000000000093e+01 1.360060000000000002e+02 1.541275000000000091e+03
1.209999999999999964e-01 6.185844999999999816e-01 1.575399999999999956e+01 1.351575000000000273e+02 1.541034999999999854e+03
1.219999999999999973e-01 6.183739999999999792e-01 1.500003500000000045e+01 1.342860000000000014e+02 1.540779999999999973e+03
1.229999999999999982e-01 6.181630000000000180e-01 1.425150999999999968e+01 1.334064999999999941e+02 1.540529999999999973e+03
1.239999999999999991e-01 6.179554999999999909e-01 1.351637999999999984e+01 1.325339999999999918e+02 1.540269999999999982e+03
1.250000000000000000e-01 6.177544999999999842e-01 1.280292000000000030e+01 1.316829999999999927e+02 1.540019999999999982e+03
1.260000000000000009e-01 6.175640000000000018e-01 1.211887499999999918e+01 1.308685000000000116e+02 1.539769999999999982e+03
1.270000000000000018e-01 6.173865000000000602e-01 1.147163499999999914e+01 1.301040000000000134e+02 1.539539999999999964e+03
1.280000000000000027e-01 6.172245000000000648e-01 1.086766000000000076e+01 1.294004999999999939e+02 1.539324999999999818e+03
1.290000000000000036e-01 6.170809999999999906e-01 1.031236499999999978e+01 1.287680000000000007e+02 1.539125000000000000e+03
1.300000000000000044e-01 6.169569999999999776e-01 9.809879999999999711e+00 1.282135000000000105e+02 1.538940000000000055e+03
1.310000000000000053e-01 6.168525000000000258e-01 9.362975000000000492e+00 1.277424999999999926e+02 1.538784999999999854e+03
1.320000000000000062e-01 6.167685000000000528e-01 8.973040000000001015e+00 1.273564999999999969e+02 1.538659999999999854e+03
1.330000000000000071e-01 6.167040000000000299e-01 8.639905000000000612e+00 1.270545000000000044e+02 1.538545000000000073e+03
1.340000000000000080e-01 6.166589999999999572e-01 8.362164999999999182e+00 1.268340000000000032e+02 1.538460000000000036e+03
1.350000000000000089e-01 6.166305000000000813e-01 8.137119999999999465e+00 1.266889999999999930e+02 1.538400000000000091e+03
1.360000000000000098e-01 6.166175000000000406e-01 7.960960000000000036e+00 1.266129999999999995e+02 1.538349999999999909e+03
1.370000000000000107e-01 6.166175000000000406e-01 7.829044999999999810e+00 1.265964999999999918e+02 1.538324999999999818e+03
1.380000000000000115e-01 6.166285000000000238e-01 7.736069999999999780e+00 1.266299999999999955e+02 1.538320000000000164e+03
1.390000000000000124e-01 6.166475000000000151e-01 7.676294999999999646e+00 1.267034999999999911e+02 1.538324999999999818e+03
1.400000000000000133e-01 6.166724999999999568e-01 7.643794999999999895e+00 1.268064999999999998e+02 1.538340000000000146e+03
1.410000000000000142e-01 6.167000000000000259e-01 7.632645000000000124e+00 1.269274999999999949e+02 1.538360000000000127e+03
1.420000000000000151e-01 6.167294999999999305e-01 7.637134999999999785e+00 1.270579999999999927e+02 1.538389999999999873e+03
1.430000000000000160e-01 6.167580000000000284e-01 7.651894999999999669e+00 1.271889999999999930e+02 1.538414999999999964e+03
1.440000000000000169e-01 6.167839999999999989e-01 7.672055000000000291e+00 1.273125000000000000e+02 1.538445000000000164e+03
1.450000000000000178e-01 6.168059999999999654e-01 7.693319999999999936e+00 1.274230000000000018e+02 1.538474999999999909e+03
1.459999999999999909e-01 6.168234999999999690e-01 7.712035000000000196e+00 1.275144999999999982e+02 1.538494999999999891e+03
1.469999999999999918e-01 6.168359999999999399e-01 7.725215000000000387e+00 1.275850000000000080e+02 1.538514999999999873e+03
1.479999999999999927e-01 6.168420000000000014e-01 7.730570000000000164e+00 1.276310000000000002e+02 1.538529999999999973e+03
1.489999999999999936e-01 6.168424999999999603e-01 7.726459999999999440e+00 1.276514999999999986e+02 1.538535000000000082e+03
1.499999999999999944e-01 6.168369999999999687e-01 7.711904999999999788e+00 1.276469999999999914e+02 1.538535000000000082e+03
1.509999999999999953e-01 6.168264999999999443e-01 7.686500000000000554e+00 1.276195000000000022e+02 1.538529999999999973e+03
1.519999999999999962e-01 6.168115000000000681e-01 7.650389999999999802e+00 1.275695000000000050e+02 1.538519999999999982e+03
1.529999999999999971e-01 6.167924999999999658e-01 7.604174999999999685e+00 1.275004999999999882e+02 1.538505000000000109e+03
1.539999999999999980e-01 6.167694999999999705e-01 7.548860000000000348e+00 1.274149999999999920e+02 1.538485000000000127e+03
1.549999999999999989e-01 6.167439999999999589e-01 7.485775000000000290e+00 1.273170000000000073e+02 1.538460000000000036e+03
1.559999999999999998e-01 6.167175000000000296e-01 7.416444999999999510e+00 1.272094999999999914e+02 1.538429999999999836e+03
1.570000000000000007e-01 6.166895000000000016e-01 7.342570000000000263e+00 1.270964999999999918e+02 1.538400000000000091e+03
1.580000000000000016e-01 6.166614999999999736e-01 7.265895000000000437e+00 1.269805000000000064e+02 1.538365000000000009e+03
1.590000000000000024e-01 6.166344999999999743e-01 7.188109999999999999e+00 1.268654999999999973e+02 1.538335000000000036e+03
