# t [s], A [cm^2], U [cm/s], P [cPa], c [cm/s]
1.000000000000000021e-03 2.096330000000000138e-01 2.260260000000000047e-01 9.100854999999999961e+01 2.079265000000000327e+03
2.000000000000000042e-03 2.095890000000000253e-01 1.551992500000000108e+00 8.815285000000000082e+01 2.078954999999999927e+03
3.000000000000000062e-03 2.094584999999999919e-01 3.219815499999999719e+00 8.414959999999999241e+01 2.078079999999999927e+03
4.000000000000000083e-03 2.092735000000000012e-01 5.107110249999999851e+00 7.965649999999999409e+01 2.076869999999999891e+03
5.000000000000000104e-03 2.090704999999999925e-01 7.157704999999999984e+00 7.549490000000000123e+01 2.075550000000000182e+03
6.000000000000000125e-03 2.088724999999999887e-01 9.230330000000000368e+00 7.202490000000000236e+01 2.074269999999999982e+03
7.000000000000000146e-03 2.086859999999999826e-01 1.112440499999999943e+01 6.908859999999999957e+01 2.073085000000000036e+03
8.000000000000000167e-03 2.085130000000000039e-01 1.273344499999999968e+01 6.644270000000000209e+01 2.072010000000000218e+03
9.000000000000001055e-03 2.083579999999999877e-01 1.407728499999999983e+01 6.409749999999999659e+01 2.071064999999999600e+03
1.000000000000000194e-02 2.082260000000000222e-01 1.519350000000000023e+01 6.214435000000000286e+01 2.070260000000000218e+03
1.099999999999999936e-02 2.081164999999999821e-01 1.609874999999999901e+01 6.058865000000000123e+01 2.069610000000000127e+03
1.200000000000000025e-02 2.080285000000000051e-01 1.680409999999999826e+01 5.937964999999999804e+01 2.069085000000000036e+03
1.300000000000000114e-02 2.079584999999999906e-01 1.731235000000000213e+01 5.842784999999999940e+01 2.068679999999999836e+03
1.400000000000000203e-02 2.079014999999999891e-01 1.762569999999999837e+01 5.761480000000000246e+01 2.068349999999999909e+03
1.499999999999999944e-02 2.078534999999999966e-01 1.778500000000000014e+01 5.689239999999999498e+01 2.068085000000000036e+03
1.600000000000000033e-02 2.078174999999999883e-01 1.789495000000000147e+01 5.639610000000000412e+01 2.067885000000000218e+03
1.700000000000000122e-02 2.078015000000000001e-01 1.809554999999999936e+01 5.642629999999999768e+01 2.067805000000000291e+03
1.800000000000000211e-02 2.078160000000000007e-01 1.849434999999999718e+01 5.727894999999999470e+01 2.067899999999999636e+03
1.900000000000000300e-02 2.078654999999999808e-01 1.911025000000000063e+01 5.904860000000000042e+01 2.068199999999999818e+03
2.000000000000000042e-02 2.079465000000000063e-01 1.986220000000000141e+01 6.153345000000000198e+01 2.068685000000000400e+03
2.100000000000000130e-02 2.080464999999999953e-01 2.060345000000000226e+01 6.428789999999999338e+01 2.069300000000000182e+03
2.200000000000000219e-02 2.081485000000000141e-01 2.117924999999999969e+01 6.677934999999999377e+01 2.069934999999999945e+03
2.299999999999999961e-02 2.082364999999999911e-01 2.147984999999999900e+01 6.856765000000000043e+01 2.070489999999999782e+03
2.400000000000000050e-02 2.082984999999999975e-01 2.147054999999999936e+01 6.943375000000000341e+01 2.070885000000000218e+03
2.500000000000000139e-02 2.083295000000000008e-01 2.119084999999999752e+01 6.941639999999999588e+01 2.071099999999999909e+03
2.600000000000000228e-02 2.083335000000000048e-01 2.072874999999999801e+01 6.875745000000000573e+01 2.071150000000000091e+03
2.700000000000000316e-02 2.083189999999999764e-01 2.018244999999999933e+01 6.778684999999998695e+01 2.071074999999999818e+03
2.800000000000000058e-02 2.082950000000000079e-01 1.962579999999999814e+01 6.679784999999999684e+01 2.070934999999999945e+03
2.900000000000000147e-02 2.082689999999999819e-01 1.908885000000000076e+01 6.595844999999999914e+01 2.070774999999999636e+03
3.000000000000000236e-02 2.082439999999999847e-01 1.855809999999999960e+01 6.528294999999999959e+01 2.070619999999999891e+03
3.099999999999999978e-02 2.082189999999999874e-01 1.799200000000000088e+01 6.466204999999999359e+01 2.070470000000000255e+03
3.200000000000000067e-02 2.081905000000000006e-01 1.734510000000000218e+01 6.393314999999999770e+01 2.070300000000000182e+03
3.300000000000000155e-02 2.081545000000000201e-01 1.659174999999999756e+01 6.296175000000000210e+01 2.070079999999999927e+03
3.400000000000000244e-02 2.081085000000000018e-01 1.574239999999999995e+01 6.170754999999999768e+01 2.069805000000000291e+03
3.500000000000000333e-02 2.080535000000000023e-01 1.484755000000000003e+01 6.025540000000000873e+01 2.069475000000000364e+03
3.600000000000000422e-02 2.079944999999999988e-01 1.398794999999999966e+01 5.880290000000000106e+01 2.069119999999999891e+03
3.700000000000000511e-02 2.079405000000000003e-01 1.325534999999999997e+01 5.760954999999999870e+01 2.068784999999999854e+03
3.799999999999999906e-02 2.079000000000000015e-01 1.272909999999999897e+01 5.692520000000000380e+01 2.068534999999999854e+03
3.899999999999999994e-02 2.078809999999999825e-01 1.245604999999999940e+01 5.692014999999999958e+01 2.068404999999999745e+03
4.000000000000000083e-02 2.078879999999999895e-01 1.243965000000000032e+01 5.763915000000000077e+01 2.068430000000000291e+03
4.100000000000000172e-02 2.079210000000000225e-01 1.263945000000000007e+01 5.898789999999999623e+01 2.068609999999999673e+03
4.200000000000000261e-02 2.079739999999999922e-01 1.298090000000000011e+01 6.075435000000000230e+01 2.068925000000000182e+03
4.300000000000000350e-02 2.080400000000000027e-01 1.337014999999999887e+01 6.265390000000000015e+01 2.069315000000000055e+03
4.400000000000000439e-02 2.081085000000000018e-01 1.371140000000000114e+01 6.438500000000000512e+01 2.069730000000000018e+03
4.499999999999999833e-02 2.081684999999999786e-01 1.392135000000000034e+01 6.568074999999998909e+01 2.070099999999999909e+03
4.599999999999999922e-02 2.082114999999999938e-01 1.393925000000000125e+01 6.634749999999999659e+01 2.070375000000000000e+03
4.700000000000000011e-02 2.082309999999999994e-01 1.373114999999999952e+01 6.628290000000001214e+01 2.070494999999999891e+03
4.800000000000000100e-02 2.082229999999999914e-01 1.328894999999999982e+01 6.547544999999999504e+01 2.070460000000000036e+03
4.900000000000000189e-02 2.081874999999999976e-01 1.262529999999999930e+01 6.398839999999999861e+01 2.070255000000000109e+03
5.000000000000000278e-02 2.081260000000000054e-01 1.176714499999999930e+01 6.193435000000000201e+01 2.069890000000000327e+03
5.100000000000000366e-02 2.080430000000000057e-01 1.074868999999999986e+01 5.944899999999999807e+01 2.069389999999999873e+03
5.200000000000000455e-02 2.079420000000000157e-01 9.606439999999999202e+00 5.666885000000000616e+01 2.068779999999999745e+03
5.300000000000000544e-02 2.078289999999999860e-01 8.375859999999999417e+00 5.371685000000000088e+01 2.068090000000000146e+03
5.399999999999999939e-02 2.077064999999999884e-01 7.090685000000000571e+00 5.069679999999999609e+01 2.067349999999999909e+03
5.500000000000000028e-02 2.075805000000000011e-01 5.783290000000000042e+00 4.769480000000000075e+01 2.066574999999999818e+03
5.600000000000000117e-02 2.074535000000000129e-01 4.486184999999999867e+00 4.478549999999999898e+01 2.065800000000000182e+03
5.700000000000000205e-02 2.073294999999999999e-01 3.233314650000000068e+00 4.203929999999999723e+01 2.065034999999999854e+03
5.800000000000000294e-02 2.072114999999999929e-01 2.060766500000000168e+00 3.952805000000000035e+01 2.064309999999999945e+03
5.900000000000000383e-02 2.071029999999999816e-01 1.006469999999999754e+00 3.732815000000000083e+01 2.063644999999999982e+03
6.000000000000000472e-02 2.070079999999999976e-01 1.088700000000000223e-01 3.551959999999999695e+01 2.063050000000000182e+03
6.099999999999999867e-02 2.069294999999999884e-01 -5.951199999999998713e-01 3.418189999999999884e+01 2.062559999999999945e+03
6.199999999999999956e-02 2.068705000000000127e-01 -1.072748899999999894e+00 3.338774999999999693e+01 2.062184999999999945e+03
6.300000000000000044e-02 2.068344999999999767e-01 -1.297882999999999898e+00 3.319570000000000221e+01 2.061949999999999818e+03
6.400000000000000133e-02 2.068244999999999945e-01 -1.253149999999999986e+00 3.364394999999999669e+01 2.061869999999999891e+03
6.500000000000000222e-02 2.068409999999999971e-01 -9.313584999999999781e-01 3.474575000000000102e+01 2.061954999999999927e+03
6.600000000000000311e-02 2.068844999999999990e-01 -3.360400000000000054e-01 3.648704999999999643e+01 2.062199999999999818e+03
6.700000000000000400e-02 2.069550000000000001e-01 5.188700000000000534e-01 3.882720000000000482e+01 2.062609999999999673e+03
6.800000000000000488e-02 2.070504999999999984e-01 1.610049999999999981e+00 4.170204999999999984e+01 2.063175000000000182e+03
6.900000000000000577e-02 2.071679999999999910e-01 2.906473599999999990e+00 4.502830000000000155e+01 2.063885000000000218e+03
7.000000000000000666e-02 2.073055000000000037e-01 4.371394999999999698e+00 4.871014999999999873e+01 2.064710000000000036e+03
7.100000000000000755e-02 2.074584999999999901e-01 5.964640000000000164e+00 5.264504999999999768e+01 2.065639999999999873e+03
7.200000000000000844e-02 2.076230000000000020e-01 7.644874999999999865e+00 5.673069999999999879e+01 2.066640000000000327e+03
7.300000000000000933e-02 2.077950000000000075e-01 9.371879999999999100e+00 6.087115000000000009e+01 2.067684999999999945e+03
7.399999999999999634e-02 2.079705000000000026e-01 1.110857999999999990e+01 6.498199999999999932e+01 2.068765000000000327e+03
7.499999999999999722e-02 2.081465000000000121e-01 1.282273499999999977e+01 6.899465000000000714e+01 2.069850000000000364e+03
7.599999999999999811e-02 2.083194999999999908e-01 1.448815000000000097e+01 7.285904999999999632e+01 2.070914999999999964e+03
7.699999999999999900e-02 2.084880000000000067e-01 1.608555000000000135e+01 7.654500000000000171e+01 2.071960000000000036e+03
7.799999999999999989e-02 2.086505000000000165e-01 1.760255000000000081e+01 8.004144999999999754e+01 2.072970000000000255e+03
7.900000000000000078e-02 2.088070000000000204e-01 1.903340000000000032e+01 8.335455000000000325e+01 2.073940000000000055e+03
8.000000000000000167e-02 2.089570000000000038e-01 2.037805000000000177e+01 8.650444999999999141e+01 2.074880000000000109e+03
8.100000000000000255e-02 2.091004999999999947e-01 2.164090000000000202e+01 8.952074999999999250e+01 2.075775000000000091e+03
8.200000000000000344e-02 2.092394999999999949e-01 2.282950000000000301e+01 9.243815000000000737e+01 2.076644999999999982e+03
8.300000000000000433e-02 2.093750000000000056e-01 2.395299999999999940e+01 9.529210000000000491e+01 2.077500000000000000e+03
8.400000000000000522e-02 2.095079999999999998e-01 2.502089999999999748e+01 9.811400000000000432e+01 2.078329999999999927e+03
8.500000000000000611e-02 2.096395000000000064e-01 2.604200000000000159e+01 1.009295500000000061e+02 2.079154999999999745e+03
8.600000000000000699e-02 2.097709999999999853e-01 2.702349999999999852e+01 1.037570000000000050e+02 2.079974999999999909e+03
8.700000000000000788e-02 2.099019999999999775e-01 2.797025000000000006e+01 1.066034999999999968e+02 2.080800000000000182e+03
8.800000000000000877e-02 2.100339999999999985e-01 2.888479999999999848e+01 1.094685000000000059e+02 2.081625000000000000e+03
8.899999999999999578e-02 2.101660000000000195e-01 2.976720000000000255e+01 1.123439999999999941e+02 2.082460000000000036e+03
8.999999999999999667e-02 2.102979999999999849e-01 3.061495000000000033e+01 1.152120000000000033e+02 2.083284999999999854e+03
9.099999999999999756e-02 2.104294999999999916e-01 3.142360000000000042e+01 1.180510000000000019e+02 2.084110000000000127e+03
9.199999999999999845e-02 2.105595000000000105e-01 3.218665000000000020e+01 1.208344999999999914e+02 2.084925000000000182e+03
9.299999999999999933e-02 2.106864999999999988e-01 3.289634999999999820e+01 1.235340000000000060e+02 2.085724999999999909e+03
9.400000000000000022e-02 2.108099999999999974e-01 3.354384999999999906e+01 1.261175000000000068e+02 2.086500000000000000e+03
9.500000000000000111e-02 2.109280000000000044e-01 3.412000000000000455e+01 1.285564999999999998e+02 2.087239999999999782e+03
9.600000000000000200e-02 2.110394999999999910e-01 3.461520000000000152e+01 1.308209999999999980e+02 2.087949999999999818e+03
9.700000000000000289e-02 2.111434999999999840e-01 3.502069999999999794e+01 1.328849999999999909e+02 2.088605000000000018e+03
9.800000000000000377e-02 2.112390000000000101e-01 3.532849999999999824e+01 1.347250000000000227e+02 2.089210000000000036e+03
9.900000000000000466e-02 2.113244999999999985e-01 3.553204999999999814e+01 1.363224999999999909e+02 2.089760000000000218e+03
1.000000000000000056e-01 2.114000000000000046e-01 3.562675000000000125e+01 1.376639999999999873e+02 2.090234999999999673e+03
1.010000000000000064e-01 2.114644999999999997e-01 3.561015000000000441e+01 1.387425000000000068e+02 2.090650000000000091e+03
1.020000000000000073e-01 2.115174999999999972e-01 3.548259999999999792e+01 1.395584999999999809e+02 2.090989999999999782e+03
1.030000000000000082e-01 2.115589999999999971e-01 3.524689999999999657e+01 1.401189999999999998e+02 2.091260000000000218e+03
1.040000000000000091e-01 2.115894999999999859e-01 3.490874999999999773e+01 1.404370000000000118e+02 2.091465000000000146e+03
1.050000000000000100e-01 2.116100000000000203e-01 3.447619999999999862e+01 1.405319999999999823e+02 2.091599999999999909e+03
1.059999999999999970e-01 2.116200000000000025e-01 3.395955000000000013e+01 1.404295000000000186e+02 2.091670000000000073e+03
1.069999999999999979e-01 2.116215000000000179e-01 3.337084999999999724e+01 1.401585000000000036e+02 2.091690000000000055e+03
1.079999999999999988e-01 2.116155000000000119e-01 3.272344999999999970e+01 1.397500000000000000e+02 2.091664999999999964e+03
1.089999999999999997e-01 2.116040000000000143e-01 3.203130000000000166e+01 1.392375000000000114e+02 2.091595000000000255e+03
1.100000000000000006e-01 2.115865000000000107e-01 3.130845000000000056e+01 1.386514999999999986e+02 2.091489999999999782e+03
1.110000000000000014e-01 2.115654999999999897e-01 3.056834999999999880e+01 1.380230000000000246e+02 2.091364999999999782e+03
1.120000000000000023e-01 2.115424999999999944e-01 2.982370000000000232e+01 1.373785000000000025e+02 2.091220000000000255e+03
1.130000000000000032e-01 2.115180000000000116e-01 2.908545000000000158e+01 1.367404999999999973e+02 2.091069999999999709e+03
1.140000000000000041e-01 2.114935000000000009e-01 2.836305000000000121e+01 1.361274999999999977e+02 2.090914999999999964e+03
1.150000000000000050e-01 2.114690000000000181e-01 2.766375000000000028e+01 1.355525000000000091e+02 2.090760000000000218e+03
1.160000000000000059e-01 2.114459999999999951e-01 2.699255000000000138e+01 1.350219999999999914e+02 2.090609999999999673e+03
1.170000000000000068e-01 2.114234999999999864e-01 2.635239999999999938e+01 1.345384999999999991e+02 2.090475000000000364e+03
1.180000000000000077e-01 2.114030000000000076e-01 2.574369999999999692e+01 1.340989999999999895e+02 2.090340000000000146e+03
1.190000000000000085e-01 2.113840000000000163e-01 2.516495000000000104e+01 1.336954999999999814e+02 2.090220000000000255e+03
1.200000000000000094e-01 2.113654999999999839e-01 2.461274999999999835e+01 1.333154999999999859e+02 2.090105000000000018e+03
1.209999999999999964e-01 2.113479999999999803e-01 2.408184999999999931e+01 1.329445000000000050e+02 2.089989999999999782e+03
1.219999999999999973e-01 2.113305000000000045e-01 2.356604999999999706e+01 1.325654999999999859e+02 2.089880000000000109e+03
1.229999999999999982e-01 2.113125000000000142e-01 2.305810000000000315e+01 1.321585000000000036e+02 2.089760000000000218e+03
1.239999999999999991e-01 2.112930000000000086e-01 2.255044999999999789e+01 1.317055000000000007e+02 2.089640000000000327e+03
1.250000000000000000e-01 2.112715000000000010e-01 2.203555000000000064e+01 1.311885000000000048e+02 2.089505000000000109e+03
1.260000000000000009e-01 2.112470000000000181e-01 2.150645000000000095e+01 1.305910000000000082e+02 2.089349999999999909e+03
1.270000000000000018e-01 2.112195000000000045e-01 2.095700000000000074e+01 1.299010000000000105e+02 2.089179999999999836e+03
1.280000000000000027e-01 2.111879999999999868e-01 2.038240000000000052e+01 1.291074999999999875e+02 2.088975000000000364e+03
1.290000000000000036e-01 2.111520000000000064e-01 1.977940000000000254e+01 1.282065000000000055e+02 2.088755000000000109e+03
1.300000000000000044e-01 2.111115000000000075e-01 1.914665000000000106e+01 1.271980000000000075e+02 2.088500000000000000e+03
1.310000000000000053e-01 2.110670000000000046e-01 1.848470000000000013e+01 1.260854999999999961e+02 2.088220000000000255e+03
1.320000000000000062e-01 2.110174999999999967e-01 1.779615000000000080e+01 1.248805000000000121e+02 2.087920000000000073e+03
1.330000000000000071e-01 2.109644999999999992e-01 1.708549999999999969e+01 1.235955000000000013e+02 2.087585000000000036e+03
1.340000000000000080e-01 2.109084999999999988e-01 1.635895000000000010e+01 1.222500000000000000e+02 2.087234999999999673e+03
1.350000000000000089e-01 2.108495000000000230e-01 1.562424999999999997e+01 1.208650000000000091e+02 2.086869999999999891e+03
1.360000000000000098e-01 2.107884999999999898e-01 1.489020000000000010e+01 1.194645000000000010e+02 2.086489999999999782e+03
1.370000000000000107e-01 2.107269999999999976e-01 1.416625000000000156e+01 1.180734999999999957e+02 2.086110000000000127e+03
1.380000000000000115e-01 2.106660000000000199e-01 1.346219999999999928e+01 1.167169999999999987e+02 2.085725000000000364e+03
1.390000000000000124e-01 2.106065000000000020e-01 1.278754999999999953e+01 1.154184999999999945e+02 2.085349999999999909e+03
1.400000000000000133e-01 2.105495000000000005e-01 1.215125000000000099e+01 1.142005000000000052e+02 2.084989999999999782e+03
1.410000000000000142e-01 2.104955000000000020e-01 1.156119999999999948e+01 1.130810000000000031e+02 2.084654999999999745e+03
1.420000000000000151e-01 2.104455000000000076e-01 1.102404999999999902e+01 1.120750000000000028e+02 2.084335000000000036e+03
1.430000000000000160e-01 2.103999999999999759e-01 1.054483499999999907e+01 1.111935000000000002e+02 2.084045000000000073e+03
1.440000000000000169e-01 2.103595000000000048e-01 1.012676499999999891e+01 1.104414999999999907e+02 2.083789999999999964e+03
1.450000000000000178e-01 2.103245000000000253e-01 9.771609999999999019e+00 1.098225000000000051e+02 2.083569999999999709e+03
1.459999999999999909e-01 2.102950000000000097e-01 9.479084999999999539e+00 1.093329999999999984e+02 2.083380000000000109e+03
1.469999999999999918e-01 2.102709999999999857e-01 9.247620000000001284e+00 1.089680000000000035e+02 2.083224999999999909e+03
1.479999999999999927e-01 2.102519999999999945e-01 9.074049999999999727e+00 1.087175000000000011e+02 2.083105000000000018e+03
1.489999999999999936e-01 2.102384999999999948e-01 8.954029999999999490e+00 1.085709999999999980e+02 2.083010000000000218e+03
1.499999999999999944e-01 2.102289999999999992e-01 8.882274999999999920e+00 1.085140000000000100e+02 2.082944999999999709e+03
1.509999999999999953e-01 2.102235000000000076e-01 8.852800000000000225e+00 1.085330000000000013e+02 2.082904999999999745e+03
1.519999999999999962e-01 2.102209999999999912e-01 8.859169999999998879e+00 1.086135000000000019e+02 2.082889999999999873e+03
1.529999999999999971e-01 2.102220000000000200e-01 8.894745000000000346e+00 1.087404999999999973e+02 2.082890000000000327e+03
1.539999999999999980e-01 2.102249999999999952e-01 8.952919999999998879e+00 1.088995000000000033e+02 2.082904999999999745e+03
1.549999999999999989e-01 2.102295000000000136e-01 9.027319999999999567e+00 1.090785000000000053e+02 2.082930000000000291e+03
1.559999999999999998e-01 2.102350000000000052e-01 9.111975000000001046e+00 1.092655000000000030e+02 2.082965000000000146e+03
1.570000000000000007e-01 2.102414999999999978e-01 9.201480000000000103e+00 1.094495000000000005e+02 2.083000000000000000e+03
1.580000000000000016e-01 2.102479999999999905e-01 9.291084999999998928e+00 1.096235000000000070e+02 2.083039999999999964e+03
1.590000000000000024e-01 2.102539999999999965e-01 9.376799999999999358e+00 1.097805000000000035e+02 2.083074999999999818e+03
