# t [s], A [cm^2], U [cm/s], P [cPa], c [cm/s]
1.000000000000000021e-03 7.892315000000000857e-01 5.161699999999998234e-03 9.497634999999999650e+01 1.651630000000000109e+03
2.000000000000000042e-03 7.892179999999999751e-01 -3.085119999999999790e-03 9.494794999999999163e+01 1.651630000000000109e+03
3.000000000000000062e-03 7.892794999999999117e-01 8.581885000000000208e-02 9.504455000000000098e+01 1.651650000000000091e+03
4.000000000000000083e-03 7.893395000000000827e-01 1.833562499999999984e-01 9.516809999999999548e+01 1.651674999999999955e+03
5.000000000000000104e-03 7.893129999999999313e-01 1.669495000000000007e-01 9.512415000000000020e+01 1.651664999999999964e+03
6.000000000000000125e-03 7.892354999999999787e-01 7.440599999999999992e-02 9.491745000000000232e+01 1.651625000000000000e+03
7.000000000000000146e-03 7.891699999999999271e-01 -8.620000000000016538e-03 9.465909999999999513e+01 1.651570000000000164e+03
8.000000000000000167e-03 7.890734999999999832e-01 -1.474405000000000299e-01 9.428884999999999650e+01 1.651490000000000009e+03
9.000000000000001055e-03 7.889079999999999426e-01 -4.038149999999999240e-01 9.371235000000000070e+01 1.651375000000000000e+03
1.000000000000000194e-02 7.886664999999999370e-01 -7.855249999999999178e-01 9.288370000000000459e+01 1.651199999999999818e+03
1.099999999999999936e-02 7.883299999999999752e-01 -1.313574999999999937e+00 9.173865000000000691e+01 1.650960000000000036e+03
1.200000000000000025e-02 7.878840000000000288e-01 -1.993454999999999977e+00 9.022534999999999172e+01 1.650634999999999991e+03
1.300000000000000114e-02 7.873630000000000351e-01 -2.752620000000000289e+00 8.839560000000000173e+01 1.650235000000000127e+03
1.400000000000000203e-02 7.868444999999999467e-01 -3.449899999999999523e+00 8.641925000000000523e+01 1.649789999999999964e+03
1.499999999999999944e-02 7.863995000000000291e-01 -3.945811500000000027e+00 8.450485000000000468e+01 1.649339999999999918e+03
1.600000000000000033e-02 7.860584999999999933e-01 -4.163781000000000176e+00 8.280535000000000423e+01 1.648925000000000182e+03
1.700000000000000122e-02 7.858074999999999921e-01 -4.106589000000000489e+00 8.137004999999999200e+01 1.648545000000000073e+03
1.800000000000000211e-02 7.856009999999999938e-01 -3.836340000000000305e+00 8.015035000000000309e+01 1.648210000000000036e+03
1.900000000000000300e-02 7.853890000000000038e-01 -3.439332499999999904e+00 7.903854999999998654e+01 1.647884999999999991e+03
2.000000000000000042e-02 7.851319999999999411e-01 -2.991998000000000157e+00 7.791730000000001155e+01 1.647565000000000055e+03
2.100000000000000130e-02 7.848140000000000116e-01 -2.537703500000000112e+00 7.670304999999999040e+01 1.647224999999999909e+03
2.200000000000000219e-02 7.844450000000000589e-01 -2.080130000000000035e+00 7.536914999999999054e+01 1.646865000000000009e+03
2.299999999999999961e-02 7.840489999999999959e-01 -1.593834999999999891e+00 7.394370000000000687e+01 1.646485000000000127e+03
2.400000000000000050e-02 7.836535000000000029e-01 -1.045965000000000034e+00 7.248474999999999113e+01 1.646095000000000027e+03
2.500000000000000139e-02 7.832764999999999311e-01 -4.188649999999998208e-01 7.104715000000000202e+01 1.645699999999999818e+03
2.600000000000000228e-02 7.829174999999999329e-01 2.753950000000000564e-01 6.965430000000000632e+01 1.645320000000000164e+03
2.700000000000000316e-02 7.825575000000000170e-01 9.921699999999999964e-01 6.828345000000000198e+01 1.644945000000000164e+03
2.800000000000000058e-02 7.821659999999999169e-01 1.662155000000000049e+00 6.686844999999999573e+01 1.644555000000000064e+03
2.900000000000000147e-02 7.817095000000000571e-01 2.206494999999999873e+00 6.531520000000000437e+01 1.644139999999999873e+03
3.000000000000000236e-02 7.811589999999999367e-01 2.555029999999999468e+00 6.352720000000000056e+01 1.643680000000000064e+03
3.099999999999999978e-02 7.804999999999999716e-01 2.662965000000000249e+00 6.143245000000000289e+01 1.643159999999999854e+03
3.200000000000000067e-02 7.797385000000000010e-01 2.521529999999999827e+00 5.900650000000000261e+01 1.642570000000000164e+03
3.300000000000000155e-02 7.788979999999999793e-01 2.159449999999999648e+00 5.628279999999999461e+01 1.641910000000000082e+03
3.400000000000000244e-02 7.780175000000000285e-01 1.635320000000000107e+00 5.334935000000000116e+01 1.641214999999999918e+03
3.500000000000000333e-02 7.771405000000000118e-01 1.023905000000000065e+00 5.033270000000000266e+01 1.640485000000000127e+03
3.600000000000000422e-02 7.763109999999999733e-01 4.012500000000001066e-01 4.737600000000000477e+01 1.639764999999999873e+03
3.700000000000000511e-02 7.755630000000000024e-01 -1.669399999999994222e-01 4.461695000000000277e+01 1.639075000000000045e+03
3.799999999999999906e-02 7.749224999999999586e-01 -6.320999999999998842e-01 4.217175000000000296e+01 1.638450000000000045e+03
3.899999999999999994e-02 7.744024999999999936e-01 -9.642550000000000843e-01 4.012545000000000073e+01 1.637910000000000082e+03
4.000000000000000083e-02 7.740089999999999471e-01 -1.149464999999999737e+00 3.852960000000000207e+01 1.637464999999999918e+03
4.100000000000000172e-02 7.737399999999999833e-01 -1.184879999999999933e+00 3.740614999999999668e+01 1.637134999999999991e+03
4.200000000000000261e-02 7.735914999999999875e-01 -1.073106000000000115e+00 3.675484999999999758e+01 1.636910000000000082e+03
4.300000000000000350e-02 7.735579999999999679e-01 -8.173865000000000158e-01 3.656149999999999523e+01 1.636800000000000182e+03
4.400000000000000439e-02 7.736355000000000315e-01 -4.185935000000000628e-01 3.680610000000000070e+01 1.636795000000000073e+03
4.499999999999999833e-02 7.738190000000000346e-01 1.254399999999999959e-01 3.746774999999999523e+01 1.636900000000000091e+03
4.599999999999999922e-02 7.741074999999999484e-01 8.184599999999999653e-01 3.852629999999999910e+01 1.637099999999999909e+03
4.700000000000000011e-02 7.744969999999999910e-01 1.663094999999999768e+00 3.996189999999999998e+01 1.637394999999999982e+03
4.800000000000000100e-02 7.749814999999999898e-01 2.657829999999999693e+00 4.175169999999999959e+01 1.637784999999999854e+03
4.900000000000000189e-02 7.755535000000000068e-01 3.794670000000000432e+00 4.386690000000000111e+01 1.638255000000000109e+03
5.000000000000000278e-02 7.762010000000000298e-01 5.058114999999999917e+00 4.627065000000000339e+01 1.638800000000000182e+03
5.100000000000000366e-02 7.769099999999999895e-01 6.425430500000000045e+00 4.891725000000000279e+01 1.639409999999999854e+03
5.200000000000000455e-02 7.776644999999999808e-01 7.868361000000000161e+00 5.175330000000000297e+01 1.640079999999999927e+03
5.300000000000000544e-02 7.784470000000000001e-01 9.355465000000000586e+00 5.472050000000000125e+01 1.640779999999999973e+03
5.399999999999999939e-02 7.792410000000000725e-01 1.085499500000000062e+01 5.775929999999999609e+01 1.641514999999999873e+03
5.500000000000000028e-02 7.800314999999999888e-01 1.233712500000000034e+01 6.081309999999999860e+01 1.642255000000000109e+03
5.600000000000000117e-02 7.808070000000000288e-01 1.377640500000000046e+01 6.383190000000000452e+01 1.643005000000000109e+03
5.700000000000000205e-02 7.815585000000000448e-01 1.515284499999999923e+01 6.677524999999999977e+01 1.643744999999999891e+03
5.800000000000000294e-02 7.822810000000000041e-01 1.645244999999999891e+01 6.961405000000000598e+01 1.644465000000000146e+03
5.900000000000000383e-02 7.829710000000000836e-01 1.766725000000000279e+01 7.233115000000000805e+01 1.645159999999999854e+03
6.000000000000000472e-02 7.836305000000000076e-01 1.879455000000000098e+01 7.492054999999999154e+01 1.645829999999999927e+03
6.099999999999999867e-02 7.842610000000000969e-01 1.983585000000000065e+01 7.738634999999999309e+01 1.646480000000000018e+03
6.199999999999999956e-02 7.848675000000000512e-01 2.079610000000000269e+01 7.974039999999999395e+01 1.647099999999999909e+03
6.300000000000000044e-02 7.854555000000000842e-01 2.168234999999999957e+01 8.200024999999999409e+01 1.647699999999999818e+03
6.400000000000000133e-02 7.860300000000000065e-01 2.250274999999999892e+01 8.418665000000000020e+01 1.648284999999999854e+03
6.500000000000000222e-02 7.865969999999999906e-01 2.326585000000000036e+01 8.632110000000000127e+01 1.648844999999999800e+03
6.600000000000000311e-02 7.871604999999999297e-01 2.397964999999999947e+01 8.842395000000000493e+01 1.649404999999999973e+03
6.700000000000000400e-02 7.877250000000000085e-01 2.465064999999999884e+01 9.051229999999999620e+01 1.649954999999999927e+03
6.800000000000000488e-02 7.882915000000000338e-01 2.528379999999999939e+01 9.259839999999999804e+01 1.650510000000000218e+03
6.900000000000000577e-02 7.888614999999999933e-01 2.588179999999999836e+01 9.468890000000000384e+01 1.651054999999999836e+03
7.000000000000000666e-02 7.894339999999999691e-01 2.644490000000000052e+01 9.678379999999999939e+01 1.651610000000000127e+03
7.100000000000000755e-02 7.900050000000000683e-01 2.697129999999999939e+01 9.887789999999999679e+01 1.652154999999999973e+03
7.200000000000000844e-02 7.905724999999999003e-01 2.745705000000000240e+01 1.009585000000000008e+02 1.652704999999999927e+03
7.300000000000000933e-02 7.911299999999999999e-01 2.789699999999999847e+01 1.030102499999999992e+02 1.653244999999999891e+03
7.399999999999999634e-02 7.916725000000000012e-01 2.828490000000000038e+01 1.050130000000000052e+02 1.653769999999999982e+03
7.499999999999999722e-02 7.921949999999999825e-01 2.861435000000000173e+01 1.069459999999999980e+02 1.654284999999999854e+03
7.599999999999999811e-02 7.926904999999999646e-01 2.887915000000000276e+01 1.087880000000000109e+02 1.654779999999999973e+03
7.699999999999999900e-02 7.931544999999999845e-01 2.907379999999999853e+01 1.105180000000000007e+02 1.655244999999999891e+03
7.799999999999999989e-02 7.935829999999999274e-01 2.919384999999999764e+01 1.121189999999999998e+02 1.655684999999999945e+03
7.900000000000000078e-02 7.939720000000000111e-01 2.923600000000000065e+01 1.135740000000000123e+02 1.656085000000000036e+03
8.000000000000000167e-02 7.943189999999999973e-01 2.919845000000000113e+01 1.148725000000000023e+02 1.656445000000000164e+03
8.100000000000000255e-02 7.946219999999999395e-01 2.908075000000000188e+01 1.160065000000000026e+02 1.656769999999999982e+03
8.200000000000000344e-02 7.948809999999999487e-01 2.888410000000000011e+01 1.169710000000000036e+02 1.657055000000000064e+03
8.300000000000000433e-02 7.950960000000000250e-01 2.861095000000000255e+01 1.177675000000000125e+02 1.657295000000000073e+03
8.400000000000000522e-02 7.952680000000000859e-01 2.826555000000000106e+01 1.183995000000000033e+02 1.657490000000000009e+03
8.500000000000000611e-02 7.953995000000000370e-01 2.785340000000000060e+01 1.188735000000000070e+02 1.657650000000000091e+03
8.600000000000000699e-02 7.954935000000000755e-01 2.738149999999999906e+01 1.192009999999999934e+02 1.657765000000000100e+03
8.700000000000000788e-02 7.955535000000000245e-01 2.685790000000000077e+01 1.193944999999999936e+02 1.657849999999999909e+03
8.800000000000000877e-02 7.955840000000000689e-01 2.629180000000000206e+01 1.194705000000000013e+02 1.657900000000000091e+03
8.899999999999999578e-02 7.955904999999999783e-01 2.569304999999999950e+01 1.194474999999999909e+02 1.657924999999999955e+03
8.999999999999999667e-02 7.955764999999999088e-01 2.507195000000000107e+01 1.193429999999999893e+02 1.657920000000000073e+03
9.099999999999999756e-02 7.955480000000000329e-01 2.443874999999999886e+01 1.191765000000000043e+02 1.657900000000000091e+03
9.199999999999999845e-02 7.955094999999999805e-01 2.380315000000000225e+01 1.189675000000000011e+02 1.657865000000000009e+03
9.299999999999999933e-02 7.954655000000000475e-01 2.317394999999999783e+01 1.187330000000000041e+02 1.657824999999999818e+03
9.400000000000000022e-02 7.954189999999999872e-01 2.255884999999999962e+01 1.184879999999999995e+02 1.657769999999999982e+03
9.500000000000000111e-02 7.953734999999999555e-01 2.196379999999999910e+01 1.182454999999999927e+02 1.657715000000000146e+03
9.600000000000000200e-02 7.953310000000000102e-01 2.139300000000000068e+01 1.180155000000000030e+02 1.657664999999999964e+03
9.700000000000000289e-02 7.952930000000000277e-01 2.084874999999999901e+01 1.178029999999999973e+02 1.657610000000000127e+03
9.800000000000000377e-02 7.952584999999999793e-01 2.033149999999999835e+01 1.176115000000000066e+02 1.657559999999999945e+03
9.900000000000000466e-02 7.952269999999999062e-01 1.983984999999999843e+01 1.174395000000000095e+02 1.657515000000000100e+03
1.000000000000000056e-01 7.951979999999999604e-01 1.937089999999999890e+01 1.172824999999999989e+02 1.657470000000000027e+03
1.010000000000000064e-01 7.951684999999999448e-01 1.892054999999999865e+01 1.171350000000000051e+02 1.657430000000000064e+03
1.020000000000000073e-01 7.951364999999999128e-01 1.848355000000000103e+01 1.169869999999999948e+02 1.657384999999999991e+03
1.030000000000000082e-01 7.950995000000000701e-01 1.805434999999999945e+01 1.168290000000000077e+02 1.657345000000000027e+03
1.040000000000000091e-01 7.950534999999999686e-01 1.762689999999999912e+01 1.166510000000000105e+02 1.657300000000000182e+03
1.050000000000000100e-01 7.949975000000000236e-01 1.719529999999999959e+01 1.164424999999999955e+02 1.657240000000000009e+03
1.059999999999999970e-01 7.949284999999999268e-01 1.675415000000000276e+01 1.161935000000000002e+02 1.657179999999999836e+03
1.069999999999999979e-01 7.948444999999999538e-01 1.629860000000000042e+01 1.158954999999999984e+02 1.657105000000000018e+03
1.079999999999999988e-01 7.947444999999999649e-01 1.582485000000000142e+01 1.155424999999999898e+02 1.657019999999999982e+03
1.089999999999999997e-01 7.946280000000000010e-01 1.533025000000000126e+01 1.151299999999999955e+02 1.656920000000000073e+03
1.100000000000000006e-01 7.944940000000000335e-01 1.481334999999999980e+01 1.146560000000000059e+02 1.656804999999999836e+03
1.110000000000000014e-01 7.943439999999999390e-01 1.427430000000000021e+01 1.141225000000000023e+02 1.656674999999999955e+03
1.120000000000000023e-01 7.941795000000000382e-01 1.371470000000000056e+01 1.135320000000000107e+02 1.656530000000000200e+03
1.130000000000000032e-01 7.940024999999999444e-01 1.313737499999999869e+01 1.128924999999999983e+02 1.656375000000000000e+03
1.140000000000000041e-01 7.938160000000000771e-01 1.254676000000000080e+01 1.122129999999999939e+02 1.656210000000000036e+03
1.150000000000000050e-01 7.936229999999999674e-01 1.194822500000000076e+01 1.115045000000000073e+02 1.656034999999999854e+03
1.160000000000000059e-01 7.934274999999999523e-01 1.134815500000000021e+01 1.107789999999999964e+02 1.655855000000000018e+03
1.170000000000000068e-01 7.932335000000000358e-01 1.075365000000000038e+01 1.100529999999999973e+02 1.655674999999999955e+03
1.180000000000000077e-01 7.930449999999999999e-01 1.017207499999999953e+01 1.093400000000000034e+02 1.655494999999999891e+03
1.190000000000000085e-01 7.928659999999999597e-01 9.610939999999999372e+00 1.086555000000000035e+02 1.655319999999999936e+03
1.200000000000000094e-01 7.926999999999999602e-01 9.077320000000000277e+00 1.080130000000000052e+02 1.655154999999999973e+03
1.209999999999999964e-01 7.925500000000000878e-01 8.577854999999999563e+00 1.074269999999999925e+02 1.654994999999999891e+03
1.219999999999999973e-01 7.924195000000000544e-01 8.118185000000000429e+00 1.069074999999999989e+02 1.654860000000000127e+03
1.229999999999999982e-01 7.923099999999999588e-01 7.702870000000000772e+00 1.064645000000000010e+02 1.654735000000000127e+03
1.239999999999999991e-01 7.922234999999999694e-01 7.335174999999999557e+00 1.061024999999999920e+02 1.654634999999999991e+03
1.250000000000000000e-01 7.921595000000000164e-01 7.017049999999999343e+00 1.058275000000000006e+02 1.654549999999999955e+03
1.260000000000000009e-01 7.921184999999999476e-01 6.748965000000000103e+00 1.056384999999999934e+02 1.654490000000000009e+03
1.270000000000000018e-01 7.920989999999999975e-01 6.530020000000000380e+00 1.055339999999999918e+02 1.654445000000000164e+03
1.280000000000000027e-01 7.921005000000000962e-01 6.358045000000000613e+00 1.055095000000000027e+02 1.654424999999999955e+03
1.290000000000000036e-01 7.921199999999999353e-01 6.229770000000000252e+00 1.055579999999999927e+02 1.654414999999999964e+03
1.300000000000000044e-01 7.921549999999999425e-01 6.141009999999999636e+00 1.056700000000000017e+02 1.654429999999999836e+03
1.310000000000000053e-01 7.922029999999999905e-01 6.086920000000000108e+00 1.058370000000000033e+02 1.654460000000000036e+03
1.320000000000000062e-01 7.922614999999999519e-01 6.062210000000000321e+00 1.060469999999999970e+02 1.654500000000000000e+03
1.330000000000000071e-01 7.923270000000000035e-01 6.061405000000000598e+00 1.062899999999999920e+02 1.654545000000000073e+03
1.340000000000000080e-01 7.923970000000000180e-01 6.079060000000000130e+00 1.065545000000000044e+02 1.654610000000000127e+03
1.350000000000000089e-01 7.924685000000000201e-01 6.109925000000000495e+00 1.068309999999999889e+02 1.654670000000000073e+03
1.360000000000000098e-01 7.925400000000000222e-01 6.149140000000000050e+00 1.071105000000000018e+02 1.654730000000000018e+03
1.370000000000000107e-01 7.926094999999999668e-01 6.192309999999999981e+00 1.073845000000000027e+02 1.654795000000000073e+03
1.380000000000000115e-01 7.926759999999999362e-01 6.235619999999999941e+00 1.076465000000000032e+02 1.654860000000000127e+03
1.390000000000000124e-01 7.927370000000000250e-01 6.275875000000000092e+00 1.078919999999999959e+02 1.654920000000000073e+03
1.400000000000000133e-01 7.927925000000000111e-01 6.310520000000000351e+00 1.081169999999999902e+02 1.654974999999999909e+03
1.410000000000000142e-01 7.928420000000000467e-01 6.337635000000000574e+00 1.083190000000000026e+02 1.655025000000000091e+03
1.420000000000000151e-01 7.928855000000000208e-01 6.355914999999999537e+00 1.084975000000000023e+02 1.655075000000000045e+03
1.430000000000000160e-01 7.929235000000000033e-01 6.364644999999999442e+00 1.086525000000000034e+02 1.655119999999999891e+03
1.440000000000000169e-01 7.929559999999999942e-01 6.363635000000000375e+00 1.087849999999999966e+02 1.655150000000000091e+03
1.450000000000000178e-01 7.929829999999999934e-01 6.353155000000000108e+00 1.088965000000000032e+02 1.655190000000000055e+03
1.459999999999999909e-01 7.930060000000000997e-01 6.333874999999999922e+00 1.089900000000000091e+02 1.655210000000000036e+03
1.469999999999999918e-01 7.930260000000000087e-01 6.306784999999999641e+00 1.090685000000000002e+02 1.655235000000000127e+03
1.479999999999999927e-01 7.930435000000000123e-01 6.273114999999999775e+00 1.091345000000000027e+02 1.655259999999999991e+03
1.489999999999999936e-01 7.930584999999999996e-01 6.234239999999999782e+00 1.091915000000000049e+02 1.655275000000000091e+03
1.499999999999999944e-01 7.930730000000000279e-01 6.191589999999999705e+00 1.092425000000000068e+02 1.655289999999999964e+03
1.509999999999999953e-01 7.930865000000000276e-01 6.146599999999999397e+00 1.092899999999999920e+02 1.655309999999999945e+03
1.519999999999999962e-01 7.931010000000000559e-01 6.100585000000000591e+00 1.093365000000000009e+02 1.655325000000000045e+03
1.529999999999999971e-01 7.931154999999999733e-01 6.054714999999999847e+00 1.093845000000000027e+02 1.655335000000000036e+03
1.539999999999999980e-01 7.931319999999999482e-01 6.009954999999999714e+00 1.094339999999999975e+02 1.655349999999999909e+03
1.549999999999999989e-01 7.931479999999999642e-01 5.967019999999999769e+00 1.094875000000000114e+02 1.655365000000000009e+03
1.559999999999999998e-01 7.931660000000000377e-01 5.926370000000000360e+00 1.095434999999999945e+02 1.655380000000000109e+03
1.570000000000000007e-01 7.931844999999999590e-01 5.888220000000000454e+00 1.096020000000000039e+02 1.655394999999999982e+03
1.580000000000000016e-01 7.932029999999999914e-01 5.852539999999999409e+00 1.096620000000000061e+02 1.655414999999999964e+03
1.590000000000000024e-01 7.932215000000000238e-01 5.819115000000000038e+00 1.097229999999999990e+02 1.655429999999999836e+03
