# t [s], A [cm^2], U [cm/s], P [cPa], c [cm/s]
1.000000000000000021e-03 1.793480000000000074e-01 3.530311000000000421e-01 1.014896500000000117e+02 2.304609999999999673e+03
2.000000000000000042e-03 1.792914999999999925e-01 1.955516500000000324e+00 9.757620000000000005e+01 2.304119999999999891e+03
3.000000000000000062e-03 1.791539999999999799e-01 3.949468499999999604e+00 9.210425000000000750e+01 2.302984999999999673e+03
4.000000000000000083e-03 1.789764999999999828e-01 6.218657999999999575e+00 8.637420000000000186e+01 2.301529999999999745e+03
5.000000000000000104e-03 1.787954999999999961e-01 8.643810000000000215e+00 8.148349999999999227e+01 2.300065000000000055e+03
6.000000000000000125e-03 1.786254999999999926e-01 1.094299499999999981e+01 7.751984999999999104e+01 2.298715000000000146e+03
7.000000000000000146e-03 1.784680000000000155e-01 1.287886500000000112e+01 7.400675000000001091e+01 2.297484999999999673e+03
8.000000000000000167e-03 1.783285000000000009e-01 1.445550000000000068e+01 7.087269999999999470e+01 2.296414999999999964e+03
9.000000000000001055e-03 1.782104999999999939e-01 1.573734999999999928e+01 6.829399999999999693e+01 2.295529999999999745e+03
1.000000000000000194e-02 1.781159999999999966e-01 1.674960000000000093e+01 6.628225000000000477e+01 2.294819999999999709e+03
1.099999999999999936e-02 1.780415000000000192e-01 1.751190000000000069e+01 6.475605000000000189e+01 2.294269999999999982e+03
1.200000000000000025e-02 1.779834999999999889e-01 1.802649999999999864e+01 6.356114999999999782e+01 2.293849999999999909e+03
1.300000000000000114e-02 1.779359999999999831e-01 1.830389999999999873e+01 6.250659999999999172e+01 2.293515000000000327e+03
1.400000000000000203e-02 1.778974999999999862e-01 1.844959999999999667e+01 6.163365000000000293e+01 2.293250000000000000e+03
1.499999999999999944e-02 1.778764999999999930e-01 1.867524999999999835e+01 6.138269999999999982e+01 2.293105000000000018e+03
1.600000000000000033e-02 1.778859999999999886e-01 1.918435000000000201e+01 6.234320000000000306e+01 2.293185000000000400e+03
1.700000000000000122e-02 1.779344999999999954e-01 2.003294999999999959e+01 6.477715000000000600e+01 2.293545000000000073e+03
1.800000000000000211e-02 1.780169999999999808e-01 2.108295000000000030e+01 6.832939999999999259e+01 2.294164999999999964e+03
1.900000000000000300e-02 1.781165000000000109e-01 2.207005000000000194e+01 7.212685000000000457e+01 2.294929999999999836e+03
2.000000000000000042e-02 1.782100000000000073e-01 2.273120000000000118e+01 7.516464999999999463e+01 2.295654999999999745e+03
2.100000000000000130e-02 1.782755000000000034e-01 2.291700000000000159e+01 7.673400000000000887e+01 2.296184999999999945e+03
2.200000000000000219e-02 1.783049999999999913e-01 2.263824999999999932e+01 7.667650000000000432e+01 2.296440000000000055e+03
2.299999999999999961e-02 1.782989999999999853e-01 2.203640000000000043e+01 7.537010000000000787e+01 2.296425000000000182e+03
2.400000000000000050e-02 1.782699999999999840e-01 2.130219999999999914e+01 7.348685000000000400e+01 2.296219999999999800e+03
2.500000000000000139e-02 1.782314999999999872e-01 2.058769999999999811e+01 7.166630000000000678e+01 2.295930000000000291e+03
2.600000000000000228e-02 1.781945000000000057e-01 1.995230000000000103e+01 7.026205000000000211e+01 2.295650000000000091e+03
2.700000000000000316e-02 1.781635000000000024e-01 1.935934999999999917e+01 6.925794999999999391e+01 2.295404999999999745e+03
2.800000000000000058e-02 1.781349999999999878e-01 1.871524999999999750e+01 6.835845000000000482e+01 2.295184999999999945e+03
2.900000000000000147e-02 1.781015000000000237e-01 1.792875000000000085e+01 6.718520000000000891e+01 2.294930000000000291e+03
3.000000000000000236e-02 1.780565000000000064e-01 1.696539999999999893e+01 6.548939999999998918e+01 2.294595000000000255e+03
3.099999999999999978e-02 1.779990000000000183e-01 1.587654999999999994e+01 6.329739999999999611e+01 2.294159999999999854e+03
3.200000000000000067e-02 1.779330000000000078e-01 1.479274999999999984e+01 6.093524999999999636e+01 2.293664999999999964e+03
3.300000000000000155e-02 1.778715000000000157e-01 1.388410000000000011e+01 5.892655000000000598e+01 2.293190000000000055e+03
3.400000000000000244e-02 1.778254999999999975e-01 1.330414999999999992e+01 5.780804999999999438e+01 2.292829999999999927e+03
3.500000000000000333e-02 1.778085000000000082e-01 1.313935000000000031e+01 5.793829999999999814e+01 2.292675000000000182e+03
3.600000000000000422e-02 1.778239999999999821e-01 1.338220000000000098e+01 5.937239999999999895e+01 2.292775000000000091e+03
3.700000000000000511e-02 1.778710000000000013e-01 1.393449999999999989e+01 6.184080000000000155e+01 2.293110000000000127e+03
3.799999999999999906e-02 1.779395000000000004e-01 1.463500000000000156e+01 6.482614999999999839e+01 2.293614999999999782e+03
3.899999999999999994e-02 1.780154999999999932e-01 1.529954999999999998e+01 6.770029999999999859e+01 2.294190000000000055e+03
4.000000000000000083e-02 1.780835000000000057e-01 1.576060000000000016e+01 6.987264999999999304e+01 2.294710000000000036e+03
4.100000000000000172e-02 1.781294999999999962e-01 1.589590000000000103e+01 7.090720000000000312e+01 2.295074999999999818e+03
4.200000000000000261e-02 1.781449999999999978e-01 1.564209999999999923e+01 7.058570000000000277e+01 2.295204999999999927e+03
4.300000000000000350e-02 1.781245000000000189e-01 1.499319999999999808e+01 6.890959999999999752e+01 2.295074999999999818e+03
4.400000000000000439e-02 1.780694999999999917e-01 1.398770000000000024e+01 6.605514999999999759e+01 2.294664999999999964e+03
4.499999999999999833e-02 1.779844999999999899e-01 1.269115000000000038e+01 6.230109999999999815e+01 2.294029999999999745e+03
4.599999999999999922e-02 1.778750000000000053e-01 1.117908500000000060e+01 5.795695000000000618e+01 2.293204999999999927e+03
4.700000000000000011e-02 1.777505000000000057e-01 9.525220000000000908e+00 5.330734999999999957e+01 2.292255000000000109e+03
4.800000000000000100e-02 1.776159999999999961e-01 7.796215000000000117e+00 4.858494999999999919e+01 2.291234999999999673e+03
4.900000000000000189e-02 1.774784999999999835e-01 6.051849999999999952e+00 4.396795000000000186e+01 2.290184999999999945e+03
5.000000000000000278e-02 1.773430000000000006e-01 4.348316000000000514e+00 3.959600000000000364e+01 2.289144999999999982e+03
5.100000000000000366e-02 1.772134999999999960e-01 2.742446499999999787e+00 3.559159999999999968e+01 2.288149999999999636e+03
5.200000000000000455e-02 1.770944999999999880e-01 1.293864999999999821e+00 3.207864999999999611e+01 2.287235000000000127e+03
5.300000000000000544e-02 1.769904999999999951e-01 6.483499999999997598e-02 2.919120000000000203e+01 2.286425000000000182e+03
5.399999999999999939e-02 1.769049999999999789e-01 -8.828800000000001091e-01 2.707029999999999959e+01 2.285765000000000327e+03
5.500000000000000028e-02 1.768440000000000012e-01 -1.493036000000000030e+00 2.585190000000000055e+01 2.285275000000000091e+03
5.600000000000000117e-02 1.768095000000000083e-01 -1.720689999999999831e+00 2.564890000000000114e+01 2.284989999999999782e+03
5.700000000000000205e-02 1.768059999999999909e-01 -1.537259999999999849e+00 2.653410000000000224e+01 2.284935000000000400e+03
5.800000000000000294e-02 1.768339999999999912e-01 -9.338784999999999448e-01 2.852710000000000079e+01 2.285125000000000000e+03
5.900000000000000383e-02 1.768945000000000101e-01 7.750000000000001332e-02 3.158879999999999910e+01 2.285559999999999945e+03
6.000000000000000472e-02 1.769854999999999901e-01 1.465215000000000156e+00 3.562375000000000114e+01 2.286239999999999782e+03
6.099999999999999867e-02 1.771054999999999990e-01 3.180712499999999832e+00 4.048869999999999436e+01 2.287135000000000218e+03
6.199999999999999956e-02 1.772489999999999899e-01 5.162639999999999674e+00 4.600580000000000069e+01 2.288210000000000036e+03
6.300000000000000044e-02 1.774109999999999854e-01 7.341409999999999769e+00 5.197735000000000127e+01 2.289445000000000164e+03
6.400000000000000133e-02 1.775875000000000092e-01 9.644035000000000579e+00 5.820150000000000290e+01 2.290784999999999854e+03
6.500000000000000222e-02 1.777714999999999990e-01 1.199887999999999977e+01 6.448600000000000421e+01 2.292189999999999600e+03
6.600000000000000311e-02 1.779580000000000051e-01 1.434009999999999962e+01 7.066164999999999452e+01 2.293619999999999891e+03
6.700000000000000400e-02 1.781420000000000226e-01 1.661164999999999736e+01 7.659250000000000114e+01 2.295045000000000073e+03
6.800000000000000488e-02 1.783204999999999929e-01 1.877005000000000123e+01 8.218385000000000673e+01 2.296420000000000073e+03
6.900000000000000577e-02 1.784910000000000108e-01 2.078685000000000116e+01 8.738585000000000491e+01 2.297744999999999891e+03
7.000000000000000666e-02 1.786510000000000042e-01 2.264840000000000231e+01 9.219344999999999857e+01 2.298994999999999891e+03
7.100000000000000755e-02 1.788009999999999877e-01 2.435500000000000043e+01 9.664029999999999632e+01 2.300164999999999964e+03
7.200000000000000844e-02 1.789425000000000043e-01 2.591895000000000238e+01 1.007920499999999890e+02 2.301270000000000437e+03
7.300000000000000933e-02 1.790760000000000129e-01 2.736070000000000135e+01 1.047322999999999951e+02 2.302319999999999709e+03
7.399999999999999634e-02 1.792040000000000022e-01 2.870555000000000234e+01 1.085519999999999925e+02 2.303324999999999818e+03
7.499999999999999722e-02 1.793295000000000028e-01 2.997984999999999900e+01 1.123365000000000009e+02 2.304314999999999600e+03
7.599999999999999811e-02 1.794550000000000034e-01 3.120770000000000266e+01 1.161560000000000059e+02 2.305289999999999964e+03
7.699999999999999900e-02 1.795800000000000174e-01 3.240895000000000437e+01 1.200620000000000118e+02 2.306274999999999636e+03
7.799999999999999989e-02 1.797074999999999922e-01 3.359725000000000250e+01 1.240794999999999959e+02 2.307269999999999982e+03
7.900000000000000078e-02 1.798385000000000122e-01 3.477944999999999709e+01 1.282105000000000246e+02 2.308295000000000073e+03
8.000000000000000167e-02 1.799715000000000065e-01 3.595560000000000400e+01 1.324335000000000093e+02 2.309329999999999927e+03
8.100000000000000255e-02 1.801065000000000027e-01 3.711939999999999884e+01 1.367099999999999795e+02 2.310385000000000218e+03
8.200000000000000344e-02 1.802420000000000133e-01 3.825914999999999822e+01 1.409859999999999900e+02 2.311449999999999818e+03
8.300000000000000433e-02 1.803770000000000095e-01 3.935864999999999725e+01 1.451990000000000123e+02 2.312505000000000109e+03
8.400000000000000522e-02 1.805094999999999894e-01 4.039889999999999759e+01 1.492789999999999964e+02 2.313550000000000182e+03
8.500000000000000611e-02 1.806375000000000064e-01 4.135909999999999798e+01 1.531580000000000155e+02 2.314550000000000182e+03
8.600000000000000699e-02 1.807590000000000030e-01 4.221809999999999974e+01 1.567694999999999936e+02 2.315505000000000109e+03
8.700000000000000788e-02 1.808720000000000050e-01 4.295609999999999928e+01 1.600529999999999973e+02 2.316400000000000091e+03
8.800000000000000877e-02 1.809749999999999970e-01 4.355539999999999878e+01 1.629594999999999914e+02 2.317215000000000146e+03
8.899999999999999578e-02 1.810670000000000057e-01 4.400249999999999773e+01 1.654499999999999886e+02 2.317944999999999709e+03
8.999999999999999667e-02 1.811460000000000015e-01 4.428825000000000500e+01 1.675024999999999977e+02 2.318574999999999818e+03
9.099999999999999756e-02 1.812119999999999842e-01 4.440914999999999679e+01 1.691100000000000136e+02 2.319099999999999909e+03
9.199999999999999845e-02 1.812650000000000095e-01 4.436775000000000091e+01 1.702814999999999941e+02 2.319524999999999636e+03
9.299999999999999933e-02 1.813045000000000073e-01 4.417225000000000534e+01 1.710430000000000064e+02 2.319850000000000364e+03
9.400000000000000022e-02 1.813319999999999932e-01 4.383629999999999427e+01 1.714364999999999952e+02 2.320079999999999927e+03
9.500000000000000111e-02 1.813489999999999824e-01 4.337805000000000177e+01 1.715124999999999886e+02 2.320225000000000364e+03
9.600000000000000200e-02 1.813560000000000172e-01 4.281929999999999836e+01 1.713310000000000173e+02 2.320289999999999964e+03
9.700000000000000289e-02 1.813560000000000172e-01 4.218359999999999843e+01 1.709569999999999936e+02 2.320289999999999964e+03
9.800000000000000377e-02 1.813494999999999968e-01 4.149555000000000149e+01 1.704535000000000196e+02 2.320244999999999891e+03
9.900000000000000466e-02 1.813390000000000002e-01 4.077890000000000015e+01 1.698824999999999932e+02 2.320170000000000073e+03
1.000000000000000056e-01 1.813255000000000006e-01 4.005584999999999951e+01 1.692975000000000136e+02 2.320069999999999709e+03
1.010000000000000064e-01 1.813120000000000009e-01 3.934560000000000457e+01 1.687450000000000045e+02 2.319965000000000146e+03
1.020000000000000073e-01 1.812980000000000147e-01 3.866380000000000194e+01 1.682584999999999980e+02 2.319855000000000018e+03
1.030000000000000082e-01 1.812860000000000027e-01 3.802185000000000059e+01 1.678615000000000066e+02 2.319765000000000327e+03
1.040000000000000091e-01 1.812759999999999927e-01 3.742645000000000266e+01 1.675634999999999764e+02 2.319685000000000400e+03
1.050000000000000100e-01 1.812679999999999847e-01 3.687964999999999804e+01 1.673625000000000114e+02 2.319619999999999891e+03
1.059999999999999970e-01 1.812624999999999931e-01 3.637879999999999825e+01 1.672454999999999927e+02 2.319569999999999709e+03
1.069999999999999979e-01 1.812594999999999901e-01 3.591714999999999947e+01 1.671875000000000000e+02 2.319545000000000073e+03
1.079999999999999988e-01 1.812564999999999871e-01 3.548425000000000296e+01 1.671555000000000177e+02 2.319519999999999982e+03
1.089999999999999997e-01 1.812549999999999994e-01 3.506700000000000017e+01 1.671114999999999782e+02 2.319500000000000000e+03
1.100000000000000006e-01 1.812519999999999964e-01 3.465045000000000641e+01 1.670124999999999886e+02 2.319474999999999909e+03
1.110000000000000014e-01 1.812475000000000058e-01 3.421914999999999907e+01 1.668164999999999907e+02 2.319440000000000055e+03
1.120000000000000023e-01 1.812390000000000112e-01 3.375800000000000267e+01 1.664844999999999970e+02 2.319375000000000000e+03
1.130000000000000032e-01 1.812269999999999992e-01 3.325359999999999872e+01 1.659819999999999993e+02 2.319279999999999745e+03
1.140000000000000041e-01 1.812099999999999822e-01 3.269514999999999816e+01 1.652835000000000036e+02 2.319144999999999982e+03
1.150000000000000050e-01 1.811869999999999870e-01 3.207489999999999952e+01 1.643725000000000023e+02 2.318965000000000146e+03
1.160000000000000059e-01 1.811574999999999991e-01 3.138950000000000173e+01 1.632454999999999927e+02 2.318744999999999891e+03
1.170000000000000068e-01 1.811220000000000052e-01 3.063945000000000007e+01 1.619095000000000084e+02 2.318465000000000146e+03
1.180000000000000077e-01 1.810805000000000053e-01 2.982990000000000208e+01 1.603849999999999909e+02 2.318145000000000437e+03
1.190000000000000085e-01 1.810335000000000139e-01 2.896989999999999910e+01 1.587009999999999934e+02 2.317779999999999745e+03
1.200000000000000094e-01 1.809820000000000040e-01 2.807209999999999894e+01 1.568979999999999961e+02 2.317385000000000218e+03
1.209999999999999964e-01 1.809274999999999911e-01 2.715205000000000268e+01 1.550210000000000150e+02 2.316960000000000036e+03
1.219999999999999973e-01 1.808704999999999896e-01 2.622725000000000151e+01 1.531220000000000141e+02 2.316515000000000327e+03
1.229999999999999982e-01 1.808130000000000015e-01 2.531595000000000084e+01 1.512515000000000214e+02 2.316065000000000055e+03
1.239999999999999991e-01 1.807570000000000010e-01 2.443635000000000090e+01 1.494590000000000032e+02 2.315630000000000109e+03
1.250000000000000000e-01 1.807030000000000025e-01 2.360535000000000139e+01 1.477895000000000039e+02 2.315199999999999818e+03
1.260000000000000009e-01 1.806524999999999936e-01 2.283780000000000143e+01 1.462824999999999989e+02 2.314805000000000291e+03
1.270000000000000018e-01 1.806059999999999888e-01 2.214564999999999984e+01 1.449660000000000082e+02 2.314440000000000055e+03
1.280000000000000027e-01 1.805654999999999899e-01 2.153770000000000095e+01 1.438600000000000136e+02 2.314119999999999891e+03
1.290000000000000036e-01 1.805315000000000114e-01 2.101905000000000001e+01 1.429755000000000109e+02 2.313845000000000255e+03
1.300000000000000044e-01 1.805034999999999834e-01 2.059120000000000061e+01 1.423110000000000070e+02 2.313619999999999891e+03
1.310000000000000053e-01 1.804820000000000035e-01 2.025234999999999985e+01 1.418580000000000041e+02 2.313449999999999818e+03
1.320000000000000062e-01 1.804665000000000019e-01 1.999755000000000038e+01 1.416005000000000109e+02 2.313319999999999709e+03
1.330000000000000071e-01 1.804569999999999785e-01 1.981964999999999932e+01 1.415165000000000077e+02 2.313234999999999673e+03
1.340000000000000080e-01 1.804520000000000013e-01 1.970919999999999916e+01 1.415794999999999959e+02 2.313190000000000055e+03
1.350000000000000089e-01 1.804520000000000013e-01 1.965554999999999808e+01 1.417615000000000123e+02 2.313190000000000055e+03
1.360000000000000098e-01 1.804549999999999765e-01 1.964740000000000109e+01 1.420324999999999989e+02 2.313204999999999927e+03
1.370000000000000107e-01 1.804614999999999969e-01 1.967309999999999803e+01 1.423644999999999925e+02 2.313255000000000109e+03
1.380000000000000115e-01 1.804695000000000049e-01 1.972149999999999892e+01 1.427309999999999945e+02 2.313309999999999945e+03
1.390000000000000124e-01 1.804784999999999862e-01 1.978200000000000003e+01 1.431064999999999827e+02 2.313380000000000109e+03
1.400000000000000133e-01 1.804884999999999962e-01 1.984519999999999840e+01 1.434720000000000084e+02 2.313454999999999927e+03
1.410000000000000142e-01 1.804985000000000062e-01 1.990319999999999823e+01 1.438104999999999905e+02 2.313529999999999745e+03
1.420000000000000151e-01 1.805070000000000008e-01 1.994960000000000022e+01 1.441094999999999970e+02 2.313600000000000364e+03
1.430000000000000160e-01 1.805154999999999954e-01 1.997984999999999900e+01 1.443609999999999900e+02 2.313664999999999964e+03
1.440000000000000169e-01 1.805225000000000024e-01 1.999119999999999919e+01 1.445620000000000118e+02 2.313720000000000255e+03
1.450000000000000178e-01 1.805285000000000084e-01 1.998259999999999792e+01 1.447135000000000105e+02 2.313769999999999982e+03
1.459999999999999909e-01 1.805329999999999990e-01 1.995475000000000065e+01 1.448209999999999980e+02 2.313804999999999836e+03
1.469999999999999918e-01 1.805360000000000020e-01 1.990970000000000084e+01 1.448910000000000196e+02 2.313829999999999927e+03
1.479999999999999927e-01 1.805390000000000050e-01 1.985074999999999790e+01 1.449354999999999905e+02 2.313850000000000364e+03
1.489999999999999936e-01 1.805404999999999927e-01 1.978190000000000026e+01 1.449655000000000200e+02 2.313864999999999782e+03
1.499999999999999944e-01 1.805420000000000080e-01 1.970770000000000266e+01 1.449934999999999832e+02 2.313885000000000218e+03
1.509999999999999953e-01 1.805439999999999823e-01 1.963275000000000148e+01 1.450324999999999989e+02 2.313894999999999982e+03
1.519999999999999962e-01 1.805454999999999977e-01 1.956135000000000090e+01 1.450919999999999845e+02 2.313909999999999854e+03
1.529999999999999971e-01 1.805479999999999863e-01 1.949725000000000108e+01 1.451804999999999950e+02 2.313930000000000291e+03
1.539999999999999980e-01 1.805514999999999759e-01 1.944330000000000069e+01 1.453050000000000068e+02 2.313954999999999927e+03
1.549999999999999989e-01 1.805559999999999943e-01 1.940135000000000076e+01 1.454669999999999845e+02 2.313989999999999782e+03
1.559999999999999998e-01 1.805609999999999993e-01 1.937245000000000061e+01 1.456680000000000064e+02 2.314029999999999745e+03
1.570000000000000007e-01 1.805674999999999919e-01 1.935634999999999906e+01 1.459039999999999964e+02 2.314079999999999927e+03
1.580000000000000016e-01 1.805754999999999999e-01 1.935215000000000174e+01 1.461700000000000159e+02 2.314139999999999873e+03
1.590000000000000024e-01 1.805835000000000079e-01 1.935815000000000197e+01 1.464604999999999961e+02 2.314199999999999818e+03
