# t [s], A [cm^2], U [cm/s], P [cPa], c [cm/s]
1.000000000000000021e-03 7.918665000000000287e-01 5.494450000000004886e-03 1.072965000000000089e+02 1.638619999999999891e+03
2.000000000000000042e-03 7.918545000000000167e-01 -2.620371000000000245e-03 1.072729999999999961e+02 1.638615000000000009e+03
3.000000000000000062e-03 7.918979999999999908e-01 5.524199999999999944e-02 1.073379999999999939e+02 1.638634999999999991e+03
4.000000000000000083e-03 7.919614999999999849e-01 1.458471499999999810e-01 1.074599999999999937e+02 1.638670000000000073e+03
5.000000000000000104e-03 7.919629999999999725e-01 1.612504999999999911e-01 1.074754999999999967e+02 1.638674999999999955e+03
6.000000000000000125e-03 7.919055000000000399e-01 9.615800000000000736e-02 1.073425000000000011e+02 1.638650000000000091e+03
7.000000000000000146e-03 7.918514999999999304e-01 3.180899999999997618e-02 1.071535000000000082e+02 1.638605000000000018e+03
8.000000000000000167e-03 7.917939999999999978e-01 -4.277750000000002384e-02 1.069145000000000039e+02 1.638545000000000073e+03
9.000000000000001055e-03 7.916925000000000212e-01 -1.915200000000000236e-01 1.065480000000000018e+02 1.638465000000000146e+03
1.000000000000000194e-02 7.915324999999999722e-01 -4.384399999999999409e-01 1.060000000000000000e+02 1.638339999999999918e+03
1.099999999999999936e-02 7.912995000000000445e-01 -7.992049999999999432e-01 1.052220000000000084e+02 1.638164999999999964e+03
1.200000000000000025e-02 7.909764999999999713e-01 -1.291069999999999940e+00 1.041560000000000059e+02 1.637920000000000073e+03
1.300000000000000114e-02 7.905699999999999950e-01 -1.889764999999999917e+00 1.027917500000000075e+02 1.637599999999999909e+03
1.400000000000000203e-02 7.901245000000000074e-01 -2.510225000000000151e+00 1.012083999999999975e+02 1.637220000000000027e+03
1.499999999999999944e-02 7.896980000000000111e-01 -3.040510000000000268e+00 9.954595000000000482e+01 1.636805000000000064e+03
1.600000000000000033e-02 7.893319999999999226e-01 -3.392083500000000029e+00 9.793979999999999109e+01 1.636384999999999991e+03
1.700000000000000122e-02 7.890360000000000706e-01 -3.528130500000000058e+00 9.646944999999999482e+01 1.635990000000000009e+03
1.800000000000000211e-02 7.887889999999999624e-01 -3.462483000000000199e+00 9.514695000000000391e+01 1.635615000000000009e+03
1.900000000000000300e-02 7.885585000000000511e-01 -3.240859500000000004e+00 9.392910000000000537e+01 1.635244999999999891e+03
2.000000000000000042e-02 7.883120000000000127e-01 -2.917654250000000005e+00 9.274609999999999843e+01 1.634889999999999873e+03
2.100000000000000130e-02 7.880264999999999631e-01 -2.536872000000000238e+00 9.153104999999999336e+01 1.634519999999999982e+03
2.200000000000000219e-02 7.876959999999999518e-01 -2.121259999999999923e+00 9.024174999999999613e+01 1.634134999999999991e+03
2.299999999999999961e-02 7.873289999999999456e-01 -1.671030000000000237e+00 8.887049999999999272e+01 1.633724999999999909e+03
2.400000000000000050e-02 7.869420000000000304e-01 -1.171314999999999884e+00 8.743969999999998777e+01 1.633300000000000182e+03
2.500000000000000139e-02 7.865530000000000577e-01 -6.045549999999999535e-01 8.598770000000000380e+01 1.632865000000000009e+03
2.600000000000000228e-02 7.861730000000000107e-01 3.689000000000008939e-02 8.454994999999999550e+01 1.632434999999999945e+03
2.700000000000000316e-02 7.858034999999999881e-01 7.426049999999997375e-01 8.314324999999999477e+01 1.632005000000000109e+03
2.800000000000000058e-02 7.854334999999998956e-01 1.482205000000000217e+00 8.175780000000000314e+01 1.631585000000000036e+03
2.900000000000000147e-02 7.850440000000000751e-01 2.209519999999999929e+00 8.035714999999999009e+01 1.631155000000000200e+03
3.000000000000000236e-02 7.846144999999999925e-01 2.871129999999999960e+00 7.888729999999999620e+01 1.630715000000000146e+03
3.099999999999999978e-02 7.841270000000000184e-01 3.416854999999999976e+00 7.728960000000000719e+01 1.630244999999999891e+03
3.200000000000000067e-02 7.835689999999999600e-01 3.809770000000000323e+00 7.551679999999998927e+01 1.629740000000000009e+03
3.300000000000000155e-02 7.829424999999999857e-01 4.033475000000000144e+00 7.354619999999999891e+01 1.629190000000000055e+03
3.400000000000000244e-02 7.822584999999999678e-01 4.094355000000000189e+00 7.138759999999999195e+01 1.628605000000000018e+03
3.500000000000000333e-02 7.815400000000000125e-01 4.018884999999999152e+00 6.908389999999999986e+01 1.627980000000000018e+03
3.600000000000000422e-02 7.808144999999999669e-01 3.846934999999999771e+00 6.670404999999999518e+01 1.627329999999999927e+03
3.700000000000000511e-02 7.801095000000000113e-01 3.623229999999999951e+00 6.433189999999999031e+01 1.626684999999999945e+03
3.799999999999999906e-02 7.794499999999999762e-01 3.389844999999999775e+00 6.205379999999999541e+01 1.626054999999999836e+03
3.899999999999999994e-02 7.788559999999999928e-01 3.181040000000000312e+00 5.994795000000000584e+01 1.625465000000000146e+03
4.000000000000000083e-02 7.783394999999999619e-01 3.021065000000000111e+00 5.807775000000000176e+01 1.624930000000000064e+03
4.100000000000000172e-02 7.779080000000000439e-01 2.924960000000000004e+00 5.648874999999999602e+01 1.624465000000000146e+03
4.200000000000000261e-02 7.775639999999999219e-01 2.900735000000000063e+00 5.520985000000000298e+01 1.624075000000000045e+03
4.300000000000000350e-02 7.773094999999999866e-01 2.952592499999999731e+00 5.425610000000000355e+01 1.623769999999999982e+03
4.400000000000000439e-02 7.771429999999999172e-01 3.083985000000000198e+00 5.363349999999999795e+01 1.623550000000000182e+03
4.499999999999999833e-02 7.770645000000000469e-01 3.299710000000000143e+00 5.334295000000000186e+01 1.623420000000000073e+03
4.599999999999999922e-02 7.770755000000000301e-01 3.606834999999999791e+00 5.338380000000000081e+01 1.623380000000000109e+03
4.700000000000000011e-02 7.771770000000000067e-01 4.014215000000000089e+00 5.375509999999999877e+01 1.623430000000000064e+03
4.800000000000000100e-02 7.773700000000000054e-01 4.531060000000000088e+00 5.445570000000000022e+01 1.623569999999999936e+03
4.900000000000000189e-02 7.776544999999999153e-01 5.164889999999999759e+00 5.548234999999999673e+01 1.623799999999999955e+03
5.000000000000000278e-02 7.780279999999999418e-01 5.919645000000000046e+00 5.682789999999999964e+01 1.624125000000000000e+03
5.100000000000000366e-02 7.784880000000000688e-01 6.794200000000000017e+00 5.847915000000000418e+01 1.624519999999999982e+03
5.200000000000000455e-02 7.790249999999999675e-01 7.781664999999999388e+00 6.041544999999999987e+01 1.625005000000000109e+03
5.300000000000000544e-02 7.796300000000000452e-01 8.869730000000000558e+00 6.260849999999999227e+01 1.625559999999999945e+03
5.399999999999999939e-02 7.802925000000000555e-01 1.004149999999999920e+01 6.502280000000000371e+01 1.626180000000000064e+03
5.500000000000000028e-02 7.809989999999999988e-01 1.127689499999999967e+01 6.761775000000000091e+01 1.626855000000000018e+03
5.600000000000000117e-02 7.817374999999999741e-01 1.255445999999999884e+01 7.035004999999999598e+01 1.627575000000000045e+03
5.700000000000000205e-02 7.824955000000000105e-01 1.385300999999999938e+01 7.317595000000000027e+01 1.628329999999999927e+03
5.800000000000000294e-02 7.832619999999999028e-01 1.515285000000000082e+01 7.605429999999999779e+01 1.629105000000000018e+03
5.900000000000000383e-02 7.840289999999999759e-01 1.643723500000000115e+01 7.894845000000000823e+01 1.629894999999999982e+03
6.000000000000000472e-02 7.847885000000000000e-01 1.769245000000000090e+01 8.182805000000000462e+01 1.630690000000000055e+03
6.099999999999999867e-02 7.855369999999999298e-01 1.890824999999999889e+01 8.466960000000000264e+01 1.631474999999999909e+03
6.199999999999999956e-02 7.862709999999999422e-01 2.007760000000000034e+01 8.745669999999999789e+01 1.632259999999999991e+03
6.300000000000000044e-02 7.869890000000000496e-01 2.119610000000000127e+01 9.017955000000000609e+01 1.633029999999999973e+03
6.400000000000000133e-02 7.876909999999999190e-01 2.226144999999999996e+01 9.283375000000000909e+01 1.633785000000000082e+03
6.500000000000000222e-02 7.883784999999999821e-01 2.327295000000000158e+01 9.541935000000000855e+01 1.634525000000000091e+03
6.600000000000000311e-02 7.890515000000000168e-01 2.423049999999999926e+01 9.793944999999999368e+01 1.635250000000000000e+03
6.700000000000000400e-02 7.897119999999999695e-01 2.513445000000000107e+01 1.003984499999999969e+02 1.635965000000000146e+03
6.800000000000000488e-02 7.903605000000000214e-01 2.598525000000000063e+01 1.028002500000000055e+02 1.636659999999999854e+03
6.900000000000000577e-02 7.909975000000000200e-01 2.678239999999999910e+01 1.051494000000000000e+02 1.637340000000000146e+03
7.000000000000000666e-02 7.916225000000000067e-01 2.752519999999999811e+01 1.074480000000000075e+02 1.638009999999999991e+03
7.100000000000000755e-02 7.922359999999999403e-01 2.821199999999999974e+01 1.096949999999999932e+02 1.638664999999999964e+03
7.200000000000000844e-02 7.928344999999999976e-01 2.884049999999999869e+01 1.118880000000000052e+02 1.639309999999999945e+03
7.300000000000000933e-02 7.934179999999999566e-01 2.940784999999999982e+01 1.140219999999999914e+02 1.639934999999999945e+03
7.399999999999999634e-02 7.939834999999999532e-01 2.991094999999999970e+01 1.160895000000000010e+02 1.640545000000000073e+03
7.499999999999999722e-02 7.945275000000000531e-01 3.034665000000000035e+01 1.180815000000000055e+02 1.641134999999999991e+03
7.599999999999999811e-02 7.950479999999999769e-01 3.071215000000000117e+01 1.199885000000000019e+02 1.641700000000000045e+03
7.699999999999999900e-02 7.955425000000000413e-01 3.100495000000000090e+01 1.218009999999999877e+02 1.642244999999999891e+03
7.799999999999999989e-02 7.960080000000000489e-01 3.122334999999999994e+01 1.235090000000000003e+02 1.642764999999999873e+03
7.900000000000000078e-02 7.964430000000000121e-01 3.136655000000000015e+01 1.251049999999999898e+02 1.643244999999999891e+03
8.000000000000000167e-02 7.968454999999999844e-01 3.143440000000000012e+01 1.265819999999999936e+02 1.643699999999999818e+03
8.100000000000000255e-02 7.972150000000000070e-01 3.142745000000000033e+01 1.279329999999999927e+02 1.644119999999999891e+03
8.200000000000000344e-02 7.975499999999999812e-01 3.134704999999999941e+01 1.291560000000000059e+02 1.644500000000000000e+03
8.300000000000000433e-02 7.978494999999999893e-01 3.119504999999999839e+01 1.302470000000000141e+02 1.644849999999999909e+03
8.400000000000000522e-02 7.981145000000000600e-01 3.097380000000000067e+01 1.312055000000000007e+02 1.645154999999999973e+03
8.500000000000000611e-02 7.983445000000000125e-01 3.068625000000000114e+01 1.320314999999999941e+02 1.645434999999999945e+03
8.600000000000000699e-02 7.985400000000000276e-01 3.033565000000000111e+01 1.327264999999999873e+02 1.645664999999999964e+03
8.700000000000000788e-02 7.987014999999999532e-01 2.992584999999999695e+01 1.332939999999999827e+02 1.645865000000000009e+03
8.800000000000000877e-02 7.988304999999999989e-01 2.946130000000000138e+01 1.337384999999999877e+02 1.646030000000000200e+03
8.899999999999999578e-02 7.989280000000000825e-01 2.894709999999999894e+01 1.340645000000000095e+02 1.646155000000000200e+03
8.999999999999999667e-02 7.989964999999999984e-01 2.838874999999999815e+01 1.342794999999999845e+02 1.646250000000000000e+03
9.099999999999999756e-02 7.990384999999999849e-01 2.779260000000000019e+01 1.343924999999999841e+02 1.646315000000000055e+03
9.199999999999999845e-02 7.990559999999999885e-01 2.716544999999999987e+01 1.344119999999999777e+02 1.646355000000000018e+03
9.299999999999999933e-02 7.990519999999999845e-01 2.651435000000000031e+01 1.343494999999999777e+02 1.646365000000000009e+03
9.400000000000000022e-02 7.990304999999999769e-01 2.584655000000000058e+01 1.342160000000000082e+02 1.646349999999999909e+03
9.500000000000000111e-02 7.989934999999999121e-01 2.516920000000000002e+01 1.340235000000000127e+02 1.646315000000000055e+03
9.600000000000000200e-02 7.989450000000000163e-01 2.448904999999999887e+01 1.337829999999999870e+02 1.646264999999999873e+03
9.700000000000000289e-02 7.988870000000000138e-01 2.381210000000000093e+01 1.335054999999999836e+02 1.646204999999999927e+03
9.800000000000000377e-02 7.988215000000000732e-01 2.314369999999999905e+01 1.332009999999999934e+02 1.646134999999999991e+03
9.900000000000000466e-02 7.987514999999999477e-01 2.248780000000000001e+01 1.328779999999999859e+02 1.646055000000000064e+03
1.000000000000000056e-01 7.986775000000000402e-01 2.184754999999999825e+01 1.325420000000000016e+02 1.645964999999999918e+03
1.010000000000000064e-01 7.986010000000000053e-01 2.122460000000000235e+01 1.321995000000000005e+02 1.645875000000000000e+03
1.020000000000000073e-01 7.985214999999999952e-01 2.061965000000000003e+01 1.318515000000000157e+02 1.645775000000000091e+03
1.030000000000000082e-01 7.984400000000000386e-01 2.003209999999999980e+01 1.314995000000000118e+02 1.645679999999999836e+03
1.040000000000000091e-01 7.983550000000000368e-01 1.946075000000000088e+01 1.311419999999999959e+02 1.645579999999999927e+03
1.050000000000000100e-01 7.982659999999999201e-01 1.890329999999999799e+01 1.307775000000000034e+02 1.645474999999999909e+03
1.059999999999999970e-01 7.981719999999999926e-01 1.835709999999999908e+01 1.304014999999999986e+02 1.645365000000000009e+03
1.069999999999999979e-01 7.980715000000000447e-01 1.781915000000000049e+01 1.300105000000000075e+02 1.645255000000000109e+03
1.079999999999999988e-01 7.979640000000000066e-01 1.728624999999999901e+01 1.296005000000000109e+02 1.645139999999999873e+03
1.089999999999999997e-01 7.978475000000000428e-01 1.675505000000000067e+01 1.291659999999999968e+02 1.645014999999999873e+03
1.100000000000000006e-01 7.977220000000000422e-01 1.622269999999999968e+01 1.287040000000000077e+02 1.644884999999999991e+03
1.110000000000000014e-01 7.975855000000000583e-01 1.568640000000000079e+01 1.282100000000000080e+02 1.644744999999999891e+03
1.120000000000000023e-01 7.974399999999999267e-01 1.514405000000000001e+01 1.276825000000000045e+02 1.644599999999999909e+03
1.130000000000000032e-01 7.972825000000000051e-01 1.459405000000000108e+01 1.271200000000000045e+02 1.644440000000000055e+03
1.140000000000000041e-01 7.971155000000000879e-01 1.403547999999999973e+01 1.265229999999999961e+02 1.644275000000000091e+03
1.150000000000000050e-01 7.969384999999999941e-01 1.346816000000000102e+01 1.258915000000000077e+02 1.644095000000000027e+03
1.160000000000000059e-01 7.967530000000000445e-01 1.289281499999999880e+01 1.252299999999999898e+02 1.643914999999999964e+03
1.170000000000000068e-01 7.965605000000000047e-01 1.231090499999999821e+01 1.245425000000000040e+02 1.643724999999999909e+03
1.180000000000000077e-01 7.963635000000000019e-01 1.172468999999999895e+01 1.238340000000000032e+02 1.643525000000000091e+03
1.190000000000000085e-01 7.961629999999999541e-01 1.113716499999999954e+01 1.231124999999999972e+02 1.643324999999999818e+03
1.200000000000000094e-01 7.959620000000000584e-01 1.055203500000000005e+01 1.223859999999999957e+02 1.643125000000000000e+03
1.209999999999999964e-01 7.957635000000000680e-01 9.973399999999999821e+00 1.216634999999999991e+02 1.642920000000000073e+03
1.219999999999999973e-01 7.955699999999999994e-01 9.405695000000001471e+00 1.209544999999999959e+02 1.642715000000000146e+03
1.229999999999999982e-01 7.953835000000000210e-01 8.853709999999999525e+00 1.202685000000000031e+02 1.642519999999999982e+03
1.239999999999999991e-01 7.952075000000000671e-01 8.321984999999999744e+00 1.196159999999999997e+02 1.642335000000000036e+03
1.250000000000000000e-01 7.950444999999999318e-01 7.815120000000000289e+00 1.190049999999999955e+02 1.642154999999999973e+03
1.260000000000000009e-01 7.948960000000000470e-01 7.337170000000000414e+00 1.184445000000000050e+02 1.641990000000000009e+03
1.270000000000000018e-01 7.947640000000000260e-01 6.891740000000000421e+00 1.179414999999999907e+02 1.641835000000000036e+03
1.280000000000000027e-01 7.946505000000000374e-01 6.481729999999999769e+00 1.175014999999999930e+02 1.641699999999999818e+03
1.290000000000000036e-01 7.945550000000000113e-01 6.109280000000000044e+00 1.171289999999999907e+02 1.641585000000000036e+03
1.300000000000000044e-01 7.944789999999999353e-01 5.775685000000000180e+00 1.168259999999999934e+02 1.641485000000000127e+03
1.310000000000000053e-01 7.944225000000000314e-01 5.481365000000000265e+00 1.165925000000000011e+02 1.641404999999999973e+03
1.320000000000000062e-01 7.943839999999999790e-01 5.225875000000000270e+00 1.164284999999999997e+02 1.641345000000000027e+03
1.330000000000000071e-01 7.943629999999999303e-01 5.007995000000000196e+00 1.163299999999999983e+02 1.641300000000000182e+03
1.340000000000000080e-01 7.943580000000000085e-01 4.825775000000000148e+00 1.162934999999999945e+02 1.641275000000000091e+03
1.350000000000000089e-01 7.943675000000000042e-01 4.676694999999999602e+00 1.163129999999999882e+02 1.641265000000000100e+03
1.360000000000000098e-01 7.943890000000000118e-01 4.557755000000000223e+00 1.163820000000000050e+02 1.641275000000000091e+03
1.370000000000000107e-01 7.944219999999999615e-01 4.465664999999999552e+00 1.164929999999999950e+02 1.641289999999999964e+03
1.380000000000000115e-01 7.944625000000000714e-01 4.396945000000000547e+00 1.166389999999999958e+02 1.641320000000000164e+03
1.390000000000000124e-01 7.945104999999998974e-01 4.348079999999999501e+00 1.168120000000000118e+02 1.641355000000000018e+03
1.400000000000000133e-01 7.945625000000000604e-01 4.315609999999999502e+00 1.170060000000000002e+02 1.641400000000000091e+03
1.410000000000000142e-01 7.946174999999999766e-01 4.296240000000000059e+00 1.172134999999999962e+02 1.641450000000000045e+03
1.420000000000000151e-01 7.946739999999999915e-01 4.286889999999999645e+00 1.174284999999999997e+02 1.641505000000000109e+03
1.430000000000000160e-01 7.947309999999999652e-01 4.284765000000000157e+00 1.176460000000000008e+02 1.641559999999999945e+03
1.440000000000000169e-01 7.947870000000000212e-01 4.287395000000000067e+00 1.178605000000000018e+02 1.641615000000000009e+03
1.450000000000000178e-01 7.948410000000000197e-01 4.292605000000000004e+00 1.180690000000000026e+02 1.641670000000000073e+03
1.459999999999999909e-01 7.948930000000000717e-01 4.298580000000000290e+00 1.182690000000000055e+02 1.641724999999999909e+03
1.469999999999999918e-01 7.949414999999999676e-01 4.303819999999999979e+00 1.184575000000000102e+02 1.641775000000000091e+03
1.479999999999999927e-01 7.949874999999999581e-01 4.307135000000000602e+00 1.186334999999999980e+02 1.641824999999999818e+03
1.489999999999999936e-01 7.950295000000000556e-01 4.307660000000000267e+00 1.187959999999999923e+02 1.641875000000000000e+03
1.499999999999999944e-01 7.950680000000001080e-01 4.304790000000000560e+00 1.189449999999999932e+02 1.641914999999999964e+03
1.509999999999999953e-01 7.951034999999999631e-01 4.298199999999999577e+00 1.190805000000000007e+02 1.641954999999999927e+03
1.519999999999999962e-01 7.951364999999999128e-01 4.287765000000000271e+00 1.192025000000000006e+02 1.641990000000000009e+03
1.529999999999999971e-01 7.951654999999999696e-01 4.273584999999999745e+00 1.193130000000000024e+02 1.642025000000000091e+03
1.539999999999999980e-01 7.951919999999998989e-01 4.255905000000000271e+00 1.194114999999999895e+02 1.642055000000000064e+03
1.549999999999999989e-01 7.952164999999999928e-01 4.235084999999999766e+00 1.195000000000000000e+02 1.642085000000000036e+03
1.559999999999999998e-01 7.952390000000000292e-01 4.211574999999999847e+00 1.195805000000000007e+02 1.642110000000000127e+03
1.570000000000000007e-01 7.952595000000000081e-01 4.185855000000000103e+00 1.196525000000000034e+02 1.642130000000000109e+03
1.580000000000000016e-01 7.952790000000000692e-01 4.158405000000000129e+00 1.197175000000000011e+02 1.642154999999999973e+03
1.590000000000000024e-01 7.952960000000000029e-01 4.129675000000000651e+00 1.197764999999999986e+02 1.642174999999999955e+03
