# t [s], A [cm^2], U [cm/s], P [cPa], c [cm/s]
1.000000000000000021e-03 1.869315000000000004e-01 2.198444999999999983e-01 9.121744999999999948e+01 2.230385000000000218e+03
2.000000000000000042e-03 1.868894999999999862e-01 1.511515500000000012e+00 8.822634999999999650e+01 2.229980000000000018e+03
3.000000000000000062e-03 1.867745000000000100e-01 3.148248499999999783e+00 8.395985000000000298e+01 2.228934999999999945e+03
4.000000000000000083e-03 1.866185000000000205e-01 5.013374500000000289e+00 7.922979999999999734e+01 2.227525000000000091e+03
5.000000000000000104e-03 1.864510000000000056e-01 7.041114999999999569e+00 7.494745000000000346e+01 2.226039999999999964e+03
6.000000000000000125e-03 1.862914999999999988e-01 9.058150000000001256e+00 7.143869999999999720e+01 2.224630000000000109e+03
7.000000000000000146e-03 1.861424999999999885e-01 1.084090499999999935e+01 6.843925000000000125e+01 2.223345000000000255e+03
8.000000000000000167e-03 1.860060000000000047e-01 1.231144500000000086e+01 6.572724999999999795e+01 2.222195000000000164e+03
9.000000000000001055e-03 1.858885000000000121e-01 1.351300999999999952e+01 6.339150000000000063e+01 2.221215000000000146e+03
1.000000000000000194e-02 1.857905000000000251e-01 1.448029999999999973e+01 6.151960000000000406e+01 2.220404999999999745e+03
1.099999999999999936e-02 1.857119999999999882e-01 1.523000000000000043e+01 6.008984999999999843e+01 2.219769999999999982e+03
1.200000000000000025e-02 1.856514999999999971e-01 1.577019999999999911e+01 5.902159999999999940e+01 2.219284999999999854e+03
1.300000000000000114e-02 1.856039999999999912e-01 1.609430000000000049e+01 5.816519999999999868e+01 2.218914999999999964e+03
1.400000000000000203e-02 1.855645000000000211e-01 1.621985000000000099e+01 5.738575000000000159e+01 2.218614999999999782e+03
1.499999999999999944e-02 1.855324999999999891e-01 1.624510000000000076e+01 5.675910000000000366e+01 2.218380000000000109e+03
1.600000000000000033e-02 1.855169999999999875e-01 1.633930000000000149e+01 5.663665000000000305e+01 2.218264999999999873e+03
1.700000000000000122e-02 1.855279999999999985e-01 1.665684999999999860e+01 5.745080000000000098e+01 2.218364999999999782e+03
1.800000000000000211e-02 1.855720000000000147e-01 1.724664999999999893e+01 5.940794999999999959e+01 2.218730000000000018e+03
1.900000000000000300e-02 1.856470000000000065e-01 1.802149999999999963e+01 6.230325000000000557e+01 2.219349999999999909e+03
2.000000000000000042e-02 1.857409999999999894e-01 1.879954999999999998e+01 6.556780000000000541e+01 2.220130000000000109e+03
2.100000000000000130e-02 1.858354999999999868e-01 1.938524999999999920e+01 6.849500000000000455e+01 2.220929999999999836e+03
2.200000000000000219e-02 1.859135000000000093e-01 1.964529999999999887e+01 7.051115000000000066e+01 2.221609999999999673e+03
2.299999999999999961e-02 1.859640000000000182e-01 1.954845000000000255e+01 7.136250000000001137e+01 2.222059999999999945e+03
2.400000000000000050e-02 1.859844999999999970e-01 1.915950000000000131e+01 7.115594999999999004e+01 2.222269999999999982e+03
2.500000000000000139e-02 1.859820000000000084e-01 1.859789999999999921e+01 7.025785000000000480e+01 2.222264999999999873e+03
2.600000000000000228e-02 1.859645000000000048e-01 1.798335000000000150e+01 6.911405000000000598e+01 2.222130000000000109e+03
2.700000000000000316e-02 1.859419999999999962e-01 1.739119999999999777e+01 6.807314999999999827e+01 2.221949999999999818e+03
2.800000000000000058e-02 1.859204999999999885e-01 1.683419999999999916e+01 6.727904999999999802e+01 2.221769999999999982e+03
2.900000000000000147e-02 1.859009999999999829e-01 1.627094999999999914e+01 6.666079999999999472e+01 2.221600000000000364e+03
3.000000000000000236e-02 1.858799999999999897e-01 1.563475000000000037e+01 6.600660000000000593e+01 2.221430000000000291e+03
3.099999999999999978e-02 1.858529999999999904e-01 1.486990000000000123e+01 6.508275000000000432e+01 2.221210000000000036e+03
3.200000000000000067e-02 1.858150000000000079e-01 1.396229999999999905e+01 6.375249999999999773e+01 2.220900000000000091e+03
3.300000000000000155e-02 1.857659999999999867e-01 1.295449999999999946e+01 6.205330000000000013e+01 2.220500000000000000e+03
3.400000000000000244e-02 1.857105000000000006e-01 1.193970999999999982e+01 6.020709999999999695e+01 2.220034999999999854e+03
3.500000000000000333e-02 1.856559999999999877e-01 1.103748000000000040e+01 5.856094999999999828e+01 2.219579999999999927e+03
3.600000000000000422e-02 1.856130000000000002e-01 1.035984000000000016e+01 5.748149999999999693e+01 2.219210000000000036e+03
3.700000000000000511e-02 1.855900000000000050e-01 9.979670000000000485e+00 5.724235000000000184e+01 2.219000000000000000e+03
3.799999999999999906e-02 1.855924999999999936e-01 9.912100000000000577e+00 5.794200000000000017e+01 2.219000000000000000e+03
3.899999999999999994e-02 1.856214999999999948e-01 1.011185000000000045e+01 5.947700000000000387e+01 2.219220000000000255e+03
4.000000000000000083e-02 1.856714999999999893e-01 1.048681000000000019e+01 6.157019999999999982e+01 2.219614999999999782e+03
4.100000000000000172e-02 1.857334999999999958e-01 1.091970500000000044e+01 6.384005000000000507e+01 2.220125000000000000e+03
4.200000000000000261e-02 1.857969999999999899e-01 1.129265000000000008e+01 6.588540000000000418e+01 2.220654999999999745e+03
4.300000000000000350e-02 1.858509999999999884e-01 1.150730000000000075e+01 6.736314999999999031e+01 2.221110000000000127e+03
4.400000000000000439e-02 1.858869999999999967e-01 1.149729999999999919e+01 6.804184999999999661e+01 2.221425000000000182e+03
4.499999999999999833e-02 1.858994999999999953e-01 1.123235000000000028e+01 6.782255000000000678e+01 2.221545000000000073e+03
4.599999999999999922e-02 1.858859999999999957e-01 1.071410499999999999e+01 6.672960000000000491e+01 2.221445000000000164e+03
4.700000000000000011e-02 1.858474999999999988e-01 9.967285000000000394e+00 6.487905000000000655e+01 2.221130000000000109e+03
4.800000000000000100e-02 1.857865000000000211e-01 9.029474999999999696e+00 6.243715000000000259e+01 2.220635000000000218e+03
4.900000000000000189e-02 1.857080000000000120e-01 7.942239999999999966e+00 5.958129999999999882e+01 2.219984999999999673e+03
5.000000000000000278e-02 1.856165000000000176e-01 6.745314999999999728e+00 5.647270000000000323e+01 2.219224999999999909e+03
5.100000000000000366e-02 1.855160000000000142e-01 5.474734999999999907e+00 5.324240000000000350e+01 2.218389999999999873e+03
5.200000000000000455e-02 1.854109999999999925e-01 4.163643999999999679e+00 4.999275000000000091e+01 2.217505000000000109e+03
5.300000000000000544e-02 1.853039999999999965e-01 2.844954999999999679e+00 4.680624999999999858e+01 2.216614999999999782e+03
5.399999999999999939e-02 1.851980000000000015e-01 1.554105000000000070e+00 4.375929999999999609e+01 2.215725000000000364e+03
5.500000000000000028e-02 1.850970000000000115e-01 3.308349999999999902e-01 4.093354999999999677e+01 2.214869999999999891e+03
5.600000000000000117e-02 1.850034999999999874e-01 -7.806799999999999295e-01 3.842194999999999538e+01 2.214079999999999927e+03
5.700000000000000205e-02 1.849204999999999877e-01 -1.733436499999999825e+00 3.632865000000000322e+01 2.213375000000000000e+03
5.800000000000000294e-02 1.848515000000000019e-01 -2.480742499999999851e+00 3.476255000000000450e+01 2.212784999999999854e+03
5.900000000000000383e-02 1.848015000000000074e-01 -2.980020000000000113e+00 3.382685000000000031e+01 2.212345000000000255e+03
6.000000000000000472e-02 1.847715000000000052e-01 -3.196710000000000385e+00 3.360715000000000430e+01 2.212079999999999927e+03
6.099999999999999867e-02 1.847665000000000002e-01 -3.107464999999999922e+00 3.416089999999999804e+01 2.212010000000000218e+03
6.199999999999999956e-02 1.847860000000000058e-01 -2.702259999999999884e+00 3.551024999999999920e+01 2.212149999999999636e+03
6.300000000000000044e-02 1.848314999999999819e-01 -1.985132999999999814e+00 3.763835000000000264e+01 2.212510000000000218e+03
6.400000000000000133e-02 1.849024999999999974e-01 -9.736650000000001137e-01 4.049110000000000298e+01 2.213074999999999818e+03
6.500000000000000222e-02 1.849965000000000082e-01 3.025999999999999801e-01 4.398194999999999766e+01 2.213845000000000255e+03
6.600000000000000311e-02 1.851114999999999844e-01 1.804575000000000040e+00 4.799920000000000186e+01 2.214784999999999854e+03
6.700000000000000400e-02 1.852429999999999910e-01 3.486539499999999681e+00 5.241579999999999728e+01 2.215875000000000000e+03
6.800000000000000488e-02 1.853879999999999972e-01 5.299330000000000318e+00 5.709890000000000043e+01 2.217079999999999927e+03
6.900000000000000577e-02 1.855419999999999847e-01 7.193520000000000358e+00 6.191969999999999885e+01 2.218369999999999891e+03
7.000000000000000666e-02 1.857010000000000050e-01 9.122450000000000614e+00 6.676189999999999714e+01 2.219699999999999818e+03
7.100000000000000755e-02 1.858615000000000128e-01 1.104461000000000048e+01 7.152904999999999802e+01 2.221055000000000291e+03
7.200000000000000844e-02 1.860209999999999919e-01 1.292583499999999930e+01 7.614904999999998836e+01 2.222399999999999636e+03
7.300000000000000933e-02 1.861764999999999948e-01 1.474014999999999986e+01 8.057665000000000077e+01 2.223724999999999909e+03
7.399999999999999634e-02 1.863275000000000070e-01 1.647015000000000029e+01 8.479245000000000232e+01 2.225005000000000109e+03
7.499999999999999722e-02 1.864724999999999855e-01 1.810624999999999929e+01 8.880004999999999882e+01 2.226244999999999891e+03
7.599999999999999811e-02 1.866114999999999857e-01 1.964585000000000292e+01 9.262059999999999604e+01 2.227440000000000055e+03
7.699999999999999900e-02 1.867460000000000231e-01 2.109120000000000061e+01 9.628659999999999286e+01 2.228590000000000146e+03
7.799999999999999989e-02 1.868759999999999866e-01 2.244769999999999754e+01 9.983445000000000391e+01 2.229710000000000036e+03
7.900000000000000078e-02 1.870020000000000016e-01 2.372240000000000038e+01 1.033002500000000055e+02 2.230795000000000073e+03
8.000000000000000167e-02 1.871265000000000012e-01 2.492229999999999990e+01 1.067125000000000057e+02 2.231859999999999673e+03
8.100000000000000255e-02 1.872484999999999844e-01 2.605315000000000225e+01 1.100914999999999964e+02 2.232920000000000073e+03
8.200000000000000344e-02 1.873694999999999944e-01 2.711905000000000143e+01 1.134465000000000003e+02 2.233960000000000036e+03
8.300000000000000433e-02 1.874890000000000168e-01 2.812180000000000035e+01 1.167744999999999891e+02 2.234994999999999891e+03
8.400000000000000522e-02 1.876079999999999970e-01 2.906119999999999948e+01 1.200665000000000049e+02 2.236019999999999982e+03
8.500000000000000611e-02 1.877254999999999896e-01 2.993489999999999895e+01 1.233029999999999973e+02 2.237029999999999745e+03
8.600000000000000699e-02 1.878400000000000070e-01 3.073884999999999934e+01 1.264590000000000032e+02 2.238025000000000091e+03
8.700000000000000788e-02 1.879514999999999936e-01 3.146750000000000114e+01 1.295060000000000002e+02 2.238989999999999782e+03
8.800000000000000877e-02 1.880594999999999906e-01 3.211410000000000053e+01 1.324139999999999873e+02 2.239930000000000291e+03
8.899999999999999578e-02 1.881625000000000103e-01 3.267119999999999891e+01 1.351514999999999986e+02 2.240824999999999818e+03
8.999999999999999667e-02 1.882594999999999963e-01 3.313089999999999691e+01 1.376875000000000000e+02 2.241664999999999964e+03
9.099999999999999756e-02 1.883489999999999887e-01 3.348534999999999684e+01 1.399920000000000186e+02 2.242444999999999709e+03
9.199999999999999845e-02 1.884309999999999874e-01 3.372704999999999842e+01 1.420384999999999991e+02 2.243159999999999854e+03
9.299999999999999933e-02 1.885040000000000049e-01 3.384985000000000355e+01 1.438034999999999854e+02 2.243800000000000182e+03
9.400000000000000022e-02 1.885674999999999990e-01 3.384884999999999877e+01 1.452699999999999818e+02 2.244355000000000018e+03
9.500000000000000111e-02 1.886209999999999831e-01 3.372159999999999513e+01 1.464259999999999877e+02 2.244829999999999927e+03
9.600000000000000200e-02 1.886634999999999840e-01 3.346835000000000093e+01 1.472675000000000125e+02 2.245210000000000036e+03
9.700000000000000289e-02 1.886955000000000160e-01 3.309210000000000207e+01 1.478009999999999877e+02 2.245500000000000000e+03
9.800000000000000377e-02 1.887174999999999825e-01 3.259915000000000163e+01 1.480389999999999873e+02 2.245704999999999927e+03
9.900000000000000466e-02 1.887294999999999945e-01 3.199884999999999735e+01 1.480029999999999859e+02 2.245815000000000055e+03
1.000000000000000056e-01 1.887320000000000109e-01 3.130314999999999870e+01 1.477235000000000014e+02 2.245849999999999909e+03
1.010000000000000064e-01 1.887269999999999781e-01 3.052619999999999933e+01 1.472339999999999804e+02 2.245815000000000055e+03
1.020000000000000073e-01 1.887145000000000072e-01 2.968395000000000294e+01 1.465740000000000123e+02 2.245715000000000146e+03
1.030000000000000082e-01 1.886959999999999749e-01 2.879305000000000092e+01 1.457835000000000036e+02 2.245565000000000055e+03
1.040000000000000091e-01 1.886730000000000074e-01 2.787030000000000030e+01 1.449044999999999845e+02 2.245369999999999891e+03
1.050000000000000100e-01 1.886464999999999947e-01 2.693220000000000169e+01 1.439724999999999966e+02 2.245150000000000091e+03
1.059999999999999970e-01 1.886180000000000079e-01 2.599370000000000047e+01 1.430235000000000127e+02 2.244905000000000200e+03
1.069999999999999979e-01 1.885884999999999923e-01 2.506835000000000235e+01 1.420860000000000127e+02 2.244654999999999745e+03
1.079999999999999988e-01 1.885594999999999910e-01 2.416740000000000066e+01 1.411829999999999927e+02 2.244399999999999636e+03
1.089999999999999997e-01 1.885304999999999898e-01 2.329964999999999975e+01 1.403309999999999889e+02 2.244150000000000091e+03
1.100000000000000006e-01 1.885030000000000039e-01 2.247105000000000175e+01 1.395394999999999754e+02 2.243909999999999854e+03
1.110000000000000014e-01 1.884764999999999913e-01 2.168500000000000227e+01 1.388100000000000023e+02 2.243685000000000400e+03
1.120000000000000023e-01 1.884520000000000084e-01 2.094174999999999898e+01 1.381390000000000100e+02 2.243470000000000255e+03
1.130000000000000032e-01 1.884294999999999998e-01 2.023939999999999984e+01 1.375160000000000196e+02 2.243269999999999982e+03
1.140000000000000041e-01 1.884075000000000055e-01 1.957325000000000159e+01 1.369254999999999995e+02 2.243074999999999818e+03
1.150000000000000050e-01 1.883865000000000123e-01 1.893710000000000093e+01 1.363469999999999800e+02 2.242890000000000327e+03
1.160000000000000059e-01 1.883655000000000190e-01 1.832305000000000206e+01 1.357590000000000146e+02 2.242704999999999927e+03
1.170000000000000068e-01 1.883434999999999970e-01 1.772245000000000203e+01 1.351374999999999886e+02 2.242510000000000218e+03
1.180000000000000077e-01 1.883205000000000018e-01 1.712630000000000052e+01 1.344605000000000246e+02 2.242315000000000055e+03
1.190000000000000085e-01 1.882960000000000189e-01 1.652599999999999980e+01 1.337055000000000007e+02 2.242100000000000364e+03
1.200000000000000094e-01 1.882685000000000053e-01 1.591380000000000017e+01 1.328555000000000064e+02 2.241859999999999673e+03
1.209999999999999964e-01 1.882375000000000020e-01 1.528334999999999866e+01 1.318965000000000032e+02 2.241595000000000255e+03
1.219999999999999973e-01 1.882034999999999958e-01 1.463005000000000067e+01 1.308209999999999980e+02 2.241300000000000182e+03
1.229999999999999982e-01 1.881654999999999855e-01 1.395180000000000042e+01 1.296270000000000095e+02 2.240974999999999909e+03
1.239999999999999991e-01 1.881234999999999991e-01 1.324840000000000018e+01 1.283199999999999932e+02 2.240614999999999782e+03
1.250000000000000000e-01 1.880779999999999952e-01 1.252250000000000085e+01 1.269099999999999966e+02 2.240224999999999909e+03
1.260000000000000009e-01 1.880290000000000017e-01 1.177890000000000015e+01 1.254154999999999944e+02 2.239805000000000291e+03
1.270000000000000018e-01 1.879775000000000196e-01 1.102443000000000062e+01 1.238585000000000065e+02 2.239364999999999782e+03
1.280000000000000027e-01 1.879244999999999943e-01 1.026775999999999911e+01 1.222655000000000030e+02 2.238909999999999854e+03
1.290000000000000036e-01 1.878700000000000092e-01 9.518710000000000448e+00 1.206664999999999992e+02 2.238439999999999600e+03
1.300000000000000044e-01 1.878154999999999963e-01 8.787739999999999441e+00 1.190895000000000010e+02 2.237969999999999800e+03
1.310000000000000053e-01 1.877619999999999845e-01 8.085514999999999119e+00 1.175649999999999977e+02 2.237510000000000218e+03
1.320000000000000062e-01 1.877095000000000014e-01 7.421969999999999956e+00 1.161200000000000045e+02 2.237065000000000055e+03
1.330000000000000071e-01 1.876605000000000079e-01 6.806250000000000355e+00 1.147775000000000034e+02 2.236640000000000327e+03
1.340000000000000080e-01 1.876145000000000174e-01 6.245955000000000368e+00 1.135564999999999998e+02 2.236239999999999782e+03
1.350000000000000089e-01 1.875724999999999754e-01 5.746954999999999814e+00 1.124705000000000013e+02 2.235869999999999891e+03
1.360000000000000098e-01 1.875344999999999929e-01 5.313214999999999577e+00 1.115279999999999916e+02 2.235539999999999964e+03
1.370000000000000107e-01 1.875010000000000010e-01 4.946674999999999933e+00 1.107309999999999945e+02 2.235255000000000109e+03
1.380000000000000115e-01 1.874724999999999864e-01 4.647370000000000445e+00 1.100780000000000030e+02 2.235005000000000109e+03
1.390000000000000124e-01 1.874485000000000179e-01 4.413504999999999789e+00 1.095610000000000070e+02 2.234789999999999964e+03
1.400000000000000133e-01 1.874294999999999989e-01 4.241699999999999804e+00 1.091709999999999923e+02 2.234619999999999891e+03
1.410000000000000142e-01 1.874140000000000250e-01 4.127240000000000464e+00 1.088934999999999889e+02 2.234484999999999673e+03
1.420000000000000151e-01 1.874029999999999863e-01 4.064334999999999809e+00 1.087150000000000034e+02 2.234380000000000109e+03
1.430000000000000160e-01 1.873945000000000194e-01 4.046405000000000030e+00 1.086169999999999902e+02 2.234305000000000291e+03
1.440000000000000169e-01 1.873890000000000000e-01 4.066329999999999778e+00 1.085854999999999961e+02 2.234250000000000000e+03
1.450000000000000178e-01 1.873859999999999970e-01 4.116769999999999818e+00 1.086009999999999991e+02 2.234220000000000255e+03
1.459999999999999909e-01 1.873849999999999960e-01 4.190324999999999633e+00 1.086490000000000009e+02 2.234204999999999927e+03
1.469999999999999918e-01 1.873845000000000094e-01 4.279815000000000147e+00 1.087145000000000010e+02 2.234199999999999818e+03
1.479999999999999927e-01 1.873849999999999960e-01 4.378445000000000142e+00 1.087835000000000036e+02 2.234199999999999818e+03
1.489999999999999936e-01 1.873854999999999826e-01 4.480014999999999858e+00 1.088435000000000059e+02 2.234204999999999927e+03
1.499999999999999944e-01 1.873865000000000114e-01 4.579029999999999490e+00 1.088849999999999909e+02 2.234210000000000036e+03
1.509999999999999953e-01 1.873865000000000114e-01 4.670849999999999724e+00 1.088994999999999891e+02 2.234210000000000036e+03
1.519999999999999962e-01 1.873859999999999970e-01 4.751794999999999547e+00 1.088815000000000026e+02 2.234204999999999927e+03
1.529999999999999971e-01 1.873845000000000094e-01 4.819139999999999979e+00 1.088275000000000006e+02 2.234194999999999709e+03
1.539999999999999980e-01 1.873819999999999930e-01 4.871179999999999843e+00 1.087360000000000042e+02 2.234175000000000182e+03
1.549999999999999989e-01 1.873785000000000034e-01 4.907149999999999679e+00 1.086080000000000041e+02 2.234140000000000327e+03
1.559999999999999998e-01 1.873735000000000261e-01 4.927160000000000650e+00 1.084459999999999980e+02 2.234105000000000018e+03
1.570000000000000007e-01 1.873680000000000068e-01 4.932059999999999889e+00 1.082540000000000049e+02 2.234059999999999945e+03
1.580000000000000016e-01 1.873615000000000141e-01 4.923289999999999722e+00 1.080370000000000061e+02 2.234000000000000000e+03
1.590000000000000024e-01 1.873539999999999928e-01 4.902689999999999770e+00 1.078010000000000019e+02 2.233934999999999945e+03
