# t [s], A [cm^2], U [cm/s], P [cPa], c [cm/s]
1.000000000000000021e-03 7.037830000000000474e-01 6.485100000000000586e-03 9.503260000000000218e+01 1.771679999999999836e+03
2.000000000000000042e-03 7.037709999999999244e-01 -3.079852499999999847e-03 9.499805000000000632e+01 1.771670000000000073e+03
3.000000000000000062e-03 7.038305000000000256e-01 1.023064500000000210e-01 9.512270000000000891e+01 1.771700000000000045e+03
4.000000000000000083e-03 7.038770000000000859e-01 2.004415499999999961e-01 9.525119999999999720e+01 1.771724999999999909e+03
5.000000000000000104e-03 7.038364999999999760e-01 1.580302500000000110e-01 9.515209999999999013e+01 1.771704999999999927e+03
6.000000000000000125e-03 7.037644999999999040e-01 5.608750000000001235e-02 9.488915000000000077e+01 1.771650000000000091e+03
7.000000000000000146e-03 7.037050000000000249e-01 -3.499999999999997558e-02 9.457685000000000741e+01 1.771575000000000045e+03
8.000000000000000167e-03 7.036005000000000731e-01 -2.191949999999999177e-01 9.409425000000000239e+01 1.771470000000000027e+03
9.000000000000001055e-03 7.034299999999999997e-01 -5.402900000000000480e-01 9.335054999999999836e+01 1.771304999999999836e+03
1.000000000000000194e-02 7.031844999999999901e-01 -1.010625000000000107e+00 9.228669999999999618e+01 1.771070000000000164e+03
1.099999999999999936e-02 7.028380000000000738e-01 -1.664199999999999902e+00 9.080785000000000196e+01 1.770735000000000127e+03
1.200000000000000025e-02 7.023995000000000655e-01 -2.468004999999999782e+00 8.890224999999999511e+01 1.770300000000000182e+03
1.300000000000000114e-02 7.019360000000000044e-01 -3.274555000000000327e+00 8.673945000000000505e+01 1.769789999999999964e+03
1.400000000000000203e-02 7.015314999999999745e-01 -3.897641000000000133e+00 8.459614999999999441e+01 1.769264999999999873e+03
1.499999999999999944e-02 7.012315000000000076e-01 -4.216087499999999544e+00 8.270279999999999632e+01 1.768775000000000091e+03
1.600000000000000033e-02 7.010270000000000667e-01 -4.216759999999999842e+00 8.114695000000000391e+01 1.768340000000000146e+03
1.700000000000000122e-02 7.008719999999999395e-01 -3.973269999999999857e+00 7.986910000000000309e+01 1.767960000000000036e+03
1.800000000000000211e-02 7.007099999999999440e-01 -3.595159999999999911e+00 7.872135000000000105e+01 1.767610000000000127e+03
1.900000000000000300e-02 7.004995000000000527e-01 -3.177448499999999676e+00 7.754455000000000098e+01 1.767255000000000109e+03
2.000000000000000042e-02 7.002280000000000726e-01 -2.768126000000000086e+00 7.623385000000000389e+01 1.766875000000000000e+03
2.100000000000000130e-02 6.999079999999999746e-01 -2.361292500000000238e+00 7.476965000000001282e+01 1.766460000000000036e+03
2.200000000000000219e-02 6.995705000000000950e-01 -1.914980000000000349e+00 7.320785000000000764e+01 1.766025000000000091e+03
2.299999999999999961e-02 6.992450000000000054e-01 -1.382940000000000058e+00 7.163880000000000337e+01 1.765579999999999927e+03
2.400000000000000050e-02 6.989475000000000549e-01 -7.449149999999999938e-01 7.013640000000000896e+01 1.765150000000000091e+03
2.500000000000000139e-02 6.986719999999999597e-01 -2.341499999999996362e-02 6.872039999999999793e+01 1.764735000000000127e+03
2.600000000000000228e-02 6.983945000000000292e-01 7.164349999999999330e-01 6.734205000000000041e+01 1.764325000000000045e+03
2.700000000000000316e-02 6.980790000000000051e-01 1.381500000000000172e+00 6.589410000000000878e+01 1.763909999999999854e+03
2.800000000000000058e-02 6.976894999999999625e-01 1.874035000000000117e+00 6.424150000000000205e+01 1.763450000000000045e+03
2.900000000000000147e-02 6.972015000000000295e-01 2.117499999999999716e+00 6.226165000000000305e+01 1.762920000000000073e+03
3.000000000000000236e-02 6.966094999999999926e-01 2.077395000000000547e+00 5.988470000000000226e+01 1.762309999999999945e+03
3.099999999999999978e-02 6.959305000000000074e-01 1.770189999999999930e+00 5.711945000000000050e+01 1.761615000000000009e+03
3.200000000000000067e-02 6.952004999999999990e-01 1.257249999999999979e+00 5.405615000000000236e+01 1.760845000000000027e+03
3.300000000000000155e-02 6.944639999999999702e-01 6.270400000000000418e-01 5.084734999999999872e+01 1.760029999999999973e+03
3.400000000000000244e-02 6.937655000000000349e-01 -2.664500000000025182e-02 4.767475000000000307e+01 1.759220000000000027e+03
3.500000000000000333e-02 6.931420000000000359e-01 -6.227050000000002861e-01 4.471604999999999563e+01 1.758444999999999936e+03
3.600000000000000422e-02 6.926170000000000382e-01 -1.103004999999999569e+00 4.211910000000000309e+01 1.757750000000000000e+03
3.700000000000000511e-02 6.922034999999999716e-01 -1.434450000000000003e+00 3.998825000000000074e+01 1.757154999999999973e+03
3.799999999999999906e-02 6.919035000000000046e-01 -1.604855000000000143e+00 3.838200000000000500e+01 1.756684999999999945e+03
3.899999999999999994e-02 6.917145000000000099e-01 -1.615407500000000107e+00 3.731980000000000075e+01 1.756340000000000146e+03
4.000000000000000083e-02 6.916305000000000369e-01 -1.472262000000000182e+00 3.679420000000000357e+01 1.756134999999999991e+03
4.100000000000000172e-02 6.916459999999999830e-01 -1.179769000000000068e+00 3.678405000000000058e+01 1.756065000000000055e+03
4.200000000000000261e-02 6.917575000000000252e-01 -7.367995000000000516e-01 3.726565000000000083e+01 1.756125000000000000e+03
4.300000000000000350e-02 6.919640000000000235e-01 -1.368199999999999417e-01 3.821840000000000259e+01 1.756305000000000064e+03
4.400000000000000439e-02 6.922649999999999082e-01 6.289600000000001856e-01 3.962574999999999648e+01 1.756605000000000018e+03
4.499999999999999833e-02 6.926590000000000247e-01 1.566804999999999781e+00 4.147100000000000364e+01 1.757025000000000091e+03
4.599999999999999922e-02 6.931404999999999372e-01 2.675924999999999887e+00 4.373149999999999693e+01 1.757555000000000064e+03
4.700000000000000011e-02 6.937020000000000408e-01 3.945499999999999563e+00 4.637380000000000280e+01 1.758190000000000055e+03
4.800000000000000100e-02 6.943310000000000315e-01 5.353994999999999393e+00 4.935025000000000261e+01 1.758914999999999964e+03
4.900000000000000189e-02 6.950115000000000043e-01 6.870611999999999497e+00 5.259949999999999903e+01 1.759715000000000146e+03
5.000000000000000278e-02 6.957269999999999843e-01 8.458432999999999424e+00 5.604974999999999596e+01 1.760579999999999927e+03
5.100000000000000366e-02 6.964595000000000091e-01 1.007821500000000015e+01 5.962400000000000233e+01 1.761490000000000009e+03
5.200000000000000455e-02 6.971944999999999393e-01 1.169223999999999997e+01 6.324630000000000507e+01 1.762424999999999955e+03
5.300000000000000544e-02 6.979174999999999685e-01 1.326763500000000029e+01 6.684780000000000655e+01 1.763360000000000127e+03
5.399999999999999939e-02 6.986190000000001010e-01 1.477818000000000076e+01 7.037184999999999491e+01 1.764289999999999964e+03
5.500000000000000028e-02 6.992929999999999424e-01 1.620555000000000234e+01 7.377655000000000030e+01 1.765200000000000045e+03
5.600000000000000117e-02 6.999370000000000314e-01 1.753869999999999862e+01 7.703605000000000302e+01 1.766085000000000036e+03
5.700000000000000205e-02 7.005509999999999238e-01 1.877335000000000065e+01 8.013970000000000482e+01 1.766929999999999836e+03
5.800000000000000294e-02 7.011369999999998992e-01 1.991025000000000134e+01 8.308975000000000932e+01 1.767744999999999891e+03
5.900000000000000383e-02 7.016995000000000315e-01 2.095394999999999897e+01 8.589855000000000018e+01 1.768525000000000091e+03
6.000000000000000472e-02 7.022420000000000329e-01 2.191130000000000067e+01 8.858535000000000537e+01 1.769275000000000091e+03
6.099999999999999867e-02 7.027695000000000469e-01 2.279010000000000247e+01 9.117249999999999943e+01 1.770000000000000000e+03
6.199999999999999956e-02 7.032865000000000366e-01 2.359805000000000064e+01 9.368270000000001119e+01 1.770699999999999818e+03
6.300000000000000044e-02 7.037955000000000183e-01 2.434159999999999968e+01 9.613569999999999993e+01 1.771389999999999873e+03
6.400000000000000133e-02 7.042994999999999672e-01 2.502570000000000050e+01 9.854679999999999040e+01 1.772059999999999945e+03
6.500000000000000222e-02 7.047984999999999944e-01 2.565269999999999939e+01 1.009237499999999983e+02 1.772730000000000018e+03
6.600000000000000311e-02 7.052920000000000300e-01 2.622274999999999778e+01 1.032677500000000066e+02 1.773385000000000218e+03
6.700000000000000400e-02 7.057765000000000288e-01 2.673344999999999771e+01 1.055720000000000027e+02 1.774030000000000200e+03
6.800000000000000488e-02 7.062500000000000444e-01 2.718084999999999951e+01 1.078230000000000075e+02 1.774660000000000082e+03
6.900000000000000577e-02 7.067065000000000152e-01 2.755964999999999776e+01 1.100024999999999977e+02 1.775264999999999873e+03
7.000000000000000666e-02 7.071425000000000072e-01 2.786410000000000053e+01 1.120895000000000010e+02 1.775855000000000018e+03
7.100000000000000755e-02 7.075525000000000286e-01 2.808879999999999910e+01 1.140604999999999905e+02 1.776420000000000073e+03
7.200000000000000844e-02 7.079329999999999234e-01 2.822915000000000063e+01 1.158944999999999936e+02 1.776940000000000055e+03
7.300000000000000933e-02 7.082794999999999508e-01 2.828179999999999694e+01 1.175704999999999956e+02 1.777424999999999955e+03
7.399999999999999634e-02 7.085905000000000120e-01 2.824479999999999791e+01 1.190724999999999909e+02 1.777869999999999891e+03
7.499999999999999722e-02 7.088615000000000332e-01 2.811764999999999759e+01 1.203884999999999934e+02 1.778265000000000100e+03
7.599999999999999811e-02 7.090940000000000021e-01 2.790140000000000242e+01 1.215095000000000027e+02 1.778605000000000018e+03
7.699999999999999900e-02 7.092849999999999433e-01 2.759855000000000302e+01 1.224325000000000045e+02 1.778894999999999982e+03
7.799999999999999989e-02 7.094365000000000254e-01 2.721284999999999954e+01 1.231574999999999989e+02 1.779134999999999991e+03
7.900000000000000078e-02 7.095489999999999853e-01 2.674969999999999715e+01 1.236880000000000024e+02 1.779319999999999936e+03
8.000000000000000167e-02 7.096240000000000325e-01 2.621580000000000155e+01 1.240340000000000060e+02 1.779450000000000045e+03
8.100000000000000255e-02 7.096655000000000602e-01 2.561930000000000263e+01 1.242070000000000078e+02 1.779539999999999964e+03
8.200000000000000344e-02 7.096755000000000146e-01 2.496965000000000146e+01 1.242224999999999966e+02 1.779579999999999927e+03
8.300000000000000433e-02 7.096584999999999699e-01 2.427745000000000175e+01 1.240995000000000061e+02 1.779585000000000036e+03
8.400000000000000522e-02 7.096184999999999299e-01 2.355440000000000111e+01 1.238594999999999970e+02 1.779549999999999955e+03
8.500000000000000611e-02 7.095609999999999973e-01 2.281235000000000213e+01 1.235245000000000033e+02 1.779485000000000127e+03
8.600000000000000699e-02 7.094905000000000239e-01 2.206334999999999980e+01 1.231185000000000116e+02 1.779394999999999982e+03
8.700000000000000788e-02 7.094119999999999315e-01 2.131869999999999976e+01 1.226649999999999920e+02 1.779295000000000073e+03
8.800000000000000877e-02 7.093285000000000284e-01 2.058859999999999957e+01 1.221845000000000141e+02 1.779180000000000064e+03
8.899999999999999578e-02 7.092445000000000555e-01 1.988165000000000049e+01 1.216974999999999909e+02 1.779055000000000064e+03
8.999999999999999667e-02 7.091620000000000701e-01 1.920429999999999993e+01 1.212179999999999893e+02 1.778934999999999945e+03
9.099999999999999756e-02 7.090834999999999777e-01 1.856074999999999875e+01 1.207590000000000003e+02 1.778809999999999945e+03
9.199999999999999845e-02 7.090090000000000003e-01 1.795279999999999987e+01 1.203264999999999958e+02 1.778694999999999936e+03
9.299999999999999933e-02 7.089400000000000146e-01 1.738000000000000256e+01 1.199234999999999900e+02 1.778574999999999818e+03
9.400000000000000022e-02 7.088740000000000041e-01 1.683974999999999866e+01 1.195474999999999994e+02 1.778469999999999800e+03
9.500000000000000111e-02 7.088105000000000100e-01 1.632785000000000153e+01 1.191945000000000050e+02 1.778369999999999891e+03
9.600000000000000200e-02 7.087474999999999747e-01 1.583869999999999933e+01 1.188555000000000064e+02 1.778269999999999982e+03
9.700000000000000289e-02 7.086824999999999930e-01 1.536575000000000024e+01 1.185194999999999936e+02 1.778174999999999955e+03
9.800000000000000377e-02 7.086130000000000484e-01 1.490190000000000126e+01 1.181765000000000043e+02 1.778074999999999818e+03
9.900000000000000466e-02 7.085369999999999724e-01 1.444015000000000093e+01 1.178130000000000024e+02 1.777970000000000027e+03
1.000000000000000056e-01 7.084519999999999706e-01 1.397380000000000067e+01 1.174184999999999945e+02 1.777864999999999782e+03
1.010000000000000064e-01 7.083574999999999733e-01 1.349674999999999869e+01 1.169830000000000041e+02 1.777744999999999891e+03
1.020000000000000073e-01 7.082505000000000051e-01 1.300406000000000084e+01 1.164985000000000070e+02 1.777615000000000009e+03
1.030000000000000082e-01 7.081315000000000248e-01 1.249202999999999975e+01 1.159600000000000080e+02 1.777469999999999800e+03
1.040000000000000091e-01 7.079999999999999627e-01 1.195870999999999995e+01 1.153650000000000091e+02 1.777320000000000164e+03
1.050000000000000100e-01 7.078569999999999585e-01 1.140363499999999952e+01 1.147139999999999986e+02 1.777144999999999982e+03
1.059999999999999970e-01 7.077039999999999997e-01 1.082826500000000003e+01 1.140125000000000028e+02 1.776965000000000146e+03
1.069999999999999979e-01 7.075424999999999631e-01 1.023566500000000090e+01 1.132680000000000007e+02 1.776769999999999982e+03
1.079999999999999988e-01 7.073754999999999349e-01 9.630589999999999762e+00 1.124909999999999997e+02 1.776570000000000164e+03
1.089999999999999997e-01 7.072060000000000013e-01 9.019034999999998803e+00 1.116955000000000098e+02 1.776360000000000127e+03
1.100000000000000006e-01 7.070380000000000553e-01 8.408125000000000071e+00 1.108969999999999914e+02 1.776150000000000091e+03
1.110000000000000014e-01 7.068745000000000722e-01 7.805585000000000662e+00 1.101115000000000066e+02 1.775940000000000055e+03
1.120000000000000023e-01 7.067189999999999861e-01 7.219489999999999519e+00 1.093569999999999993e+02 1.775735000000000127e+03
1.130000000000000032e-01 7.065749999999999531e-01 6.657680000000000042e+00 1.086490000000000009e+02 1.775539999999999964e+03
1.140000000000000041e-01 7.064455000000000595e-01 6.127589999999999648e+00 1.080030000000000001e+02 1.775360000000000127e+03
1.150000000000000050e-01 7.063330000000000997e-01 5.635690000000000310e+00 1.074325000000000045e+02 1.775200000000000045e+03
1.160000000000000059e-01 7.062399999999999789e-01 5.187285000000000146e+00 1.069474999999999909e+02 1.775059999999999945e+03
1.170000000000000068e-01 7.061665000000000303e-01 4.786220000000000141e+00 1.065554999999999950e+02 1.774940000000000055e+03
1.180000000000000077e-01 7.061135000000000606e-01 4.434770000000000323e+00 1.062609999999999957e+02 1.774849999999999909e+03
1.190000000000000085e-01 7.060804999999999998e-01 4.133610000000000007e+00 1.060630000000000024e+02 1.774779999999999973e+03
1.200000000000000094e-01 7.060664999999999303e-01 3.881829999999999892e+00 1.059590000000000032e+02 1.774734999999999900e+03
1.209999999999999964e-01 7.060699999999999754e-01 3.677069999999999617e+00 1.059429999999999978e+02 1.774715000000000146e+03
1.219999999999999973e-01 7.060889999999999667e-01 3.515769999999999840e+00 1.060049999999999955e+02 1.774714999999999918e+03
1.229999999999999982e-01 7.061204999999999288e-01 3.393380000000000063e+00 1.061345000000000027e+02 1.774730000000000018e+03
1.239999999999999991e-01 7.061619999999999564e-01 3.304685000000000095e+00 1.063189999999999884e+02 1.774769999999999982e+03
1.250000000000000000e-01 7.062105000000000743e-01 3.244064999999999976e+00 1.065459999999999923e+02 1.774820000000000164e+03
1.260000000000000009e-01 7.062650000000000317e-01 3.205754999999999910e+00 1.068015000000000043e+02 1.774869999999999891e+03
1.270000000000000018e-01 7.063209999999999766e-01 3.184115000000000251e+00 1.070734999999999957e+02 1.774940000000000055e+03
1.280000000000000027e-01 7.063764999999999628e-01 3.173759999999999692e+00 1.073495000000000061e+02 1.775005000000000109e+03
1.290000000000000036e-01 7.064304999999999612e-01 3.169755000000000322e+00 1.076200000000000045e+02 1.775069999999999936e+03
1.300000000000000044e-01 7.064814999999999845e-01 3.167685000000000084e+00 1.078760000000000048e+02 1.775134999999999991e+03
1.310000000000000053e-01 7.065269999999999051e-01 3.163724999999999898e+00 1.081094999999999970e+02 1.775195000000000164e+03
1.320000000000000062e-01 7.065664999999999862e-01 3.154675000000000118e+00 1.083155000000000001e+02 1.775250000000000000e+03
1.330000000000000071e-01 7.065995000000000470e-01 3.138004999999999711e+00 1.084899999999999949e+02 1.775299999999999955e+03
1.340000000000000080e-01 7.066259999999999764e-01 3.111830000000000318e+00 1.086299999999999955e+02 1.775340000000000146e+03
1.350000000000000089e-01 7.066445000000000087e-01 3.074894999999999712e+00 1.087349999999999994e+02 1.775369999999999891e+03
1.360000000000000098e-01 7.066569999999999796e-01 3.026564999999999728e+00 1.088050000000000068e+02 1.775400000000000091e+03
1.370000000000000107e-01 7.066620000000000124e-01 2.966784999999999783e+00 1.088410000000000082e+02 1.775409999999999854e+03
1.380000000000000115e-01 7.066615000000000535e-01 2.896015000000000228e+00 1.088449999999999989e+02 1.775414999999999964e+03
1.390000000000000124e-01 7.066554999999999920e-01 2.815165000000000362e+00 1.088195000000000050e+02 1.775414999999999964e+03
1.400000000000000133e-01 7.066449999999999676e-01 2.725489999999999746e+00 1.087680000000000007e+02 1.775405000000000200e+03
1.410000000000000142e-01 7.066295000000000215e-01 2.628505000000000091e+00 1.086945000000000050e+02 1.775389999999999873e+03
1.420000000000000151e-01 7.066109999999999891e-01 2.525869999999999838e+00 1.086020000000000039e+02 1.775369999999999891e+03
1.430000000000000160e-01 7.065900000000000514e-01 2.419264999999999777e+00 1.084939999999999998e+02 1.775349999999999909e+03
1.440000000000000169e-01 7.065669999999999451e-01 2.310294999999999987e+00 1.083735000000000070e+02 1.775320000000000164e+03
1.450000000000000178e-01 7.065414999999999335e-01 2.200395000000000323e+00 1.082444999999999879e+02 1.775289999999999964e+03
1.459999999999999909e-01 7.065159999999999219e-01 2.090774999999999828e+00 1.081069999999999993e+02 1.775255000000000109e+03
1.469999999999999918e-01 7.064884999999999637e-01 1.982364999999999933e+00 1.079639999999999986e+02 1.775220000000000027e+03
1.479999999999999927e-01 7.064595000000000180e-01 1.875794999999999879e+00 1.078144999999999953e+02 1.775179999999999836e+03
1.489999999999999936e-01 7.064300000000000024e-01 1.771445000000000158e+00 1.076589999999999918e+02 1.775139999999999873e+03
1.499999999999999944e-01 7.063984999999999292e-01 1.669452999999999854e+00 1.074975000000000023e+02 1.775099999999999909e+03
1.509999999999999953e-01 7.063654999999999795e-01 1.569794999999999829e+00 1.073285000000000053e+02 1.775049999999999955e+03
1.519999999999999962e-01 7.063304999999999723e-01 1.472354999999999858e+00 1.071504999999999939e+02 1.775009999999999991e+03
1.529999999999999971e-01 7.062934999999999075e-01 1.377015999999999796e+00 1.069619999999999891e+02 1.774954999999999927e+03
1.539999999999999980e-01 7.062534999999999785e-01 1.283723500000000017e+00 1.067624999999999886e+02 1.774905000000000200e+03
1.549999999999999989e-01 7.062104999999999633e-01 1.192549999999999999e+00 1.065519999999999925e+02 1.774849999999999909e+03
1.559999999999999998e-01 7.061655000000000015e-01 1.103749499999999939e+00 1.063294999999999959e+02 1.774789999999999964e+03
1.570000000000000007e-01 7.061180000000000234e-01 1.017762499999999903e+00 1.060949999999999989e+02 1.774724999999999909e+03
1.580000000000000016e-01 7.060684999999999878e-01 9.352525000000000421e-01 1.058509999999999991e+02 1.774664999999999964e+03
1.590000000000000024e-01 7.060170000000000057e-01 8.570476499999999387e-01 1.055985000000000014e+02 1.774595000000000027e+03
