# t [s], A [cm^2], U [cm/s], P [cPa], c [cm/s]
1.000000000000000021e-03 1.998000000000000054e-01 3.055348999999999982e-01 9.228184999999999150e+01 2.201244999999999891e+03
2.000000000000000042e-03 1.997484999999999955e-01 1.729044000000000025e+00 8.895935000000000059e+01 2.200840000000000146e+03
3.000000000000000062e-03 1.996140000000000136e-01 3.492117000000000360e+00 8.434810000000000230e+01 2.199814999999999600e+03
4.000000000000000083e-03 1.994345000000000145e-01 5.489372499999999988e+00 7.942374999999999829e+01 2.198460000000000036e+03
5.000000000000000104e-03 1.992459999999999787e-01 7.640969999999999374e+00 7.512149999999999750e+01 2.197050000000000182e+03
6.000000000000000125e-03 1.990665000000000073e-01 9.738575000000000870e+00 7.163859999999999673e+01 2.195725000000000364e+03
7.000000000000000146e-03 1.988984999999999781e-01 1.156237000000000137e+01 6.861535000000000650e+01 2.194510000000000218e+03
8.000000000000000167e-03 1.987464999999999926e-01 1.307069999999999865e+01 6.587704999999999700e+01 2.193425000000000182e+03
9.000000000000001055e-03 1.986140000000000128e-01 1.431730000000000125e+01 6.354660000000000508e+01 2.192500000000000000e+03
1.000000000000000194e-02 1.985045000000000004e-01 1.532954999999999934e+01 6.168084999999999241e+01 2.191744999999999891e+03
1.099999999999999936e-02 1.984159999999999813e-01 1.611949999999999861e+01 6.022735000000000127e+01 2.191139999999999873e+03
1.200000000000000025e-02 1.983465000000000089e-01 1.669174999999999898e+01 5.908409999999999940e+01 2.190664999999999964e+03
1.300000000000000114e-02 1.982885000000000064e-01 1.704420000000000002e+01 5.809944999999999737e+01 2.190289999999999964e+03
1.400000000000000203e-02 1.982399999999999995e-01 1.721809999999999974e+01 5.719464999999999577e+01 2.189970000000000255e+03
1.499999999999999944e-02 1.982019999999999893e-01 1.734319999999999951e+01 5.655105000000000359e+01 2.189735000000000127e+03
1.600000000000000033e-02 1.981864999999999877e-01 1.759989999999999810e+01 5.659539999999999793e+01 2.189630000000000109e+03
1.700000000000000122e-02 1.982039999999999913e-01 1.811955000000000027e+01 5.773255000000000337e+01 2.189760000000000218e+03
1.800000000000000211e-02 1.982595000000000052e-01 1.890305000000000035e+01 6.003739999999999810e+01 2.190144999999999982e+03
1.900000000000000300e-02 1.983469999999999955e-01 1.981459999999999866e+01 6.313564999999999827e+01 2.190750000000000000e+03
2.000000000000000042e-02 1.984495000000000009e-01 2.064430000000000121e+01 6.633329999999999416e+01 2.191475000000000364e+03
2.100000000000000130e-02 1.985454999999999859e-01 2.119769999999999754e+01 6.889449999999999363e+01 2.192164999999999964e+03
2.200000000000000219e-02 1.986175000000000024e-01 2.136710000000000065e+01 7.031520000000000437e+01 2.192695000000000164e+03
2.299999999999999961e-02 1.986549999999999983e-01 2.115844999999999843e+01 7.047530000000000427e+01 2.192984999999999673e+03
2.400000000000000050e-02 1.986600000000000033e-01 2.066969999999999885e+01 6.962170000000000414e+01 2.193045000000000073e+03
2.500000000000000139e-02 1.986394999999999966e-01 2.003754999999999953e+01 6.821474999999999511e+01 2.192920000000000073e+03
2.600000000000000228e-02 1.986060000000000048e-01 1.937935000000000230e+01 6.671975000000000477e+01 2.192694999999999709e+03
2.700000000000000316e-02 1.985695000000000099e-01 1.875435000000000230e+01 6.543694999999999595e+01 2.192444999999999709e+03
2.800000000000000058e-02 1.985359999999999903e-01 1.815590000000000259e+01 6.442889999999999873e+01 2.192204999999999927e+03
2.900000000000000147e-02 1.985040000000000138e-01 1.753154999999999930e+01 6.355434999999999945e+01 2.191980000000000018e+03
3.000000000000000236e-02 1.984694999999999931e-01 1.681889999999999930e+01 6.257734999999999559e+01 2.191734999999999673e+03
3.099999999999999978e-02 1.984274999999999789e-01 1.598205000000000098e+01 6.129959999999999809e+01 2.191449999999999818e+03
3.200000000000000067e-02 1.983749999999999958e-01 1.503640000000000043e+01 5.966774999999999807e+01 2.191085000000000036e+03
3.300000000000000155e-02 1.983135000000000037e-01 1.405314999999999870e+01 5.781900000000000261e+01 2.190659999999999854e+03
3.400000000000000244e-02 1.982504999999999962e-01 1.314305000000000057e+01 5.605190000000000339e+01 2.190220000000000255e+03
3.500000000000000333e-02 1.981964999999999977e-01 1.242494999999999905e+01 5.473574999999999591e+01 2.189829999999999927e+03
3.600000000000000422e-02 1.981605000000000172e-01 1.199119999999999919e+01 5.419284999999999997e+01 2.189565000000000055e+03
3.700000000000000511e-02 1.981510000000000216e-01 1.188084999999999880e+01 5.459555000000000291e+01 2.189480000000000018e+03
3.799999999999999906e-02 1.981715000000000004e-01 1.206920000000000037e+01 5.591190000000000282e+01 2.189609999999999673e+03
3.899999999999999994e-02 1.982184999999999919e-01 1.247465000000000046e+01 5.791049999999999898e+01 2.189914999999999964e+03
4.000000000000000083e-02 1.982829999999999870e-01 1.297820000000000107e+01 6.021750000000000114e+01 2.190355000000000018e+03
4.100000000000000172e-02 1.983539999999999748e-01 1.344870000000000054e+01 6.240180000000000149e+01 2.190845000000000255e+03
4.200000000000000261e-02 1.984175000000000244e-01 1.376725000000000065e+01 6.406319999999999482e+01 2.191295000000000073e+03
4.300000000000000350e-02 1.984624999999999861e-01 1.384454999999999991e+01 6.490109999999999957e+01 2.191619999999999891e+03
4.400000000000000439e-02 1.984810000000000185e-01 1.362969999999999970e+01 6.475229999999999109e+01 2.191765000000000327e+03
4.499999999999999833e-02 1.984680000000000055e-01 1.310989999999999966e+01 6.359394999999999953e+01 2.191685000000000400e+03
4.599999999999999922e-02 1.984239999999999893e-01 1.230355000000000132e+01 6.151989999999999270e+01 2.191390000000000327e+03
4.700000000000000011e-02 1.983499999999999985e-01 1.124995499999999993e+01 5.869989999999999952e+01 2.190880000000000109e+03
4.800000000000000100e-02 1.982514999999999972e-01 9.999095000000000510e+00 5.533700000000000330e+01 2.190199999999999818e+03
4.900000000000000189e-02 1.981350000000000056e-01 8.603714999999999336e+00 5.163219999999999743e+01 2.189385000000000218e+03
5.000000000000000278e-02 1.980049999999999866e-01 7.114684999999999704e+00 4.776290000000000191e+01 2.188475000000000364e+03
5.100000000000000366e-02 1.978685000000000027e-01 5.580010000000000581e+00 4.387619999999999720e+01 2.187515000000000327e+03
5.200000000000000455e-02 1.977300000000000169e-01 4.045586499999999752e+00 4.009324999999999761e+01 2.186539999999999964e+03
5.300000000000000544e-02 1.975934999999999775e-01 2.557320000000000260e+00 3.651960000000000406e+01 2.185579999999999927e+03
5.399999999999999939e-02 1.974640000000000006e-01 1.162529999999999841e+00 3.325554999999999950e+01 2.184659999999999854e+03
5.500000000000000028e-02 1.973445000000000060e-01 -8.978999999999981441e-02 3.040364999999999895e+01 2.183815000000000055e+03
5.600000000000000117e-02 1.972400000000000264e-01 -1.150255000000000027e+00 2.807005000000000194e+01 2.183069999999999709e+03
5.700000000000000205e-02 1.971539999999999959e-01 -1.971693499999999988e+00 2.635944999999999894e+01 2.182454999999999927e+03
5.800000000000000294e-02 1.970910000000000162e-01 -2.512694999999999901e+00 2.536715000000000231e+01 2.181989999999999782e+03
5.900000000000000383e-02 1.970534999999999926e-01 -2.741145000000000387e+00 2.516765000000000185e+01 2.181715000000000146e+03
6.000000000000000472e-02 1.970445000000000113e-01 -2.637284999999999879e+00 2.580564999999999998e+01 2.181630000000000109e+03
6.099999999999999867e-02 1.970649999999999902e-01 -2.195654999999999912e+00 2.728860000000000241e+01 2.181755000000000109e+03
6.199999999999999956e-02 1.971165000000000000e-01 -1.425657500000000022e+00 2.958449999999999847e+01 2.182090000000000146e+03
6.300000000000000044e-02 1.971959999999999824e-01 -3.508400000000000407e-01 3.262304999999999922e+01 2.182625000000000000e+03
6.400000000000000133e-02 1.973020000000000052e-01 9.929400000000000448e-01 3.630145000000000266e+01 2.183350000000000364e+03
6.500000000000000222e-02 1.974309999999999954e-01 2.560247500000000009e+00 4.049264999999999759e+01 2.184239999999999782e+03
6.600000000000000311e-02 1.975790000000000046e-01 4.299202499999999816e+00 4.505495000000000516e+01 2.185269999999999982e+03
6.700000000000000400e-02 1.977404999999999857e-01 6.154914999999999914e+00 4.984239999999999782e+01 2.186399999999999636e+03
6.800000000000000488e-02 1.979110000000000036e-01 8.072874999999999801e+00 5.471469999999999345e+01 2.187595000000000255e+03
6.900000000000000577e-02 1.980859999999999843e-01 1.000212499999999949e+01 5.954609999999999559e+01 2.188824999999999818e+03
7.000000000000000666e-02 1.982605000000000062e-01 1.189803500000000014e+01 6.423290000000000077e+01 2.190059999999999945e+03
7.100000000000000755e-02 1.984319999999999973e-01 1.372439999999999927e+01 6.869835000000000491e+01 2.191279999999999745e+03
7.200000000000000844e-02 1.985975000000000101e-01 1.545485000000000042e+01 7.289564999999998918e+01 2.192454999999999927e+03
7.300000000000000933e-02 1.987545000000000006e-01 1.707339999999999947e+01 7.680809999999999604e+01 2.193579999999999927e+03
7.399999999999999634e-02 1.989029999999999965e-01 1.857390000000000185e+01 8.044604999999999961e+01 2.194644999999999982e+03
7.499999999999999722e-02 1.990434999999999843e-01 1.995895000000000152e+01 8.384255000000000280e+01 2.195650000000000091e+03
7.599999999999999811e-02 1.991759999999999919e-01 2.123794999999999789e+01 8.704630000000000223e+01 2.196605000000000018e+03
7.699999999999999900e-02 1.993024999999999936e-01 2.242510000000000048e+01 9.011435000000000173e+01 2.197524999999999636e+03
7.799999999999999989e-02 1.994255000000000055e-01 2.353699999999999903e+01 9.310509999999999309e+01 2.198404999999999745e+03
7.900000000000000078e-02 1.995450000000000002e-01 2.459035000000000082e+01 9.607134999999999536e+01 2.199275000000000091e+03
8.000000000000000167e-02 1.996640000000000081e-01 2.560065000000000168e+01 9.905645000000001232e+01 2.200135000000000218e+03
8.100000000000000255e-02 1.997840000000000171e-01 2.658015000000000327e+01 1.020886500000000012e+02 2.200989999999999782e+03
8.200000000000000344e-02 1.999044999999999850e-01 2.753754999999999953e+01 1.051829999999999927e+02 2.201864999999999782e+03
8.300000000000000433e-02 2.000264999999999960e-01 2.847710000000000008e+01 1.083389999999999986e+02 2.202744999999999891e+03
8.400000000000000522e-02 2.001505000000000090e-01 2.939889999999999759e+01 1.115414999999999992e+02 2.203635000000000218e+03
8.500000000000000611e-02 2.002760000000000096e-01 3.029879999999999995e+01 1.147640000000000100e+02 2.204539999999999964e+03
8.600000000000000699e-02 2.004009999999999958e-01 3.116904999999999859e+01 1.179720000000000084e+02 2.205440000000000055e+03
8.700000000000000788e-02 2.005250000000000088e-01 3.199929999999999808e+01 1.211225000000000023e+02 2.206340000000000146e+03
8.800000000000000877e-02 2.006465000000000054e-01 3.277664999999999651e+01 1.241705000000000041e+02 2.207220000000000255e+03
8.899999999999999578e-02 2.007639999999999980e-01 3.348709999999999809e+01 1.270689999999999884e+02 2.208069999999999709e+03
8.999999999999999667e-02 2.008759999999999990e-01 3.411619999999999919e+01 1.297725000000000080e+02 2.208880000000000109e+03
9.099999999999999756e-02 2.009805000000000064e-01 3.464995000000000402e+01 1.322384999999999877e+02 2.209635000000000218e+03
9.199999999999999845e-02 2.010764999999999914e-01 3.507554999999999978e+01 1.344300000000000068e+02 2.210329999999999927e+03
9.299999999999999933e-02 2.011620000000000075e-01 3.538259999999999650e+01 1.363179999999999836e+02 2.210954999999999927e+03
9.400000000000000022e-02 2.012369999999999992e-01 3.556345000000000312e+01 1.378829999999999814e+02 2.211505000000000109e+03
9.500000000000000111e-02 2.012999999999999790e-01 3.561374999999999602e+01 1.391134999999999877e+02 2.211970000000000255e+03
9.600000000000000200e-02 2.013504999999999878e-01 3.553324999999999534e+01 1.400099999999999909e+02 2.212345000000000255e+03
9.700000000000000289e-02 2.013889999999999847e-01 3.532554999999999978e+01 1.405844999999999914e+02 2.212630000000000109e+03
9.800000000000000377e-02 2.014159999999999839e-01 3.499824999999999875e+01 1.408584999999999923e+02 2.212835000000000036e+03
9.900000000000000466e-02 2.014314999999999856e-01 3.456235000000000213e+01 1.408615000000000066e+02 2.212960000000000036e+03
1.000000000000000056e-01 2.014374999999999916e-01 3.403204999999999814e+01 1.406320000000000050e+02 2.213010000000000218e+03
1.010000000000000064e-01 2.014345000000000163e-01 3.342360000000000042e+01 1.402119999999999891e+02 2.213000000000000000e+03
1.020000000000000073e-01 2.014245000000000063e-01 3.275475000000000136e+01 1.396479999999999961e+02 2.212934999999999945e+03
1.030000000000000082e-01 2.014090000000000047e-01 3.204379999999999740e+01 1.389840000000000089e+02 2.212824999999999818e+03
1.040000000000000091e-01 2.013894999999999991e-01 3.130879999999999797e+01 1.382649999999999864e+02 2.212690000000000055e+03
1.050000000000000100e-01 2.013665000000000038e-01 3.056649999999999778e+01 1.375289999999999964e+02 2.212534999999999854e+03
1.059999999999999970e-01 2.013435000000000086e-01 2.983194999999999908e+01 1.368104999999999905e+02 2.212364999999999782e+03
1.069999999999999979e-01 2.013199999999999990e-01 2.911769999999999925e+01 1.361359999999999957e+02 2.212195000000000164e+03
1.079999999999999988e-01 2.012970000000000037e-01 2.843355000000000032e+01 1.355244999999999891e+02 2.212034999999999854e+03
1.089999999999999997e-01 2.012764999999999971e-01 2.778605000000000302e+01 1.349864999999999782e+02 2.211880000000000109e+03
1.100000000000000006e-01 2.012575000000000058e-01 2.717844999999999800e+01 1.345240000000000009e+02 2.211744999999999891e+03
1.110000000000000014e-01 2.012404999999999888e-01 2.661090000000000089e+01 1.341315000000000168e+02 2.211619999999999891e+03
1.120000000000000023e-01 2.012260000000000160e-01 2.608019999999999783e+01 1.337955000000000041e+02 2.211510000000000218e+03
1.130000000000000032e-01 2.012125000000000163e-01 2.558075000000000188e+01 1.334979999999999905e+02 2.211409999999999854e+03
1.140000000000000041e-01 2.011999999999999900e-01 2.510435000000000016e+01 1.332135000000000105e+02 2.211319999999999709e+03
1.150000000000000050e-01 2.011880000000000057e-01 2.464144999999999897e+01 1.329155000000000086e+02 2.211235000000000127e+03
1.160000000000000059e-01 2.011755000000000071e-01 2.418124999999999858e+01 1.325740000000000123e+02 2.211135000000000218e+03
1.170000000000000068e-01 2.011610000000000065e-01 2.371300000000000097e+01 1.321614999999999895e+02 2.211029999999999745e+03
1.180000000000000077e-01 2.011435000000000028e-01 2.322605000000000075e+01 1.316514999999999986e+02 2.210904999999999745e+03
1.190000000000000085e-01 2.011224999999999818e-01 2.271119999999999806e+01 1.310225000000000080e+02 2.210755000000000109e+03
1.200000000000000094e-01 2.010974999999999846e-01 2.216080000000000183e+01 1.302570000000000050e+02 2.210574999999999818e+03
1.209999999999999964e-01 2.010675000000000101e-01 2.156960000000000122e+01 1.293454999999999870e+02 2.210359999999999673e+03
1.219999999999999973e-01 2.010325000000000029e-01 2.093500000000000227e+01 1.282849999999999966e+02 2.210109999999999673e+03
1.229999999999999982e-01 2.009920000000000040e-01 2.025740000000000052e+01 1.270815000000000055e+02 2.209824999999999818e+03
1.239999999999999991e-01 2.009469999999999867e-01 1.954010000000000247e+01 1.257475000000000023e+02 2.209500000000000000e+03
1.250000000000000000e-01 2.008975000000000066e-01 1.878925000000000267e+01 1.243044999999999902e+02 2.209139999999999873e+03
1.260000000000000009e-01 2.008440000000000225e-01 1.801350000000000051e+01 1.227785000000000082e+02 2.208760000000000218e+03
1.270000000000000018e-01 2.007869999999999933e-01 1.722344999999999970e+01 1.211999999999999886e+02 2.208355000000000018e+03
1.280000000000000027e-01 2.007284999999999764e-01 1.643149999999999977e+01 1.196055000000000064e+02 2.207934999999999945e+03
1.290000000000000036e-01 2.006695000000000007e-01 1.565064999999999884e+01 1.180285000000000082e+02 2.207510000000000218e+03
1.300000000000000044e-01 2.006109999999999838e-01 1.489389999999999858e+01 1.165060000000000002e+02 2.207090000000000146e+03
1.310000000000000053e-01 2.005544999999999967e-01 1.417409999999999926e+01 1.150699999999999932e+02 2.206684999999999945e+03
1.320000000000000062e-01 2.005004999999999982e-01 1.350260000000000105e+01 1.137500000000000000e+02 2.206295000000000073e+03
1.330000000000000071e-01 2.004509999999999903e-01 1.288905000000000101e+01 1.125674999999999955e+02 2.205929999999999836e+03
1.340000000000000080e-01 2.004060000000000008e-01 1.234114999999999895e+01 1.115415000000000134e+02 2.205609999999999673e+03
1.350000000000000089e-01 2.003670000000000173e-01 1.186424999999999841e+01 1.106820000000000022e+02 2.205319999999999709e+03
1.360000000000000098e-01 2.003330000000000111e-01 1.146110000000000007e+01 1.099929999999999950e+02 2.205074999999999818e+03
1.370000000000000107e-01 2.003054999999999974e-01 1.113205500000000114e+01 1.094724999999999966e+02 2.204869999999999891e+03
1.380000000000000115e-01 2.002840000000000176e-01 1.087519999999999953e+01 1.091129999999999995e+02 2.204710000000000036e+03
1.390000000000000124e-01 2.002680000000000016e-01 1.068650000000000055e+01 1.089010000000000105e+02 2.204585000000000036e+03
1.400000000000000133e-01 2.002575000000000049e-01 1.056017499999999920e+01 1.088209999999999980e+02 2.204505000000000109e+03
1.410000000000000142e-01 2.002514999999999989e-01 1.048920999999999992e+01 1.088534999999999968e+02 2.204460000000000036e+03
1.420000000000000151e-01 2.002500000000000113e-01 1.046541500000000013e+01 1.089774999999999920e+02 2.204440000000000055e+03
1.430000000000000160e-01 2.002519999999999856e-01 1.048016499999999951e+01 1.091715000000000089e+02 2.204449999999999818e+03
1.440000000000000169e-01 2.002565000000000039e-01 1.052459999999999951e+01 1.094149999999999920e+02 2.204479999999999563e+03
1.450000000000000178e-01 2.002629999999999966e-01 1.058985000000000021e+01 1.096880000000000024e+02 2.204524999999999636e+03
1.459999999999999909e-01 2.002710000000000046e-01 1.066769999999999996e+01 1.099714999999999918e+02 2.204579999999999927e+03
1.469999999999999918e-01 2.002794999999999992e-01 1.075055000000000049e+01 1.102505000000000024e+02 2.204635000000000218e+03
1.479999999999999927e-01 2.002879999999999938e-01 1.083164999999999978e+01 1.105114999999999981e+02 2.204694999999999709e+03
1.489999999999999936e-01 2.002964999999999884e-01 1.090549999999999997e+01 1.107439999999999998e+02 2.204755000000000109e+03
1.499999999999999944e-01 2.003039999999999821e-01 1.096775000000000055e+01 1.109399999999999977e+02 2.204809999999999945e+03
1.509999999999999953e-01 2.003110000000000168e-01 1.101529999999999987e+01 1.110964999999999918e+02 2.204855000000000018e+03
1.519999999999999962e-01 2.003159999999999941e-01 1.104645000000000010e+01 1.112115000000000009e+02 2.204895000000000437e+03
1.529999999999999971e-01 2.003199999999999981e-01 1.106054999999999922e+01 1.112864999999999895e+02 2.204925000000000182e+03
1.539999999999999980e-01 2.003230000000000011e-01 1.105825000000000102e+01 1.113265000000000100e+02 2.204949999999999818e+03
1.549999999999999989e-01 2.003250000000000031e-01 1.104115000000000002e+01 1.113359999999999985e+02 2.204965000000000146e+03
1.559999999999999998e-01 2.003254999999999897e-01 1.101154999999999973e+01 1.113240000000000123e+02 2.204970000000000255e+03
1.570000000000000007e-01 2.003254999999999897e-01 1.097240000000000038e+01 1.112980000000000018e+02 2.204974999999999909e+03
1.580000000000000016e-01 2.003250000000000031e-01 1.092695000000000149e+01 1.112665000000000077e+02 2.204970000000000255e+03
1.590000000000000024e-01 2.003245000000000164e-01 1.087845000000000084e+01 1.112390000000000043e+02 2.204965000000000146e+03
