# t [s], A [cm^2], U [cm/s], P [cPa], c [cm/s]
1.000000000000000021e-03 5.442860000000000475e-01 2.988199999999996415e-03 9.778145000000000664e+01 1.450494999999999891e+03
2.000000000000000042e-03 5.442789999999999573e-01 1.533150000000000051e-04 9.776760000000000161e+01 1.450490000000000009e+03
3.000000000000000062e-03 5.443029999999999813e-01 4.140250000000000180e-02 9.780429999999999779e+01 1.450505000000000109e+03
4.000000000000000083e-03 5.443485000000000129e-01 1.206205499999999931e-01 9.789804999999999779e+01 1.450529999999999973e+03
5.000000000000000104e-03 5.443635000000000002e-01 1.498874000000000040e-01 9.793874999999999886e+01 1.450545000000000073e+03
6.000000000000000125e-03 5.443394999999999762e-01 1.116309000000000051e-01 9.787845000000000084e+01 1.450534999999999854e+03
7.000000000000000146e-03 5.443050000000000388e-01 5.145350000000001311e-02 9.775084999999999980e+01 1.450505000000000109e+03
8.000000000000000167e-03 5.442719999999999780e-01 -8.182999999999995833e-03 9.758535000000000537e+01 1.450464999999999918e+03
9.000000000000001055e-03 5.442225000000000534e-01 -1.039964999999999917e-01 9.734755000000001246e+01 1.450404999999999973e+03
1.000000000000000194e-02 5.441384999999999694e-01 -2.684635000000000216e-01 9.699129999999999541e+01 1.450315000000000055e+03
1.099999999999999936e-02 5.440150000000000263e-01 -5.115299999999999292e-01 9.648525000000000773e+01 1.450180000000000064e+03
1.200000000000000025e-02 5.438445000000000640e-01 -8.428750000000001519e-01 9.579634999999998968e+01 1.450005000000000109e+03
1.300000000000000114e-02 5.436164999999999470e-01 -1.268634999999999957e+00 9.489324999999999477e+01 1.449764999999999873e+03
1.400000000000000203e-02 5.433375000000000288e-01 -1.768510000000000026e+00 9.377339999999999520e+01 1.449460000000000036e+03
1.499999999999999944e-02 5.430280000000000662e-01 -2.287270000000000358e+00 9.248124999999998863e+01 1.449095000000000027e+03
1.600000000000000033e-02 5.427170000000000050e-01 -2.750875000000000181e+00 9.109815000000000396e+01 1.448700000000000045e+03
1.700000000000000122e-02 5.424309999999999965e-01 -3.092604999999999826e+00 8.971365000000000123e+01 1.448289999999999964e+03
1.800000000000000211e-02 5.421810000000000240e-01 -3.272110999999999770e+00 8.839804999999999779e+01 1.447875000000000000e+03
1.900000000000000300e-02 5.419674999999999354e-01 -3.281083000000000194e+00 8.718715000000000259e+01 1.447480000000000018e+03
2.000000000000000042e-02 5.417775000000000230e-01 -3.137865000000000126e+00 8.608115000000000805e+01 1.447099999999999909e+03
2.100000000000000130e-02 5.415955000000000075e-01 -2.876509500000000052e+00 8.505264999999999986e+01 1.446740000000000009e+03
2.200000000000000219e-02 5.414065000000000127e-01 -2.534766999999999992e+00 8.406045000000000300e+01 1.446375000000000000e+03
2.299999999999999961e-02 5.411974999999999980e-01 -2.144105000000000150e+00 8.306329999999999814e+01 1.446009999999999991e+03
2.400000000000000050e-02 5.409654999999999880e-01 -1.723540000000000072e+00 8.203125000000000000e+01 1.445634999999999991e+03
2.500000000000000139e-02 5.407119999999999704e-01 -1.278400000000000203e+00 8.095135000000000502e+01 1.445250000000000000e+03
2.600000000000000228e-02 5.404434999999999656e-01 -8.035550000000000193e-01 7.982800000000000296e+01 1.444855000000000018e+03
2.700000000000000316e-02 5.401675000000000226e-01 -2.898050000000003124e-01 7.867685000000000173e+01 1.444445000000000164e+03
2.800000000000000058e-02 5.398910000000000098e-01 2.691349999999999021e-01 7.751670000000000016e+01 1.444025000000000091e+03
2.900000000000000147e-02 5.396170000000000133e-01 8.711499999999996469e-01 7.636124999999999829e+01 1.443610000000000127e+03
3.000000000000000236e-02 5.393430000000000168e-01 1.503159999999999830e+00 7.521309999999999718e+01 1.443200000000000045e+03
3.099999999999999978e-02 5.390635000000000288e-01 2.141729999999999912e+00 7.406155000000001110e+01 1.442779999999999973e+03
3.200000000000000067e-02 5.387684999999999835e-01 2.756279999999999397e+00 7.288424999999999443e+01 1.442359999999999900e+03
3.300000000000000155e-02 5.384495000000000253e-01 3.314039999999999431e+00 7.165180000000000859e+01 1.441920000000000073e+03
3.400000000000000244e-02 5.380985000000000351e-01 3.785540000000000127e+00 7.033420000000000982e+01 1.441460000000000036e+03
3.500000000000000333e-02 5.377104999999999801e-01 4.149515000000000065e+00 6.890809999999999036e+01 1.440974999999999909e+03
3.600000000000000422e-02 5.372869999999999591e-01 4.396700000000000053e+00 6.736285000000000878e+01 1.440460000000000036e+03
3.700000000000000511e-02 5.368330000000000046e-01 4.530874999999999986e+00 6.570459999999999923e+01 1.439914999999999964e+03
3.799999999999999906e-02 5.363590000000000302e-01 4.568049999999999500e+00 6.395709999999999695e+01 1.439344999999999800e+03
3.899999999999999994e-02 5.358789999999999942e-01 4.533619999999999983e+00 6.215990000000000038e+01 1.438764999999999873e+03
4.000000000000000083e-02 5.354079999999999950e-01 4.458365000000000578e+00 6.036395000000000266e+01 1.438180000000000064e+03
4.100000000000000172e-02 5.349604999999999499e-01 4.374259999999999593e+00 5.862600000000000477e+01 1.437610000000000127e+03
4.200000000000000261e-02 5.345504999999999285e-01 4.311119999999999841e+00 5.700305000000000177e+01 1.437065000000000055e+03
4.300000000000000350e-02 5.341894999999999838e-01 4.293974999999999653e+00 5.554755000000000109e+01 1.436569999999999936e+03
4.400000000000000439e-02 5.338849999999999429e-01 4.342505000000000059e+00 5.430440000000000111e+01 1.436134999999999991e+03
4.499999999999999833e-02 5.336444999999999661e-01 4.470811499999999938e+00 5.330879999999999797e+01 1.435769999999999982e+03
4.599999999999999922e-02 5.334710000000000285e-01 4.688465500000000397e+00 5.258660000000000423e+01 1.435480000000000018e+03
4.700000000000000011e-02 5.333670000000000355e-01 5.001875000000000071e+00 5.215480000000000160e+01 1.435279999999999973e+03
4.800000000000000100e-02 5.333335000000000159e-01 5.415639999999999787e+00 5.202335000000000065e+01 1.435174999999999955e+03
4.900000000000000189e-02 5.333719999999999573e-01 5.933609999999999829e+00 5.219689999999999941e+01 1.435159999999999854e+03
5.000000000000000278e-02 5.334820000000000118e-01 6.559499999999999886e+00 5.267629999999999768e+01 1.435244999999999891e+03
5.100000000000000366e-02 5.336634999999999573e-01 7.296934999999999505e+00 5.345990000000000464e+01 1.435429999999999836e+03
5.200000000000000455e-02 5.339165000000000161e-01 8.149024999999999963e+00 5.454340000000000543e+01 1.435710000000000036e+03
5.300000000000000544e-02 5.342394999999999783e-01 9.117675000000000196e+00 5.592054999999999865e+01 1.436079999999999927e+03
5.399999999999999939e-02 5.346305000000000085e-01 1.020259500000000052e+01 5.758204999999999529e+01 1.436549999999999955e+03
5.500000000000000028e-02 5.350874999999999382e-01 1.140075500000000019e+01 5.951515000000000555e+01 1.437105000000000018e+03
5.600000000000000117e-02 5.356035000000000101e-01 1.270583500000000043e+01 6.170304999999999751e+01 1.437750000000000000e+03
5.700000000000000205e-02 5.361755000000000271e-01 1.410808500000000087e+01 6.412485000000000923e+01 1.438474999999999909e+03
5.800000000000000294e-02 5.367954999999999810e-01 1.559459499999999998e+01 6.675534999999999286e+01 1.439269999999999982e+03
5.900000000000000383e-02 5.374570000000000736e-01 1.715005999999999986e+01 6.956595000000000084e+01 1.440125000000000000e+03
6.000000000000000472e-02 5.381510000000000460e-01 1.875734999999999886e+01 7.252540000000000475e+01 1.441045000000000073e+03
6.099999999999999867e-02 5.388699999999999601e-01 2.039845000000000041e+01 7.560129999999999484e+01 1.442009999999999991e+03
6.199999999999999956e-02 5.396064999999999889e-01 2.205559999999999832e+01 7.876099999999999568e+01 1.443009999999999991e+03
6.300000000000000044e-02 5.403540000000000010e-01 2.371170000000000044e+01 8.197315000000000396e+01 1.444035000000000082e+03
6.400000000000000133e-02 5.411044999999999883e-01 2.535140000000000171e+01 8.520945000000000391e+01 1.445079999999999927e+03
6.500000000000000222e-02 5.418534999999999879e-01 2.696129999999999782e+01 8.844360000000000355e+01 1.446134999999999991e+03
6.600000000000000311e-02 5.425980000000000247e-01 2.853025000000000233e+01 9.165565000000000850e+01 1.447190000000000055e+03
6.700000000000000400e-02 5.433324999999999960e-01 3.004935000000000045e+01 9.482755000000000223e+01 1.448244999999999891e+03
6.800000000000000488e-02 5.440564999999999429e-01 3.151194999999999879e+01 9.794745000000000346e+01 1.449289999999999964e+03
6.900000000000000577e-02 5.447680000000000300e-01 3.291335000000000122e+01 1.010074500000000057e+02 1.450325000000000045e+03
7.000000000000000666e-02 5.454660000000000064e-01 3.425045000000000073e+01 1.040019499999999937e+02 1.451340000000000146e+03
7.100000000000000755e-02 5.461519999999999708e-01 3.552159999999999940e+01 1.069296500000000094e+02 1.452345000000000027e+03
7.200000000000000844e-02 5.468245000000000466e-01 3.672585000000000122e+01 1.097914499999999975e+02 1.453325000000000045e+03
7.300000000000000933e-02 5.474844999999999295e-01 3.786315000000000452e+01 1.125889999999999986e+02 1.454289999999999964e+03
7.399999999999999634e-02 5.481335000000000512e-01 3.893370000000000175e+01 1.153255000000000052e+02 1.455244999999999891e+03
7.499999999999999722e-02 5.487705000000000499e-01 3.993765000000000498e+01 1.180024999999999977e+02 1.456170000000000073e+03
7.599999999999999811e-02 5.493965000000000654e-01 4.087510000000000332e+01 1.206239999999999952e+02 1.457090000000000146e+03
7.699999999999999900e-02 5.500114999999999865e-01 4.174580000000000268e+01 1.231899999999999977e+02 1.457990000000000009e+03
7.799999999999999989e-02 5.506149999999999656e-01 4.254925000000000068e+01 1.257009999999999934e+02 1.458869999999999891e+03
7.900000000000000078e-02 5.512059999999999738e-01 4.328435000000000343e+01 1.281539999999999964e+02 1.459740000000000009e+03
8.000000000000000167e-02 5.517830000000000235e-01 4.394964999999999833e+01 1.305469999999999970e+02 1.460585000000000036e+03
8.100000000000000255e-02 5.523449999999999749e-01 4.454359999999999786e+01 1.328745000000000118e+02 1.461410000000000082e+03
8.200000000000000344e-02 5.528904999999999514e-01 4.506419999999999959e+01 1.351304999999999836e+02 1.462210000000000036e+03
8.300000000000000433e-02 5.534170000000000478e-01 4.550960000000000605e+01 1.373070000000000164e+02 1.462994999999999891e+03
8.400000000000000522e-02 5.539235000000000131e-01 4.587794999999999845e+01 1.393969999999999914e+02 1.463750000000000000e+03
8.500000000000000611e-02 5.544069999999999832e-01 4.616785000000000139e+01 1.413919999999999959e+02 1.464470000000000027e+03
8.600000000000000699e-02 5.548659999999999703e-01 4.637805000000000177e+01 1.432850000000000250e+02 1.465159999999999854e+03
8.700000000000000788e-02 5.553000000000000158e-01 4.650794999999999391e+01 1.450674999999999955e+02 1.465820000000000164e+03
8.800000000000000877e-02 5.557060000000000333e-01 4.655755000000000621e+01 1.467344999999999970e+02 1.466434999999999945e+03
8.899999999999999578e-02 5.560834999999999528e-01 4.652729999999999677e+01 1.482794999999999845e+02 1.467009999999999991e+03
8.999999999999999667e-02 5.564320000000000377e-01 4.641854999999999620e+01 1.496990000000000123e+02 1.467549999999999955e+03
9.099999999999999756e-02 5.567500000000000782e-01 4.623300000000000409e+01 1.509904999999999973e+02 1.468049999999999955e+03
9.199999999999999845e-02 5.570384999999999920e-01 4.597325000000000017e+01 1.521530000000000200e+02 1.468500000000000000e+03
9.299999999999999933e-02 5.572975000000000012e-01 4.564224999999999710e+01 1.531859999999999786e+02 1.468909999999999854e+03
9.400000000000000022e-02 5.575259999999999661e-01 4.524374999999999858e+01 1.540919999999999845e+02 1.469275000000000091e+03
9.500000000000000111e-02 5.577259999999999440e-01 4.478180000000000405e+01 1.548734999999999786e+02 1.469595000000000027e+03
9.600000000000000200e-02 5.578984999999999639e-01 4.426115000000000066e+01 1.555349999999999966e+02 1.469875000000000000e+03
9.700000000000000289e-02 5.580445000000000544e-01 4.368699999999999761e+01 1.560824999999999818e+02 1.470119999999999891e+03
9.800000000000000377e-02 5.581654999999999811e-01 4.306490000000000151e+01 1.565210000000000150e+02 1.470320000000000164e+03
9.900000000000000466e-02 5.582624999999999948e-01 4.240085000000000548e+01 1.568594999999999970e+02 1.470485000000000127e+03
1.000000000000000056e-01 5.583385000000000709e-01 4.170104999999999507e+01 1.571059999999999945e+02 1.470619999999999891e+03
1.010000000000000064e-01 5.583949999999999747e-01 4.097195000000000675e+01 1.572690000000000055e+02 1.470720000000000027e+03
1.020000000000000073e-01 5.584350000000000147e-01 4.022010000000000218e+01 1.573580000000000041e+02 1.470789999999999964e+03
1.030000000000000082e-01 5.584590000000000387e-01 3.945185000000000031e+01 1.573820000000000050e+02 1.470840000000000146e+03
1.040000000000000091e-01 5.584710000000000507e-01 3.867354999999999876e+01 1.573524999999999920e+02 1.470860000000000127e+03
1.050000000000000100e-01 5.584719999999999684e-01 3.789104999999999990e+01 1.572764999999999986e+02 1.470869999999999891e+03
1.059999999999999970e-01 5.584639999999999604e-01 3.710960000000000036e+01 1.571639999999999873e+02 1.470855000000000018e+03
1.069999999999999979e-01 5.584489999999999732e-01 3.633409999999999940e+01 1.570229999999999961e+02 1.470829999999999927e+03
1.079999999999999988e-01 5.584284999999999943e-01 3.556839999999999691e+01 1.568600000000000136e+02 1.470795000000000073e+03
1.089999999999999997e-01 5.584029999999999827e-01 3.481550000000000011e+01 1.566809999999999832e+02 1.470750000000000000e+03
1.100000000000000006e-01 5.583744999999999958e-01 3.407760000000000389e+01 1.564904999999999973e+02 1.470694999999999936e+03
1.110000000000000014e-01 5.583430000000000337e-01 3.335599999999999454e+01 1.562909999999999968e+02 1.470635000000000218e+03
1.120000000000000023e-01 5.583080000000000265e-01 3.265090000000000003e+01 1.560840000000000032e+02 1.470575000000000045e+03
1.130000000000000032e-01 5.582705000000000028e-01 3.196174999999999855e+01 1.558704999999999927e+02 1.470509999999999991e+03
1.140000000000000041e-01 5.582294999999999341e-01 3.128725000000000023e+01 1.556485000000000127e+02 1.470440000000000055e+03
1.150000000000000050e-01 5.581844999999999724e-01 3.062549999999999883e+01 1.554159999999999968e+02 1.470360000000000127e+03
1.160000000000000059e-01 5.581344999999999779e-01 2.997404999999999831e+01 1.551705000000000041e+02 1.470275000000000091e+03
1.170000000000000068e-01 5.580789999999999917e-01 2.933004999999999995e+01 1.549085000000000036e+02 1.470190000000000055e+03
1.180000000000000077e-01 5.580169999999999852e-01 2.869059999999999988e+01 1.546245000000000118e+02 1.470095000000000027e+03
1.190000000000000085e-01 5.579475000000000406e-01 2.805259999999999820e+01 1.543154999999999859e+02 1.469990000000000009e+03
1.200000000000000094e-01 5.578695000000000181e-01 2.741324999999999790e+01 1.539784999999999968e+02 1.469880000000000109e+03
1.209999999999999964e-01 5.577834999999999877e-01 2.676984999999999815e+01 1.536075000000000159e+02 1.469759999999999991e+03
1.219999999999999973e-01 5.576870000000000438e-01 2.611995000000000289e+01 1.532009999999999934e+02 1.469619999999999891e+03
1.229999999999999982e-01 5.575805000000000344e-01 2.546170000000000044e+01 1.527574999999999932e+02 1.469474999999999909e+03
1.239999999999999991e-01 5.574649999999999883e-01 2.479359999999999786e+01 1.522735000000000127e+02 1.469320000000000164e+03
1.250000000000000000e-01 5.573390000000000288e-01 2.411475000000000080e+01 1.517504999999999882e+02 1.469150000000000091e+03
1.260000000000000009e-01 5.572030000000000038e-01 2.342480000000000118e+01 1.511879999999999882e+02 1.468964999999999918e+03
1.270000000000000018e-01 5.570585000000000120e-01 2.272400000000000020e+01 1.505874999999999773e+02 1.468775000000000091e+03
1.280000000000000027e-01 5.569049999999999834e-01 2.201324999999999932e+01 1.499519999999999982e+02 1.468565000000000055e+03
1.290000000000000036e-01 5.567440000000000166e-01 2.129390000000000072e+01 1.492839999999999918e+02 1.468344999999999800e+03
1.300000000000000044e-01 5.565774999999999473e-01 2.056780000000000186e+01 1.485885000000000105e+02 1.468119999999999891e+03
1.310000000000000053e-01 5.564054999999999973e-01 1.983739999999999881e+01 1.478700000000000045e+02 1.467884999999999991e+03
1.320000000000000062e-01 5.562295000000000433e-01 1.910560000000000258e+01 1.471345000000000027e+02 1.467644999999999982e+03
1.330000000000000071e-01 5.560515000000000319e-01 1.837545000000000073e+01 1.463880000000000052e+02 1.467394999999999982e+03
1.340000000000000080e-01 5.558730000000000615e-01 1.765040000000000120e+01 1.456355000000000075e+02 1.467144999999999982e+03
1.350000000000000089e-01 5.556955000000000089e-01 1.693420000000000059e+01 1.448855000000000075e+02 1.466889999999999873e+03
1.360000000000000098e-01 5.555200000000000138e-01 1.623039999999999949e+01 1.441435000000000173e+02 1.466639999999999873e+03
1.370000000000000107e-01 5.553489999999999815e-01 1.554279999999999973e+01 1.434164999999999850e+02 1.466394999999999982e+03
1.380000000000000115e-01 5.551834999999999409e-01 1.487502999999999886e+01 1.427100000000000080e+02 1.466155000000000200e+03
1.390000000000000124e-01 5.550245000000000317e-01 1.423034999999999783e+01 1.420295000000000130e+02 1.465920000000000073e+03
1.400000000000000133e-01 5.548735000000000195e-01 1.361199999999999832e+01 1.413804999999999836e+02 1.465694999999999936e+03
1.410000000000000142e-01 5.547309999999999741e-01 1.302261000000000024e+01 1.407674999999999841e+02 1.465474999999999909e+03
1.420000000000000151e-01 5.545980000000000354e-01 1.246457999999999799e+01 1.401940000000000168e+02 1.465275000000000091e+03
1.430000000000000160e-01 5.544755000000000100e-01 1.193954000000000093e+01 1.396620000000000061e+02 1.465079999999999927e+03
1.440000000000000169e-01 5.543635000000000090e-01 1.144883000000000095e+01 1.391739999999999782e+02 1.464904999999999973e+03
1.450000000000000178e-01 5.542620000000000324e-01 1.099306999999999945e+01 1.387299999999999898e+02 1.464740000000000009e+03
1.459999999999999909e-01 5.541705000000000103e-01 1.057233499999999893e+01 1.383305000000000007e+02 1.464589999999999918e+03
1.469999999999999918e-01 5.540890000000000537e-01 1.018619499999999967e+01 1.379735000000000014e+02 1.464454999999999927e+03
1.479999999999999927e-01 5.540165000000000228e-01 9.833624999999999616e+00 1.376569999999999823e+02 1.464329999999999927e+03
1.489999999999999936e-01 5.539529999999999177e-01 9.513155000000001138e+00 1.373785000000000025e+02 1.464219999999999800e+03
1.499999999999999944e-01 5.538965000000000138e-01 9.222909999999998831e+00 1.371340000000000146e+02 1.464119999999999891e+03
1.509999999999999953e-01 5.538475000000000481e-01 8.960709999999998843e+00 1.369200000000000159e+02 1.464029999999999973e+03
1.519999999999999962e-01 5.538035000000000041e-01 8.724174999999998903e+00 1.367309999999999945e+02 1.463949999999999818e+03
1.529999999999999971e-01 5.537634999999999641e-01 8.510709999999999553e+00 1.365640000000000214e+02 1.463880000000000109e+03
1.539999999999999980e-01 5.537275000000000391e-01 8.317660000000000053e+00 1.364134999999999991e+02 1.463815000000000055e+03
1.549999999999999989e-01 5.536940000000000195e-01 8.142395000000000493e+00 1.362750000000000057e+02 1.463755000000000109e+03
1.559999999999999998e-01 5.536615000000000286e-01 7.982385000000000730e+00 1.361440000000000055e+02 1.463699999999999818e+03
1.570000000000000007e-01 5.536294999999999966e-01 7.835235000000000838e+00 1.360180000000000007e+02 1.463644999999999982e+03
1.580000000000000016e-01 5.535980000000000345e-01 7.698755000000000237e+00 1.358919999999999959e+02 1.463599999999999909e+03
1.590000000000000024e-01 5.535655000000000436e-01 7.570979999999999599e+00 1.357644999999999982e+02 1.463545000000000073e+03
