# t [s], A [cm^2], U [cm/s], P [cPa], c [cm/s]
1.000000000000000021e-03 1.386155000000000026e-01 2.292874999999999774e-01 9.038849999999999341e+01 1.825960000000000036e+03
2.000000000000000042e-03 1.385925000000000074e-01 1.588410000000000100e+00 8.778770000000000095e+01 1.825710000000000036e+03
3.000000000000000062e-03 1.385079999999999922e-01 3.278226499999999710e+00 8.431485000000000696e+01 1.824840000000000146e+03
4.000000000000000083e-03 1.383800000000000030e-01 5.160740500000000175e+00 8.035575000000000045e+01 1.823545000000000073e+03
5.000000000000000104e-03 1.382315000000000071e-01 7.190464999999999662e+00 7.655549999999999500e+01 1.822059999999999945e+03
6.000000000000000125e-03 1.380799999999999805e-01 9.277944999999998998e+00 7.329009999999999536e+01 1.820559999999999945e+03
7.000000000000000146e-03 1.379345000000000154e-01 1.127682499999999877e+01 7.056669999999999732e+01 1.819130000000000109e+03
8.000000000000000167e-03 1.377970000000000028e-01 1.305942999999999898e+01 6.819084999999999752e+01 1.817809999999999945e+03
9.000000000000001055e-03 1.376700000000000146e-01 1.459124500000000069e+01 6.604914999999999736e+01 1.816609999999999900e+03
1.000000000000000194e-02 1.375564999999999982e-01 1.589949999999999974e+01 6.417435000000000400e+01 1.815539999999999964e+03
1.099999999999999936e-02 1.374584999999999835e-01 1.700884999999999891e+01 6.260949999999999704e+01 1.814630000000000109e+03
1.200000000000000025e-02 1.373749999999999971e-01 1.793124999999999858e+01 6.134355000000000047e+01 1.813860000000000127e+03
1.300000000000000114e-02 1.373059999999999836e-01 1.867729999999999890e+01 6.034024999999999750e+01 1.813240000000000009e+03
1.400000000000000203e-02 1.372500000000000109e-01 1.925459999999999994e+01 5.954949999999999477e+01 1.812735000000000127e+03
1.499999999999999944e-02 1.372045000000000070e-01 1.966689999999999827e+01 5.890324999999999989e+01 1.812335000000000036e+03
1.600000000000000033e-02 1.371670000000000111e-01 1.993195000000000050e+01 5.834834999999999638e+01 1.812009999999999991e+03
1.700000000000000122e-02 1.371364999999999945e-01 2.010204999999999842e+01 5.790935000000000343e+01 1.811755000000000109e+03
1.800000000000000211e-02 1.371155000000000013e-01 2.026340000000000074e+01 5.771640000000000015e+01 1.811585000000000036e+03
1.900000000000000300e-02 1.371084999999999943e-01 2.050795000000000101e+01 5.795889999999999986e+01 1.811539999999999964e+03
2.000000000000000042e-02 1.371204999999999785e-01 2.089590000000000103e+01 5.878844999999999743e+01 1.811655000000000200e+03
2.100000000000000130e-02 1.371519999999999961e-01 2.142944999999999922e+01 6.022915000000000418e+01 1.811954999999999927e+03
2.200000000000000219e-02 1.372025000000000050e-01 2.205095000000000027e+01 6.214229999999999166e+01 1.812430000000000064e+03
2.299999999999999961e-02 1.372659999999999991e-01 2.266324999999999790e+01 6.425775000000000148e+01 1.813019999999999982e+03
2.400000000000000050e-02 1.373334999999999972e-01 2.316059999999999874e+01 6.625079999999999814e+01 1.813660000000000082e+03
2.500000000000000139e-02 1.373960000000000181e-01 2.345974999999999966e+01 6.783240000000000691e+01 1.814259999999999991e+03
2.600000000000000228e-02 1.374469999999999859e-01 2.351999999999999957e+01 6.882179999999999609e+01 1.814755000000000109e+03
2.700000000000000316e-02 1.374814999999999787e-01 2.334870000000000090e+01 6.918075000000000330e+01 1.815099999999999909e+03
2.800000000000000058e-02 1.374994999999999967e-01 2.299264999999999759e+01 6.900374999999999659e+01 1.815284999999999854e+03
2.900000000000000147e-02 1.375029999999999863e-01 2.251955000000000240e+01 6.847370000000000800e+01 1.815339999999999918e+03
3.000000000000000236e-02 1.374969999999999803e-01 2.199660000000000082e+01 6.779894999999999072e+01 1.815299999999999955e+03
3.099999999999999978e-02 1.374859999999999971e-01 2.147294999999999732e+01 6.715375000000000227e+01 1.815210000000000036e+03
3.200000000000000067e-02 1.374744999999999995e-01 2.097044999999999959e+01 6.663854999999999507e+01 1.815099999999999909e+03
3.300000000000000155e-02 1.374640000000000029e-01 2.048400000000000176e+01 6.626779999999999404e+01 1.815005000000000109e+03
3.400000000000000244e-02 1.374545000000000072e-01 1.998935000000000173e+01 6.598404999999999632e+01 1.814920000000000073e+03
3.500000000000000333e-02 1.374449999999999839e-01 1.945550000000000068e+01 6.569039999999999679e+01 1.814829999999999927e+03
3.600000000000000422e-02 1.374329999999999996e-01 1.885795000000000243e+01 6.528970000000001050e+01 1.814720000000000027e+03
3.700000000000000511e-02 1.374170000000000114e-01 1.818890000000000029e+01 6.472020000000000550e+01 1.814575000000000045e+03
3.799999999999999906e-02 1.373955000000000037e-01 1.746320000000000050e+01 6.397959999999999781e+01 1.814380000000000109e+03
3.899999999999999994e-02 1.373699999999999921e-01 1.671744999999999948e+01 6.313134999999999764e+01 1.814150000000000091e+03
4.000000000000000083e-02 1.373420000000000196e-01 1.600399999999999778e+01 6.229319999999999879e+01 1.813889999999999873e+03
4.100000000000000172e-02 1.373159999999999936e-01 1.538015000000000043e+01 6.161154999999999404e+01 1.813650000000000091e+03
4.200000000000000261e-02 1.372959999999999736e-01 1.489669999999999916e+01 6.122800000000000153e+01 1.813460000000000036e+03
4.300000000000000350e-02 1.372859999999999914e-01 1.458709999999999951e+01 6.124694999999999823e+01 1.813360000000000127e+03
4.400000000000000439e-02 1.372885000000000078e-01 1.446089999999999876e+01 6.171184999999999832e+01 1.813369999999999891e+03
4.499999999999999833e-02 1.373044999999999960e-01 1.450205000000000055e+01 6.259510000000000218e+01 1.813509999999999991e+03
4.599999999999999922e-02 1.373330000000000106e-01 1.467174999999999940e+01 6.380259999999999820e+01 1.813759999999999991e+03
4.700000000000000011e-02 1.373709999999999931e-01 1.491479999999999961e+01 6.518944999999999368e+01 1.814099999999999909e+03
4.800000000000000100e-02 1.374139999999999806e-01 1.516854999999999976e+01 6.658414999999999395e+01 1.814494999999999891e+03
4.900000000000000189e-02 1.374575000000000102e-01 1.537105000000000032e+01 6.781444999999999368e+01 1.814894999999999982e+03
5.000000000000000278e-02 1.374954999999999927e-01 1.546839999999999904e+01 6.873005000000000564e+01 1.815250000000000000e+03
5.100000000000000366e-02 1.375240000000000073e-01 1.542010000000000147e+01 6.921985000000000809e+01 1.815529999999999973e+03
5.200000000000000455e-02 1.375405000000000100e-01 1.520139999999999958e+01 6.922044999999999959e+01 1.815679999999999836e+03
5.300000000000000544e-02 1.375410000000000244e-01 1.480305000000000071e+01 6.871690000000000964e+01 1.815700000000000045e+03
5.399999999999999939e-02 1.375264999999999960e-01 1.422974999999999923e+01 6.773689999999999145e+01 1.815565000000000055e+03
5.500000000000000028e-02 1.374954999999999927e-01 1.349690000000000012e+01 6.634019999999999584e+01 1.815289999999999964e+03
5.600000000000000117e-02 1.374509999999999899e-01 1.262685000000000102e+01 6.460590000000000543e+01 1.814884999999999991e+03
5.700000000000000205e-02 1.373949999999999894e-01 1.164596500000000034e+01 6.262160000000000082e+01 1.814369999999999891e+03
5.800000000000000294e-02 1.373285000000000200e-01 1.058218499999999906e+01 6.047340000000000515e+01 1.813755000000000109e+03
5.900000000000000383e-02 1.372559999999999891e-01 9.463184999999999292e+00 5.824065000000000225e+01 1.813079999999999927e+03
6.000000000000000472e-02 1.371789999999999954e-01 8.316145000000000564e+00 5.599304999999999666e+01 1.812359999999999900e+03
6.099999999999999867e-02 1.370994999999999853e-01 7.167409999999999393e+00 5.379135000000000133e+01 1.811625000000000000e+03
6.199999999999999956e-02 1.370204999999999895e-01 6.043320000000000469e+00 5.168934999999999746e+01 1.810889999999999873e+03
6.300000000000000044e-02 1.369444999999999968e-01 4.970250000000000057e+00 4.973675000000000068e+01 1.810174999999999955e+03
6.400000000000000133e-02 1.368719999999999937e-01 3.975099999999999856e+00 4.798175000000000523e+01 1.809494999999999891e+03
6.500000000000000222e-02 1.368060000000000109e-01 3.085064500000000098e+00 4.647229999999999706e+01 1.808869999999999891e+03
6.600000000000000311e-02 1.367480000000000084e-01 2.327096499999999679e+00 4.525645000000000095e+01 1.808325000000000045e+03
6.700000000000000400e-02 1.366995000000000016e-01 1.726980949999999959e+00 4.438110000000000355e+01 1.807869999999999891e+03
6.800000000000000488e-02 1.366629999999999789e-01 1.308112500000000011e+00 4.388954999999999984e+01 1.807519999999999982e+03
6.900000000000000577e-02 1.366404999999999981e-01 1.090241000000000016e+00 4.381869999999999976e+01 1.807289999999999964e+03
7.000000000000000666e-02 1.366320000000000034e-01 1.088218499999999977e+00 4.419585000000000008e+01 1.807199999999999818e+03
7.100000000000000755e-02 1.366394999999999971e-01 1.311047999999999991e+00 4.503650000000000375e+01 1.807255000000000109e+03
7.200000000000000844e-02 1.366634999999999933e-01 1.761252000000000040e+00 4.634199999999999875e+01 1.807454999999999927e+03
7.300000000000000933e-02 1.367039999999999922e-01 2.434665499999999927e+00 4.809945000000000448e+01 1.807820000000000164e+03
7.399999999999999634e-02 1.367614999999999803e-01 3.320669999999999789e+00 5.028154999999999575e+01 1.808335000000000036e+03
7.499999999999999722e-02 1.368334999999999968e-01 4.402764999999999596e+00 5.284834999999999638e+01 1.808990000000000009e+03
7.599999999999999811e-02 1.369205000000000005e-01 5.659440000000000026e+00 5.574975000000000591e+01 1.809784999999999854e+03
7.699999999999999900e-02 1.370199999999999751e-01 7.065310000000000201e+00 5.892764999999999986e+01 1.810699999999999818e+03
7.799999999999999989e-02 1.371304999999999885e-01 8.592279999999998807e+00 6.231974999999999909e+01 1.811719999999999800e+03
7.900000000000000078e-02 1.372499999999999831e-01 1.021076500000000031e+01 6.586234999999999218e+01 1.812829999999999927e+03
8.000000000000000167e-02 1.373754999999999837e-01 1.189110499999999959e+01 6.949325000000000330e+01 1.813994999999999891e+03
8.100000000000000255e-02 1.375060000000000171e-01 1.360444999999999993e+01 7.315465000000000373e+01 1.815220000000000027e+03
8.200000000000000344e-02 1.376384999999999970e-01 1.532400000000000162e+01 7.679529999999999745e+01 1.816465000000000146e+03
8.300000000000000433e-02 1.377720000000000056e-01 1.702580000000000027e+01 8.037234999999999729e+01 1.817719999999999800e+03
8.400000000000000522e-02 1.379049999999999998e-01 1.868945000000000078e+01 8.385240000000000293e+01 1.818974999999999909e+03
8.500000000000000611e-02 1.380359999999999920e-01 2.029870000000000019e+01 8.721245000000000402e+01 1.820204999999999927e+03
8.600000000000000699e-02 1.381629999999999803e-01 2.184140000000000015e+01 9.043985000000000696e+01 1.821420000000000073e+03
8.700000000000000788e-02 1.382869999999999933e-01 2.330980000000000274e+01 9.353149999999999409e+01 1.822595000000000027e+03
8.800000000000000877e-02 1.384070000000000022e-01 2.470005000000000095e+01 9.649309999999999832e+01 1.823740000000000009e+03
8.899999999999999578e-02 1.385230000000000072e-01 2.601190000000000069e+01 9.933660000000000423e+01 1.824849999999999909e+03
8.999999999999999667e-02 1.386350000000000082e-01 2.724784999999999968e+01 1.020801500000000033e+02 1.825924999999999955e+03
9.099999999999999756e-02 1.387439999999999785e-01 2.841274999999999906e+01 1.047442999999999955e+02 1.826974999999999909e+03
9.199999999999999845e-02 1.388499999999999734e-01 2.951239999999999952e+01 1.073489999999999895e+02 1.827994999999999891e+03
9.299999999999999933e-02 1.389545000000000086e-01 3.055360000000000298e+01 1.099159999999999968e+02 1.829000000000000000e+03
9.400000000000000022e-02 1.390569999999999862e-01 3.154260000000000019e+01 1.124604999999999961e+02 1.829990000000000009e+03
9.500000000000000111e-02 1.391590000000000049e-01 3.248510000000000275e+01 1.149964999999999975e+02 1.830969999999999800e+03
9.600000000000000200e-02 1.392599999999999949e-01 3.338545000000000584e+01 1.175310000000000059e+02 1.831950000000000045e+03
9.700000000000000289e-02 1.393610000000000126e-01 3.424644999999999584e+01 1.200665000000000049e+02 1.832920000000000073e+03
9.800000000000000377e-02 1.394615000000000160e-01 3.506909999999999883e+01 1.225995000000000061e+02 1.833894999999999982e+03
9.900000000000000466e-02 1.395619999999999916e-01 3.585264999999999702e+01 1.251220000000000141e+02 1.834860000000000127e+03
1.000000000000000056e-01 1.396610000000000074e-01 3.659465000000000146e+01 1.276204999999999927e+02 1.835825000000000045e+03
1.010000000000000064e-01 1.397599999999999953e-01 3.729110000000000014e+01 1.300790000000000077e+02 1.836779999999999973e+03
1.020000000000000073e-01 1.398570000000000091e-01 3.793679999999999808e+01 1.324770000000000039e+02 1.837715000000000146e+03
1.030000000000000082e-01 1.399519999999999931e-01 3.852549999999999386e+01 1.347939999999999827e+02 1.838639999999999873e+03
1.040000000000000091e-01 1.400434999999999874e-01 3.905039999999999623e+01 1.370090000000000146e+02 1.839529999999999973e+03
1.050000000000000100e-01 1.401314999999999922e-01 3.950444999999999851e+01 1.391005000000000109e+02 1.840384999999999991e+03
1.059999999999999970e-01 1.402154999999999929e-01 3.988080000000000069e+01 1.410470000000000255e+02 1.841194999999999936e+03
1.069999999999999979e-01 1.402935000000000154e-01 4.017269999999999897e+01 1.428305000000000007e+02 1.841965000000000146e+03
1.079999999999999988e-01 1.403659999999999908e-01 4.037444999999999595e+01 1.444354999999999905e+02 1.842674999999999955e+03
1.089999999999999997e-01 1.404325000000000156e-01 4.048120000000000118e+01 1.458485000000000014e+02 1.843325000000000045e+03
1.100000000000000006e-01 1.404914999999999914e-01 4.048944999999999794e+01 1.470595000000000141e+02 1.843909999999999854e+03
1.110000000000000014e-01 1.405440000000000023e-01 4.039690000000000225e+01 1.480620000000000118e+02 1.844420000000000073e+03
1.120000000000000023e-01 1.405879999999999908e-01 4.020310000000000628e+01 1.488545000000000016e+02 1.844860000000000127e+03
1.130000000000000032e-01 1.406250000000000000e-01 3.990919999999999845e+01 1.494379999999999882e+02 1.845230000000000018e+03
1.140000000000000041e-01 1.406534999999999869e-01 3.951809999999999690e+01 1.498185000000000002e+02 1.845519999999999982e+03
1.150000000000000050e-01 1.406749999999999945e-01 3.903444999999999965e+01 1.500040000000000191e+02 1.845735000000000127e+03
1.160000000000000059e-01 1.406890000000000085e-01 3.846455000000000268e+01 1.500090000000000146e+02 1.845880000000000109e+03
1.170000000000000068e-01 1.406959999999999877e-01 3.781615000000000038e+01 1.498480000000000132e+02 1.845965000000000146e+03
1.180000000000000077e-01 1.406970000000000165e-01 3.709839999999999804e+01 1.495400000000000205e+02 1.845980000000000018e+03
1.190000000000000085e-01 1.406924999999999981e-01 3.632130000000000081e+01 1.491050000000000182e+02 1.845940000000000055e+03
1.200000000000000094e-01 1.406820000000000015e-01 3.549560000000000315e+01 1.485640000000000214e+02 1.845855000000000018e+03
1.209999999999999964e-01 1.406680000000000152e-01 3.463254999999999484e+01 1.479395000000000095e+02 1.845719999999999800e+03
1.219999999999999973e-01 1.406499999999999972e-01 3.374320000000000164e+01 1.472529999999999859e+02 1.845554999999999836e+03
1.229999999999999982e-01 1.406290000000000040e-01 3.283854999999999791e+01 1.465250000000000057e+02 1.845355000000000018e+03
1.239999999999999991e-01 1.406060000000000088e-01 3.192879999999999896e+01 1.457740000000000009e+02 1.845130000000000109e+03
1.250000000000000000e-01 1.405814999999999981e-01 3.102345000000000041e+01 1.450169999999999959e+02 1.844900000000000091e+03
1.260000000000000009e-01 1.405560000000000143e-01 3.013070000000000093e+01 1.442690000000000055e+02 1.844654999999999973e+03
1.270000000000000018e-01 1.405299999999999883e-01 2.925760000000000005e+01 1.435405000000000086e+02 1.844404999999999973e+03
1.280000000000000027e-01 1.405044999999999766e-01 2.840970000000000084e+01 1.428404999999999916e+02 1.844159999999999854e+03
1.290000000000000036e-01 1.404794999999999794e-01 2.759100000000000108e+01 1.421734999999999900e+02 1.843914999999999964e+03
1.300000000000000044e-01 1.404555000000000109e-01 2.680404999999999660e+01 1.415409999999999968e+02 1.843679999999999836e+03
1.310000000000000053e-01 1.404320000000000013e-01 2.604980000000000118e+01 1.409429999999999836e+02 1.843450000000000045e+03
1.320000000000000062e-01 1.404090000000000060e-01 2.532784999999999798e+01 1.403760000000000048e+02 1.843224999999999909e+03
1.330000000000000071e-01 1.403874999999999984e-01 2.463635000000000019e+01 1.398319999999999936e+02 1.843009999999999991e+03
1.340000000000000080e-01 1.403665000000000052e-01 2.397245000000000203e+01 1.393045000000000186e+02 1.842805000000000064e+03
1.350000000000000089e-01 1.403455000000000119e-01 2.333210000000000051e+01 1.387835000000000036e+02 1.842599999999999909e+03
1.360000000000000098e-01 1.403249999999999775e-01 2.271085000000000065e+01 1.382570000000000050e+02 1.842394999999999982e+03
1.370000000000000107e-01 1.403044999999999987e-01 2.210334999999999894e+01 1.377154999999999916e+02 1.842190000000000055e+03
1.380000000000000115e-01 1.402824999999999767e-01 2.150424999999999898e+01 1.371459999999999866e+02 1.841980000000000018e+03
1.390000000000000124e-01 1.402599999999999958e-01 2.090814999999999912e+01 1.365375000000000227e+02 1.841755000000000109e+03
1.400000000000000133e-01 1.402364999999999862e-01 2.030969999999999942e+01 1.358804999999999836e+02 1.841525000000000091e+03
1.410000000000000142e-01 1.402105000000000157e-01 1.970434999999999803e+01 1.351659999999999968e+02 1.841275000000000091e+03
1.420000000000000151e-01 1.401830000000000020e-01 1.908784999999999954e+01 1.343879999999999768e+02 1.841010000000000218e+03
1.430000000000000160e-01 1.401534999999999864e-01 1.845725000000000193e+01 1.335414999999999850e+02 1.840724999999999909e+03
1.440000000000000169e-01 1.401215000000000099e-01 1.781020000000000181e+01 1.326234999999999786e+02 1.840414999999999964e+03
1.450000000000000178e-01 1.400870000000000171e-01 1.714580000000000126e+01 1.316349999999999909e+02 1.840079999999999927e+03
1.459999999999999909e-01 1.400494999999999934e-01 1.646430000000000149e+01 1.305790000000000077e+02 1.839724999999999909e+03
1.469999999999999918e-01 1.400105000000000099e-01 1.576705000000000112e+01 1.294610000000000127e+02 1.839340000000000146e+03
1.479999999999999927e-01 1.399684999999999957e-01 1.505669999999999931e+01 1.282895000000000039e+02 1.838940000000000055e+03
1.489999999999999936e-01 1.399245000000000072e-01 1.433714999999999939e+01 1.270750000000000028e+02 1.838519999999999982e+03
1.499999999999999944e-01 1.398794999999999900e-01 1.361304999999999943e+01 1.258294999999999959e+02 1.838079999999999927e+03
1.509999999999999953e-01 1.398329999999999851e-01 1.289020000000000010e+01 1.245674999999999955e+02 1.837634999999999991e+03
1.519999999999999962e-01 1.397855000000000070e-01 1.217478000000000016e+01 1.233034999999999997e+02 1.837179999999999836e+03
1.529999999999999971e-01 1.397380000000000011e-01 1.147339500000000001e+01 1.220545000000000044e+02 1.836724999999999909e+03
1.539999999999999980e-01 1.396910000000000096e-01 1.079301999999999850e+01 1.208345000000000056e+02 1.836269999999999982e+03
1.549999999999999989e-01 1.396445000000000047e-01 1.014024999999999999e+01 1.196585000000000036e+02 1.835820000000000164e+03
1.559999999999999998e-01 1.395994999999999875e-01 9.521549999999999514e+00 1.185414999999999992e+02 1.835384999999999991e+03
1.570000000000000007e-01 1.395565000000000000e-01 8.942650000000000432e+00 1.174950000000000045e+02 1.834970000000000027e+03
1.580000000000000016e-01 1.395154999999999867e-01 8.408705000000001206e+00 1.165285000000000082e+02 1.834569999999999936e+03
1.590000000000000024e-01 1.394770000000000176e-01 7.923740000000000450e+00 1.156519999999999868e+02 1.834200000000000045e+03
