# t [s], A [cm^2], U [cm/s], P [cPa], c [cm/s]
1.000000000000000021e-03 1.673884999999999956e-01 3.114224500000000173e-01 9.076370000000000005e+01 2.124439999999999600e+03
2.000000000000000042e-03 1.673425000000000051e-01 1.767500999999999767e+00 8.750229999999999109e+01 2.124025000000000091e+03
3.000000000000000062e-03 1.672230000000000105e-01 3.564240999999999993e+00 8.296744999999999948e+01 2.122980000000000018e+03
4.000000000000000083e-03 1.670630000000000170e-01 5.592117500000000518e+00 7.812154999999999916e+01 2.121605000000000018e+03
5.000000000000000104e-03 1.668955000000000022e-01 7.772874999999999979e+00 7.389789999999999281e+01 2.120175000000000182e+03
6.000000000000000125e-03 1.667375000000000107e-01 9.899689999999999657e+00 7.051384999999999081e+01 2.118840000000000146e+03
7.000000000000000146e-03 1.665904999999999747e-01 1.174187500000000028e+01 6.761124999999999829e+01 2.117630000000000109e+03
8.000000000000000167e-03 1.664574999999999805e-01 1.324913499999999900e+01 6.498669999999999902e+01 2.116555000000000291e+03
9.000000000000001055e-03 1.663429999999999909e-01 1.448120000000000118e+01 6.276104999999999734e+01 2.115640000000000327e+03
1.000000000000000194e-02 1.662480000000000069e-01 1.547034999999999982e+01 6.099960000000000093e+01 2.114889999999999873e+03
1.099999999999999936e-02 1.661730000000000151e-01 1.623379999999999868e+01 5.965735000000000099e+01 2.114309999999999945e+03
1.200000000000000025e-02 1.661154999999999993e-01 1.678780000000000072e+01 5.866039999999999566e+01 2.113864999999999782e+03
1.300000000000000114e-02 1.660699999999999954e-01 1.713244999999999862e+01 5.787879999999999825e+01 2.113529999999999745e+03
1.400000000000000203e-02 1.660335000000000005e-01 1.729015000000000057e+01 5.719315000000000282e+01 2.113255000000000109e+03
1.499999999999999944e-02 1.660055000000000003e-01 1.736570000000000036e+01 5.669319999999999737e+01 2.113059999999999945e+03
1.600000000000000033e-02 1.659935000000000160e-01 1.753605000000000302e+01 5.674474999999999625e+01 2.112980000000000018e+03
1.700000000000000122e-02 1.660089999999999899e-01 1.795795000000000030e+01 5.778220000000000312e+01 2.113109999999999673e+03
1.800000000000000211e-02 1.660574999999999968e-01 1.866980000000000217e+01 5.998479999999999990e+01 2.113494999999999891e+03
1.900000000000000300e-02 1.661364999999999925e-01 1.955949999999999989e+01 6.308664999999999878e+01 2.114125000000000000e+03
2.000000000000000042e-02 1.662319999999999909e-01 2.041284999999999883e+01 6.643840000000000146e+01 2.114890000000000327e+03
2.100000000000000130e-02 1.663250000000000006e-01 2.100509999999999877e+01 6.926089999999999236e+01 2.115649999999999636e+03
2.200000000000000219e-02 1.663970000000000171e-01 2.118800000000000239e+01 7.094440000000000168e+01 2.116250000000000000e+03
2.299999999999999961e-02 1.664370000000000016e-01 2.093694999999999951e+01 7.125780000000000314e+01 2.116595000000000255e+03
2.400000000000000050e-02 1.664424999999999932e-01 2.034375000000000000e+01 7.038880000000000337e+01 2.116675000000000182e+03
2.500000000000000139e-02 1.664215000000000000e-01 1.956564999999999799e+01 6.881929999999999836e+01 2.116529999999999745e+03
2.600000000000000228e-02 1.663870000000000071e-01 1.875750000000000028e+01 6.710624999999998863e+01 2.116265000000000327e+03
2.700000000000000316e-02 1.663499999999999979e-01 1.801695000000000135e+01 6.566984999999999673e+01 2.115965000000000146e+03
2.800000000000000058e-02 1.663179999999999936e-01 1.736185000000000045e+01 6.467085000000000150e+01 2.115710000000000036e+03
2.900000000000000147e-02 1.662929999999999964e-01 1.674204999999999899e+01 6.400709999999999411e+01 2.115500000000000000e+03
3.000000000000000236e-02 1.662704999999999878e-01 1.607529999999999859e+01 6.340850000000000364e+01 2.115314999999999600e+03
3.099999999999999978e-02 1.662444999999999895e-01 1.529054999999999964e+01 6.258104999999999762e+01 2.115109999999999673e+03
3.200000000000000067e-02 1.662084999999999813e-01 1.436459999999999937e+01 6.134475000000000477e+01 2.114835000000000036e+03
3.300000000000000155e-02 1.661630000000000051e-01 1.333980000000000032e+01 5.972135000000000105e+01 2.114470000000000255e+03
3.400000000000000244e-02 1.661099999999999799e-01 1.231780000000000008e+01 5.794435000000000002e+01 2.114050000000000182e+03
3.500000000000000333e-02 1.660584999999999978e-01 1.143201499999999982e+01 5.639170000000000016e+01 2.113635000000000218e+03
3.600000000000000422e-02 1.660189999999999999e-01 1.080822000000000038e+01 5.546569999999999823e+01 2.113310000000000400e+03
3.700000000000000511e-02 1.660010000000000097e-01 1.052767499999999856e+01 5.546444999999999936e+01 2.113149999999999636e+03
3.799999999999999906e-02 1.660099999999999909e-01 1.060350000000000037e+01 5.648765000000000214e+01 2.113204999999999927e+03
3.899999999999999994e-02 1.660475000000000145e-01 1.097785000000000011e+01 5.840404999999999802e+01 2.113479999999999563e+03
4.000000000000000083e-02 1.661064999999999903e-01 1.153555000000000064e+01 6.088315000000000055e+01 2.113934999999999945e+03
4.100000000000000172e-02 1.661779999999999924e-01 1.213095000000000034e+01 6.347400000000000375e+01 2.114494999999999891e+03
4.200000000000000261e-02 1.662480000000000069e-01 1.261640000000000050e+01 6.570364999999999611e+01 2.115065000000000055e+03
4.300000000000000350e-02 1.663054999999999950e-01 1.286775000000000091e+01 6.716804999999999382e+01 2.115529999999999745e+03
4.400000000000000439e-02 1.663399999999999879e-01 1.280069999999999908e+01 6.759590000000000032e+01 2.115810000000000400e+03
4.499999999999999833e-02 1.663439999999999919e-01 1.237699999999999889e+01 6.687630000000000052e+01 2.115864999999999782e+03
4.599999999999999922e-02 1.663155000000000050e-01 1.160107999999999961e+01 6.505034999999999457e+01 2.115644999999999982e+03
4.700000000000000011e-02 1.662555000000000005e-01 1.051046000000000014e+01 6.227604999999999791e+01 2.115179999999999836e+03
4.800000000000000100e-02 1.661675000000000235e-01 9.162819999999999965e+00 5.878000000000000114e+01 2.114489999999999782e+03
4.900000000000000189e-02 1.660584999999999978e-01 7.624739999999999185e+00 5.481000000000000227e+01 2.113625000000000000e+03
5.000000000000000278e-02 1.659344999999999848e-01 5.962659999999999627e+00 5.059820000000000562e+01 2.112635000000000218e+03
5.100000000000000366e-02 1.658020000000000049e-01 4.238782000000000494e+00 4.634159999999999968e+01 2.111574999999999818e+03
5.200000000000000455e-02 1.656670000000000087e-01 2.510075000000000056e+00 4.219750000000000512e+01 2.110489999999999782e+03
5.300000000000000544e-02 1.655340000000000145e-01 8.298399999999999110e-01 3.829129999999999967e+01 2.109420000000000073e+03
5.399999999999999939e-02 1.654069999999999985e-01 -7.500700000000000145e-01 3.472879999999999967e+01 2.108394999999999982e+03
5.500000000000000028e-02 1.652905000000000069e-01 -2.177643500000000287e+00 3.160875000000000057e+01 2.107449999999999818e+03
5.600000000000000117e-02 1.651874999999999871e-01 -3.400573000000000068e+00 2.902974999999999994e+01 2.106614999999999782e+03
5.700000000000000205e-02 1.651019999999999988e-01 -4.367874999999999730e+00 2.709154999999999802e+01 2.105914999999999964e+03
5.800000000000000294e-02 1.650379999999999903e-01 -5.032899999999999707e+00 2.588964999999999961e+01 2.105385000000000218e+03
5.900000000000000383e-02 1.649970000000000048e-01 -5.357115000000000293e+00 2.550554999999999950e+01 2.105039999999999964e+03
6.000000000000000472e-02 1.649835000000000051e-01 -5.313769999999999882e+00 2.599624999999999986e+01 2.104904999999999745e+03
6.099999999999999867e-02 1.649980000000000058e-01 -4.890740000000000087e+00 2.738485000000000014e+01 2.104994999999999891e+03
6.199999999999999956e-02 1.650415000000000076e-01 -4.091999999999999638e+00 2.965449999999999875e+01 2.105315000000000055e+03
6.300000000000000044e-02 1.651124999999999954e-01 -2.937510999999999761e+00 3.274819999999999709e+01 2.105864999999999782e+03
6.400000000000000133e-02 1.652104999999999824e-01 -1.461730000000000196e+00 3.657180000000000319e+01 2.106625000000000000e+03
6.500000000000000222e-02 1.653315000000000201e-01 2.889449999999997853e-01 4.100199999999999534e+01 2.107579999999999927e+03
6.600000000000000311e-02 1.654729999999999812e-01 2.259335000000000093e+00 4.589525000000000432e+01 2.108694999999999709e+03
6.700000000000000400e-02 1.656289999999999984e-01 4.388910949999999644e+00 5.109810000000000230e+01 2.109940000000000055e+03
6.800000000000000488e-02 1.657959999999999989e-01 6.615159999999999485e+00 5.645685000000000286e+01 2.111274999999999636e+03
6.900000000000000577e-02 1.659690000000000054e-01 8.876775000000000304e+00 6.182654999999999745e+01 2.112659999999999854e+03
7.000000000000000666e-02 1.661434999999999995e-01 1.111685499999999927e+01 6.707845000000000368e+01 2.114069999999999709e+03
7.100000000000000755e-02 1.663155000000000050e-01 1.328530000000000122e+01 7.210614999999999952e+01 2.115460000000000036e+03
7.200000000000000844e-02 1.664809999999999901e-01 1.534124999999999872e+01 7.683070000000000732e+01 2.116809999999999945e+03
7.300000000000000933e-02 1.666390000000000093e-01 1.725479999999999947e+01 8.120359999999999445e+01 2.118099999999999909e+03
7.399999999999999634e-02 1.667869999999999908e-01 1.900764999999999816e+01 8.520765000000000100e+01 2.119310000000000400e+03
7.499999999999999722e-02 1.669244999999999757e-01 2.059329999999999927e+01 8.885554999999999382e+01 2.120440000000000055e+03
7.599999999999999811e-02 1.670514999999999917e-01 2.201599999999999824e+01 9.218594999999999118e+01 2.121489999999999782e+03
7.699999999999999900e-02 1.671690000000000120e-01 2.328894999999999982e+01 9.525749999999999318e+01 2.122465000000000146e+03
7.799999999999999989e-02 1.672794999999999976e-01 2.443200000000000216e+01 9.814130000000000109e+01 2.123380000000000109e+03
7.900000000000000078e-02 1.673839999999999772e-01 2.546894999999999953e+01 1.009123500000000035e+02 2.124250000000000000e+03
8.000000000000000167e-02 1.674859999999999960e-01 2.642470000000000141e+01 1.036430000000000007e+02 2.125090000000000146e+03
8.100000000000000255e-02 1.675864999999999994e-01 2.732294999999999874e+01 1.063950000000000102e+02 2.125920000000000073e+03
8.200000000000000344e-02 1.676869999999999750e-01 2.818394999999999939e+01 1.092139999999999986e+02 2.126750000000000000e+03
8.300000000000000433e-02 1.677890000000000215e-01 2.902289999999999992e+01 1.121295000000000073e+02 2.127600000000000364e+03
8.400000000000000522e-02 1.678935000000000011e-01 2.984939999999999927e+01 1.151484999999999985e+02 2.128465000000000146e+03
8.500000000000000611e-02 1.680014999999999981e-01 3.066680000000000206e+01 1.182625000000000028e+02 2.129349999999999909e+03
8.600000000000000699e-02 1.681110000000000104e-01 3.147244999999999848e+01 1.214430000000000121e+02 2.130255000000000109e+03
8.700000000000000788e-02 1.682224999999999970e-01 3.225820000000000221e+01 1.246504999999999939e+02 2.131170000000000073e+03
8.800000000000000877e-02 1.683339999999999836e-01 3.301160000000000139e+01 1.278329999999999984e+02 2.132090000000000146e+03
8.899999999999999578e-02 1.684435000000000238e-01 3.371670000000000300e+01 1.309345000000000141e+02 2.133000000000000000e+03
8.999999999999999667e-02 1.685510000000000064e-01 3.435564999999999714e+01 1.338944999999999936e+02 2.133885000000000218e+03
9.099999999999999756e-02 1.686529999999999974e-01 3.490940000000000509e+01 1.366550000000000011e+02 2.134724999999999909e+03
9.199999999999999845e-02 1.687480000000000091e-01 3.535960000000000036e+01 1.391624999999999943e+02 2.135519999999999982e+03
9.299999999999999933e-02 1.688350000000000128e-01 3.568930000000000291e+01 1.413689999999999998e+02 2.136239999999999782e+03
9.400000000000000022e-02 1.689120000000000066e-01 3.588415000000000532e+01 1.432364999999999782e+02 2.136885000000000218e+03
9.500000000000000111e-02 1.689779999999999893e-01 3.593335000000000434e+01 1.447384999999999877e+02 2.137440000000000055e+03
9.600000000000000200e-02 1.690320000000000156e-01 3.583020000000000493e+01 1.458594999999999970e+02 2.137900000000000091e+03
9.700000000000000289e-02 1.690734999999999877e-01 3.557254999999999967e+01 1.465969999999999800e+02 2.138250000000000000e+03
9.800000000000000377e-02 1.691024999999999889e-01 3.516329999999999956e+01 1.469605000000000246e+02 2.138505000000000109e+03
9.900000000000000466e-02 1.691194999999999782e-01 3.461005000000000109e+01 1.469719999999999800e+02 2.138654999999999745e+03
1.000000000000000056e-01 1.691245000000000109e-01 3.392470000000000141e+01 1.466639999999999873e+02 2.138710000000000036e+03
1.010000000000000064e-01 1.691199999999999926e-01 3.312324999999999875e+01 1.460769999999999982e+02 2.138680000000000291e+03
1.020000000000000073e-01 1.691050000000000053e-01 3.222455000000000069e+01 1.452584999999999980e+02 2.138570000000000164e+03
1.030000000000000082e-01 1.690824999999999967e-01 3.124980000000000047e+01 1.442605000000000075e+02 2.138394999999999982e+03
1.040000000000000091e-01 1.690544999999999964e-01 3.022140000000000271e+01 1.431355000000000075e+02 2.138170000000000073e+03
1.050000000000000100e-01 1.690214999999999912e-01 2.916194999999999737e+01 1.419360000000000070e+02 2.137900000000000091e+03
1.059999999999999970e-01 1.689855000000000107e-01 2.809315000000000140e+01 1.407099999999999795e+02 2.137610000000000127e+03
1.069999999999999979e-01 1.689479999999999871e-01 2.703540000000000276e+01 1.395020000000000095e+02 2.137304999999999836e+03
1.079999999999999988e-01 1.689105000000000190e-01 2.600650000000000261e+01 1.383485000000000014e+02 2.137000000000000000e+03
1.089999999999999997e-01 1.688744999999999830e-01 2.502145000000000152e+01 1.372789999999999964e+02 2.136694999999999709e+03
1.100000000000000006e-01 1.688410000000000188e-01 2.409154999999999802e+01 1.363139999999999930e+02 2.136420000000000073e+03
1.110000000000000014e-01 1.688095000000000012e-01 2.322459999999999880e+01 1.354644999999999868e+02 2.136155000000000200e+03
1.120000000000000023e-01 1.687814999999999732e-01 2.242410000000000281e+01 1.347325000000000159e+02 2.135925000000000182e+03
1.130000000000000032e-01 1.687565000000000037e-01 2.168994999999999962e+01 1.341109999999999900e+02 2.135710000000000036e+03
1.140000000000000041e-01 1.687350000000000239e-01 2.101810000000000045e+01 1.335840000000000032e+02 2.135524999999999636e+03
1.150000000000000050e-01 1.687159999999999771e-01 2.040124999999999744e+01 1.331304999999999836e+02 2.135364999999999782e+03
1.160000000000000059e-01 1.686989999999999879e-01 1.982934999999999803e+01 1.327214999999999918e+02 2.135220000000000255e+03
1.170000000000000068e-01 1.686829999999999996e-01 1.929035000000000011e+01 1.323245000000000005e+02 2.135090000000000146e+03
1.180000000000000077e-01 1.686679999999999846e-01 1.877060000000000173e+01 1.319060000000000059e+02 2.134954999999999927e+03
1.190000000000000085e-01 1.686509999999999954e-01 1.825634999999999764e+01 1.314320000000000164e+02 2.134814999999999600e+03
1.200000000000000094e-01 1.686329999999999774e-01 1.773395000000000010e+01 1.308710000000000093e+02 2.134659999999999854e+03
1.209999999999999964e-01 1.686114999999999975e-01 1.719105000000000061e+01 1.301955000000000098e+02 2.134485000000000127e+03
1.219999999999999973e-01 1.685869999999999869e-01 1.661735000000000184e+01 1.293834999999999980e+02 2.134279999999999745e+03
1.229999999999999982e-01 1.685579999999999856e-01 1.600505000000000067e+01 1.284209999999999923e+02 2.134045000000000073e+03
1.239999999999999991e-01 1.685240000000000071e-01 1.534945000000000093e+01 1.273024999999999949e+02 2.133764999999999873e+03
1.250000000000000000e-01 1.684855000000000103e-01 1.464920000000000044e+01 1.260300000000000011e+02 2.133449999999999818e+03
1.260000000000000009e-01 1.684419999999999806e-01 1.390654999999999930e+01 1.246154999999999973e+02 2.133095000000000255e+03
1.270000000000000018e-01 1.683939999999999881e-01 1.312705000000000055e+01 1.230790000000000077e+02 2.132704999999999927e+03
1.280000000000000027e-01 1.683419999999999916e-01 1.231935000000000002e+01 1.214470000000000027e+02 2.132275000000000091e+03
1.290000000000000036e-01 1.682874999999999788e-01 1.149469500000000011e+01 1.197524999999999977e+02 2.131829999999999927e+03
1.300000000000000044e-01 1.682310000000000194e-01 1.066634499999999974e+01 1.180329999999999870e+02 2.131369999999999891e+03
1.310000000000000053e-01 1.681735000000000035e-01 9.848694999999999311e+00 1.163255000000000052e+02 2.130900000000000091e+03
1.320000000000000062e-01 1.681165000000000020e-01 9.056765000000000398e+00 1.146700000000000017e+02 2.130430000000000291e+03
1.330000000000000071e-01 1.680610000000000159e-01 8.305049999999999599e+00 1.131024999999999920e+02 2.129974999999999909e+03
1.340000000000000080e-01 1.680085000000000051e-01 7.607020000000000337e+00 1.116564999999999941e+02 2.129539999999999964e+03
1.350000000000000089e-01 1.679599999999999982e-01 6.974474999999999980e+00 1.103584999999999923e+02 2.129135000000000218e+03
1.360000000000000098e-01 1.679160000000000097e-01 6.416880000000000805e+00 1.092295000000000016e+02 2.128769999999999982e+03
1.370000000000000107e-01 1.678769999999999984e-01 5.941069999999999851e+00 1.082835000000000036e+02 2.128444999999999709e+03
1.380000000000000115e-01 1.678434999999999788e-01 5.551040000000000418e+00 1.075264999999999986e+02 2.128170000000000073e+03
1.390000000000000124e-01 1.678164999999999796e-01 5.247865000000000002e+00 1.069575000000000102e+02 2.127945000000000164e+03
1.400000000000000133e-01 1.677954999999999863e-01 5.029814999999999259e+00 1.065695000000000050e+02 2.127760000000000218e+03
1.410000000000000142e-01 1.677799999999999847e-01 4.892579999999999707e+00 1.063479999999999990e+02 2.127630000000000109e+03
1.420000000000000151e-01 1.677704999999999891e-01 4.829560000000000741e+00 1.062754999999999939e+02 2.127539999999999964e+03
1.430000000000000160e-01 1.677655000000000118e-01 4.832324999999999982e+00 1.063299999999999983e+02 2.127489999999999782e+03
1.440000000000000169e-01 1.677644999999999831e-01 4.891009999999999636e+00 1.064859999999999900e+02 2.127479999999999563e+03
1.450000000000000178e-01 1.677664999999999851e-01 4.994804999999999495e+00 1.067185000000000059e+02 2.127494999999999891e+03
1.459999999999999909e-01 1.677719999999999767e-01 5.132429999999999382e+00 1.070020000000000095e+02 2.127529999999999745e+03
1.469999999999999918e-01 1.677790000000000115e-01 5.292580000000000062e+00 1.073110000000000070e+02 2.127585000000000036e+03
1.479999999999999927e-01 1.677874999999999783e-01 5.464310000000000223e+00 1.076225000000000023e+02 2.127650000000000091e+03
1.489999999999999936e-01 1.677954999999999863e-01 5.637444999999999595e+00 1.079149999999999920e+02 2.127710000000000036e+03
1.499999999999999944e-01 1.678034999999999943e-01 5.802880000000000038e+00 1.081715000000000089e+02 2.127779999999999745e+03
1.509999999999999953e-01 1.678109999999999880e-01 5.952804999999999680e+00 1.083774999999999977e+02 2.127835000000000036e+03
1.519999999999999962e-01 1.678164999999999796e-01 6.080975000000000463e+00 1.085219999999999914e+02 2.127885000000000218e+03
1.529999999999999971e-01 1.678204999999999836e-01 6.182755000000000223e+00 1.085989999999999895e+02 2.127914999999999964e+03
1.539999999999999980e-01 1.678224999999999856e-01 6.255230000000000068e+00 1.086059999999999945e+02 2.127930000000000291e+03
1.549999999999999989e-01 1.678219999999999990e-01 6.297164999999999679e+00 1.085430000000000064e+02 2.127934999999999945e+03
1.559999999999999998e-01 1.678199999999999970e-01 6.308930000000000149e+00 1.084149999999999920e+02 2.127920000000000073e+03
1.570000000000000007e-01 1.678160000000000207e-01 6.292304999999999815e+00 1.082289999999999992e+02 2.127885000000000218e+03
1.580000000000000016e-01 1.678100000000000147e-01 6.250289999999999679e+00 1.079939999999999998e+02 2.127845000000000255e+03
1.590000000000000024e-01 1.678024999999999933e-01 6.186835000000000306e+00 1.077219999999999942e+02 2.127779999999999745e+03
