# t [s], A [cm^2], U [cm/s], P [cPa], c [cm/s]
1.000000000000000021e-03 6.301935000000000731e-01 5.629999999999996119e-03 9.500289999999999679e+01 1.687529999999999973e+03
2.000000000000000042e-03 6.301839999999999664e-01 8.034499999999989567e-05 9.497135000000000105e+01 1.687519999999999982e+03
3.000000000000000062e-03 6.302465000000000428e-01 1.212233999999999950e-01 9.510569999999999879e+01 1.687549999999999955e+03
4.000000000000000083e-03 6.302864999999999718e-01 2.147435999999999789e-01 9.521895000000000664e+01 1.687575000000000045e+03
5.000000000000000104e-03 6.302380000000000759e-01 1.537735000000000074e-01 9.508854999999999791e+01 1.687550000000000182e+03
6.000000000000000125e-03 6.301639999999999464e-01 3.632249999999997980e-02 9.479354999999999620e+01 1.687490000000000009e+03
7.000000000000000146e-03 6.300935000000000841e-01 -8.499850000000003236e-02 9.442379999999999995e+01 1.687414999999999964e+03
8.000000000000000167e-03 6.299684999999999313e-01 -3.264200000000000434e-01 9.384155000000001223e+01 1.687295000000000073e+03
9.000000000000001055e-03 6.297740000000000560e-01 -7.189449999999999452e-01 9.296475000000000932e+01 1.687115000000000009e+03
1.000000000000000194e-02 6.295045000000000224e-01 -1.263069999999999915e+00 9.174674999999999159e+01 1.686855000000000018e+03
1.099999999999999936e-02 6.291360000000000285e-01 -1.989335000000000075e+00 9.009979999999998768e+01 1.686509999999999991e+03
1.200000000000000025e-02 6.286739999999999551e-01 -2.864634999999999820e+00 8.801095000000000823e+01 1.686065000000000055e+03
1.300000000000000114e-02 6.281829999999999359e-01 -3.734634999999999927e+00 8.565059999999999718e+01 1.685539999999999964e+03
1.400000000000000203e-02 6.277500000000000302e-01 -4.394881999999999955e+00 8.331399999999999295e+01 1.685000000000000000e+03
1.499999999999999944e-02 6.274279999999999857e-01 -4.702823500000000045e+00 8.126564999999999372e+01 1.684500000000000000e+03
1.600000000000000033e-02 6.272159999999999958e-01 -4.633365000000000400e+00 7.962555000000000405e+01 1.684069999999999936e+03
1.700000000000000122e-02 6.270700000000000163e-01 -4.265270000000000117e+00 7.834759999999999991e+01 1.683704999999999927e+03
1.800000000000000211e-02 6.269284999999999997e-01 -3.730230000000000157e+00 7.726910000000000878e+01 1.683375000000000000e+03
1.900000000000000300e-02 6.267405000000000337e-01 -3.154597499999999943e+00 7.619304999999999950e+01 1.683054999999999836e+03
2.000000000000000042e-02 6.264815000000000245e-01 -2.614139495499999910e+00 7.496909999999999741e+01 1.682714999999999918e+03
2.100000000000000130e-02 6.261609999999999676e-01 -2.116414999999999935e+00 7.354435000000000855e+01 1.682335000000000036e+03
2.200000000000000219e-02 6.258099999999999774e-01 -1.616335000000000077e+00 7.196379999999999200e+01 1.681920000000000073e+03
2.299999999999999961e-02 6.254625000000000323e-01 -1.054380000000000095e+00 7.032804999999999040e+01 1.681494999999999891e+03
2.400000000000000050e-02 6.251409999999999467e-01 -3.965400000000001146e-01 6.873134999999999195e+01 1.681069999999999936e+03
2.500000000000000139e-02 6.248435000000001072e-01 3.413850000000002716e-01 6.721180000000001087e+01 1.680654999999999973e+03
2.600000000000000228e-02 6.245465000000000044e-01 1.090994999999999937e+00 6.572829999999999018e+01 1.680250000000000000e+03
2.700000000000000316e-02 6.242119999999999891e-01 1.746625000000000094e+00 6.416750000000000398e+01 1.679829999999999927e+03
2.800000000000000058e-02 6.237980000000000746e-01 2.192275000000000418e+00 6.237505000000000166e+01 1.679369999999999891e+03
2.900000000000000147e-02 6.232735000000000358e-01 2.332449999999999690e+00 6.020100000000000051e+01 1.678829999999999927e+03
3.000000000000000236e-02 6.226270000000000415e-01 2.118684999999999707e+00 5.754800000000000182e+01 1.678199999999999818e+03
3.099999999999999978e-02 6.218729999999998981e-01 1.563595000000000290e+00 5.440619999999999834e+01 1.677465000000000146e+03
3.200000000000000067e-02 6.210470000000000157e-01 7.376649999999997931e-01 5.086449999999999960e+01 1.676639999999999873e+03
3.300000000000000155e-02 6.202004999999999324e-01 -2.493850000000001899e-01 4.709420000000000073e+01 1.675764999999999873e+03
3.400000000000000244e-02 6.193854999999999222e-01 -1.274194999999999744e+00 4.331485000000000696e+01 1.674865000000000009e+03
3.500000000000000333e-02 6.186504999999999921e-01 -2.223244999999999916e+00 3.975339999999999918e+01 1.674005000000000109e+03
3.600000000000000422e-02 6.180295000000000094e-01 -3.008799999999999475e+00 3.661019999999999897e+01 1.673214999999999918e+03
3.700000000000000511e-02 6.175429999999999531e-01 -3.574804999999999566e+00 3.403645000000000209e+01 1.672545000000000073e+03
3.799999999999999906e-02 6.171990000000000531e-01 -3.895038500000000070e+00 3.212485000000000213e+01 1.672015000000000100e+03
3.899999999999999994e-02 6.169970000000000176e-01 -3.966019999999999879e+00 3.091310000000000002e+01 1.671644999999999982e+03
4.000000000000000083e-02 6.169290000000000607e-01 -3.797335000000000349e+00 3.039480000000000004e+01 1.671429999999999836e+03
4.100000000000000172e-02 6.169850000000000056e-01 -3.402569999999999872e+00 3.053520000000000323e+01 1.671375000000000000e+03
4.200000000000000261e-02 6.171564999999999968e-01 -2.792994450000000128e+00 3.128669999999999973e+01 1.671474999999999909e+03
4.300000000000000350e-02 6.174355000000000260e-01 -1.975180000000000158e+00 3.259945000000000448e+01 1.671710000000000036e+03
4.400000000000000439e-02 6.178150000000000031e-01 -9.525449999999997530e-01 3.442674999999999841e+01 1.672075000000000045e+03
4.499999999999999833e-02 6.182889999999999775e-01 2.704500000000003013e-01 3.672429999999999950e+01 1.672565000000000055e+03
4.599999999999999922e-02 6.188495000000000523e-01 1.683544999999999625e+00 3.944579999999999842e+01 1.673159999999999854e+03
4.700000000000000011e-02 6.194844999999999935e-01 3.267049999999999788e+00 4.253795000000000215e+01 1.673855000000000018e+03
4.800000000000000100e-02 6.201794999999999947e-01 4.990629999999999455e+00 4.593684999999999974e+01 1.674630000000000109e+03
4.900000000000000189e-02 6.209175000000000111e-01 6.814355000000000828e+00 4.956745000000000090e+01 1.675469999999999800e+03
5.000000000000000278e-02 6.216785000000000228e-01 8.692053500000000099e+00 5.334625000000000483e+01 1.676360000000000127e+03
5.100000000000000366e-02 6.224445000000000672e-01 1.057553499999999858e+01 5.718645000000000778e+01 1.677275000000000091e+03
5.200000000000000455e-02 6.231984999999999886e-01 1.241908000000000101e+01 6.100419999999999732e+01 1.678200000000000045e+03
5.300000000000000544e-02 6.239265000000000505e-01 1.418313999999999986e+01 6.472520000000000095e+01 1.679115000000000009e+03
5.399999999999999939e-02 6.246184999999999654e-01 1.583688499999999877e+01 6.828974999999999795e+01 1.680000000000000000e+03
5.500000000000000028e-02 6.252685000000000048e-01 1.735945000000000249e+01 7.165619999999999834e+01 1.680855000000000018e+03
5.600000000000000117e-02 6.258745000000000003e-01 1.873964999999999748e+01 7.480199999999999250e+01 1.681664999999999964e+03
5.700000000000000205e-02 6.264374999999999805e-01 1.997530000000000072e+01 7.772284999999999400e+01 1.682429999999999836e+03
5.800000000000000294e-02 6.269629999999999370e-01 2.107110000000000127e+01 8.043019999999999925e+01 1.683144999999999982e+03
5.900000000000000383e-02 6.274560000000000137e-01 2.203759999999999764e+01 8.294830000000000325e+01 1.683815000000000055e+03
6.000000000000000472e-02 6.279240000000000377e-01 2.288900000000000290e+01 8.531034999999999968e+01 1.684445000000000164e+03
6.099999999999999867e-02 6.283754999999999757e-01 2.364199999999999946e+01 8.755509999999999593e+01 1.685045000000000073e+03
6.199999999999999956e-02 6.288175000000000292e-01 2.431459999999999866e+01 8.972310000000000230e+01 1.685630000000000109e+03
6.300000000000000044e-02 6.292579999999999840e-01 2.492439999999999856e+01 9.185365000000000180e+01 1.686200000000000045e+03
6.400000000000000133e-02 6.297029999999999017e-01 2.548754999999999882e+01 9.398154999999999859e+01 1.686764999999999873e+03
6.500000000000000222e-02 6.301569999999999672e-01 2.601764999999999972e+01 9.613434999999999775e+01 1.687325000000000045e+03
6.600000000000000311e-02 6.306225000000000858e-01 2.652449999999999974e+01 9.833004999999999995e+01 1.687900000000000091e+03
6.700000000000000400e-02 6.310994999999999244e-01 2.701310000000000144e+01 1.005751500000000078e+02 1.688480000000000018e+03
6.800000000000000488e-02 6.315855000000000219e-01 2.748389999999999844e+01 1.028648500000000041e+02 1.689069999999999936e+03
6.900000000000000577e-02 6.320759999999999712e-01 2.793254999999999910e+01 1.051829999999999927e+02 1.689664999999999964e+03
7.000000000000000666e-02 6.325650000000000439e-01 2.835079999999999956e+01 1.075030000000000001e+02 1.690264999999999873e+03
7.100000000000000755e-02 6.330439999999999401e-01 2.872719999999999985e+01 1.097909999999999968e+02 1.690855000000000018e+03
7.200000000000000844e-02 6.335060000000000136e-01 2.904890000000000327e+01 1.120074999999999932e+02 1.691429999999999836e+03
7.300000000000000933e-02 6.339414999999999356e-01 2.930245000000000033e+01 1.141129999999999995e+02 1.691985000000000127e+03
7.399999999999999634e-02 6.343434999999999491e-01 2.947504999999999953e+01 1.160674999999999955e+02 1.692500000000000000e+03
7.499999999999999722e-02 6.347049999999999637e-01 2.955570000000000164e+01 1.178354999999999961e+02 1.692974999999999909e+03
7.599999999999999811e-02 6.350210000000000576e-01 2.953575000000000017e+01 1.193884999999999934e+02 1.693404999999999973e+03
7.699999999999999900e-02 6.352869999999999351e-01 2.940939999999999799e+01 1.207035000000000053e+02 1.693769999999999982e+03
7.799999999999999989e-02 6.355025000000000812e-01 2.917405000000000115e+01 1.217665000000000077e+02 1.694085000000000036e+03
7.900000000000000078e-02 6.356649999999999245e-01 2.883054999999999879e+01 1.225714999999999861e+02 1.694329999999999927e+03
8.000000000000000167e-02 6.357770000000000366e-01 2.838264999999999816e+01 1.231225000000000023e+02 1.694514999999999873e+03
8.100000000000000255e-02 6.358409999999999895e-01 2.783769999999999811e+01 1.234290000000000020e+02 1.694639999999999873e+03
8.200000000000000344e-02 6.358604999999999396e-01 2.720554999999999879e+01 1.235095000000000027e+02 1.694704999999999927e+03
8.300000000000000433e-02 6.358409999999999895e-01 2.649859999999999971e+01 1.233885000000000076e+02 1.694720000000000027e+03
8.400000000000000522e-02 6.357884999999999787e-01 2.573140000000000072e+01 1.230939999999999941e+02 1.694679999999999836e+03
8.500000000000000611e-02 6.357089999999999685e-01 2.491960000000000264e+01 1.226574999999999989e+02 1.694610000000000127e+03
8.600000000000000699e-02 6.356104999999999672e-01 2.407995000000000019e+01 1.221150000000000091e+02 1.694505000000000109e+03
8.700000000000000788e-02 6.354994999999999949e-01 2.322899999999999920e+01 1.215000000000000000e+02 1.694375000000000000e+03
8.800000000000000877e-02 6.353815000000000435e-01 2.238264999999999816e+01 1.208464999999999918e+02 1.694235000000000127e+03
8.899999999999999578e-02 6.352634999999999810e-01 2.155545000000000044e+01 1.201854999999999905e+02 1.694079999999999927e+03
8.999999999999999667e-02 6.351504999999999512e-01 2.075970000000000226e+01 1.195434999999999945e+02 1.693924999999999955e+03
9.099999999999999756e-02 6.350459999999999994e-01 2.000525000000000020e+01 1.189429999999999978e+02 1.693779999999999973e+03
9.199999999999999845e-02 6.349529999999999896e-01 1.929895000000000138e+01 1.184004999999999939e+02 1.693639999999999873e+03
9.299999999999999933e-02 6.348724999999999508e-01 1.864434999999999931e+01 1.179259999999999877e+02 1.693514999999999873e+03
9.400000000000000022e-02 6.348049999999999526e-01 1.804204999999999970e+01 1.175219999999999914e+02 1.693404999999999973e+03
9.500000000000000111e-02 6.347500000000000364e-01 1.748949999999999960e+01 1.171875000000000000e+02 1.693309999999999945e+03
9.600000000000000200e-02 6.347039999999999349e-01 1.698160000000000025e+01 1.169129999999999967e+02 1.693224999999999909e+03
9.700000000000000289e-02 6.346654999999999935e-01 1.651099999999999923e+01 1.166864999999999952e+02 1.693160000000000082e+03
9.800000000000000377e-02 6.346309999999999452e-01 1.606859999999999999e+01 1.164919999999999902e+02 1.693095000000000027e+03
9.900000000000000466e-02 6.345959999999999379e-01 1.564420000000000144e+01 1.163110000000000070e+02 1.693039999999999964e+03
1.000000000000000056e-01 6.345564999999999678e-01 1.522719999999999985e+01 1.161225000000000023e+02 1.692985000000000127e+03
1.010000000000000064e-01 6.345095000000000596e-01 1.480685000000000073e+01 1.159085000000000036e+02 1.692924999999999955e+03
1.020000000000000073e-01 6.344505000000000283e-01 1.437340000000000018e+01 1.156484999999999985e+02 1.692860000000000127e+03
1.030000000000000082e-01 6.343775000000000386e-01 1.391789999999999949e+01 1.153280000000000030e+02 1.692780000000000200e+03
1.040000000000000091e-01 6.342879999999999630e-01 1.343355000000000032e+01 1.149329999999999927e+02 1.692679999999999836e+03
1.050000000000000100e-01 6.341805000000000359e-01 1.291534000000000049e+01 1.144560000000000031e+02 1.692565000000000055e+03
1.059999999999999970e-01 6.340554999999999941e-01 1.236093500000000134e+01 1.138919999999999959e+02 1.692429999999999836e+03
1.069999999999999979e-01 6.339129999999999487e-01 1.177045000000000030e+01 1.132425000000000068e+02 1.692279999999999973e+03
1.079999999999999988e-01 6.337550000000000683e-01 1.114667000000000030e+01 1.125140000000000100e+02 1.692105000000000018e+03
1.089999999999999997e-01 6.335844999999999949e-01 1.049477500000000063e+01 1.117179999999999893e+02 1.691914999999999964e+03
1.100000000000000006e-01 6.334055000000000657e-01 9.822305000000000064e+00 1.108689999999999998e+02 1.691710000000000036e+03
1.110000000000000014e-01 6.332210000000000338e-01 9.138594999999998691e+00 1.099869999999999948e+02 1.691500000000000000e+03
1.120000000000000023e-01 6.330369999999999608e-01 8.454354999999999620e+00 1.090935000000000059e+02 1.691279999999999973e+03
1.130000000000000032e-01 6.328575000000000728e-01 7.781095000000000539e+00 1.082120000000000033e+02 1.691059999999999945e+03
1.140000000000000041e-01 6.326875000000000693e-01 7.130539999999999878e+00 1.073659999999999997e+02 1.690849999999999909e+03
1.150000000000000050e-01 6.325315000000000243e-01 6.514110000000000511e+00 1.065775000000000006e+02 1.690650000000000091e+03
1.160000000000000059e-01 6.323940000000000117e-01 5.942149999999999821e+00 1.058689999999999998e+02 1.690464999999999918e+03
1.170000000000000068e-01 6.322769999999999779e-01 5.423610000000000042e+00 1.052564999999999884e+02 1.690299999999999955e+03
1.180000000000000077e-01 6.321840000000000792e-01 4.965555000000000163e+00 1.047545000000000073e+02 1.690164999999999964e+03
1.190000000000000085e-01 6.321155000000000523e-01 4.572869999999999990e+00 1.043725000000000023e+02 1.690049999999999955e+03
1.200000000000000094e-01 6.320729999999999960e-01 4.248054999999999914e+00 1.041140000000000043e+02 1.689970000000000027e+03
1.209999999999999964e-01 6.320550000000000335e-01 3.991245000000000154e+00 1.039784999999999968e+02 1.689914999999999964e+03
1.219999999999999973e-01 6.320600000000000662e-01 3.800254999999999939e+00 1.039604999999999961e+02 1.689894999999999982e+03
1.229999999999999982e-01 6.320860000000000367e-01 3.670824999999999783e+00 1.040504999999999995e+02 1.689894999999999982e+03
1.239999999999999991e-01 6.321295000000000108e-01 3.596915000000000084e+00 1.042355000000000018e+02 1.689920000000000073e+03
1.250000000000000000e-01 6.321879999999999722e-01 3.571105000000000196e+00 1.044985000000000070e+02 1.689970000000000027e+03
1.260000000000000009e-01 6.322559999999999292e-01 3.584975000000000023e+00 1.048220000000000027e+02 1.690029999999999973e+03
1.270000000000000018e-01 6.323320000000000052e-01 3.629554999999999865e+00 1.051880000000000024e+02 1.690105000000000018e+03
1.280000000000000027e-01 6.324110000000000564e-01 3.695730000000000182e+00 1.055775000000000006e+02 1.690190000000000055e+03
1.290000000000000036e-01 6.324889999999999679e-01 3.774624999999999897e+00 1.059724999999999966e+02 1.690279999999999973e+03
1.300000000000000044e-01 6.325644999999999740e-01 3.857890000000000263e+00 1.063569999999999993e+02 1.690369999999999891e+03
1.310000000000000053e-01 6.326330000000000009e-01 3.938019999999999854e+00 1.067169999999999987e+02 1.690460000000000036e+03
1.320000000000000062e-01 6.326939999999999786e-01 4.008515000000000050e+00 1.070399999999999920e+02 1.690535000000000082e+03
1.330000000000000071e-01 6.327454999999999607e-01 4.064045000000000130e+00 1.073179999999999978e+02 1.690610000000000127e+03
1.340000000000000080e-01 6.327860000000000706e-01 4.100540000000000518e+00 1.075449999999999875e+02 1.690664999999999964e+03
1.350000000000000089e-01 6.328165000000000040e-01 4.115190000000000126e+00 1.077164999999999964e+02 1.690715000000000146e+03
1.360000000000000098e-01 6.328344999999999665e-01 4.106489999999999974e+00 1.078319999999999936e+02 1.690744999999999891e+03
1.370000000000000107e-01 6.328424999999999745e-01 4.074105000000000310e+00 1.078930000000000007e+02 1.690769999999999982e+03
1.380000000000000115e-01 6.328409999999999869e-01 4.018815000000000026e+00 1.079029999999999916e+02 1.690779999999999973e+03
1.390000000000000124e-01 6.328310000000000324e-01 3.942394999999999872e+00 1.078670000000000044e+02 1.690779999999999973e+03
1.400000000000000133e-01 6.328134999999999177e-01 3.847414999999999807e+00 1.077920000000000016e+02 1.690769999999999982e+03
1.410000000000000142e-01 6.327909999999999924e-01 3.737074999999999925e+00 1.076844999999999999e+02 1.690755000000000109e+03
1.420000000000000151e-01 6.327639999999999931e-01 3.615009999999999835e+00 1.075529999999999973e+02 1.690724999999999909e+03
1.430000000000000160e-01 6.327350000000000474e-01 3.485050000000000203e+00 1.074050000000000011e+02 1.690694999999999936e+03
1.440000000000000169e-01 6.327045000000000030e-01 3.351024999999999920e+00 1.072479999999999905e+02 1.690659999999999854e+03
1.450000000000000178e-01 6.326745000000000285e-01 3.216574999999999740e+00 1.070895000000000010e+02 1.690625000000000000e+03
1.459999999999999909e-01 6.326460000000000417e-01 3.084954999999999892e+00 1.069339999999999975e+02 1.690590000000000146e+03
1.469999999999999918e-01 6.326195000000000013e-01 2.958870000000000111e+00 1.067870000000000061e+02 1.690550000000000182e+03
1.479999999999999927e-01 6.325950000000000184e-01 2.840390000000000192e+00 1.066510000000000105e+02 1.690519999999999982e+03
1.489999999999999936e-01 6.325739999999999696e-01 2.730884999999999785e+00 1.065270000000000010e+02 1.690490000000000009e+03
1.499999999999999944e-01 6.325549999999999784e-01 2.631025000000000169e+00 1.064154999999999944e+02 1.690460000000000036e+03
1.509999999999999953e-01 6.325380000000000447e-01 2.540775000000000006e+00 1.063149999999999977e+02 1.690434999999999945e+03
1.519999999999999962e-01 6.325220000000000287e-01 2.459509999999999863e+00 1.062220000000000084e+02 1.690410000000000082e+03
1.529999999999999971e-01 6.325065000000000826e-01 2.386134999999999895e+00 1.061334999999999980e+02 1.690385000000000218e+03
1.539999999999999980e-01 6.324910000000000254e-01 2.319194999999999673e+00 1.060455000000000041e+02 1.690365000000000009e+03
1.549999999999999989e-01 6.324735000000000218e-01 2.257035000000000124e+00 1.059525000000000006e+02 1.690339999999999918e+03
1.559999999999999998e-01 6.324540000000000717e-01 2.197964999999999947e+00 1.058505000000000109e+02 1.690309999999999945e+03
1.570000000000000007e-01 6.324309999999999654e-01 2.140369999999999884e+00 1.057365000000000066e+02 1.690284999999999854e+03
1.580000000000000016e-01 6.324039999999999662e-01 2.082869999999999777e+00 1.056050000000000040e+02 1.690250000000000000e+03
1.590000000000000024e-01 6.323735000000000328e-01 2.024370000000000225e+00 1.054560000000000031e+02 1.690210000000000036e+03
