# t [s], A [cm^2], U [cm/s], P [cPa], c [cm/s]
1.000000000000000021e-03 5.939875000000000016e-01 3.278950000000002696e-03 9.385535000000000139e+01 1.404555000000000064e+03
2.000000000000000042e-03 5.939780000000000060e-01 -1.605394999999999912e-03 9.383844999999999459e+01 1.404545000000000073e+03
3.000000000000000062e-03 5.940100000000000380e-01 4.866115000000000024e-02 9.388049999999999784e+01 1.404565000000000055e+03
4.000000000000000083e-03 5.940659999999999830e-01 1.390001499999999890e-01 9.398005000000000564e+01 1.404595000000000027e+03
5.000000000000000104e-03 5.940775000000000361e-01 1.669783999999999990e-01 9.401099999999999568e+01 1.404610000000000127e+03
6.000000000000000125e-03 5.940374999999999961e-01 1.125284999999999896e-01 9.392029999999999745e+01 1.404585000000000036e+03
7.000000000000000146e-03 5.939845000000000264e-01 3.521249999999997993e-02 9.375494999999999379e+01 1.404545000000000073e+03
8.000000000000000167e-03 5.939339999999999620e-01 -4.454750000000001764e-02 9.354544999999998822e+01 1.404485000000000127e+03
9.000000000000001055e-03 5.938544999999999519e-01 -1.793454999999999910e-01 9.324190000000000111e+01 1.404400000000000091e+03
1.000000000000000194e-02 5.937274999999999636e-01 -4.003100000000000547e-01 9.279550000000000409e+01 1.404275000000000091e+03
1.099999999999999936e-02 5.935515000000000096e-01 -7.074399999999999578e-01 9.218224999999999625e+01 1.404105000000000018e+03
1.200000000000000025e-02 5.933169999999999833e-01 -1.108305000000000096e+00 9.137075000000000102e+01 1.403880000000000109e+03
1.300000000000000114e-02 5.930109999999999548e-01 -1.612894999999999968e+00 9.032410000000000139e+01 1.403575000000000045e+03
1.400000000000000203e-02 5.926369999999999694e-01 -2.199059999999999793e+00 8.903874999999999318e+01 1.403195000000000164e+03
1.499999999999999944e-02 5.922264999999999890e-01 -2.796819999999999862e+00 8.757200000000000273e+01 1.402750000000000000e+03
1.600000000000000033e-02 5.918250000000000455e-01 -3.308745000000000047e+00 8.603130000000000166e+01 1.402269999999999982e+03
1.700000000000000122e-02 5.914705000000000101e-01 -3.647191500000000364e+00 8.453470000000000084e+01 1.401779999999999973e+03
1.800000000000000211e-02 5.911824999999999442e-01 -3.762351499999999849e+00 8.317204999999999870e+01 1.401319999999999936e+03
1.900000000000000300e-02 5.909550000000000081e-01 -3.650910149999999632e+00 8.198245000000000005e+01 1.400889999999999873e+03
2.000000000000000042e-02 5.907675000000000010e-01 -3.348273499999999903e+00 8.095295000000000130e+01 1.400494999999999891e+03
2.100000000000000130e-02 5.905900000000000594e-01 -2.912196695000000002e+00 8.003085000000000093e+01 1.400125000000000000e+03
2.200000000000000219e-02 5.903929999999999456e-01 -2.404151499999999775e+00 7.914494999999999436e+01 1.399764999999999873e+03
2.299999999999999961e-02 5.901589999999999892e-01 -1.873254999999999892e+00 7.822739999999998872e+01 1.399400000000000091e+03
2.400000000000000050e-02 5.898790000000000422e-01 -1.346224999999999783e+00 7.723179999999999268e+01 1.399009999999999991e+03
2.500000000000000139e-02 5.895610000000000017e-01 -8.256050000000001443e-01 7.614275000000000659e+01 1.398599999999999909e+03
2.600000000000000228e-02 5.892174999999999496e-01 -2.960599999999997678e-01 7.497405000000000541e+01 1.398164999999999964e+03
2.700000000000000316e-02 5.888655000000000417e-01 2.641800000000000814e-01 7.375839999999999463e+01 1.397720000000000027e+03
2.800000000000000058e-02 5.885190000000000143e-01 8.712650000000001782e-01 7.253249999999999886e+01 1.397259999999999991e+03
2.900000000000000147e-02 5.881830000000000114e-01 1.526759999999999895e+00 7.132285000000000252e+01 1.396799999999999955e+03
3.000000000000000236e-02 5.878544999999999465e-01 2.213769999999999794e+00 7.013689999999999714e+01 1.396349999999999909e+03
3.099999999999999978e-02 5.875215000000000298e-01 2.898209999999999731e+00 6.895905000000000484e+01 1.395904999999999973e+03
3.200000000000000067e-02 5.871684999999999821e-01 3.534124999999999517e+00 6.775379999999999825e+01 1.395450000000000045e+03
3.300000000000000155e-02 5.867769999999999930e-01 4.071680000000000632e+00 6.647265000000000157e+01 1.394970000000000027e+03
3.400000000000000244e-02 5.863310000000000466e-01 4.466059999999999697e+00 6.506515000000000271e+01 1.394460000000000036e+03
3.500000000000000333e-02 5.858225000000000238e-01 4.685584999999999667e+00 6.349009999999999820e+01 1.393909999999999854e+03
3.600000000000000422e-02 5.852494999999999781e-01 4.717789999999999928e+00 6.172605000000000075e+01 1.393304999999999836e+03
3.700000000000000511e-02 5.846219999999999750e-01 4.571564999999999657e+00 5.977795000000000414e+01 1.392644999999999982e+03
3.799999999999999906e-02 5.839570000000000594e-01 4.275714999999999932e+00 5.767889999999999873e+01 1.391945000000000164e+03
3.899999999999999994e-02 5.832775000000000043e-01 3.873854999999999826e+00 5.548689999999999856e+01 1.391214999999999918e+03
4.000000000000000083e-02 5.826105000000000311e-01 3.417530000000000179e+00 5.327729999999999677e+01 1.390470000000000027e+03
4.100000000000000172e-02 5.819805000000000117e-01 2.959410000000000096e+00 5.113439999999999941e+01 1.389744999999999891e+03
4.200000000000000261e-02 5.814099999999999824e-01 2.547164999999999679e+00 4.914109999999999445e+01 1.389054999999999836e+03
4.300000000000000350e-02 5.809180000000000454e-01 2.219734999999999570e+00 4.737239999999999895e+01 1.388424999999999955e+03
4.400000000000000439e-02 5.805164999999999909e-01 2.005590000000000206e+00 4.588900000000000290e+01 1.387880000000000109e+03
4.499999999999999833e-02 5.802129999999999788e-01 1.922700000000000298e+00 4.473505000000000109e+01 1.387434999999999945e+03
4.599999999999999922e-02 5.800104999999999844e-01 1.980150000000000077e+00 4.393760000000000332e+01 1.387090000000000146e+03
4.700000000000000011e-02 5.799094999999999667e-01 2.180389749999999793e+00 4.350820000000000221e+01 1.386869999999999891e+03
4.800000000000000100e-02 5.799060000000000326e-01 2.521840000000000082e+00 4.344574999999999676e+01 1.386769999999999982e+03
4.900000000000000189e-02 5.799969999999999848e-01 3.001109999999999722e+00 4.374020000000000152e+01 1.386789999999999964e+03
5.000000000000000278e-02 5.801779999999999715e-01 3.614600000000000257e+00 4.437590000000000146e+01 1.386920000000000073e+03
5.100000000000000366e-02 5.804449999999999887e-01 4.359185000000000088e+00 4.533420000000000272e+01 1.387164999999999964e+03
5.200000000000000455e-02 5.807934999999999626e-01 5.232065000000000410e+00 4.659525000000000006e+01 1.387519999999999982e+03
5.300000000000000544e-02 5.812190000000000412e-01 6.229945000000000732e+00 4.813855000000000217e+01 1.387969999999999800e+03
5.399999999999999939e-02 5.817155000000000520e-01 7.347830000000000084e+00 4.994249999999999545e+01 1.388514999999999873e+03
5.500000000000000028e-02 5.822775000000000034e-01 8.578034999999999854e+00 5.198385000000000389e+01 1.389150000000000091e+03
5.600000000000000117e-02 5.828974999999999573e-01 9.909489999999999910e+00 5.423669999999999902e+01 1.389860000000000127e+03
5.700000000000000205e-02 5.835669999999999469e-01 1.132738999999999940e+01 5.667215000000000202e+01 1.390639999999999873e+03
5.800000000000000294e-02 5.842760000000000176e-01 1.281351000000000084e+01 5.925815000000000055e+01 1.391474999999999909e+03
5.900000000000000383e-02 5.850149999999999517e-01 1.434721000000000046e+01 6.196020000000000039e+01 1.392360000000000127e+03
6.000000000000000472e-02 5.857719999999999594e-01 1.590629000000000026e+01 6.474245000000000516e+01 1.393284999999999854e+03
6.099999999999999867e-02 5.865384999999999627e-01 1.746858500000000092e+01 6.756889999999999930e+01 1.394235000000000127e+03
6.199999999999999956e-02 5.873040000000000482e-01 1.901295000000000002e+01 7.040534999999999854e+01 1.395200000000000045e+03
6.300000000000000044e-02 5.880609999999999449e-01 2.052045000000000030e+01 7.322074999999999534e+01 1.396164999999999964e+03
6.400000000000000133e-02 5.888029999999999653e-01 2.197514999999999930e+01 7.598859999999999104e+01 1.397125000000000000e+03
6.500000000000000222e-02 5.895255000000000356e-01 2.336464999999999748e+01 7.868784999999999741e+01 1.398079999999999927e+03
6.600000000000000311e-02 5.902244999999999298e-01 2.468010000000000304e+01 8.130355000000000132e+01 1.399005000000000109e+03
6.700000000000000400e-02 5.908999999999999808e-01 2.591624999999999801e+01 8.382675000000000409e+01 1.399909999999999854e+03
6.800000000000000488e-02 5.915515000000000079e-01 2.707094999999999985e+01 8.625434999999998809e+01 1.400789999999999964e+03
6.900000000000000577e-02 5.921804999999999986e-01 2.814475000000000193e+01 8.858820000000000050e+01 1.401644999999999982e+03
7.000000000000000666e-02 5.927890000000000104e-01 2.914045000000000130e+01 9.083459999999999468e+01 1.402464999999999918e+03
7.100000000000000755e-02 5.933804999999999774e-01 3.006255000000000166e+01 9.300305000000000177e+01 1.403269999999999982e+03
7.200000000000000844e-02 5.939579999999999860e-01 3.091645000000000110e+01 9.510465000000000657e+01 1.404049999999999955e+03
7.300000000000000933e-02 5.945245000000000113e-01 3.170834999999999937e+01 9.715234999999999843e+01 1.404809999999999945e+03
7.399999999999999634e-02 5.950834999999999875e-01 3.244460000000000122e+01 9.915964999999999918e+01 1.405555000000000064e+03
7.499999999999999722e-02 5.956380000000000008e-01 3.313139999999999930e+01 1.011380000000000052e+02 1.406295000000000073e+03
7.599999999999999811e-02 5.961910000000000265e-01 3.377420000000000044e+01 1.030978499999999940e+02 1.407019999999999982e+03
7.699999999999999900e-02 5.967434999999999823e-01 3.437770000000000437e+01 1.050485000000000042e+02 1.407740000000000009e+03
7.799999999999999989e-02 5.972959999999999381e-01 3.494535000000000480e+01 1.069945000000000022e+02 1.408465000000000146e+03
7.900000000000000078e-02 5.978495000000000337e-01 3.547910000000000252e+01 1.089379999999999882e+02 1.409179999999999836e+03
8.000000000000000167e-02 5.984024999999999483e-01 3.597934999999999661e+01 1.108789999999999907e+02 1.409894999999999982e+03
8.100000000000000255e-02 5.989535000000000275e-01 3.644504999999999484e+01 1.128110000000000070e+02 1.410605000000000018e+03
8.200000000000000344e-02 5.994990000000000041e-01 3.687364999999999782e+01 1.147270000000000039e+02 1.411315000000000055e+03
8.300000000000000433e-02 6.000360000000000138e-01 3.726115000000000066e+01 1.166159999999999997e+02 1.412014999999999873e+03
8.400000000000000522e-02 6.005609999999999005e-01 3.760275000000000034e+01 1.184634999999999962e+02 1.412694999999999936e+03
8.500000000000000611e-02 6.010685000000000056e-01 3.789289999999999736e+01 1.202554999999999978e+02 1.413364999999999782e+03
8.600000000000000699e-02 6.015544999999999920e-01 3.812584999999999980e+01 1.219759999999999991e+02 1.414014999999999873e+03
8.700000000000000788e-02 6.020159999999999956e-01 3.829565000000000197e+01 1.236080000000000041e+02 1.414625000000000000e+03
8.800000000000000877e-02 6.024464999999999959e-01 3.839724999999999966e+01 1.251374999999999886e+02 1.415215000000000146e+03
8.899999999999999578e-02 6.028439999999999355e-01 3.842600000000000193e+01 1.265494999999999948e+02 1.415755000000000109e+03
8.999999999999999667e-02 6.032044999999999213e-01 3.837845000000000084e+01 1.278325000000000102e+02 1.416259999999999991e+03
9.099999999999999756e-02 6.035270000000000357e-01 3.825220000000000198e+01 1.289775000000000205e+02 1.416715000000000146e+03
9.199999999999999845e-02 6.038090000000000401e-01 3.804645000000000010e+01 1.299764999999999873e+02 1.417119999999999891e+03
9.299999999999999933e-02 6.040510000000000046e-01 3.776160000000000139e+01 1.308265000000000100e+02 1.417480000000000018e+03
9.400000000000000022e-02 6.042509999999999826e-01 3.739959999999999951e+01 1.315269999999999868e+02 1.417779999999999973e+03
9.500000000000000111e-02 6.044119999999999493e-01 3.696385000000000076e+01 1.320805000000000007e+02 1.418034999999999854e+03
9.600000000000000200e-02 6.045339999999999048e-01 3.645874999999999488e+01 1.324904999999999973e+02 1.418235000000000127e+03
9.700000000000000289e-02 6.046205000000000052e-01 3.589039999999999964e+01 1.327669999999999959e+02 1.418389999999999873e+03
9.800000000000000377e-02 6.046739999999999338e-01 3.526550000000000296e+01 1.329184999999999945e+02 1.418494999999999891e+03
9.900000000000000466e-02 6.046974999999999989e-01 3.459179999999999922e+01 1.329574999999999818e+02 1.418559999999999945e+03
1.000000000000000056e-01 6.046945000000000237e-01 3.387765000000000271e+01 1.328969999999999914e+02 1.418585000000000036e+03
1.010000000000000064e-01 6.046694999999999709e-01 3.313179999999999836e+01 1.327514999999999930e+02 1.418569999999999936e+03
1.020000000000000073e-01 6.046259999999999968e-01 3.236325000000000074e+01 1.325355000000000132e+02 1.418534999999999854e+03
1.030000000000000082e-01 6.045685000000000642e-01 3.158089999999999975e+01 1.322644999999999982e+02 1.418474999999999909e+03
1.040000000000000091e-01 6.045000000000000373e-01 3.079334999999999667e+01 1.319525000000000148e+02 1.418389999999999873e+03
1.050000000000000100e-01 6.044244999999999202e-01 3.000865000000000293e+01 1.316134999999999877e+02 1.418295000000000073e+03
1.059999999999999970e-01 6.043460000000000498e-01 2.923405000000000342e+01 1.312604999999999791e+02 1.418190000000000055e+03
1.069999999999999979e-01 6.042659999999999698e-01 2.847579999999999956e+01 1.309045000000000130e+02 1.418075000000000045e+03
1.079999999999999988e-01 6.041874999999999885e-01 2.773920000000000030e+01 1.305550000000000068e+02 1.417960000000000036e+03
1.089999999999999997e-01 6.041125000000000522e-01 2.702800000000000225e+01 1.302185000000000059e+02 1.417849999999999909e+03
1.100000000000000006e-01 6.040415000000000090e-01 2.634490000000000265e+01 1.299004999999999939e+02 1.417740000000000009e+03
1.110000000000000014e-01 6.039750000000000396e-01 2.569089999999999918e+01 1.296040000000000134e+02 1.417634999999999991e+03
1.120000000000000023e-01 6.039134999999999920e-01 2.506604999999999706e+01 1.293305000000000007e+02 1.417529999999999973e+03
1.130000000000000032e-01 6.038554999999999895e-01 2.446889999999999787e+01 1.290769999999999982e+02 1.417434999999999945e+03
1.140000000000000041e-01 6.038010000000000321e-01 2.389699999999999847e+01 1.288410000000000082e+02 1.417345000000000027e+03
1.150000000000000050e-01 6.037474999999999925e-01 2.334689999999999799e+01 1.286175000000000068e+02 1.417255000000000109e+03
1.160000000000000059e-01 6.036945000000000228e-01 2.281454999999999700e+01 1.284010000000000105e+02 1.417170000000000073e+03
1.170000000000000068e-01 6.036390000000000366e-01 2.229534999999999911e+01 1.281834999999999809e+02 1.417090000000000146e+03
1.180000000000000077e-01 6.035789999999999766e-01 2.178434999999999988e+01 1.279574999999999960e+02 1.417000000000000000e+03
1.190000000000000085e-01 6.035135000000000360e-01 2.127655000000000030e+01 1.277160000000000082e+02 1.416914999999999964e+03
1.200000000000000094e-01 6.034389999999999477e-01 2.076715000000000089e+01 1.274519999999999982e+02 1.416815000000000055e+03
1.209999999999999964e-01 6.033550000000000857e-01 2.025159999999999982e+01 1.271569999999999965e+02 1.416710000000000036e+03
1.219999999999999973e-01 6.032600000000000184e-01 1.972599999999999909e+01 1.268269999999999982e+02 1.416589999999999918e+03
1.229999999999999982e-01 6.031530000000000502e-01 1.918704999999999927e+01 1.264555000000000007e+02 1.416460000000000036e+03
1.239999999999999991e-01 6.030325000000000824e-01 1.863214999999999932e+01 1.260399999999999920e+02 1.416320000000000164e+03
1.250000000000000000e-01 6.028989999999999627e-01 1.805975000000000108e+01 1.255780000000000030e+02 1.416159999999999854e+03
1.260000000000000009e-01 6.027525000000000244e-01 1.746909999999999741e+01 1.250695000000000050e+02 1.415985000000000127e+03
1.270000000000000018e-01 6.025929999999999342e-01 1.686054999999999993e+01 1.245159999999999911e+02 1.415799999999999955e+03
1.280000000000000027e-01 6.024229999999999308e-01 1.623535000000000039e+01 1.239194999999999993e+02 1.415595000000000027e+03
1.290000000000000036e-01 6.022425000000000139e-01 1.559570000000000078e+01 1.232849999999999966e+02 1.415375000000000000e+03
1.300000000000000044e-01 6.020539999999999781e-01 1.494464999999999932e+01 1.226175000000000068e+02 1.415150000000000091e+03
1.310000000000000053e-01 6.018589999999999218e-01 1.428615999999999886e+01 1.219244999999999948e+02 1.414910000000000082e+03
1.320000000000000062e-01 6.016605000000000425e-01 1.362471499999999835e+01 1.212145000000000010e+02 1.414664999999999964e+03
1.330000000000000071e-01 6.014604999999999535e-01 1.296532999999999980e+01 1.204960000000000093e+02 1.414420000000000073e+03
1.340000000000000080e-01 6.012619999999999632e-01 1.231342500000000051e+01 1.197785000000000082e+02 1.414164999999999964e+03
1.350000000000000089e-01 6.010679999999999357e-01 1.167463000000000051e+01 1.190709999999999980e+02 1.413914999999999964e+03
1.360000000000000098e-01 6.008795000000000108e-01 1.105455999999999861e+01 1.183829999999999956e+02 1.413670000000000073e+03
1.370000000000000107e-01 6.007009999999999295e-01 1.045862499999999962e+01 1.177239999999999895e+02 1.413434999999999945e+03
1.380000000000000115e-01 6.005329999999999835e-01 9.891915000000000902e+00 1.171020000000000039e+02 1.413204999999999927e+03
1.390000000000000124e-01 6.003785000000000371e-01 9.359014999999999418e+00 1.165250000000000057e+02 1.412990000000000009e+03
1.400000000000000133e-01 6.002389999999999670e-01 8.863875000000000171e+00 1.159994999999999976e+02 1.412795000000000073e+03
1.410000000000000142e-01 6.001155000000000239e-01 8.409684999999999633e+00 1.155300000000000011e+02 1.412615000000000009e+03
1.420000000000000151e-01 6.000084999999999447e-01 7.998804999999999943e+00 1.151200000000000045e+02 1.412449999999999818e+03
1.430000000000000160e-01 5.999190000000000911e-01 7.632559999999999789e+00 1.147719999999999914e+02 1.412309999999999945e+03
1.440000000000000169e-01 5.998464999999999492e-01 7.311469999999999914e+00 1.144865000000000066e+02 1.412190000000000055e+03
1.450000000000000178e-01 5.997900000000000453e-01 7.035115000000000229e+00 1.142620000000000005e+02 1.412089999999999918e+03
1.459999999999999909e-01 5.997489999999999766e-01 6.802159999999999762e+00 1.140960000000000036e+02 1.412009999999999991e+03
1.469999999999999918e-01 5.997235000000000760e-01 6.610504999999999853e+00 1.139849999999999994e+02 1.411950000000000045e+03
1.479999999999999927e-01 5.997099999999999653e-01 6.457324999999999982e+00 1.139230000000000018e+02 1.411909999999999854e+03
1.489999999999999936e-01 5.997075000000000600e-01 6.339220000000000077e+00 1.139054999999999893e+02 1.411880000000000109e+03
1.499999999999999944e-01 5.997149999999999981e-01 6.252359999999999474e+00 1.139250000000000114e+02 1.411869999999999891e+03
1.509999999999999953e-01 5.997289999999999566e-01 6.192600000000000549e+00 1.139745000000000061e+02 1.411864999999999782e+03
1.519999999999999962e-01 5.997489999999999766e-01 6.155625000000000568e+00 1.140469999999999970e+02 1.411875000000000000e+03
1.529999999999999971e-01 5.997719999999999718e-01 6.137109999999999843e+00 1.141349999999999909e+02 1.411894999999999982e+03
1.539999999999999980e-01 5.997970000000000246e-01 6.132804999999999396e+00 1.142325000000000017e+02 1.411914999999999964e+03
1.549999999999999989e-01 5.998220000000000773e-01 6.138690000000000424e+00 1.143325000000000102e+02 1.411940000000000055e+03
1.559999999999999998e-01 5.998455000000000314e-01 6.151040000000000063e+00 1.144304999999999950e+02 1.411970000000000027e+03
1.570000000000000007e-01 5.998664999999999692e-01 6.166494999999999393e+00 1.145200000000000102e+02 1.411990000000000009e+03
1.580000000000000016e-01 5.998839999999999728e-01 6.182145000000000223e+00 1.145980000000000132e+02 1.412014999999999873e+03
1.590000000000000024e-01 5.998974999999999724e-01 6.195534999999999570e+00 1.146614999999999895e+02 1.412034999999999854e+03
