# t [s], A [cm^2], U [cm/s], P [cPa], c [cm/s]
1.000000000000000021e-03 1.767730000000000135e-01 2.531450000000000089e-01 9.860099999999999909e+01 2.308680000000000291e+03
2.000000000000000042e-03 1.767305000000000126e-01 1.643452499999999983e+00 9.526200000000000045e+01 2.308269999999999982e+03
3.000000000000000062e-03 1.766179999999999972e-01 3.399885999999999964e+00 9.052835000000000321e+01 2.307224999999999909e+03
4.000000000000000083e-03 1.764649999999999830e-01 5.400966000000000378e+00 8.534690000000000509e+01 2.305835000000000036e+03
5.000000000000000104e-03 1.763040000000000163e-01 7.566589999999999705e+00 8.070820000000000505e+01 2.304375000000000000e+03
6.000000000000000125e-03 1.761500000000000010e-01 9.695389999999999731e+00 7.690315000000001078e+01 2.303000000000000000e+03
7.000000000000000146e-03 1.760059999999999958e-01 1.155722000000000094e+01 7.361095000000000255e+01 2.301744999999999891e+03
8.000000000000000167e-03 1.758744999999999892e-01 1.309359000000000073e+01 7.064310000000000400e+01 2.300619999999999891e+03
9.000000000000001055e-03 1.757620000000000016e-01 1.435320000000000107e+01 6.811964999999999293e+01 2.299670000000000073e+03
1.000000000000000194e-02 1.756689999999999918e-01 1.536694999999999922e+01 6.611420000000001096e+01 2.298889999999999873e+03
1.099999999999999936e-02 1.755950000000000011e-01 1.614900000000000091e+01 6.458369999999999322e+01 2.298279999999999745e+03
1.200000000000000025e-02 1.755369999999999986e-01 1.670019999999999882e+01 6.341020000000000323e+01 2.297815000000000055e+03
1.300000000000000114e-02 1.754900000000000071e-01 1.701534999999999798e+01 6.241324999999999790e+01 2.297444999999999709e+03
1.400000000000000203e-02 1.754505000000000092e-01 1.713960000000000150e+01 6.150395000000000323e+01 2.297140000000000327e+03
1.499999999999999944e-02 1.754215000000000080e-01 1.721065000000000111e+01 6.088130000000000308e+01 2.296914999999999964e+03
1.600000000000000033e-02 1.754114999999999980e-01 1.741244999999999976e+01 6.099450000000000216e+01 2.296845000000000255e+03
1.700000000000000122e-02 1.754304999999999892e-01 1.787160000000000082e+01 6.224684999999999491e+01 2.297005000000000109e+03
1.800000000000000211e-02 1.754815000000000125e-01 1.858129999999999882e+01 6.468595000000000539e+01 2.297434999999999945e+03
1.900000000000000300e-02 1.755575000000000052e-01 1.940444999999999709e+01 6.790720000000000312e+01 2.298069999999999709e+03
2.000000000000000042e-02 1.756439999999999946e-01 2.014185000000000159e+01 7.121000000000000796e+01 2.298809999999999945e+03
2.100000000000000130e-02 1.757245000000000057e-01 2.061959999999999837e+01 7.388625000000000398e+01 2.299510000000000218e+03
2.200000000000000219e-02 1.757865000000000122e-01 2.075200000000000244e+01 7.548139999999999361e+01 2.300059999999999945e+03
2.299999999999999961e-02 1.758220000000000061e-01 2.055819999999999936e+01 7.591874999999998863e+01 2.300394999999999982e+03
2.400000000000000050e-02 1.758335000000000037e-01 2.013374999999999915e+01 7.545615000000000805e+01 2.300515000000000327e+03
2.500000000000000139e-02 1.758279999999999843e-01 1.959790000000000276e+01 7.452119999999999322e+01 2.300485000000000127e+03
2.600000000000000228e-02 1.758135000000000114e-01 1.904129999999999967e+01 7.351210000000000377e+01 2.300369999999999891e+03
2.700000000000000316e-02 1.757965000000000222e-01 1.849645000000000294e+01 7.264905000000000257e+01 2.300230000000000018e+03
2.800000000000000058e-02 1.757790000000000186e-01 1.793735000000000213e+01 7.192775000000000318e+01 2.300079999999999927e+03
2.900000000000000147e-02 1.757595000000000129e-01 1.730509999999999948e+01 7.117305000000000348e+01 2.299914999999999964e+03
3.000000000000000236e-02 1.757340000000000013e-01 1.654384999999999906e+01 7.015780000000000882e+01 2.299704999999999927e+03
3.099999999999999978e-02 1.756985000000000074e-01 1.563540000000000063e+01 6.873359999999999559e+01 2.299409999999999854e+03
3.200000000000000067e-02 1.756524999999999892e-01 1.461754999999999960e+01 6.692400000000000659e+01 2.299029999999999745e+03
3.300000000000000155e-02 1.756000000000000061e-01 1.358129999999999882e+01 6.494700000000000273e+01 2.298590000000000146e+03
3.400000000000000244e-02 1.755484999999999962e-01 1.264739999999999931e+01 6.315980000000000416e+01 2.298144999999999982e+03
3.500000000000000333e-02 1.755059999999999953e-01 1.193125000000000036e+01 6.194835000000000491e+01 2.297784999999999854e+03
3.600000000000000422e-02 1.754824999999999857e-01 1.150965000000000060e+01 6.160495000000000232e+01 2.297569999999999709e+03
3.700000000000000511e-02 1.754819999999999991e-01 1.139995000000000047e+01 6.223799999999999955e+01 2.297545000000000073e+03
3.799999999999999906e-02 1.755055000000000087e-01 1.155794999999999995e+01 6.374049999999999727e+01 2.297725000000000364e+03
3.899999999999999994e-02 1.755484999999999962e-01 1.189095000000000013e+01 6.582150000000000034e+01 2.298070000000000164e+03
4.000000000000000083e-02 1.756030000000000091e-01 1.228164999999999907e+01 6.808214999999999861e+01 2.298519999999999982e+03
4.100000000000000172e-02 1.756584999999999952e-01 1.261329999999999885e+01 7.010769999999999413e+01 2.298985000000000127e+03
4.200000000000000261e-02 1.757050000000000001e-01 1.279039999999999999e+01 7.155115000000000691e+01 2.299385000000000218e+03
4.300000000000000350e-02 1.757354999999999889e-01 1.275040000000000084e+01 7.218614999999999782e+01 2.299659999999999854e+03
4.400000000000000439e-02 1.757454999999999989e-01 1.246664999999999957e+01 7.192529999999999291e+01 2.299755000000000109e+03
4.499999999999999833e-02 1.757330000000000003e-01 1.194290000000000163e+01 7.080465000000000941e+01 2.299654999999999745e+03
4.599999999999999922e-02 1.756984999999999797e-01 1.120344500000000032e+01 6.894659999999998945e+01 2.299375000000000000e+03
4.700000000000000011e-02 1.756444999999999812e-01 1.028285499999999963e+01 6.651559999999999206e+01 2.298929999999999836e+03
4.800000000000000100e-02 1.755760000000000098e-01 9.217909999999999826e+00 6.367924999999999613e+01 2.298349999999999909e+03
4.900000000000000189e-02 1.754950000000000121e-01 8.042780000000000484e+00 6.058369999999999322e+01 2.297670000000000073e+03
5.000000000000000278e-02 1.754064999999999930e-01 6.788735000000000852e+00 5.734530000000000172e+01 2.296920000000000073e+03
5.100000000000000366e-02 1.753129999999999966e-01 5.485924999999999940e+00 5.405590000000000117e+01 2.296125000000000000e+03
5.200000000000000455e-02 1.752170000000000116e-01 4.166690000000000005e+00 5.079605000000000103e+01 2.295309999999999945e+03
5.300000000000000544e-02 1.751214999999999855e-01 2.868266499999999830e+00 4.764900000000000091e+01 2.294500000000000000e+03
5.399999999999999939e-02 1.750289999999999901e-01 1.634015000000000217e+00 4.471139999999999759e+01 2.293704999999999927e+03
5.500000000000000028e-02 1.749434999999999740e-01 5.126549999999999718e-01 4.209619999999999607e+01 2.292975000000000364e+03
5.600000000000000117e-02 1.748675000000000090e-01 -4.443949999999999845e-01 3.992864999999999753e+01 2.292319999999999709e+03
5.700000000000000205e-02 1.748049999999999882e-01 -1.187015000000000153e+00 3.833624999999999972e+01 2.291775000000000091e+03
5.800000000000000294e-02 1.747609999999999997e-01 -1.670819000000000054e+00 3.743469999999999942e+01 2.291375000000000000e+03
5.900000000000000383e-02 1.747360000000000024e-01 -1.861315000000000053e+00 3.731454999999999700e+01 2.291150000000000091e+03
6.000000000000000472e-02 1.747345000000000148e-01 -1.737004999999999910e+00 3.803069999999999595e+01 2.291114999999999782e+03
6.099999999999999867e-02 1.747565000000000091e-01 -1.291115000000000013e+00 3.959555000000000291e+01 2.291279999999999745e+03
6.199999999999999956e-02 1.748029999999999862e-01 -5.317999999999999394e-01 4.197785000000000366e+01 2.291649999999999636e+03
6.300000000000000044e-02 1.748719999999999997e-01 5.189300000000000024e-01 4.510660000000000025e+01 2.292220000000000255e+03
6.400000000000000133e-02 1.749625000000000208e-01 1.827425000000000077e+00 4.887810000000000343e+01 2.292974999999999909e+03
6.500000000000000222e-02 1.750720000000000054e-01 3.351318749999999902e+00 5.316559999999999775e+01 2.293880000000000109e+03
6.600000000000000311e-02 1.751955000000000040e-01 5.042920000000000513e+00 5.783089999999999975e+01 2.294925000000000182e+03
6.700000000000000400e-02 1.753310000000000146e-01 6.852750000000000341e+00 6.273539999999999850e+01 2.296065000000000055e+03
6.800000000000000488e-02 1.754729999999999901e-01 8.732979999999999521e+00 6.775090000000000146e+01 2.297275000000000091e+03
6.900000000000000577e-02 1.756194999999999840e-01 1.064027499999999904e+01 7.276810000000000400e+01 2.298519999999999982e+03
7.000000000000000666e-02 1.757670000000000066e-01 1.253815999999999953e+01 7.770284999999999798e+01 2.299784999999999854e+03
7.100000000000000755e-02 1.759129999999999860e-01 1.439819999999999922e+01 8.249949999999999761e+01 2.301039999999999964e+03
7.200000000000000844e-02 1.760565000000000047e-01 1.620064999999999955e+01 8.713050000000001205e+01 2.302275000000000091e+03
7.300000000000000933e-02 1.761964999999999781e-01 1.793359999999999843e+01 9.159295000000000186e+01 2.303485000000000127e+03
7.399999999999999634e-02 1.763325000000000031e-01 1.959190000000000254e+01 9.590285000000000082e+01 2.304664999999999964e+03
7.499999999999999722e-02 1.764654999999999974e-01 2.117530000000000001e+01 1.000886999999999887e+02 2.305819999999999709e+03
7.599999999999999811e-02 1.765960000000000030e-01 2.268665000000000020e+01 1.041830499999999944e+02 2.306945000000000164e+03
7.699999999999999900e-02 1.767235000000000056e-01 2.412999999999999901e+01 1.082160000000000082e+02 2.308065000000000055e+03
7.799999999999999989e-02 1.768500000000000072e-01 2.550954999999999728e+01 1.122120000000000033e+02 2.309164999999999964e+03
7.900000000000000078e-02 1.769755000000000078e-01 2.682824999999999704e+01 1.161860000000000070e+02 2.310255000000000109e+03
8.000000000000000167e-02 1.771004999999999940e-01 2.808755000000000024e+01 1.201415000000000077e+02 2.311345000000000255e+03
8.100000000000000255e-02 1.772245000000000070e-01 2.928730000000000189e+01 1.240725000000000051e+02 2.312430000000000291e+03
8.200000000000000344e-02 1.773474999999999913e-01 3.042559999999999576e+01 1.279660000000000082e+02 2.313505000000000109e+03
8.300000000000000433e-02 1.774695000000000022e-01 3.149904999999999688e+01 1.318004999999999995e+02 2.314564999999999600e+03
8.400000000000000522e-02 1.775889999999999969e-01 3.250300000000000011e+01 1.355525000000000091e+02 2.315619999999999891e+03
8.500000000000000611e-02 1.777060000000000028e-01 3.343155000000000143e+01 1.391940000000000168e+02 2.316639999999999873e+03
8.600000000000000699e-02 1.778200000000000058e-01 3.427785000000000082e+01 1.426940000000000168e+02 2.317640000000000327e+03
8.700000000000000788e-02 1.779290000000000038e-01 3.503419999999999845e+01 1.460225000000000080e+02 2.318595000000000255e+03
8.800000000000000877e-02 1.780329999999999968e-01 3.569230000000000302e+01 1.491474999999999795e+02 2.319510000000000218e+03
8.899999999999999578e-02 1.781304999999999972e-01 3.624365000000000236e+01 1.520380000000000109e+02 2.320369999999999891e+03
8.999999999999999667e-02 1.782210000000000183e-01 3.668005000000000138e+01 1.546639999999999873e+02 2.321170000000000073e+03
9.099999999999999756e-02 1.783035000000000037e-01 3.699419999999999931e+01 1.570000000000000000e+02 2.321899999999999636e+03
9.199999999999999845e-02 1.783774999999999944e-01 3.718054999999999666e+01 1.590235000000000127e+02 2.322550000000000182e+03
9.299999999999999933e-02 1.784414999999999751e-01 3.723559999999999803e+01 1.607210000000000036e+02 2.323125000000000000e+03
9.400000000000000022e-02 1.784959999999999880e-01 3.715895000000000437e+01 1.620869999999999891e+02 2.323614999999999782e+03
9.500000000000000111e-02 1.785410000000000053e-01 3.695340000000000202e+01 1.631245000000000118e+02 2.324014999999999873e+03
9.600000000000000200e-02 1.785760000000000125e-01 3.662510000000000332e+01 1.638480000000000132e+02 2.324335000000000036e+03
9.700000000000000289e-02 1.786019999999999830e-01 3.618339999999999890e+01 1.642800000000000011e+02 2.324574999999999818e+03
9.800000000000000377e-02 1.786190000000000000e-01 3.564060000000000628e+01 1.644515000000000100e+02 2.324730000000000018e+03
9.900000000000000466e-02 1.786284999999999956e-01 3.501099999999999568e+01 1.643994999999999891e+02 2.324824999999999818e+03
1.000000000000000056e-01 1.786314999999999986e-01 3.431069999999999709e+01 1.641650000000000205e+02 2.324859999999999673e+03
1.010000000000000064e-01 1.786284999999999956e-01 3.355630000000000024e+01 1.637899999999999920e+02 2.324845000000000255e+03
1.020000000000000073e-01 1.786210000000000020e-01 3.276435000000000031e+01 1.633160000000000025e+02 2.324784999999999854e+03
1.030000000000000082e-01 1.786105000000000054e-01 3.195074999999999932e+01 1.627789999999999964e+02 2.324695000000000164e+03
1.040000000000000091e-01 1.785979999999999790e-01 3.112979999999999947e+01 1.622135000000000105e+02 2.324590000000000146e+03
1.050000000000000100e-01 1.785840000000000205e-01 3.031405000000000172e+01 1.616465000000000032e+02 2.324469999999999800e+03
1.059999999999999970e-01 1.785694999999999921e-01 2.951350000000000051e+01 1.610980000000000132e+02 2.324345000000000255e+03
1.069999999999999979e-01 1.785550000000000193e-01 2.873559999999999803e+01 1.605815000000000055e+02 2.324220000000000255e+03
1.079999999999999988e-01 1.785414999999999919e-01 2.798515000000000086e+01 1.601014999999999873e+02 2.324095000000000255e+03
1.089999999999999997e-01 1.785280000000000200e-01 2.726395000000000124e+01 1.596580000000000155e+02 2.323980000000000018e+03
1.100000000000000006e-01 1.785154999999999936e-01 2.657144999999999868e+01 1.592419999999999902e+02 2.323860000000000127e+03
1.110000000000000014e-01 1.785030000000000228e-01 2.590429999999999922e+01 1.588404999999999916e+02 2.323750000000000000e+03
1.120000000000000023e-01 1.784904999999999964e-01 2.525744999999999862e+01 1.584350000000000023e+02 2.323644999999999982e+03
1.130000000000000032e-01 1.784779999999999978e-01 2.462424999999999997e+01 1.580049999999999955e+02 2.323524999999999636e+03
1.140000000000000041e-01 1.784640000000000115e-01 2.399705000000000155e+01 1.575274999999999750e+02 2.323404999999999745e+03
1.150000000000000050e-01 1.784489999999999965e-01 2.336759999999999948e+01 1.569805000000000064e+02 2.323269999999999982e+03
1.160000000000000059e-01 1.784310000000000063e-01 2.272809999999999775e+01 1.563419999999999845e+02 2.323114999999999782e+03
1.170000000000000068e-01 1.784104999999999996e-01 2.207144999999999868e+01 1.555949999999999989e+02 2.322939999999999600e+03
1.180000000000000077e-01 1.783870000000000178e-01 2.139179999999999993e+01 1.547259999999999991e+02 2.322729999999999563e+03
1.190000000000000085e-01 1.783595000000000041e-01 2.068524999999999991e+01 1.537274999999999920e+02 2.322489999999999782e+03
1.200000000000000094e-01 1.783285000000000009e-01 1.994995000000000118e+01 1.525980000000000132e+02 2.322225000000000364e+03
1.209999999999999964e-01 1.782940000000000080e-01 1.918659999999999854e+01 1.513439999999999941e+02 2.321920000000000073e+03
1.219999999999999973e-01 1.782555000000000112e-01 1.839819999999999922e+01 1.499775000000000205e+02 2.321590000000000146e+03
1.229999999999999982e-01 1.782139999999999835e-01 1.759019999999999939e+01 1.485185000000000173e+02 2.321230000000000018e+03
1.239999999999999991e-01 1.781699999999999950e-01 1.677035000000000053e+01 1.469904999999999973e+02 2.320844999999999800e+03
1.250000000000000000e-01 1.781240000000000046e-01 1.594795000000000051e+01 1.454240000000000066e+02 2.320444999999999709e+03
1.260000000000000009e-01 1.780769999999999853e-01 1.513364999999999938e+01 1.438499999999999943e+02 2.320034999999999854e+03
1.270000000000000018e-01 1.780300000000000216e-01 1.433864999999999945e+01 1.423020000000000209e+02 2.319625000000000000e+03
1.280000000000000027e-01 1.779835000000000167e-01 1.357424999999999926e+01 1.408120000000000118e+02 2.319225000000000364e+03
1.290000000000000036e-01 1.779390000000000138e-01 1.285089999999999932e+01 1.394094999999999800e+02 2.318829999999999927e+03
1.300000000000000044e-01 1.778969999999999996e-01 1.217820000000000036e+01 1.381189999999999998e+02 2.318460000000000036e+03
1.310000000000000053e-01 1.778580000000000161e-01 1.156395999999999979e+01 1.369604999999999961e+02 2.318119999999999891e+03
1.320000000000000062e-01 1.778230000000000088e-01 1.101402999999999999e+01 1.359495000000000005e+02 2.317809999999999945e+03
1.330000000000000071e-01 1.777920000000000056e-01 1.053220500000000115e+01 1.350919999999999845e+02 2.317534999999999854e+03
1.340000000000000080e-01 1.777650000000000063e-01 1.012027499999999947e+01 1.343919999999999959e+02 2.317295000000000073e+03
1.350000000000000089e-01 1.777429999999999843e-01 9.777820000000000178e+00 1.338439999999999941e+02 2.317095000000000255e+03
1.360000000000000098e-01 1.777250000000000218e-01 9.502715000000000245e+00 1.334420000000000073e+02 2.316930000000000291e+03
1.370000000000000107e-01 1.777114999999999945e-01 9.291024999999999423e+00 1.331730000000000018e+02 2.316810000000000400e+03
1.380000000000000115e-01 1.777019999999999988e-01 9.137679999999999580e+00 1.330225000000000080e+02 2.316715000000000146e+03
1.390000000000000124e-01 1.776955000000000062e-01 9.036455000000000126e+00 1.329745000000000061e+02 2.316654999999999745e+03
1.400000000000000133e-01 1.776920000000000166e-01 8.980449999999999378e+00 1.330109999999999957e+02 2.316625000000000000e+03
1.410000000000000142e-01 1.776915000000000022e-01 8.962315000000000254e+00 1.331140000000000043e+02 2.316609999999999673e+03
1.420000000000000151e-01 1.776929999999999898e-01 8.974530000000001451e+00 1.332665000000000077e+02 2.316619999999999891e+03
1.430000000000000160e-01 1.776959999999999928e-01 9.009685000000001054e+00 1.334509999999999934e+02 2.316640000000000327e+03
1.440000000000000169e-01 1.776999999999999968e-01 9.060690000000001021e+00 1.336535000000000082e+02 2.316675000000000182e+03
1.450000000000000178e-01 1.777044999999999875e-01 9.121000000000000441e+00 1.338594999999999970e+02 2.316715000000000146e+03
1.459999999999999909e-01 1.777094999999999925e-01 9.184765000000000512e+00 1.340579999999999927e+02 2.316755000000000109e+03
1.469999999999999918e-01 1.777144999999999975e-01 9.246995000000000076e+00 1.342400000000000091e+02 2.316795000000000073e+03
1.479999999999999927e-01 1.777185000000000015e-01 9.303670000000000329e+00 1.343979999999999961e+02 2.316835000000000036e+03
1.489999999999999936e-01 1.777230000000000198e-01 9.351765000000000327e+00 1.345285000000000082e+02 2.316869999999999891e+03
1.499999999999999944e-01 1.777265000000000095e-01 9.389305000000000234e+00 1.346284999999999741e+02 2.316899999999999636e+03
1.509999999999999953e-01 1.777289999999999981e-01 9.415275000000001171e+00 1.346999999999999886e+02 2.316920000000000073e+03
1.519999999999999962e-01 1.777310000000000001e-01 9.429565000000000197e+00 1.347445000000000164e+02 2.316940000000000055e+03
1.529999999999999971e-01 1.777320000000000011e-01 9.432805000000000106e+00 1.347649999999999864e+02 2.316949999999999818e+03
1.539999999999999980e-01 1.777329999999999743e-01 9.426190000000000069e+00 1.347675000000000125e+02 2.316960000000000036e+03
1.549999999999999989e-01 1.777334999999999887e-01 9.411324999999999719e+00 1.347574999999999932e+02 2.316960000000000036e+03
1.559999999999999998e-01 1.777334999999999887e-01 9.389974999999999739e+00 1.347400000000000091e+02 2.316965000000000146e+03
1.570000000000000007e-01 1.777330000000000021e-01 9.363894999999999413e+00 1.347189999999999941e+02 2.316960000000000036e+03
1.580000000000000016e-01 1.777325000000000155e-01 9.334669999999999135e+00 1.346995000000000005e+02 2.316960000000000036e+03
1.590000000000000024e-01 1.777320000000000011e-01 9.303580000000000183e+00 1.346834999999999809e+02 2.316954999999999927e+03
