# t [s], A [cm^2], U [cm/s], P [cPa], c [cm/s]
1.000000000000000021e-03 4.500429999999999708e-01 2.747900000000004506e-03 9.809874999999999545e+01 1.468740000000000009e+03
2.000000000000000042e-03 4.500374999999999792e-01 8.085699999999997750e-04 9.808135000000000048e+01 1.468730000000000018e+03
3.000000000000000062e-03 4.500715000000000687e-01 7.679489999999999927e-02 9.815184999999999604e+01 1.468755000000000109e+03
4.000000000000000083e-03 4.501094999999999402e-01 1.639585000000000070e-01 9.825575000000000614e+01 1.468784999999999854e+03
5.000000000000000104e-03 4.501060000000000061e-01 1.611194999999999988e-01 9.824994999999999834e+01 1.468789999999999964e+03
6.000000000000000125e-03 4.500704999999999845e-01 8.609950000000002324e-02 9.811395000000000266e+01 1.468759999999999991e+03
7.000000000000000146e-03 4.500335000000000307e-01 1.869000000000009543e-03 9.790725000000000477e+01 1.468704999999999927e+03
8.000000000000000167e-03 4.499855000000000382e-01 -1.134935000000000249e-01 9.761645000000000039e+01 1.468630000000000109e+03
9.000000000000001055e-03 4.499024999999999830e-01 -3.158900000000000041e-01 9.717069999999999652e+01 1.468514999999999873e+03
1.000000000000000194e-02 4.497775000000000523e-01 -6.192399999999999016e-01 9.652554999999999552e+01 1.468344999999999800e+03
1.099999999999999936e-02 4.496054999999999913e-01 -1.027525000000000022e+00 9.564635000000001241e+01 1.468110000000000127e+03
1.200000000000000025e-02 4.493759999999999977e-01 -1.552000000000000046e+00 9.449004999999999654e+01 1.467789999999999964e+03
1.300000000000000114e-02 4.490885000000000016e-01 -2.177539999999999587e+00 9.304149999999999920e+01 1.467384999999999991e+03
1.400000000000000203e-02 4.487634999999999819e-01 -2.835499999999999687e+00 9.135524999999999807e+01 1.466894999999999982e+03
1.499999999999999944e-02 4.484365000000000157e-01 -3.419004999999999850e+00 8.955369999999999209e+01 1.466349999999999909e+03
1.600000000000000033e-02 4.481424999999999992e-01 -3.825297500000000461e+00 8.778310000000000457e+01 1.465804999999999836e+03
1.700000000000000122e-02 4.478984999999999772e-01 -3.991952000000000389e+00 8.616210000000000946e+01 1.465269999999999982e+03
1.800000000000000211e-02 4.477034999999999765e-01 -3.910241300000000031e+00 8.474979999999999336e+01 1.464775000000000091e+03
1.900000000000000300e-02 4.475434999999999830e-01 -3.617420500000000150e+00 8.353950000000000387e+01 1.464325000000000045e+03
2.000000000000000042e-02 4.473945000000000283e-01 -3.177324849999999756e+00 8.247374999999999545e+01 1.463904999999999973e+03
2.100000000000000130e-02 4.472355000000000080e-01 -2.657909999999999773e+00 8.147005000000000052e+01 1.463505000000000109e+03
2.200000000000000219e-02 4.470509999999999762e-01 -2.112290000000000223e+00 8.044900000000001228e+01 1.463099999999999909e+03
2.299999999999999961e-02 4.468369999999999842e-01 -1.567769999999999886e+00 7.935649999999999693e+01 1.462679999999999836e+03
2.400000000000000050e-02 4.465969999999999662e-01 -1.025449999999999973e+00 7.817430000000000234e+01 1.462244999999999891e+03
2.500000000000000139e-02 4.463420000000000165e-01 -4.691749999999998977e-01 7.691610000000000014e+01 1.461784999999999854e+03
2.600000000000000228e-02 4.460819999999999785e-01 1.205650000000000333e-01 7.561359999999999104e+01 1.461309999999999945e+03
2.700000000000000316e-02 4.458245000000000124e-01 7.534700000000000841e-01 7.429855000000000587e+01 1.460824999999999818e+03
2.800000000000000058e-02 4.455695000000000072e-01 1.421149999999999913e+00 7.298740000000000805e+01 1.460345000000000027e+03
2.900000000000000147e-02 4.453120000000000411e-01 2.095359999999999889e+00 7.167295000000000016e+01 1.459855000000000018e+03
3.000000000000000236e-02 4.450399999999999912e-01 2.732074999999999587e+00 7.032345000000000823e+01 1.459360000000000127e+03
3.099999999999999978e-02 4.447404999999999831e-01 3.279759999999999565e+00 6.888974999999999227e+01 1.458840000000000146e+03
3.200000000000000067e-02 4.444019999999999637e-01 3.689560000000000173e+00 6.731619999999999493e+01 1.458284999999999854e+03
3.300000000000000155e-02 4.440149999999999930e-01 3.925045000000000339e+00 6.555525000000000091e+01 1.457679999999999836e+03
3.400000000000000244e-02 4.435784999999999867e-01 3.969975000000000254e+00 6.358015000000000327e+01 1.457019999999999982e+03
3.500000000000000333e-02 4.430990000000000206e-01 3.831605000000000150e+00 6.139419999999999789e+01 1.456299999999999955e+03
3.600000000000000422e-02 4.425884999999999958e-01 3.539620000000000211e+00 5.903439999999999799e+01 1.455529999999999973e+03
3.700000000000000511e-02 4.420655000000000001e-01 3.141205000000000247e+00 5.656799999999999784e+01 1.454724999999999909e+03
3.799999999999999906e-02 4.415510000000000268e-01 2.693265000000000242e+00 5.408480000000000132e+01 1.453920000000000073e+03
3.899999999999999994e-02 4.410654999999999992e-01 2.254395000000000149e+00 5.168585000000000207e+01 1.453119999999999891e+03
4.000000000000000083e-02 4.406280000000000197e-01 1.878369999999999873e+00 4.947204999999999586e+01 1.452369999999999891e+03
4.100000000000000172e-02 4.402535000000000198e-01 1.609115000000000073e+00 4.753475000000000250e+01 1.451684999999999945e+03
4.200000000000000261e-02 4.399534999999999973e-01 1.479025000000000034e+00 4.594845000000000113e+01 1.451110000000000127e+03
4.300000000000000350e-02 4.397349999999999870e-01 1.508789999999999853e+00 4.476749999999999829e+01 1.450644999999999982e+03
4.400000000000000439e-02 4.396004999999999496e-01 1.709279999999999911e+00 4.402555000000000263e+01 1.450309999999999945e+03
4.499999999999999833e-02 4.395519999999999983e-01 2.084111500000000117e+00 4.373740000000000094e+01 1.450119999999999891e+03
4.599999999999999922e-02 4.395869999999999500e-01 2.632390000000000008e+00 4.390274999999999750e+01 1.450065000000000055e+03
4.700000000000000011e-02 4.397030000000000660e-01 3.350925000000000153e+00 4.451014999999999588e+01 1.450160000000000082e+03
4.800000000000000100e-02 4.398975000000000524e-01 4.235615000000000130e+00 4.554084999999999894e+01 1.450394999999999982e+03
4.900000000000000189e-02 4.401659999999999462e-01 5.281804999999999417e+00 4.697160000000000224e+01 1.450764999999999873e+03
5.000000000000000278e-02 4.405040000000000067e-01 6.483785000000000132e+00 4.877604999999999791e+01 1.451259999999999991e+03
5.100000000000000366e-02 4.409069999999999934e-01 7.833944999999999936e+00 5.092549999999999955e+01 1.451880000000000109e+03
5.200000000000000455e-02 4.413699999999999846e-01 9.321509999999999962e+00 5.338835000000000264e+01 1.452605000000000018e+03
5.300000000000000544e-02 4.418849999999999723e-01 1.093195500000000031e+01 5.612969999999999970e+01 1.453430000000000064e+03
5.399999999999999939e-02 4.424454999999999916e-01 1.264680500000000052e+01 5.911095000000000255e+01 1.454345000000000027e+03
5.500000000000000028e-02 4.430420000000000469e-01 1.444385000000000119e+01 6.229009999999999536e+01 1.455345000000000027e+03
5.600000000000000117e-02 4.436664999999999637e-01 1.629832000000000036e+01 6.562255000000000393e+01 1.456400000000000091e+03
5.700000000000000205e-02 4.443095000000000239e-01 1.818405500000000075e+01 6.906244999999999834e+01 1.457505000000000109e+03
5.800000000000000294e-02 4.449624999999999830e-01 2.007489999999999952e+01 7.256485000000000696e+01 1.458639999999999873e+03
5.900000000000000383e-02 4.456180000000000141e-01 2.194650000000000034e+01 7.608735000000000070e+01 1.459804999999999836e+03
6.000000000000000472e-02 4.462684999999999569e-01 2.377704999999999913e+01 7.959235000000001037e+01 1.460970000000000027e+03
6.099999999999999867e-02 4.469094999999999596e-01 2.554870000000000019e+01 8.304834999999999923e+01 1.462139999999999873e+03
6.199999999999999956e-02 4.475375000000000325e-01 2.724749999999999872e+01 8.643135000000000900e+01 1.463295000000000073e+03
6.300000000000000044e-02 4.481490000000000196e-01 2.886410000000000053e+01 8.972469999999999857e+01 1.464430000000000064e+03
6.400000000000000133e-02 4.487440000000000317e-01 3.039314999999999856e+01 9.291995000000000005e+01 1.465545000000000073e+03
6.500000000000000222e-02 4.493225000000000136e-01 3.183285000000000053e+01 9.601619999999999777e+01 1.466634999999999991e+03
6.600000000000000311e-02 4.498869999999999814e-01 3.318455000000000155e+01 9.901699999999999591e+01 1.467700000000000045e+03
6.700000000000000400e-02 4.504385000000000194e-01 3.445204999999999984e+01 1.019329999999999927e+02 1.468744999999999891e+03
6.800000000000000488e-02 4.509794999999999776e-01 3.564070000000000249e+01 1.047763000000000062e+02 1.469760000000000218e+03
6.900000000000000577e-02 4.515129999999999977e-01 3.675695000000000334e+01 1.075620499999999993e+02 1.470759999999999991e+03
7.000000000000000666e-02 4.520419999999999994e-01 3.780760000000000076e+01 1.103064999999999998e+02 1.471750000000000000e+03
7.100000000000000755e-02 4.525689999999999991e-01 3.879914999999999736e+01 1.130229999999999961e+02 1.472730000000000018e+03
7.200000000000000844e-02 4.530950000000000255e-01 3.973770000000000380e+01 1.157249999999999943e+02 1.473704999999999927e+03
7.300000000000000933e-02 4.536219999999999697e-01 4.062785000000000224e+01 1.184209999999999923e+02 1.474675000000000182e+03
7.399999999999999634e-02 4.541510000000000269e-01 4.147299999999999898e+01 1.211185000000000116e+02 1.475644999999999982e+03
7.499999999999999722e-02 4.546805000000000430e-01 4.227465000000000117e+01 1.238180000000000121e+02 1.476615000000000009e+03
7.599999999999999811e-02 4.552110000000000323e-01 4.303260000000000218e+01 1.265155000000000030e+02 1.477579999999999927e+03
7.699999999999999900e-02 4.557394999999999641e-01 4.374455000000000382e+01 1.292044999999999959e+02 1.478549999999999955e+03
7.799999999999999989e-02 4.562640000000000029e-01 4.440689999999999316e+01 1.318725000000000023e+02 1.479509999999999991e+03
7.900000000000000078e-02 4.567805000000000337e-01 4.501435000000000031e+01 1.345045000000000073e+02 1.480460000000000036e+03
8.000000000000000167e-02 4.572859999999999703e-01 4.556049999999999756e+01 1.370805000000000007e+02 1.481389999999999873e+03
8.100000000000000255e-02 4.577759999999999607e-01 4.603870000000000573e+01 1.395825000000000102e+02 1.482305000000000064e+03
8.200000000000000344e-02 4.582470000000000154e-01 4.644160000000000110e+01 1.419875000000000114e+02 1.483184999999999945e+03
8.300000000000000433e-02 4.586955000000000338e-01 4.676255000000000450e+01 1.442764999999999986e+02 1.484029999999999973e+03
8.400000000000000522e-02 4.591169999999999973e-01 4.699545000000000528e+01 1.464284999999999854e+02 1.484835000000000036e+03
8.500000000000000611e-02 4.595084999999999864e-01 4.713530000000000086e+01 1.484269999999999925e+02 1.485590000000000146e+03
8.600000000000000699e-02 4.598680000000000545e-01 4.717830000000000013e+01 1.502580000000000098e+02 1.486289999999999964e+03
8.700000000000000788e-02 4.601939999999999920e-01 4.712239999999999895e+01 1.519099999999999966e+02 1.486934999999999945e+03
8.800000000000000877e-02 4.604850000000000332e-01 4.696705000000000041e+01 1.533760000000000048e+02 1.487514999999999873e+03
8.899999999999999578e-02 4.607394999999999685e-01 4.671374999999999744e+01 1.546519999999999868e+02 1.488034999999999854e+03
8.999999999999999667e-02 4.609590000000000076e-01 4.636540000000000106e+01 1.557394999999999925e+02 1.488490000000000009e+03
9.099999999999999756e-02 4.611439999999999984e-01 4.592674999999999841e+01 1.566424999999999841e+02 1.488880000000000109e+03
9.199999999999999845e-02 4.612964999999999982e-01 4.540420000000000300e+01 1.573689999999999998e+02 1.489204999999999927e+03
9.299999999999999933e-02 4.614184999999999537e-01 4.480519999999999925e+01 1.579300000000000068e+02 1.489474999999999909e+03
9.400000000000000022e-02 4.615120000000000333e-01 4.413875000000000171e+01 1.583389999999999986e+02 1.489690000000000055e+03
9.500000000000000111e-02 4.615799999999999903e-01 4.341455000000000553e+01 1.586125000000000114e+02 1.489849999999999909e+03
9.600000000000000200e-02 4.616264999999999952e-01 4.264294999999999902e+01 1.587669999999999959e+02 1.489965000000000146e+03
9.700000000000000289e-02 4.616544999999999677e-01 4.183469999999999800e+01 1.588204999999999814e+02 1.490045000000000073e+03
9.800000000000000377e-02 4.616664999999999797e-01 4.100060000000000571e+01 1.587920000000000016e+02 1.490085000000000036e+03
9.900000000000000466e-02 4.616675000000000084e-01 4.015104999999999791e+01 1.586995000000000005e+02 1.490099999999999909e+03
1.000000000000000056e-01 4.616590000000000416e-01 3.929609999999999559e+01 1.585604999999999905e+02 1.490090000000000146e+03
1.010000000000000064e-01 4.616445000000000132e-01 3.844480000000000075e+01 1.583910000000000196e+02 1.490065000000000055e+03
1.020000000000000073e-01 4.616270000000000095e-01 3.760515000000000185e+01 1.582049999999999841e+02 1.490025000000000091e+03
1.030000000000000082e-01 4.616080000000000183e-01 3.678365000000000151e+01 1.580134999999999934e+02 1.489980000000000018e+03
1.040000000000000091e-01 4.615890000000000271e-01 3.598539999999999850e+01 1.578274999999999864e+02 1.489934999999999945e+03
1.050000000000000100e-01 4.615710000000000091e-01 3.521385000000000076e+01 1.576519999999999868e+02 1.489880000000000109e+03
1.059999999999999970e-01 4.615544999999999787e-01 3.447084999999999866e+01 1.574909999999999854e+02 1.489829999999999927e+03
1.069999999999999979e-01 4.615399999999999503e-01 3.375665000000000049e+01 1.573460000000000036e+02 1.489784999999999854e+03
1.079999999999999988e-01 4.615265000000000062e-01 3.306980000000000075e+01 1.572144999999999868e+02 1.489735000000000127e+03
1.089999999999999997e-01 4.615135000000000209e-01 3.240780000000000172e+01 1.570925000000000011e+02 1.489694999999999936e+03
1.100000000000000006e-01 4.614989999999999926e-01 3.176685000000000159e+01 1.569735000000000014e+02 1.489650000000000091e+03
1.110000000000000014e-01 4.614819999999999478e-01 3.114235000000000042e+01 1.568499999999999943e+02 1.489599999999999909e+03
1.120000000000000023e-01 4.614614999999999689e-01 3.052915000000000134e+01 1.567139999999999986e+02 1.489555000000000064e+03
1.130000000000000032e-01 4.614349999999999841e-01 2.992169999999999774e+01 1.565550000000000068e+02 1.489490000000000009e+03
1.140000000000000041e-01 4.614009999999999501e-01 2.931455000000000055e+01 1.563645000000000209e+02 1.489424999999999955e+03
1.150000000000000050e-01 4.613580000000000458e-01 2.870239999999999725e+01 1.561340000000000146e+02 1.489345000000000027e+03
1.160000000000000059e-01 4.613050000000000206e-01 2.808060000000000400e+01 1.558555000000000064e+02 1.489255000000000109e+03
1.170000000000000068e-01 4.612404999999999977e-01 2.744500000000000028e+01 1.555224999999999795e+02 1.489144999999999982e+03
1.180000000000000077e-01 4.611649999999999916e-01 2.679250000000000398e+01 1.551299999999999955e+02 1.489015000000000100e+03
1.190000000000000085e-01 4.610765000000000002e-01 2.612105000000000032e+01 1.546754999999999995e+02 1.488869999999999891e+03
1.200000000000000094e-01 4.609754999999999825e-01 2.542960000000000065e+01 1.541580000000000155e+02 1.488700000000000045e+03
1.209999999999999964e-01 4.608630000000000226e-01 2.471824999999999761e+01 1.535790000000000077e+02 1.488514999999999873e+03
1.219999999999999973e-01 4.607394999999999685e-01 2.398845000000000027e+01 1.529414999999999907e+02 1.488300000000000182e+03
1.229999999999999982e-01 4.606065000000000298e-01 2.324255000000000138e+01 1.522510000000000048e+02 1.488075000000000045e+03
1.239999999999999991e-01 4.604645000000000543e-01 2.248420000000000130e+01 1.515149999999999864e+02 1.487829999999999927e+03
1.250000000000000000e-01 4.603165000000000173e-01 2.171775000000000233e+01 1.507415000000000020e+02 1.487574999999999818e+03
1.260000000000000009e-01 4.601640000000000175e-01 2.094854999999999734e+01 1.499415000000000191e+02 1.487305000000000064e+03
1.270000000000000018e-01 4.600084999999999869e-01 2.018244999999999933e+01 1.491260000000000048e+02 1.487029999999999973e+03
1.280000000000000027e-01 4.598539999999999850e-01 1.942569999999999908e+01 1.483059999999999832e+02 1.486755000000000109e+03
1.290000000000000036e-01 4.597010000000000263e-01 1.868464999999999776e+01 1.474935000000000116e+02 1.486474999999999909e+03
1.300000000000000044e-01 4.595520000000000160e-01 1.796584999999999965e+01 1.467009999999999934e+02 1.486200000000000045e+03
1.310000000000000053e-01 4.594095000000000262e-01 1.727530000000000143e+01 1.459379999999999882e+02 1.485934999999999945e+03
1.320000000000000062e-01 4.592755000000000032e-01 1.661870000000000047e+01 1.452160000000000082e+02 1.485674999999999955e+03
1.330000000000000071e-01 4.591509999999999758e-01 1.600099999999999767e+01 1.445425000000000182e+02 1.485430000000000064e+03
1.340000000000000080e-01 4.590379999999999461e-01 1.542650000000000077e+01 1.439265000000000043e+02 1.485204999999999927e+03
1.350000000000000089e-01 4.589360000000000106e-01 1.489819999999999922e+01 1.433720000000000141e+02 1.484994999999999891e+03
1.360000000000000098e-01 4.588465000000000460e-01 1.441835000000000022e+01 1.428830000000000098e+02 1.484805000000000064e+03
1.370000000000000107e-01 4.587700000000000111e-01 1.398794999999999966e+01 1.424604999999999961e+02 1.484644999999999982e+03
1.380000000000000115e-01 4.587059999999999471e-01 1.360689999999999955e+01 1.421050000000000182e+02 1.484494999999999891e+03
1.390000000000000124e-01 4.586534999999999918e-01 1.327415000000000056e+01 1.418139999999999930e+02 1.484369999999999891e+03
1.400000000000000133e-01 4.586120000000000196e-01 1.298750000000000071e+01 1.415824999999999818e+02 1.484269999999999982e+03
1.410000000000000142e-01 4.585799999999999876e-01 1.274409999999999954e+01 1.414060000000000059e+02 1.484179999999999836e+03
1.420000000000000151e-01 4.585565000000000335e-01 1.254015000000000057e+01 1.412775000000000034e+02 1.484114999999999782e+03
1.430000000000000160e-01 4.585405000000000175e-01 1.237164999999999893e+01 1.411895000000000095e+02 1.484059999999999945e+03
1.440000000000000169e-01 4.585295000000000343e-01 1.223399999999999999e+01 1.411340000000000146e+02 1.484019999999999982e+03
1.450000000000000178e-01 4.585224999999999995e-01 1.212235000000000085e+01 1.411030000000000086e+02 1.483990000000000009e+03
1.459999999999999909e-01 4.585179999999999811e-01 1.203219999999999956e+01 1.410879999999999939e+02 1.483964999999999918e+03
1.469999999999999918e-01 4.585144999999999915e-01 1.195880000000000010e+01 1.410819999999999936e+02 1.483945000000000164e+03
1.479999999999999927e-01 4.585110000000000019e-01 1.189786499999999947e+01 1.410774999999999864e+02 1.483930000000000064e+03
1.489999999999999936e-01 4.585069999999999979e-01 1.184558000000000000e+01 1.410699999999999932e+02 1.483920000000000073e+03
1.499999999999999944e-01 4.585004999999999775e-01 1.179853999999999914e+01 1.410525000000000091e+02 1.483904999999999973e+03
1.509999999999999953e-01 4.584920000000000107e-01 1.175375499999999995e+01 1.410235000000000127e+02 1.483884999999999991e+03
1.519999999999999962e-01 4.584799999999999986e-01 1.170894999999999975e+01 1.409789999999999850e+02 1.483869999999999891e+03
1.529999999999999971e-01 4.584654999999999703e-01 1.166240999999999950e+01 1.409175000000000182e+02 1.483840000000000146e+03
1.539999999999999980e-01 4.584475000000000078e-01 1.161286000000000129e+01 1.408400000000000034e+02 1.483815000000000055e+03
1.549999999999999989e-01 4.584265000000000145e-01 1.155963500000000010e+01 1.407454999999999927e+02 1.483779999999999973e+03
1.559999999999999998e-01 4.584034999999999638e-01 1.150246999999999886e+01 1.406365000000000123e+02 1.483740000000000009e+03
1.570000000000000007e-01 4.583785000000000220e-01 1.144152500000000039e+01 1.405140000000000100e+02 1.483700000000000045e+03
1.580000000000000016e-01 4.583515000000000228e-01 1.137724500000000027e+01 1.403810000000000002e+02 1.483654999999999973e+03
1.590000000000000024e-01 4.583230000000000359e-01 1.131035999999999930e+01 1.402404999999999973e+02 1.483610000000000127e+03
