# t [s], A [cm^2], U [cm/s], P [cPa], c [cm/s]
1.000000000000000021e-03 1.195470000000000005e-01 3.654545000000000154e-01 9.300624999999999432e+01 1.849220000000000027e+03
2.000000000000000042e-03 1.195234999999999909e-01 1.896843999999999753e+00 8.992609999999999104e+01 1.848900000000000091e+03
3.000000000000000062e-03 1.194445000000000090e-01 3.737236999999999920e+00 8.595080000000000098e+01 1.847860000000000127e+03
4.000000000000000083e-03 1.193289999999999906e-01 5.766984500000000402e+00 8.167220000000000368e+01 1.846365000000000009e+03
5.000000000000000104e-03 1.191984999999999850e-01 7.932439999999999714e+00 7.779265000000000896e+01 1.844679999999999836e+03
6.000000000000000125e-03 1.190670000000000062e-01 1.011217500000000058e+01 7.459110000000001151e+01 1.843000000000000000e+03
7.000000000000000146e-03 1.189399999999999902e-01 1.214338500000000032e+01 7.193035000000000423e+01 1.841404999999999973e+03
8.000000000000000167e-03 1.188214999999999966e-01 1.392723999999999940e+01 6.957595000000000596e+01 1.839930000000000064e+03
9.000000000000001055e-03 1.187114999999999976e-01 1.546635000000000026e+01 6.747010000000000218e+01 1.838590000000000146e+03
1.000000000000000194e-02 1.186139999999999972e-01 1.679360000000000142e+01 6.566495000000000459e+01 1.837410000000000082e+03
1.099999999999999936e-02 1.185295000000000099e-01 1.792394999999999783e+01 6.416715000000000657e+01 1.836400000000000091e+03
1.200000000000000025e-02 1.184574999999999934e-01 1.886469999999999914e+01 6.293349999999999511e+01 1.835539999999999964e+03
1.300000000000000114e-02 1.183964999999999879e-01 1.962409999999999854e+01 6.191134999999999877e+01 1.834829999999999927e+03
1.400000000000000203e-02 1.183454999999999924e-01 2.020775000000000077e+01 6.103860000000000241e+01 1.834244999999999891e+03
1.499999999999999944e-02 1.183019999999999905e-01 2.062924999999999898e+01 6.025790000000000646e+01 1.833744999999999891e+03
1.600000000000000033e-02 1.182650000000000090e-01 2.093314999999999770e+01 5.957805000000000462e+01 1.833325000000000045e+03
1.700000000000000122e-02 1.182350000000000068e-01 2.120299999999999940e+01 5.912225000000000108e+01 1.833000000000000000e+03
1.800000000000000211e-02 1.182170000000000026e-01 2.153800000000000026e+01 5.909725000000000250e+01 1.832805000000000064e+03
1.900000000000000300e-02 1.182145000000000001e-01 2.201174999999999926e+01 5.968999999999999773e+01 1.832789999999999964e+03
2.000000000000000042e-02 1.182300000000000018e-01 2.263879999999999981e+01 6.095619999999999550e+01 1.832989999999999782e+03
2.100000000000000130e-02 1.182634999999999936e-01 2.336650000000000205e+01 6.276675000000000182e+01 1.833389999999999873e+03
2.200000000000000219e-02 1.183104999999999990e-01 2.409434999999999860e+01 6.483344999999999914e+01 1.833954999999999927e+03
2.299999999999999961e-02 1.183625000000000094e-01 2.470765000000000100e+01 6.679554999999999154e+01 1.834585000000000036e+03
2.400000000000000050e-02 1.184125000000000039e-01 2.511254999999999882e+01 6.832550000000000523e+01 1.835200000000000045e+03
2.500000000000000139e-02 1.184530000000000027e-01 2.526030000000000086e+01 6.921565000000001078e+01 1.835710000000000036e+03
2.600000000000000228e-02 1.184800000000000020e-01 2.515455000000000041e+01 6.941925000000000523e+01 1.836054999999999836e+03
2.700000000000000316e-02 1.184920000000000140e-01 2.484250000000000114e+01 6.904019999999999868e+01 1.836224999999999909e+03
2.800000000000000058e-02 1.184914999999999996e-01 2.439499999999999957e+01 6.828034999999999854e+01 1.836240000000000009e+03
2.900000000000000147e-02 1.184820000000000040e-01 2.388369999999999749e+01 6.736834999999999241e+01 1.836139999999999873e+03
3.000000000000000236e-02 1.184675000000000034e-01 2.336179999999999879e+01 6.649304999999999666e+01 1.835980000000000018e+03
3.099999999999999978e-02 1.184514999999999874e-01 2.285504999999999853e+01 6.576099999999999568e+01 1.835795000000000073e+03
3.200000000000000067e-02 1.184370000000000006e-01 2.236175000000000068e+01 6.518699999999999761e+01 1.835625000000000000e+03
3.300000000000000155e-02 1.184235000000000010e-01 2.186185000000000045e+01 6.471209999999999241e+01 1.835460000000000036e+03
3.400000000000000244e-02 1.184095000000000009e-01 2.132965000000000089e+01 6.424129999999999541e+01 1.835299999999999955e+03
3.500000000000000333e-02 1.183944999999999997e-01 2.074660000000000082e+01 6.368545000000000300e+01 1.835125000000000000e+03
3.600000000000000422e-02 1.183769999999999961e-01 2.011110000000000042e+01 6.299669999999999703e+01 1.834914999999999964e+03
3.700000000000000511e-02 1.183559999999999890e-01 1.944270000000000209e+01 6.218869999999999720e+01 1.834664999999999964e+03
3.799999999999999906e-02 1.183329999999999937e-01 1.878010000000000090e+01 6.133800000000000097e+01 1.834394999999999982e+03
3.899999999999999994e-02 1.183094999999999841e-01 1.817385000000000161e+01 6.056690000000000396e+01 1.834119999999999891e+03
4.000000000000000083e-02 1.182890000000000053e-01 1.767524999999999835e+01 6.001435000000000031e+01 1.833865000000000009e+03
4.100000000000000172e-02 1.182745000000000046e-01 1.732545000000000002e+01 5.980129999999999768e+01 1.833690000000000055e+03
4.200000000000000261e-02 1.182680000000000120e-01 1.714610000000000056e+01 6.000100000000000477e+01 1.833610000000000127e+03
4.300000000000000350e-02 1.182729999999999893e-01 1.713445000000000107e+01 6.062030000000000030e+01 1.833654999999999973e+03
4.400000000000000439e-02 1.182880000000000043e-01 1.726335000000000264e+01 6.159539999999999793e+01 1.833820000000000164e+03
4.499999999999999833e-02 1.183115000000000139e-01 1.748564999999999969e+01 6.280219999999999914e+01 1.834095000000000027e+03
4.599999999999999922e-02 1.183410000000000017e-01 1.774174999999999969e+01 6.407724999999999227e+01 1.834445000000000164e+03
4.700000000000000011e-02 1.183729999999999921e-01 1.796835000000000093e+01 6.524389999999999645e+01 1.834815000000000055e+03
4.800000000000000100e-02 1.184024999999999939e-01 1.810640000000000072e+01 6.613774999999999693e+01 1.835170000000000073e+03
4.900000000000000189e-02 1.184260000000000035e-01 1.810815000000000197e+01 6.662784999999999513e+01 1.835449999999999818e+03
5.000000000000000278e-02 1.184400000000000036e-01 1.794064999999999799e+01 6.662969999999999970e+01 1.835615000000000009e+03
5.100000000000000366e-02 1.184415000000000051e-01 1.758739999999999881e+01 6.610974999999999113e+01 1.835644999999999982e+03
5.200000000000000455e-02 1.184295000000000070e-01 1.704749999999999943e+01 6.508169999999999789e+01 1.835514999999999873e+03
5.300000000000000544e-02 1.184044999999999959e-01 1.633305000000000007e+01 6.359815000000000396e+01 1.835220000000000027e+03
5.399999999999999939e-02 1.183664999999999995e-01 1.546600000000000108e+01 6.173805000000000121e+01 1.834769999999999982e+03
5.500000000000000028e-02 1.183174999999999921e-01 1.447460000000000058e+01 5.959499999999999886e+01 1.834190000000000055e+03
5.600000000000000117e-02 1.182600000000000040e-01 1.339095000000000013e+01 5.726664999999999850e+01 1.833500000000000000e+03
5.700000000000000205e-02 1.181949999999999945e-01 1.224851500000000115e+01 5.484765000000000157e+01 1.832730000000000018e+03
5.800000000000000294e-02 1.181260000000000088e-01 1.108140500000000017e+01 5.242549999999999955e+01 1.831904999999999973e+03
5.900000000000000383e-02 1.180549999999999933e-01 9.923489999999999256e+00 5.007999999999999829e+01 1.831065000000000055e+03
6.000000000000000472e-02 1.179850000000000065e-01 8.808484999999999232e+00 4.788370000000000459e+01 1.830224999999999909e+03
6.099999999999999867e-02 1.179179999999999950e-01 7.769785000000000608e+00 4.590404999999999802e+01 1.829414999999999964e+03
6.199999999999999956e-02 1.178555000000000019e-01 6.840534999999999144e+00 4.420480000000000587e+01 1.828664999999999964e+03
6.300000000000000044e-02 1.178000000000000019e-01 6.052950000000000053e+00 4.284680000000000177e+01 1.827994999999999891e+03
6.400000000000000133e-02 1.177535000000000109e-01 5.437725000000000364e+00 4.188759999999999906e+01 1.827434999999999945e+03
6.500000000000000222e-02 1.177185000000000037e-01 5.022895000000000110e+00 4.137980000000000302e+01 1.827000000000000000e+03
6.600000000000000311e-02 1.176955000000000084e-01 4.832589999999999719e+00 4.136849999999999739e+01 1.826719999999999800e+03
6.700000000000000400e-02 1.176869999999999999e-01 4.885749999999999815e+00 4.188844999999999885e+01 1.826605000000000018e+03
6.800000000000000488e-02 1.176939999999999931e-01 5.194969999999999644e+00 4.296120000000000516e+01 1.826675000000000182e+03
6.900000000000000577e-02 1.177169999999999883e-01 5.765695000000000014e+00 4.459274999999999523e+01 1.826934999999999945e+03
7.000000000000000666e-02 1.177570000000000006e-01 6.595805000000000362e+00 4.677275000000000205e+01 1.827389999999999873e+03
7.100000000000000755e-02 1.178135000000000016e-01 7.675634999999999764e+00 4.947395000000000209e+01 1.828039999999999964e+03
7.200000000000000844e-02 1.178855000000000042e-01 8.988524999999999210e+00 5.265395000000000181e+01 1.828889999999999873e+03
7.300000000000000933e-02 1.179735000000000089e-01 1.051166500000000070e+01 5.625730000000000075e+01 1.829920000000000073e+03
7.399999999999999634e-02 1.180744999999999989e-01 1.221738999999999997e+01 6.021869999999999834e+01 1.831119999999999891e+03
7.499999999999999722e-02 1.181875000000000009e-01 1.407440000000000069e+01 6.446629999999998972e+01 1.832465000000000146e+03
7.599999999999999811e-02 1.183104999999999990e-01 1.604939999999999856e+01 6.892605000000000359e+01 1.833934999999999945e+03
7.699999999999999900e-02 1.184419999999999917e-01 1.810860000000000269e+01 7.352469999999999573e+01 1.835505000000000109e+03
7.799999999999999989e-02 1.185789999999999900e-01 2.021890000000000143e+01 7.819360000000000355e+01 1.837159999999999854e+03
7.900000000000000078e-02 1.187204999999999927e-01 2.234935000000000116e+01 8.287125000000000341e+01 1.838864999999999782e+03
8.000000000000000167e-02 1.188639999999999974e-01 2.447220000000000084e+01 8.750554999999999950e+01 1.840599999999999909e+03
8.100000000000000255e-02 1.190080000000000027e-01 2.656360000000000099e+01 9.205535000000000423e+01 1.842349999999999909e+03
8.200000000000000344e-02 1.191510000000000069e-01 2.860419999999999874e+01 9.649150000000000205e+01 1.844089999999999918e+03
8.300000000000000433e-02 1.192920000000000091e-01 3.057969999999999899e+01 1.007962499999999864e+02 1.845819999999999936e+03
8.400000000000000522e-02 1.194309999999999955e-01 3.248049999999999926e+01 1.049639499999999970e+02 1.847519999999999982e+03
8.500000000000000611e-02 1.195664999999999922e-01 3.430165000000000219e+01 1.089975000000000023e+02 1.849190000000000055e+03
8.600000000000000699e-02 1.196995000000000003e-01 3.604225000000000279e+01 1.129099999999999966e+02 1.850825000000000045e+03
8.700000000000000788e-02 1.198289999999999911e-01 3.770489999999999498e+01 1.167185000000000059e+02 1.852425000000000182e+03
8.800000000000000877e-02 1.199554999999999927e-01 3.929455000000000098e+01 1.204449999999999932e+02 1.853994999999999891e+03
8.899999999999999578e-02 1.200804999999999928e-01 4.081775000000000375e+01 1.241124999999999972e+02 1.855539999999999964e+03
8.999999999999999667e-02 1.202030000000000043e-01 4.228170000000000073e+01 1.277415000000000020e+02 1.857065000000000055e+03
9.099999999999999756e-02 1.203245000000000009e-01 4.369339999999999691e+01 1.313515000000000157e+02 1.858579999999999927e+03
9.199999999999999845e-02 1.204454999999999970e-01 4.505884999999999962e+01 1.349540000000000077e+02 1.860085000000000036e+03
9.299999999999999933e-02 1.205655000000000060e-01 4.638230000000000075e+01 1.385570000000000164e+02 1.861585000000000036e+03
9.400000000000000022e-02 1.206855000000000011e-01 4.766620000000000346e+01 1.421610000000000014e+02 1.863085000000000036e+03
9.500000000000000111e-02 1.208049999999999957e-01 4.891049999999999898e+01 1.457590000000000146e+02 1.864579999999999927e+03
9.600000000000000200e-02 1.209245000000000042e-01 5.011294999999999789e+01 1.493379999999999939e+02 1.866074999999999818e+03
9.700000000000000289e-02 1.210424999999999973e-01 5.126910000000000167e+01 1.528799999999999955e+02 1.867559999999999945e+03
9.800000000000000377e-02 1.211595000000000033e-01 5.237245000000000061e+01 1.563609999999999900e+02 1.869029999999999973e+03
9.900000000000000466e-02 1.212745000000000073e-01 5.341505000000000081e+01 1.597554999999999836e+02 1.870480000000000018e+03
1.000000000000000056e-01 1.213875000000000093e-01 5.438769999999999527e+01 1.630339999999999918e+02 1.871894999999999982e+03
1.010000000000000064e-01 1.214969999999999939e-01 5.528070000000000306e+01 1.661684999999999945e+02 1.873279999999999973e+03
1.020000000000000073e-01 1.216020000000000018e-01 5.608415000000000106e+01 1.691295000000000073e+02 1.874605000000000018e+03
1.030000000000000082e-01 1.217014999999999902e-01 5.678855000000000075e+01 1.718915000000000077e+02 1.875875000000000000e+03
1.040000000000000091e-01 1.217959999999999876e-01 5.738509999999999422e+01 1.744314999999999998e+02 1.877075000000000045e+03
1.050000000000000100e-01 1.218839999999999923e-01 5.786639999999999873e+01 1.767289999999999850e+02 1.878184999999999945e+03
1.059999999999999970e-01 1.219645000000000035e-01 5.822639999999999816e+01 1.787684999999999889e+02 1.879214999999999918e+03
1.069999999999999979e-01 1.220374999999999932e-01 5.846105000000000018e+01 1.805400000000000205e+02 1.880150000000000091e+03
1.079999999999999988e-01 1.221025000000000027e-01 5.856819999999999737e+01 1.820370000000000061e+02 1.880980000000000018e+03
1.089999999999999997e-01 1.221585000000000032e-01 5.854805000000000348e+01 1.832605000000000075e+02 1.881704999999999927e+03
1.100000000000000006e-01 1.222070000000000101e-01 5.840290000000000248e+01 1.842139999999999986e+02 1.882335000000000036e+03
1.110000000000000014e-01 1.222470000000000084e-01 5.813724999999999454e+01 1.849080000000000155e+02 1.882849999999999909e+03
1.120000000000000023e-01 1.222789999999999988e-01 5.775785000000000480e+01 1.853559999999999945e+02 1.883269999999999982e+03
1.130000000000000032e-01 1.223024999999999946e-01 5.727329999999999899e+01 1.855769999999999982e+02 1.883585000000000036e+03
1.140000000000000041e-01 1.223189999999999972e-01 5.669375000000000142e+01 1.855925000000000011e+02 1.883805000000000064e+03
1.150000000000000050e-01 1.223289999999999933e-01 5.603090000000000259e+01 1.854259999999999877e+02 1.883940000000000055e+03
1.160000000000000059e-01 1.223324999999999968e-01 5.529744999999999777e+01 1.851050000000000182e+02 1.884000000000000000e+03
1.170000000000000068e-01 1.223309999999999953e-01 5.450650000000000261e+01 1.846555000000000177e+02 1.883990000000000009e+03
1.180000000000000077e-01 1.223245000000000027e-01 5.367145000000000010e+01 1.841055000000000064e+02 1.883920000000000073e+03
1.190000000000000085e-01 1.223144999999999927e-01 5.280549999999999500e+01 1.834795000000000016e+02 1.883789999999999964e+03
1.200000000000000094e-01 1.223010000000000069e-01 5.192105000000000103e+01 1.828029999999999973e+02 1.883630000000000109e+03
1.209999999999999964e-01 1.222849999999999909e-01 5.102970000000000539e+01 1.820969999999999800e+02 1.883434999999999945e+03
1.219999999999999973e-01 1.222679999999999878e-01 5.014144999999999897e+01 1.813799999999999955e+02 1.883214999999999918e+03
1.229999999999999982e-01 1.222489999999999966e-01 4.926509999999999678e+01 1.806675000000000182e+02 1.882980000000000018e+03
1.239999999999999991e-01 1.222300000000000053e-01 4.840739999999999554e+01 1.799714999999999918e+02 1.882740000000000009e+03
1.250000000000000000e-01 1.222100000000000131e-01 4.757349999999999568e+01 1.792980000000000018e+02 1.882490000000000009e+03
1.260000000000000009e-01 1.221904999999999936e-01 4.676650000000000063e+01 1.786510000000000105e+02 1.882240000000000009e+03
1.270000000000000018e-01 1.221715000000000023e-01 4.598780000000000001e+01 1.780304999999999893e+02 1.881994999999999891e+03
1.280000000000000027e-01 1.221524999999999972e-01 4.523700000000000188e+01 1.774325000000000045e+02 1.881755000000000109e+03
1.290000000000000036e-01 1.221335000000000059e-01 4.451214999999999833e+01 1.768500000000000227e+02 1.881514999999999873e+03
1.300000000000000044e-01 1.221150000000000013e-01 4.381000000000000227e+01 1.762744999999999891e+02 1.881275000000000091e+03
1.310000000000000053e-01 1.220964999999999967e-01 4.312604999999999933e+01 1.756949999999999932e+02 1.881034999999999854e+03
1.320000000000000062e-01 1.220775000000000055e-01 4.245524999999999949e+01 1.750989999999999895e+02 1.880795000000000073e+03
1.330000000000000071e-01 1.220579999999999998e-01 4.179169999999999874e+01 1.744744999999999777e+02 1.880545000000000073e+03
1.340000000000000080e-01 1.220379999999999937e-01 4.112954999999999472e+01 1.738079999999999927e+02 1.880289999999999964e+03
1.350000000000000089e-01 1.220165000000000000e-01 4.046280000000000143e+01 1.730879999999999939e+02 1.880019999999999982e+03
1.360000000000000098e-01 1.219939999999999913e-01 3.978589999999999804e+01 1.723040000000000020e+02 1.879724999999999909e+03
1.370000000000000107e-01 1.219689999999999941e-01 3.909399999999999409e+01 1.714465000000000146e+02 1.879410000000000082e+03
1.380000000000000115e-01 1.219419999999999948e-01 3.838299999999999557e+01 1.705099999999999909e+02 1.879065000000000055e+03
1.390000000000000124e-01 1.219129999999999936e-01 3.764974999999999739e+01 1.694890000000000043e+02 1.878700000000000045e+03
1.400000000000000133e-01 1.218815000000000037e-01 3.689254999999999995e+01 1.683824999999999932e+02 1.878299999999999955e+03
1.410000000000000142e-01 1.218470000000000109e-01 3.611074999999999591e+01 1.671924999999999955e+02 1.877869999999999891e+03
1.420000000000000151e-01 1.218104999999999882e-01 3.530514999999999759e+01 1.659230000000000018e+02 1.877410000000000082e+03
1.430000000000000160e-01 1.217715000000000047e-01 3.447789999999999822e+01 1.645819999999999936e+02 1.876920000000000073e+03
1.440000000000000169e-01 1.217300000000000049e-01 3.363244999999999862e+01 1.631795000000000186e+02 1.876404999999999973e+03
1.450000000000000178e-01 1.216869999999999896e-01 3.277344999999999686e+01 1.617275000000000205e+02 1.875855000000000018e+03
1.459999999999999909e-01 1.216420000000000001e-01 3.190650000000000119e+01 1.602415000000000020e+02 1.875295000000000073e+03
1.469999999999999918e-01 1.215960000000000096e-01 3.103810000000000002e+01 1.587369999999999948e+02 1.874715000000000146e+03
1.479999999999999927e-01 1.215494999999999909e-01 3.017535000000000167e+01 1.572300000000000182e+02 1.874125000000000000e+03
1.489999999999999936e-01 1.215019999999999989e-01 2.932569999999999766e+01 1.557395000000000209e+02 1.873534999999999854e+03
1.499999999999999944e-01 1.214550000000000074e-01 2.849650000000000105e+01 1.542814999999999941e+02 1.872940000000000055e+03
1.509999999999999953e-01 1.214085000000000025e-01 2.769514999999999816e+01 1.528725000000000023e+02 1.872360000000000127e+03
1.519999999999999962e-01 1.213629999999999987e-01 2.692830000000000013e+01 1.515275000000000034e+02 1.871784999999999854e+03
1.529999999999999971e-01 1.213194999999999968e-01 2.620224999999999937e+01 1.502590000000000146e+02 1.871235000000000127e+03
1.539999999999999980e-01 1.212775000000000103e-01 2.552205000000000013e+01 1.490774999999999864e+02 1.870715000000000146e+03
1.549999999999999989e-01 1.212384999999999990e-01 2.489189999999999969e+01 1.479915000000000020e+02 1.870214999999999918e+03
1.559999999999999998e-01 1.212014999999999898e-01 2.431459999999999866e+01 1.470065000000000168e+02 1.869750000000000000e+03
1.570000000000000007e-01 1.211675000000000113e-01 2.379194999999999993e+01 1.461234999999999786e+02 1.869319999999999936e+03
1.580000000000000016e-01 1.211365000000000081e-01 2.332435000000000258e+01 1.453439999999999941e+02 1.868925000000000182e+03
1.590000000000000024e-01 1.211084999999999939e-01 2.291094999999999970e+01 1.446630000000000109e+02 1.868575000000000045e+03
