# t [s], A [cm^2], U [cm/s], P [cPa], c [cm/s]
1.000000000000000021e-03 1.897484999999999866e-01 4.077797999999999701e-01 1.009421499999999980e+02 2.303175000000000182e+03
2.000000000000000042e-03 1.896825000000000039e-01 2.076711500000000044e+00 9.681940000000000168e+01 2.302554999999999836e+03
3.000000000000000062e-03 1.895295000000000174e-01 4.126219999999999999e+00 9.115109999999999957e+01 2.301164999999999964e+03
4.000000000000000083e-03 1.893369999999999775e-01 6.447739999999999583e+00 8.539780000000000371e+01 2.299425000000000182e+03
5.000000000000000104e-03 1.891439999999999788e-01 8.898870000000000502e+00 8.064945000000000164e+01 2.297704999999999927e+03
6.000000000000000125e-03 1.889649999999999941e-01 1.116449000000000069e+01 7.684799999999999898e+01 2.296139999999999873e+03
7.000000000000000146e-03 1.888004999999999822e-01 1.302658999999999878e+01 7.347339999999999804e+01 2.294730000000000018e+03
8.000000000000000167e-03 1.886575000000000057e-01 1.452110000000000056e+01 7.052590000000000714e+01 2.293529999999999745e+03
9.000000000000001055e-03 1.885390000000000121e-01 1.571180000000000021e+01 6.817435000000000400e+01 2.292545000000000073e+03
1.000000000000000194e-02 1.884454999999999880e-01 1.662340000000000018e+01 6.639419999999999789e+01 2.291779999999999745e+03
1.099999999999999936e-02 1.883745000000000003e-01 1.727854999999999919e+01 6.509109999999999729e+01 2.291204999999999927e+03
1.200000000000000025e-02 1.883205000000000018e-01 1.767694999999999794e+01 6.408485000000000298e+01 2.290775000000000091e+03
1.300000000000000114e-02 1.882759999999999989e-01 1.784205000000000041e+01 6.318939999999999202e+01 2.290434999999999945e+03
1.400000000000000203e-02 1.882424999999999793e-01 1.791929999999999978e+01 6.254905000000000115e+01 2.290185000000000400e+03
1.499999999999999944e-02 1.882325000000000248e-01 1.815719999999999956e+01 6.274490000000000123e+01 2.290119999999999891e+03
1.600000000000000033e-02 1.882604999999999973e-01 1.875185000000000102e+01 6.440010000000000900e+01 2.290359999999999673e+03
1.700000000000000122e-02 1.883340000000000014e-01 1.970089999999999719e+01 6.762850000000000250e+01 2.290965000000000146e+03
1.800000000000000211e-02 1.884415000000000118e-01 2.078640000000000043e+01 7.180760000000000787e+01 2.291864999999999782e+03
1.900000000000000300e-02 1.885600000000000054e-01 2.168469999999999942e+01 7.582069999999998799e+01 2.292864999999999782e+03
2.000000000000000042e-02 1.886595000000000077e-01 2.212259999999999849e+01 7.856954999999999245e+01 2.293724999999999909e+03
2.100000000000000130e-02 1.887185000000000112e-01 2.199094999999999800e+01 7.944634999999999536e+01 2.294264999999999873e+03
2.200000000000000219e-02 1.887314999999999965e-01 2.137035000000000196e+01 7.853659999999999286e+01 2.294409999999999854e+03
2.299999999999999961e-02 1.887054999999999982e-01 2.046775000000000233e+01 7.648834999999999695e+01 2.294220000000000255e+03
2.400000000000000050e-02 1.886579999999999924e-01 1.950930000000000319e+01 7.415529999999999688e+01 2.293840000000000146e+03
2.500000000000000139e-02 1.886085000000000123e-01 1.864405000000000001e+01 7.221184999999999832e+01 2.293425000000000182e+03
2.600000000000000228e-02 1.885669999999999846e-01 1.790160000000000196e+01 7.091705000000000325e+01 2.293065000000000055e+03
2.700000000000000316e-02 1.885350000000000081e-01 1.720860000000000056e+01 7.010174999999999557e+01 2.292789999999999964e+03
2.800000000000000058e-02 1.885069999999999801e-01 1.644729999999999848e+01 6.933799999999999386e+01 2.292550000000000182e+03
2.900000000000000147e-02 1.884720000000000006e-01 1.552574999999999861e+01 6.819360000000000355e+01 2.292260000000000218e+03
3.000000000000000236e-02 1.884240000000000081e-01 1.443149999999999977e+01 6.646089999999999520e+01 2.291869999999999891e+03
3.099999999999999978e-02 1.883635000000000170e-01 1.325079999999999991e+01 6.427590000000000714e+01 2.291364999999999782e+03
3.200000000000000067e-02 1.882975000000000065e-01 1.214563499999999863e+01 6.208825000000000216e+01 2.290814999999999600e+03
3.300000000000000155e-02 1.882409999999999917e-01 1.129946999999999946e+01 6.049859999999999616e+01 2.290335000000000036e+03
3.400000000000000244e-02 1.882079999999999864e-01 1.085366499999999945e+01 6.003435000000000343e+01 2.290034999999999854e+03
3.500000000000000333e-02 1.882099999999999884e-01 1.085979999999999990e+01 6.095534999999999570e+01 2.290025000000000091e+03
3.600000000000000422e-02 1.882489999999999997e-01 1.126309999999999967e+01 6.315895000000000437e+01 2.290324999999999818e+03
3.700000000000000511e-02 1.883179999999999854e-01 1.191874999999999929e+01 6.620674999999999955e+01 2.290880000000000109e+03
3.799999999999999906e-02 1.884040000000000159e-01 1.263044999999999973e+01 6.944745000000000346e+01 2.291595000000000255e+03
3.899999999999999994e-02 1.884885000000000033e-01 1.319689999999999941e+01 7.218399999999999750e+01 2.292305000000000291e+03
4.000000000000000083e-02 1.885539999999999994e-01 1.345199999999999996e+01 7.383074999999999477e+01 2.292860000000000127e+03
4.100000000000000172e-02 1.885860000000000036e-01 1.329019999999999868e+01 7.402055000000000007e+01 2.293150000000000091e+03
4.200000000000000261e-02 1.885775000000000090e-01 1.267454999999999998e+01 7.264395000000000380e+01 2.293100000000000364e+03
4.300000000000000350e-02 1.885255000000000125e-01 1.162819999999999965e+01 6.982375000000000398e+01 2.292679999999999836e+03
4.400000000000000439e-02 1.884339999999999904e-01 1.021721499999999949e+01 6.584550000000000125e+01 2.291930000000000291e+03
4.499999999999999833e-02 1.883110000000000062e-01 8.530134999999999579e+00 6.107165000000000532e+01 2.290909999999999854e+03
4.599999999999999922e-02 1.881654999999999855e-01 6.660950000000000593e+00 5.586619999999999919e+01 2.289694999999999709e+03
4.700000000000000011e-02 1.880074999999999941e-01 4.699000500000000358e+00 5.054625000000000057e+01 2.288369999999999891e+03
4.800000000000000100e-02 1.878444999999999976e-01 2.725205000000000322e+00 4.536449999999999960e+01 2.286994999999999891e+03
4.900000000000000189e-02 1.876845000000000041e-01 8.137349999999998751e-01 4.051640000000000441e+01 2.285650000000000091e+03
5.000000000000000278e-02 1.875335000000000196e-01 -9.646899999999998254e-01 3.616120000000000090e+01 2.284375000000000000e+03
5.100000000000000366e-02 1.873974999999999946e-01 -2.540027999999999953e+00 3.244249999999999545e+01 2.283215000000000146e+03
5.200000000000000455e-02 1.872810000000000030e-01 -3.842585000000000139e+00 2.950200000000000244e+01 2.282220000000000255e+03
5.300000000000000544e-02 1.871895000000000087e-01 -4.805584999999999773e+00 2.748085000000000022e+01 2.281430000000000291e+03
5.399999999999999939e-02 1.871269999999999878e-01 -5.370084999999999553e+00 2.650965000000000060e+01 2.280885000000000218e+03
5.500000000000000028e-02 1.870985000000000009e-01 -5.490879999999999761e+00 2.669180000000000064e+01 2.280614999999999782e+03
5.600000000000000117e-02 1.871059999999999945e-01 -5.141910000000000203e+00 2.808554999999999779e+01 2.280649999999999636e+03
5.700000000000000205e-02 1.871514999999999984e-01 -4.319810000000000372e+00 3.069075000000000131e+01 2.281000000000000000e+03
5.800000000000000294e-02 1.872344999999999982e-01 -3.044888499999999887e+00 3.444284999999999997e+01 2.281670000000000073e+03
5.900000000000000383e-02 1.873529999999999918e-01 -1.359459999999999891e+00 3.921679999999999922e+01 2.282635000000000218e+03
6.000000000000000472e-02 1.875024999999999886e-01 6.758349999999999635e-01 4.483790000000000475e+01 2.283859999999999673e+03
6.099999999999999867e-02 1.876784999999999981e-01 2.987045000000000172e+00 5.109759999999999991e+01 2.285319999999999709e+03
6.199999999999999956e-02 1.878734999999999988e-01 5.492476999999999165e+00 5.777115000000000578e+01 2.286954999999999927e+03
6.300000000000000044e-02 1.880819999999999992e-01 8.108019999999999783e+00 6.463495000000000346e+01 2.288704999999999927e+03
6.400000000000000133e-02 1.882975000000000065e-01 1.075266500000000036e+01 7.148160000000000025e+01 2.290519999999999982e+03
6.500000000000000222e-02 1.885124999999999995e-01 1.335267500000000140e+01 7.813259999999999650e+01 2.292345000000000255e+03
6.600000000000000311e-02 1.887234999999999885e-01 1.584595000000000020e+01 8.444859999999999900e+01 2.294139999999999873e+03
6.700000000000000400e-02 1.889250000000000096e-01 1.818515000000000015e+01 9.033594999999999686e+01 2.295864999999999782e+03
6.800000000000000488e-02 1.891149999999999776e-01 2.033939999999999770e+01 9.575110000000000809e+01 2.297494999999999891e+03
6.900000000000000577e-02 1.892925000000000024e-01 2.229514999999999958e+01 1.006974999999999909e+02 2.299024999999999636e+03
7.000000000000000666e-02 1.894564999999999999e-01 2.405499999999999972e+01 1.052236499999999921e+02 2.300444999999999709e+03
7.100000000000000755e-02 1.896094999999999864e-01 2.563524999999999920e+01 1.094104999999999990e+02 2.301774999999999636e+03
7.200000000000000844e-02 1.897534999999999916e-01 2.706250000000000000e+01 1.133619999999999948e+02 2.303019999999999982e+03
7.300000000000000933e-02 1.898910000000000042e-01 2.836899999999999977e+01 1.171885000000000048e+02 2.304210000000000036e+03
7.399999999999999634e-02 1.900244999999999851e-01 2.958869999999999933e+01 1.209950000000000045e+02 2.305380000000000109e+03
7.499999999999999722e-02 1.901590000000000225e-01 3.075289999999999679e+01 1.248704999999999927e+02 2.306539999999999964e+03
7.599999999999999811e-02 1.902940000000000187e-01 3.188725000000000165e+01 1.288750000000000000e+02 2.307720000000000255e+03
7.699999999999999900e-02 1.904335000000000055e-01 3.300889999999999702e+01 1.330409999999999968e+02 2.308925000000000182e+03
7.799999999999999989e-02 1.905769999999999964e-01 3.412610000000000099e+01 1.373659999999999854e+02 2.310170000000000073e+03
7.900000000000000078e-02 1.907244999999999913e-01 3.523730000000000473e+01 1.418185000000000002e+02 2.311444999999999709e+03
8.000000000000000167e-02 1.908745000000000025e-01 3.633214999999999861e+01 1.463414999999999964e+02 2.312744999999999891e+03
8.100000000000000255e-02 1.910255000000000147e-01 3.739289999999999736e+01 1.508569999999999993e+02 2.314054999999999836e+03
8.200000000000000344e-02 1.911754999999999982e-01 3.839624999999999488e+01 1.552764999999999986e+02 2.315359999999999673e+03
8.300000000000000433e-02 1.913219999999999921e-01 3.931560000000000343e+01 1.595060000000000002e+02 2.316635000000000218e+03
8.400000000000000522e-02 1.914615000000000067e-01 4.012305000000000632e+01 1.634535000000000196e+02 2.317845000000000255e+03
8.500000000000000611e-02 1.915914999999999979e-01 4.079180000000000206e+01 1.670355000000000132e+02 2.318985000000000127e+03
8.600000000000000699e-02 1.917099999999999915e-01 4.129779999999999518e+01 1.701800000000000068e+02 2.320019999999999982e+03
8.700000000000000788e-02 1.918144999999999989e-01 4.162170000000000414e+01 1.728335000000000150e+02 2.320934999999999945e+03
8.800000000000000877e-02 1.919024999999999759e-01 4.174985000000000213e+01 1.749604999999999961e+02 2.321720000000000255e+03
8.899999999999999578e-02 1.919750000000000068e-01 4.167560000000000286e+01 1.765459999999999923e+02 2.322364999999999782e+03
8.999999999999999667e-02 1.920300000000000062e-01 4.139955000000000496e+01 1.775970000000000084e+02 2.322855000000000018e+03
9.099999999999999756e-02 1.920680000000000165e-01 4.092954999999999899e+01 1.781390000000000100e+02 2.323210000000000036e+03
9.199999999999999845e-02 1.920904999999999974e-01 4.028055000000000518e+01 1.782170000000000130e+02 2.323420000000000073e+03
9.299999999999999933e-02 1.920985000000000054e-01 3.947334999999999638e+01 1.778884999999999934e+02 2.323505000000000109e+03
9.400000000000000022e-02 1.920935000000000004e-01 3.853354999999999819e+01 1.772244999999999777e+02 2.323475000000000364e+03
9.500000000000000111e-02 1.920779999999999987e-01 3.748995000000000033e+01 1.763009999999999877e+02 2.323349999999999909e+03
9.600000000000000200e-02 1.920540000000000025e-01 3.637324999999999875e+01 1.751965000000000146e+02 2.323154999999999745e+03
9.700000000000000289e-02 1.920240000000000002e-01 3.521415000000000362e+01 1.739865000000000066e+02 2.322899999999999636e+03
9.800000000000000377e-02 1.919899999999999940e-01 3.404210000000000491e+01 1.727415000000000020e+02 2.322610000000000127e+03
9.900000000000000466e-02 1.919545000000000001e-01 3.288360000000000127e+01 1.715235000000000127e+02 2.322304999999999836e+03
1.000000000000000056e-01 1.919190000000000063e-01 3.176160000000000139e+01 1.703824999999999932e+02 2.322000000000000000e+03
1.010000000000000064e-01 1.918854999999999866e-01 3.069429999999999836e+01 1.693550000000000182e+02 2.321710000000000036e+03
1.020000000000000073e-01 1.918549999999999978e-01 2.969429999999999836e+01 1.684644999999999868e+02 2.321434999999999945e+03
1.030000000000000082e-01 1.918279999999999985e-01 2.876885000000000048e+01 1.677179999999999893e+02 2.321199999999999818e+03
1.040000000000000091e-01 1.918044999999999889e-01 2.791920000000000002e+01 1.671105000000000018e+02 2.320989999999999782e+03
1.050000000000000100e-01 1.917849999999999833e-01 2.714130000000000109e+01 1.666220000000000141e+02 2.320814999999999600e+03
1.059999999999999970e-01 1.917679999999999940e-01 2.642609999999999815e+01 1.662214999999999918e+02 2.320664999999999964e+03
1.069999999999999979e-01 1.917534999999999934e-01 2.576039999999999708e+01 1.658684999999999832e+02 2.320529999999999745e+03
1.079999999999999988e-01 1.917405000000000082e-01 2.512819999999999965e+01 1.655180000000000007e+02 2.320409999999999854e+03
1.089999999999999997e-01 1.917265000000000219e-01 2.451154999999999973e+01 1.651204999999999927e+02 2.320284999999999854e+03
1.100000000000000006e-01 1.917109999999999925e-01 2.389200000000000301e+01 1.646264999999999930e+02 2.320144999999999982e+03
1.110000000000000014e-01 1.916920000000000013e-01 2.325220000000000198e+01 1.639934999999999832e+02 2.319980000000000018e+03
1.120000000000000023e-01 1.916690000000000060e-01 2.257685000000000031e+01 1.631845000000000141e+02 2.319779999999999745e+03
1.130000000000000032e-01 1.916404999999999914e-01 2.185389999999999944e+01 1.621734999999999900e+02 2.319530000000000200e+03
1.140000000000000041e-01 1.916049999999999975e-01 2.107549999999999812e+01 1.609465000000000146e+02 2.319224999999999909e+03
1.150000000000000050e-01 1.915640000000000120e-01 2.023864999999999981e+01 1.595029999999999859e+02 2.318869999999999891e+03
1.160000000000000059e-01 1.915155000000000052e-01 1.934525000000000006e+01 1.578569999999999993e+02 2.318460000000000036e+03
1.170000000000000068e-01 1.914615000000000067e-01 1.840225000000000222e+01 1.560355000000000132e+02 2.317989999999999782e+03
1.180000000000000077e-01 1.914025000000000032e-01 1.742115000000000080e+01 1.540769999999999982e+02 2.317474999999999909e+03
1.190000000000000085e-01 1.913385000000000224e-01 1.641710000000000136e+01 1.520289999999999964e+02 2.316930000000000291e+03
1.200000000000000094e-01 1.912729999999999986e-01 1.540825000000000067e+01 1.499449999999999932e+02 2.316364999999999782e+03
1.209999999999999964e-01 1.912059999999999871e-01 1.441425000000000090e+01 1.478820000000000050e+02 2.315784999999999854e+03
1.219999999999999973e-01 1.911399999999999766e-01 1.345519999999999960e+01 1.458965000000000032e+02 2.315215000000000146e+03
1.229999999999999982e-01 1.910764999999999825e-01 1.255030000000000001e+01 1.440399999999999920e+02 2.314659999999999854e+03
1.239999999999999991e-01 1.910169999999999924e-01 1.171697499999999970e+01 1.423559999999999945e+02 2.314144999999999982e+03
1.250000000000000000e-01 1.909629999999999939e-01 1.096954500000000010e+01 1.408815000000000168e+02 2.313675000000000182e+03
1.260000000000000009e-01 1.909150000000000014e-01 1.031893499999999975e+01 1.396419999999999959e+02 2.313255000000000109e+03
1.270000000000000018e-01 1.908739999999999881e-01 9.771975000000001188e+00 1.386494999999999891e+02 2.312894999999999982e+03
1.280000000000000027e-01 1.908409999999999829e-01 9.331324999999999648e+00 1.379060000000000059e+02 2.312600000000000364e+03
1.290000000000000036e-01 1.908154999999999990e-01 8.995649999999999480e+00 1.374044999999999845e+02 2.312375000000000000e+03
1.300000000000000044e-01 1.907975000000000088e-01 8.759840000000000515e+00 1.371260000000000048e+02 2.312204999999999927e+03
1.310000000000000053e-01 1.907864999999999978e-01 8.615484999999999616e+00 1.370455000000000041e+02 2.312105000000000018e+03
1.320000000000000062e-01 1.907810000000000061e-01 8.551634999999999209e+00 1.371320000000000050e+02 2.312050000000000182e+03
1.330000000000000071e-01 1.907820000000000071e-01 8.555360000000000298e+00 1.373505000000000109e+02 2.312045000000000073e+03
1.340000000000000080e-01 1.907860000000000111e-01 8.612525000000001540e+00 1.376659999999999968e+02 2.312070000000000164e+03
1.350000000000000089e-01 1.907935000000000048e-01 8.708449999999999136e+00 1.380414999999999850e+02 2.312135000000000218e+03
1.360000000000000098e-01 1.908030000000000004e-01 8.828594999999999970e+00 1.384424999999999955e+02 2.312210000000000036e+03
1.370000000000000107e-01 1.908134999999999970e-01 8.959109999999999019e+00 1.388375000000000057e+02 2.312295000000000073e+03
1.380000000000000115e-01 1.908245000000000080e-01 9.087374999999999758e+00 1.391999999999999886e+02 2.312385000000000218e+03
1.390000000000000124e-01 1.908340000000000036e-01 9.202420000000000044e+00 1.395054999999999836e+02 2.312470000000000255e+03
1.400000000000000133e-01 1.908420000000000116e-01 9.295230000000000103e+00 1.397379999999999995e+02 2.312539999999999964e+03
1.410000000000000142e-01 1.908485000000000043e-01 9.359004999999999797e+00 1.398849999999999909e+02 2.312595000000000255e+03
1.420000000000000151e-01 1.908525000000000083e-01 9.389279999999999404e+00 1.399410000000000025e+02 2.312625000000000000e+03
1.430000000000000160e-01 1.908535000000000093e-01 9.383929999999999438e+00 1.399055000000000177e+02 2.312639999999999873e+03
1.440000000000000169e-01 1.908520000000000216e-01 9.343080000000000496e+00 1.397824999999999989e+02 2.312630000000000109e+03
1.450000000000000178e-01 1.908480000000000176e-01 9.268864999999999910e+00 1.395819999999999936e+02 2.312594999999999800e+03
1.459999999999999909e-01 1.908414999999999973e-01 9.165165000000000006e+00 1.393174999999999955e+02 2.312550000000000182e+03
1.469999999999999918e-01 1.908334999999999892e-01 9.037164999999999893e+00 1.390039999999999907e+02 2.312480000000000018e+03
1.479999999999999927e-01 1.908239999999999936e-01 8.890920000000001266e+00 1.386574999999999989e+02 2.312399999999999636e+03
1.489999999999999936e-01 1.908134999999999970e-01 8.732860000000000511e+00 1.382959999999999923e+02 2.312315000000000055e+03
1.499999999999999944e-01 1.908024999999999860e-01 8.569340000000000401e+00 1.379350000000000023e+02 2.312220000000000255e+03
1.509999999999999953e-01 1.907915000000000028e-01 8.406214999999999549e+00 1.375874999999999773e+02 2.312125000000000000e+03
1.519999999999999962e-01 1.907804999999999918e-01 8.248475000000000890e+00 1.372644999999999982e+02 2.312029999999999745e+03
1.529999999999999971e-01 1.907709999999999961e-01 8.100010000000001043e+00 1.369730000000000132e+02 2.311944999999999709e+03
1.539999999999999980e-01 1.907615000000000005e-01 7.963445000000000107e+00 1.367169999999999845e+02 2.311869999999999891e+03
1.549999999999999989e-01 1.907534999999999925e-01 7.840119999999999756e+00 1.364959999999999809e+02 2.311800000000000182e+03
1.559999999999999998e-01 1.907464999999999855e-01 7.730129999999999058e+00 1.363064999999999998e+02 2.311729999999999563e+03
1.570000000000000007e-01 1.907400000000000206e-01 7.632489999999999775e+00 1.361430000000000007e+02 2.311675000000000182e+03
1.580000000000000016e-01 1.907345000000000013e-01 7.545315000000000438e+00 1.359975000000000023e+02 2.311630000000000109e+03
1.590000000000000024e-01 1.907294999999999963e-01 7.466075000000000017e+00 1.358615000000000066e+02 2.311579999999999927e+03
