# t [s], A [cm^2], U [cm/s], P [cPa], c [cm/s]
1.000000000000000021e-03 1.317500000000000060e-01 2.999914999999999665e-01 8.953575000000000728e+01 1.828259999999999991e+03
2.000000000000000042e-03 1.317244999999999944e-01 1.747467000000000104e+00 8.672724999999999795e+01 1.827980000000000018e+03
3.000000000000000062e-03 1.316374999999999906e-01 3.511533000000000015e+00 8.301210000000000377e+01 1.827075000000000045e+03
4.000000000000000083e-03 1.315100000000000158e-01 5.465605500000000561e+00 7.890840000000000032e+01 1.825769999999999982e+03
5.000000000000000104e-03 1.313650000000000095e-01 7.561359999999999637e+00 7.510875000000000057e+01 1.824304999999999836e+03
6.000000000000000125e-03 1.312200000000000033e-01 9.688399999999999679e+00 7.194214999999999804e+01 1.822844999999999800e+03
7.000000000000000146e-03 1.310815000000000174e-01 1.168246999999999858e+01 6.932365000000000066e+01 1.821470000000000027e+03
8.000000000000000167e-03 1.309514999999999985e-01 1.342745999999999995e+01 6.701990000000000691e+01 1.820204999999999927e+03
9.000000000000001055e-03 1.308324999999999905e-01 1.491520999999999830e+01 6.495229999999999393e+01 1.819059999999999945e+03
1.000000000000000194e-02 1.307270000000000099e-01 1.618205000000000027e+01 6.317815000000000225e+01 1.818065000000000055e+03
1.099999999999999936e-02 1.306370000000000031e-01 1.724835000000000207e+01 6.172310000000000230e+01 1.817215000000000146e+03
1.200000000000000025e-02 1.305609999999999826e-01 1.812409999999999854e+01 6.055514999999999759e+01 1.816514999999999873e+03
1.300000000000000114e-02 1.304990000000000039e-01 1.882090000000000174e+01 5.962955000000000183e+01 1.815940000000000055e+03
1.400000000000000203e-02 1.304480000000000084e-01 1.934615000000000151e+01 5.888944999999999652e+01 1.815480000000000018e+03
1.499999999999999944e-02 1.304065000000000085e-01 1.970799999999999841e+01 5.826689999999999969e+01 1.815115000000000009e+03
1.600000000000000033e-02 1.303719999999999879e-01 1.993900000000000006e+01 5.773595000000000255e+01 1.814809999999999945e+03
1.700000000000000122e-02 1.303455000000000030e-01 2.011359999999999815e+01 5.737865000000000038e+01 1.814585000000000036e+03
1.800000000000000211e-02 1.303304999999999880e-01 2.033310000000000173e+01 5.738204999999999956e+01 1.814460000000000036e+03
1.900000000000000300e-02 1.303314999999999890e-01 2.068544999999999945e+01 5.795175000000000409e+01 1.814490000000000009e+03
2.000000000000000042e-02 1.303535000000000110e-01 2.120524999999999949e+01 5.919259999999999877e+01 1.814700000000000045e+03
2.100000000000000130e-02 1.303950000000000109e-01 2.185609999999999786e+01 6.103079999999999927e+01 1.815094999999999800e+03
2.200000000000000219e-02 1.304529999999999856e-01 2.254260000000000019e+01 6.321389999999999532e+01 1.815644999999999982e+03
2.299999999999999961e-02 1.305185000000000095e-01 2.314310000000000045e+01 6.538275000000000148e+01 1.816269999999999982e+03
2.400000000000000050e-02 1.305820000000000036e-01 2.354769999999999897e+01 6.717789999999999395e+01 1.816889999999999873e+03
2.500000000000000139e-02 1.306360000000000021e-01 2.368894999999999840e+01 6.833984999999999843e+01 1.817414999999999964e+03
2.600000000000000228e-02 1.306729999999999836e-01 2.355590000000000117e+01 6.877000000000001023e+01 1.817784999999999854e+03
2.700000000000000316e-02 1.306910000000000016e-01 2.319024999999999892e+01 6.853844999999999743e+01 1.817980000000000018e+03
2.800000000000000058e-02 1.306930000000000036e-01 2.266694999999999993e+01 6.784199999999999875e+01 1.818019999999999982e+03
2.900000000000000147e-02 1.306829999999999936e-01 2.206895000000000095e+01 6.693104999999999905e+01 1.817940000000000055e+03
3.000000000000000236e-02 1.306670000000000054e-01 2.146330000000000027e+01 6.603235000000000809e+01 1.817799999999999955e+03
3.099999999999999978e-02 1.306490000000000151e-01 2.088674999999999926e+01 6.529249999999998977e+01 1.817630000000000109e+03
3.200000000000000067e-02 1.306329999999999991e-01 2.034264999999999901e+01 6.475369999999999493e+01 1.817485000000000127e+03
3.300000000000000155e-02 1.306194999999999995e-01 1.980865000000000009e+01 6.436490000000000578e+01 1.817355000000000018e+03
3.400000000000000244e-02 1.306070000000000009e-01 1.925034999999999741e+01 6.401810000000000400e+01 1.817235000000000127e+03
3.500000000000000333e-02 1.305935000000000012e-01 1.863739999999999952e+01 6.359524999999999295e+01 1.817109999999999900e+03
3.600000000000000422e-02 1.305764999999999842e-01 1.795629999999999882e+01 6.301344999999999885e+01 1.816954999999999927e+03
3.700000000000000511e-02 1.305554999999999910e-01 1.721845000000000070e+01 6.225560000000000116e+01 1.816755000000000109e+03
3.799999999999999906e-02 1.305300000000000071e-01 1.646044999999999803e+01 6.138100000000000023e+01 1.816525000000000091e+03
3.899999999999999994e-02 1.305020000000000069e-01 1.573750000000000071e+01 6.051399999999999579e+01 1.816264999999999873e+03
4.000000000000000083e-02 1.304764999999999953e-01 1.511204999999999998e+01 5.981450000000000244e+01 1.816019999999999982e+03
4.100000000000000172e-02 1.304565000000000030e-01 1.463939999999999841e+01 5.943904999999999461e+01 1.815829999999999927e+03
4.200000000000000261e-02 1.304464999999999930e-01 1.435599999999999987e+01 5.950215000000000032e+01 1.815735000000000127e+03
4.300000000000000350e-02 1.304500000000000104e-01 1.427084999999999937e+01 6.004810000000000514e+01 1.815750000000000000e+03
4.400000000000000439e-02 1.304669999999999996e-01 1.436364999999999981e+01 6.103934999999999889e+01 1.815900000000000091e+03
4.499999999999999833e-02 1.304964999999999875e-01 1.458810000000000073e+01 6.236154999999999404e+01 1.816164999999999964e+03
4.599999999999999922e-02 1.305350000000000121e-01 1.487969999999999970e+01 6.384380000000000166e+01 1.816519999999999982e+03
4.700000000000000011e-02 1.305779999999999996e-01 1.516580000000000084e+01 6.528755000000001019e+01 1.816920000000000073e+03
4.800000000000000100e-02 1.306200000000000139e-01 1.537584999999999980e+01 6.649699999999999989e+01 1.817309999999999945e+03
4.900000000000000189e-02 1.306549999999999934e-01 1.544974999999999987e+01 6.730644999999999811e+01 1.817644999999999982e+03
5.000000000000000278e-02 1.306795000000000040e-01 1.534384999999999977e+01 6.759884999999999877e+01 1.817875000000000000e+03
5.100000000000000366e-02 1.306889999999999996e-01 1.503340000000000032e+01 6.731494999999999607e+01 1.817974999999999909e+03
5.200000000000000455e-02 1.306809999999999916e-01 1.451219999999999999e+01 6.645269999999999300e+01 1.817914999999999964e+03
5.300000000000000544e-02 1.306565000000000087e-01 1.379029999999999845e+01 6.505840000000000600e+01 1.817684999999999945e+03
5.399999999999999939e-02 1.306149999999999811e-01 1.289000000000000057e+01 6.321365000000000123e+01 1.817305000000000064e+03
5.500000000000000028e-02 1.305590000000000084e-01 1.184151500000000112e+01 6.102035000000000764e+01 1.816784999999999854e+03
5.600000000000000117e-02 1.304909999999999959e-01 1.067966999999999977e+01 5.858754999999999313e+01 1.816150000000000091e+03
5.700000000000000205e-02 1.304144999999999888e-01 9.440690000000000026e+00 5.602094999999999914e+01 1.815424999999999955e+03
5.800000000000000294e-02 1.303320000000000034e-01 8.160714999999999719e+00 5.341694999999999993e+01 1.814644999999999982e+03
5.900000000000000383e-02 1.302460000000000007e-01 6.875189999999999912e+00 5.086084999999999923e+01 1.813835000000000036e+03
6.000000000000000472e-02 1.301605000000000123e-01 5.618549999999999933e+00 4.842754999999999654e+01 1.813025000000000091e+03
6.099999999999999867e-02 1.300769999999999982e-01 4.424859999999999793e+00 4.618420000000000414e+01 1.812230000000000018e+03
6.199999999999999956e-02 1.299984999999999891e-01 3.327834999999999877e+00 4.419315000000000282e+01 1.811485000000000127e+03
6.300000000000000044e-02 1.299270000000000147e-01 2.360853999999999786e+00 4.251389999999999958e+01 1.810805000000000064e+03
6.400000000000000133e-02 1.298650000000000082e-01 1.556459500000000107e+00 4.120414999999999850e+01 1.810219999999999800e+03
6.500000000000000222e-02 1.298155000000000003e-01 9.454119999999999191e-01 4.031889999999999930e+01 1.809740000000000009e+03
6.600000000000000311e-02 1.297794999999999921e-01 5.553660000000000263e-01 3.990824999999999534e+01 1.809380000000000109e+03
6.700000000000000400e-02 1.297584999999999988e-01 4.094452000000000091e-01 4.001424999999999699e+01 1.809175000000000182e+03
6.800000000000000488e-02 1.297550000000000092e-01 5.247744999999999216e-01 4.066734999999999900e+01 1.809125000000000000e+03
6.900000000000000577e-02 1.297695000000000098e-01 9.113225000000000353e-01 4.188360000000000127e+01 1.809244999999999891e+03
7.000000000000000666e-02 1.298030000000000017e-01 1.571108500000000019e+00 4.366214999999999691e+01 1.809539999999999964e+03
7.100000000000000755e-02 1.298559999999999992e-01 2.497958999999999818e+00 4.598449999999999704e+01 1.810019999999999982e+03
7.200000000000000844e-02 1.299270000000000147e-01 3.677740500000000079e+00 4.881494999999999607e+01 1.810675000000000182e+03
7.300000000000000933e-02 1.300155000000000061e-01 5.089100000000000179e+00 5.210245000000000459e+01 1.811500000000000000e+03
7.399999999999999634e-02 1.301209999999999867e-01 6.704584999999999795e+00 5.578319999999999368e+01 1.812480000000000018e+03
7.499999999999999722e-02 1.302404999999999813e-01 8.491929999999999978e+00 5.978444999999999965e+01 1.813599999999999909e+03
7.599999999999999811e-02 1.303719999999999879e-01 1.041569499999999948e+01 6.402805000000000746e+01 1.814835000000000036e+03
7.699999999999999900e-02 1.305135000000000045e-01 1.243875000000000064e+01 6.843440000000001078e+01 1.816164999999999964e+03
7.799999999999999989e-02 1.306620000000000004e-01 1.452359000000000044e+01 7.292609999999999104e+01 1.817569999999999936e+03
7.900000000000000078e-02 1.308150000000000146e-01 1.663400000000000034e+01 7.743104999999999905e+01 1.819030000000000200e+03
8.000000000000000167e-02 1.309704999999999897e-01 1.873635000000000161e+01 8.188519999999999754e+01 1.820509999999999991e+03
8.100000000000000255e-02 1.311259999999999926e-01 2.080035000000000167e+01 8.623449999999999704e+01 1.821994999999999891e+03
8.200000000000000344e-02 1.312794999999999934e-01 2.280035000000000167e+01 9.043689999999999429e+01 1.823469999999999800e+03
8.300000000000000433e-02 1.314295000000000047e-01 2.471580000000000155e+01 9.446269999999999811e+01 1.824914999999999964e+03
8.400000000000000522e-02 1.315755000000000119e-01 2.653170000000000073e+01 9.829595000000000482e+01 1.826320000000000164e+03
8.500000000000000611e-02 1.317155000000000131e-01 2.823859999999999815e+01 1.019320999999999913e+02 1.827680000000000064e+03
8.600000000000000699e-02 1.318505000000000094e-01 2.983250000000000313e+01 1.053785000000000025e+02 1.828990000000000009e+03
8.700000000000000788e-02 1.319794999999999996e-01 3.131430000000000291e+01 1.086514999999999986e+02 1.830250000000000000e+03
8.800000000000000877e-02 1.321035000000000126e-01 3.268890000000000384e+01 1.117770000000000010e+02 1.831460000000000036e+03
8.899999999999999578e-02 1.322225000000000206e-01 3.396439999999999770e+01 1.147814999999999941e+02 1.832625000000000000e+03
8.999999999999999667e-02 1.323380000000000112e-01 3.515089999999999293e+01 1.176970000000000027e+02 1.833750000000000000e+03
9.099999999999999756e-02 1.324494999999999978e-01 3.625970000000000226e+01 1.205524999999999949e+02 1.834849999999999909e+03
9.199999999999999845e-02 1.325594999999999968e-01 3.730180000000000007e+01 1.233754999999999882e+02 1.835929999999999836e+03
9.299999999999999933e-02 1.326680000000000081e-01 3.828744999999999976e+01 1.261864999999999952e+02 1.836990000000000009e+03
9.400000000000000022e-02 1.327754999999999908e-01 3.922509999999999764e+01 1.290004999999999882e+02 1.838050000000000182e+03
9.500000000000000111e-02 1.328825000000000145e-01 4.012085000000000434e+01 1.318249999999999886e+02 1.839099999999999909e+03
9.600000000000000200e-02 1.329899999999999971e-01 4.097830000000000439e+01 1.346589999999999918e+02 1.840150000000000091e+03
9.700000000000000289e-02 1.330959999999999921e-01 4.179829999999999757e+01 1.374954999999999927e+02 1.841204999999999927e+03
9.800000000000000377e-02 1.332029999999999881e-01 4.257899999999999352e+01 1.403195000000000050e+02 1.842250000000000000e+03
9.900000000000000466e-02 1.333084999999999964e-01 4.331609999999999872e+01 1.431100000000000136e+02 1.843295000000000073e+03
1.000000000000000056e-01 1.334130000000000038e-01 4.400325000000000131e+01 1.458435000000000059e+02 1.844325000000000045e+03
1.010000000000000064e-01 1.335155000000000092e-01 4.463239999999999696e+01 1.484919999999999902e+02 1.845329999999999927e+03
1.020000000000000073e-01 1.336145000000000249e-01 4.519445000000000334e+01 1.510264999999999986e+02 1.846309999999999945e+03
1.030000000000000082e-01 1.337105000000000099e-01 4.567980000000000018e+01 1.534180000000000064e+02 1.847255000000000109e+03
1.040000000000000091e-01 1.338010000000000033e-01 4.607869999999999777e+01 1.556390000000000100e+02 1.848150000000000091e+03
1.050000000000000100e-01 1.338865000000000194e-01 4.638219999999999743e+01 1.576649999999999920e+02 1.849000000000000000e+03
1.059999999999999970e-01 1.339644999999999864e-01 4.658204999999999529e+01 1.594744999999999777e+02 1.849775000000000091e+03
1.069999999999999979e-01 1.340359999999999885e-01 4.667159999999999798e+01 1.610495000000000232e+02 1.850485000000000127e+03
1.079999999999999988e-01 1.340989999999999960e-01 4.664589999999999748e+01 1.623779999999999859e+02 1.851119999999999891e+03
1.089999999999999997e-01 1.341534999999999811e-01 4.650209999999999866e+01 1.634529999999999745e+02 1.851670000000000073e+03
1.100000000000000006e-01 1.341994999999999993e-01 4.623955000000000126e+01 1.642729999999999961e+02 1.852130000000000109e+03
1.110000000000000014e-01 1.342369999999999952e-01 4.585989999999999611e+01 1.648405000000000200e+02 1.852509999999999991e+03
1.120000000000000023e-01 1.342654999999999821e-01 4.536724999999999852e+01 1.651655000000000086e+02 1.852799999999999955e+03
1.130000000000000032e-01 1.342855000000000021e-01 4.476794999999999902e+01 1.652604999999999791e+02 1.853010000000000218e+03
1.140000000000000041e-01 1.342969999999999997e-01 4.407035000000000480e+01 1.651450000000000102e+02 1.853140000000000100e+03
1.150000000000000050e-01 1.343015000000000181e-01 4.328479999999999706e+01 1.648389999999999986e+02 1.853184999999999945e+03
1.160000000000000059e-01 1.342984999999999873e-01 4.242295000000000016e+01 1.643685000000000116e+02 1.853164999999999964e+03
1.170000000000000068e-01 1.342895000000000061e-01 4.149774999999999636e+01 1.637590000000000146e+02 1.853085000000000036e+03
1.180000000000000077e-01 1.342750000000000055e-01 4.052280000000000371e+01 1.630375000000000227e+02 1.852950000000000045e+03
1.190000000000000085e-01 1.342554999999999998e-01 3.951194999999999879e+01 1.622330000000000041e+02 1.852769999999999982e+03
1.200000000000000094e-01 1.342329999999999912e-01 3.847880000000000678e+01 1.613704999999999927e+02 1.852555000000000064e+03
1.209999999999999964e-01 1.342074999999999796e-01 3.743654999999999688e+01 1.604750000000000227e+02 1.852309999999999945e+03
1.219999999999999973e-01 1.341804999999999803e-01 3.639730000000000132e+01 1.595695000000000050e+02 1.852039999999999964e+03
1.229999999999999982e-01 1.341515000000000069e-01 3.537174999999999869e+01 1.586730000000000018e+02 1.851764999999999873e+03
1.239999999999999991e-01 1.341229999999999922e-01 3.436934999999999718e+01 1.578004999999999995e+02 1.851480000000000018e+03
1.250000000000000000e-01 1.340939999999999910e-01 3.339744999999999919e+01 1.569644999999999868e+02 1.851195000000000164e+03
1.260000000000000009e-01 1.340660000000000185e-01 3.246180000000000376e+01 1.561730000000000018e+02 1.850914999999999964e+03
1.270000000000000018e-01 1.340385000000000049e-01 3.156589999999999918e+01 1.554289999999999736e+02 1.850644999999999982e+03
1.280000000000000027e-01 1.340120000000000200e-01 3.071164999999999878e+01 1.547334999999999923e+02 1.850380000000000109e+03
1.290000000000000036e-01 1.339874999999999816e-01 2.989884999999999948e+01 1.540829999999999984e+02 1.850134999999999991e+03
1.300000000000000044e-01 1.339635000000000131e-01 2.912575000000000003e+01 1.534699999999999989e+02 1.849894999999999982e+03
1.310000000000000053e-01 1.339410000000000045e-01 2.838889999999999958e+01 1.528860000000000241e+02 1.849664999999999964e+03
1.320000000000000062e-01 1.339184999999999959e-01 2.768374999999999986e+01 1.523190000000000168e+02 1.849450000000000045e+03
1.330000000000000071e-01 1.338969999999999883e-01 2.700459999999999994e+01 1.517565000000000168e+02 1.849230000000000018e+03
1.340000000000000080e-01 1.338755000000000084e-01 2.634505000000000052e+01 1.511839999999999975e+02 1.849014999999999873e+03
1.350000000000000089e-01 1.338540000000000008e-01 2.569829999999999970e+01 1.505865000000000009e+02 1.848799999999999955e+03
1.360000000000000098e-01 1.338314999999999921e-01 2.505740000000000123e+01 1.499510000000000218e+02 1.848569999999999936e+03
1.370000000000000107e-01 1.338074999999999959e-01 2.441564999999999941e+01 1.492649999999999864e+02 1.848335000000000036e+03
1.380000000000000115e-01 1.337820000000000120e-01 2.376675000000000182e+01 1.485159999999999911e+02 1.848079999999999927e+03
1.390000000000000124e-01 1.337544999999999984e-01 2.310529999999999973e+01 1.476949999999999932e+02 1.847804999999999836e+03
1.400000000000000133e-01 1.337249999999999828e-01 2.242660000000000053e+01 1.467944999999999993e+02 1.847519999999999982e+03
1.410000000000000142e-01 1.336919999999999775e-01 2.172739999999999938e+01 1.458100000000000023e+02 1.847194999999999936e+03
1.420000000000000151e-01 1.336574999999999847e-01 2.100560000000000116e+01 1.447409999999999854e+02 1.846849999999999909e+03
1.430000000000000160e-01 1.336195000000000022e-01 2.026069999999999993e+01 1.435889999999999986e+02 1.846480000000000018e+03
1.440000000000000169e-01 1.335790000000000033e-01 1.949344999999999928e+01 1.423580000000000041e+02 1.846079999999999927e+03
1.450000000000000178e-01 1.335355000000000014e-01 1.870625000000000071e+01 1.410575000000000045e+02 1.845659999999999854e+03
1.459999999999999909e-01 1.334894999999999832e-01 1.790290000000000248e+01 1.396970000000000027e+02 1.845210000000000036e+03
1.469999999999999918e-01 1.334414999999999907e-01 1.708834999999999837e+01 1.382905000000000086e+02 1.844740000000000009e+03
1.479999999999999927e-01 1.333920000000000106e-01 1.626875000000000071e+01 1.368530000000000086e+02 1.844255000000000109e+03
1.489999999999999936e-01 1.333415000000000017e-01 1.545114999999999839e+01 1.354019999999999868e+02 1.843759999999999991e+03
1.499999999999999944e-01 1.332895000000000052e-01 1.464320000000000022e+01 1.339544999999999959e+02 1.843255000000000109e+03
1.509999999999999953e-01 1.332379999999999953e-01 1.385285000000000011e+01 1.325289999999999964e+02 1.842750000000000000e+03
1.519999999999999962e-01 1.331869999999999998e-01 1.308820000000000050e+01 1.311434999999999889e+02 1.842250000000000000e+03
1.529999999999999971e-01 1.331370000000000053e-01 1.235687499999999872e+01 1.298145000000000095e+02 1.841759999999999991e+03
1.539999999999999980e-01 1.330884999999999985e-01 1.166619999999999990e+01 1.285579999999999927e+02 1.841285000000000082e+03
1.549999999999999989e-01 1.330425000000000080e-01 1.102260500000000043e+01 1.273859999999999957e+02 1.840829999999999927e+03
1.559999999999999998e-01 1.329985000000000195e-01 1.043147499999999894e+01 1.263105000000000047e+02 1.840400000000000091e+03
1.570000000000000007e-01 1.329584999999999795e-01 9.896930000000001115e+00 1.253384999999999962e+02 1.840000000000000000e+03
1.580000000000000016e-01 1.329210000000000114e-01 9.421945000000000903e+00 1.244745000000000061e+02 1.839630000000000109e+03
1.590000000000000024e-01 1.328874999999999917e-01 9.007979999999999876e+00 1.237214999999999918e+02 1.839295000000000073e+03
