# t [s], A [cm^2], U [cm/s], P [cPa], c [cm/s]
1.000000000000000021e-03 1.864365000000000050e-01 4.272095499999999935e-01 9.683369999999999322e+01 2.094069999999999709e+03
2.000000000000000042e-03 1.863670000000000049e-01 2.167470999999999925e+00 9.295390000000000441e+01 2.093510000000000218e+03
3.000000000000000062e-03 1.862004999999999910e-01 4.284473499999999824e+00 8.762810000000000343e+01 2.092219999999999800e+03
4.000000000000000083e-03 1.859870000000000134e-01 6.666933000000000220e+00 8.215829999999999700e+01 2.090585000000000036e+03
5.000000000000000104e-03 1.857695000000000041e-01 9.193715000000000970e+00 7.758859999999999957e+01 2.088934999999999945e+03
6.000000000000000125e-03 1.855674999999999963e-01 1.157805999999999891e+01 7.396875000000000000e+01 2.087434999999999945e+03
7.000000000000000146e-03 1.853825000000000056e-01 1.357400999999999947e+01 7.080129999999999768e+01 2.086085000000000036e+03
8.000000000000000167e-03 1.852179999999999938e-01 1.518555000000000099e+01 6.797265000000000157e+01 2.084899999999999636e+03
9.000000000000001055e-03 1.850800000000000223e-01 1.649014999999999986e+01 6.565579999999999927e+01 2.083925000000000182e+03
1.000000000000000194e-02 1.849685000000000079e-01 1.751559999999999917e+01 6.385954999999999870e+01 2.083144999999999982e+03
1.099999999999999936e-02 1.848819999999999908e-01 1.829435000000000144e+01 6.252205000000000013e+01 2.082550000000000182e+03
1.200000000000000025e-02 1.848174999999999957e-01 1.885450000000000159e+01 6.157404999999999973e+01 2.082110000000000127e+03
1.300000000000000114e-02 1.847685000000000022e-01 1.919744999999999990e+01 6.085739999999999839e+01 2.081784999999999854e+03
1.400000000000000203e-02 1.847304999999999919e-01 1.936949999999999861e+01 6.026850000000000307e+01 2.081545000000000073e+03
1.499999999999999944e-02 1.847070000000000101e-01 1.953320000000000078e+01 6.002745000000000175e+01 2.081400000000000091e+03
1.600000000000000033e-02 1.847104999999999997e-01 1.991335000000000122e+01 6.065789999999999793e+01 2.081440000000000055e+03
1.700000000000000122e-02 1.847554999999999892e-01 2.065160000000000196e+01 6.260664999999999480e+01 2.081760000000000218e+03
1.800000000000000211e-02 1.848454999999999959e-01 2.169675000000000153e+01 6.583270000000000266e+01 2.082394999999999982e+03
1.900000000000000300e-02 1.849675000000000069e-01 2.281105000000000160e+01 6.969259999999999877e+01 2.083260000000000218e+03
2.000000000000000042e-02 1.850939999999999808e-01 2.367560000000000286e+01 7.317634999999999934e+01 2.084170000000000073e+03
2.100000000000000130e-02 1.851939999999999975e-01 2.402870000000000061e+01 7.533050000000000068e+01 2.084909999999999854e+03
2.200000000000000219e-02 1.852469999999999950e-01 2.376950000000000074e+01 7.564445000000000618e+01 2.085324999999999818e+03
2.299999999999999961e-02 1.852445000000000064e-01 2.298559999999999803e+01 7.422729999999999961e+01 2.085345000000000255e+03
2.400000000000000050e-02 1.851970000000000005e-01 2.189939999999999998e+01 7.171184999999999832e+01 2.085034999999999854e+03
2.500000000000000139e-02 1.851249999999999840e-01 2.076610000000000156e+01 6.895265000000000555e+01 2.084534999999999854e+03
2.600000000000000228e-02 1.850509999999999933e-01 1.977495000000000047e+01 6.667520000000000380e+01 2.084015000000000327e+03
2.700000000000000316e-02 1.849919999999999898e-01 1.899399999999999977e+01 6.523284999999999911e+01 2.083579999999999927e+03
2.800000000000000058e-02 1.849524999999999919e-01 1.837274999999999991e+01 6.455169999999999675e+01 2.083284999999999854e+03
2.900000000000000147e-02 1.849270000000000080e-01 1.778930000000000078e+01 6.424670000000000414e+01 2.083095000000000255e+03
3.000000000000000236e-02 1.849049999999999860e-01 1.711619999999999919e+01 6.383389999999999986e+01 2.082930000000000291e+03
3.099999999999999978e-02 1.848739999999999828e-01 1.628030000000000044e+01 6.294879999999999853e+01 2.082715000000000146e+03
3.200000000000000067e-02 1.848279999999999923e-01 1.529860000000000042e+01 6.149895000000000778e+01 2.082394999999999982e+03
3.300000000000000155e-02 1.847695000000000032e-01 1.427819999999999823e+01 5.970629999999999882e+01 2.081984999999999673e+03
3.400000000000000244e-02 1.847079999999999833e-01 1.338374999999999915e+01 5.803054999999999808e+01 2.081545000000000073e+03
3.500000000000000333e-02 1.846599999999999908e-01 1.278239999999999910e+01 5.700480000000000302e+01 2.081194999999999709e+03
3.600000000000000422e-02 1.846389999999999976e-01 1.258830000000000027e+01 5.704789999999999850e+01 2.081024999999999636e+03
3.700000000000000511e-02 1.846554999999999724e-01 1.282560000000000144e+01 5.831909999999999883e+01 2.081119999999999891e+03
3.799999999999999906e-02 1.847094999999999987e-01 1.341920000000000002e+01 6.066129999999999711e+01 2.081480000000000018e+03
3.899999999999999994e-02 1.847929999999999851e-01 1.421385000000000076e+01 6.364029999999999632e+01 2.082059999999999945e+03
4.000000000000000083e-02 1.848905000000000132e-01 1.501044999999999874e+01 6.665455000000000041e+01 2.082750000000000000e+03
4.100000000000000172e-02 1.849830000000000085e-01 1.560779999999999923e+01 6.907519999999999527e+01 2.083409999999999854e+03
4.200000000000000261e-02 1.850515000000000077e-01 1.583934999999999960e+01 7.037510000000000332e+01 2.083905000000000200e+03
4.300000000000000350e-02 1.850799999999999945e-01 1.559670000000000023e+01 7.021760000000000446e+01 2.084125000000000000e+03
4.400000000000000439e-02 1.850590000000000013e-01 1.483865000000000123e+01 6.849299999999999500e+01 2.084000000000000000e+03
4.499999999999999833e-02 1.849870000000000125e-01 1.358610000000000007e+01 6.530334999999999468e+01 2.083500000000000000e+03
4.599999999999999922e-02 1.848664999999999892e-01 1.190775000000000006e+01 6.091020000000000323e+01 2.082659999999999854e+03
4.700000000000000011e-02 1.847064999999999957e-01 9.901695000000000135e+00 5.566394999999999982e+01 2.081534999999999854e+03
4.800000000000000100e-02 1.845175000000000010e-01 7.677875000000000227e+00 4.993654999999999688e+01 2.080194999999999709e+03
4.900000000000000189e-02 1.843115000000000170e-01 5.345333979999999485e+00 4.407129999999999370e+01 2.078729999999999563e+03
5.000000000000000278e-02 1.840990000000000126e-01 3.005560000000000009e+00 3.835689999999999600e+01 2.077215000000000146e+03
5.100000000000000366e-02 1.838905000000000123e-01 7.506799999999995698e-01 3.302349999999999852e+01 2.075720000000000255e+03
5.200000000000000455e-02 1.836935000000000096e-01 -1.335120000000000084e+00 2.825384999999999991e+01 2.074309999999999945e+03
5.300000000000000544e-02 1.835164999999999991e-01 -3.173354999999999926e+00 2.420009999999999906e+01 2.073029999999999745e+03
5.399999999999999939e-02 1.833644999999999858e-01 -4.690104999999999968e+00 2.099790000000000134e+01 2.071930000000000291e+03
5.500000000000000028e-02 1.832435000000000036e-01 -5.817059999999999675e+00 1.877270000000000039e+01 2.071045000000000073e+03
5.600000000000000117e-02 1.831590000000000162e-01 -6.494849999999999568e+00 1.763690000000000069e+01 2.070414999999999964e+03
5.700000000000000205e-02 1.831150000000000000e-01 -6.677965000000000373e+00 1.767865000000000109e+01 2.070074999999999818e+03
5.800000000000000294e-02 1.831150000000000000e-01 -6.339940000000000353e+00 1.894794999999999874e+01 2.070045000000000073e+03
5.900000000000000383e-02 1.831605000000000039e-01 -5.477465000000000472e+00 2.144249999999999901e+01 2.070335000000000036e+03
6.000000000000000472e-02 1.832509999999999972e-01 -4.112224999999999575e+00 2.510030000000000072e+01 2.070949999999999818e+03
6.099999999999999867e-02 1.833845000000000058e-01 -2.289884999999999948e+00 2.979939999999999856e+01 2.071869999999999891e+03
6.199999999999999956e-02 1.835559999999999969e-01 -7.651999999999992141e-02 3.536684999999999945e+01 2.073064999999999600e+03
6.300000000000000044e-02 1.837595000000000200e-01 2.446889999999999787e+00 4.159369999999999834e+01 2.074494999999999891e+03
6.400000000000000133e-02 1.839874999999999983e-01 5.190745999999999860e+00 4.825284999999999513e+01 2.076109999999999673e+03
6.500000000000000222e-02 1.842324999999999935e-01 8.062825000000000131e+00 5.511749999999999972e+01 2.077849999999999909e+03
6.600000000000000311e-02 1.844859999999999833e-01 1.097342999999999869e+01 6.197520000000000095e+01 2.079664999999999964e+03
6.700000000000000400e-02 1.847409999999999886e-01 1.383955500000000072e+01 6.863909999999999911e+01 2.081500000000000000e+03
6.800000000000000488e-02 1.849910000000000165e-01 1.658749999999999858e+01 7.495374999999999943e+01 2.083300000000000182e+03
6.900000000000000577e-02 1.852294999999999914e-01 1.915565000000000140e+01 8.079895000000000493e+01 2.085029999999999745e+03
7.000000000000000666e-02 1.854530000000000067e-01 2.149624999999999986e+01 8.609190000000000964e+01 2.086654999999999745e+03
7.100000000000000755e-02 1.856579999999999897e-01 2.357699999999999818e+01 9.078880000000000905e+01 2.088154999999999745e+03
7.200000000000000844e-02 1.858420000000000072e-01 2.538244999999999862e+01 9.488505000000000678e+01 2.089510000000000218e+03
7.300000000000000933e-02 1.860060000000000047e-01 2.691410000000000124e+01 9.841530000000000200e+01 2.090720000000000255e+03
7.399999999999999634e-02 1.861499999999999821e-01 2.818984999999999985e+01 1.014505000000000052e+02 2.091784999999999854e+03
7.499999999999999722e-02 1.862774999999999848e-01 2.924235000000000184e+01 1.040919999999999987e+02 2.092735000000000127e+03
7.599999999999999811e-02 1.863914999999999877e-01 3.011540000000000106e+01 1.064634999999999962e+02 2.093585000000000036e+03
7.699999999999999900e-02 1.864965000000000095e-01 3.086035000000000039e+01 1.087019999999999982e+02 2.094364999999999782e+03
7.799999999999999989e-02 1.865959999999999841e-01 3.153134999999999977e+01 1.109440000000000026e+02 2.095109999999999673e+03
7.900000000000000078e-02 1.866964999999999875e-01 3.218079999999999785e+01 1.133139999999999930e+02 2.095850000000000364e+03
8.000000000000000167e-02 1.868009999999999948e-01 3.285495000000000232e+01 1.159140000000000015e+02 2.096619999999999891e+03
8.100000000000000255e-02 1.869129999999999958e-01 3.359040000000000248e+01 1.188179999999999978e+02 2.097445000000000164e+03
8.200000000000000344e-02 1.870355000000000212e-01 3.441169999999999618e+01 1.220635000000000048e+02 2.098345000000000255e+03
8.300000000000000433e-02 1.871694999999999887e-01 3.532970000000000255e+01 1.256504999999999939e+02 2.099319999999999709e+03
8.400000000000000522e-02 1.873140000000000083e-01 3.634175000000000466e+01 1.295439999999999827e+02 2.100375000000000000e+03
8.500000000000000611e-02 1.874695000000000111e-01 3.743234999999999957e+01 1.336795000000000186e+02 2.101510000000000218e+03
8.600000000000000699e-02 1.876315000000000066e-01 3.857505000000000450e+01 1.379635000000000105e+02 2.102699999999999818e+03
8.700000000000000788e-02 1.877984999999999793e-01 3.973510000000000275e+01 1.422884999999999991e+02 2.103920000000000073e+03
8.800000000000000877e-02 1.879664999999999808e-01 4.087199999999999989e+01 1.465384999999999991e+02 2.105144999999999982e+03
8.899999999999999578e-02 1.881299999999999917e-01 4.194299999999999784e+01 1.505935000000000059e+02 2.106350000000000364e+03
8.999999999999999667e-02 1.882864999999999955e-01 4.290559999999999974e+01 1.543439999999999941e+02 2.107505000000000109e+03
9.099999999999999756e-02 1.884315000000000018e-01 4.372070000000000078e+01 1.576924999999999955e+02 2.108574999999999818e+03
9.199999999999999845e-02 1.885614999999999930e-01 4.435474999999999568e+01 1.605600000000000023e+02 2.109539999999999964e+03
9.299999999999999933e-02 1.886734999999999940e-01 4.478139999999999787e+01 1.628905000000000030e+02 2.110380000000000109e+03
9.400000000000000022e-02 1.887659999999999894e-01 4.498345000000000482e+01 1.646510000000000105e+02 2.111074999999999818e+03
9.500000000000000111e-02 1.888374999999999915e-01 4.495289999999999964e+01 1.658329999999999984e+02 2.111614999999999782e+03
9.600000000000000200e-02 1.888880000000000003e-01 4.469150000000000489e+01 1.664535000000000196e+02 2.112005000000000109e+03
9.700000000000000289e-02 1.889180000000000026e-01 4.421009999999999707e+01 1.665490000000000066e+02 2.112244999999999891e+03
9.800000000000000377e-02 1.889290000000000136e-01 4.352790000000000248e+01 1.661754999999999995e+02 2.112335000000000036e+03
9.900000000000000466e-02 1.889215000000000200e-01 4.267090000000000316e+01 1.654019999999999868e+02 2.112300000000000182e+03
1.000000000000000056e-01 1.888994999999999980e-01 4.167024999999999579e+01 1.643079999999999927e+02 2.112154999999999745e+03
1.010000000000000064e-01 1.888655000000000195e-01 4.056074999999999875e+01 1.629774999999999920e+02 2.111914999999999964e+03
1.020000000000000073e-01 1.888219999999999898e-01 3.937884999999999991e+01 1.614959999999999809e+02 2.111600000000000364e+03
1.030000000000000082e-01 1.887719999999999954e-01 3.816094999999999970e+01 1.599454999999999814e+02 2.111244999999999891e+03
1.040000000000000091e-01 1.887194999999999845e-01 3.694174999999999898e+01 1.584019999999999868e+02 2.110859999999999673e+03
1.050000000000000100e-01 1.886654999999999860e-01 3.575289999999999679e+01 1.569329999999999927e+02 2.110470000000000255e+03
1.059999999999999970e-01 1.886145000000000183e-01 3.462180000000000035e+01 1.555935000000000059e+02 2.110085000000000036e+03
1.069999999999999979e-01 1.885664999999999980e-01 3.357059999999999889e+01 1.544259999999999877e+02 2.109735000000000127e+03
1.079999999999999988e-01 1.885244999999999838e-01 3.261529999999999774e+01 1.534590000000000032e+02 2.109420000000000073e+03
1.089999999999999997e-01 1.884885000000000033e-01 3.176565000000000083e+01 1.527055000000000007e+02 2.109154999999999745e+03
1.100000000000000006e-01 1.884600000000000164e-01 3.102459999999999951e+01 1.521639999999999873e+02 2.108934999999999945e+03
1.110000000000000014e-01 1.884389999999999954e-01 3.038870000000000005e+01 1.518185000000000002e+02 2.108769999999999982e+03
1.120000000000000023e-01 1.884234999999999938e-01 2.984855000000000302e+01 1.516405000000000030e+02 2.108649999999999636e+03
1.130000000000000032e-01 1.884149999999999991e-01 2.938940000000000197e+01 1.515889999999999986e+02 2.108579999999999927e+03
1.140000000000000041e-01 1.884099999999999941e-01 2.899235000000000184e+01 1.516159999999999854e+02 2.108534999999999854e+03
1.150000000000000050e-01 1.884075000000000055e-01 2.863544999999999874e+01 1.516659999999999968e+02 2.108510000000000218e+03
1.160000000000000059e-01 1.884055000000000035e-01 2.829495000000000005e+01 1.516834999999999809e+02 2.108489999999999782e+03
1.170000000000000068e-01 1.884020000000000139e-01 2.794699999999999918e+01 1.516119999999999948e+02 2.108465000000000146e+03
1.180000000000000077e-01 1.883954999999999935e-01 2.756869999999999976e+01 1.513990000000000009e+02 2.108409999999999854e+03
1.190000000000000085e-01 1.883839999999999959e-01 2.713964999999999961e+01 1.510014999999999930e+02 2.108324999999999818e+03
1.200000000000000094e-01 1.883655000000000190e-01 2.664310000000000045e+01 1.503840000000000146e+02 2.108190000000000055e+03
1.209999999999999964e-01 1.883390000000000064e-01 2.606700000000000017e+01 1.495244999999999891e+02 2.108000000000000000e+03
1.219999999999999973e-01 1.883044999999999858e-01 2.540439999999999898e+01 1.484145000000000039e+02 2.107744999999999891e+03
1.229999999999999982e-01 1.882600000000000107e-01 2.465415000000000134e+01 1.470585000000000093e+02 2.107425000000000182e+03
1.239999999999999991e-01 1.882074999999999998e-01 2.382085000000000008e+01 1.454759999999999991e+02 2.107045000000000073e+03
1.250000000000000000e-01 1.881464999999999943e-01 2.291465000000000174e+01 1.436990000000000123e+02 2.106599999999999909e+03
1.260000000000000009e-01 1.880789999999999962e-01 2.195040000000000191e+01 1.417690000000000055e+02 2.106109999999999673e+03
1.270000000000000018e-01 1.880060000000000064e-01 2.094709999999999894e+01 1.397390000000000043e+02 2.105579999999999927e+03
1.280000000000000027e-01 1.879290000000000127e-01 1.992654999999999887e+01 1.376645000000000039e+02 2.105015000000000327e+03
1.290000000000000036e-01 1.878505000000000036e-01 1.891234999999999999e+01 1.356049999999999898e+02 2.104445000000000164e+03
1.300000000000000044e-01 1.877729999999999955e-01 1.792830000000000013e+01 1.336195000000000164e+02 2.103869999999999891e+03
1.310000000000000053e-01 1.876975000000000171e-01 1.699755000000000038e+01 1.317630000000000052e+02 2.103319999999999709e+03
1.320000000000000062e-01 1.876269999999999882e-01 1.614104999999999990e+01 1.300835000000000150e+02 2.102800000000000182e+03
1.330000000000000071e-01 1.875630000000000075e-01 1.537689999999999912e+01 1.286209999999999809e+02 2.102324999999999818e+03
1.340000000000000080e-01 1.875065000000000204e-01 1.471920000000000073e+01 1.274064999999999941e+02 2.101904999999999745e+03
1.350000000000000089e-01 1.874595000000000011e-01 1.417779999999999951e+01 1.264579999999999984e+02 2.101550000000000182e+03
1.360000000000000098e-01 1.874210000000000043e-01 1.375784999999999947e+01 1.257824999999999989e+02 2.101270000000000437e+03
1.370000000000000107e-01 1.873934999999999906e-01 1.345979999999999954e+01 1.253764999999999930e+02 2.101055000000000291e+03
1.380000000000000115e-01 1.873755000000000004e-01 1.327950000000000053e+01 1.252249999999999943e+02 2.100909999999999854e+03
1.390000000000000124e-01 1.873664999999999914e-01 1.320884999999999998e+01 1.253054999999999950e+02 2.100840000000000146e+03
1.400000000000000133e-01 1.873660000000000048e-01 1.323604999999999876e+01 1.255859999999999985e+02 2.100824999999999818e+03
1.410000000000000142e-01 1.873730000000000118e-01 1.334655000000000058e+01 1.260310000000000059e+02 2.100869999999999891e+03
1.420000000000000151e-01 1.873865000000000114e-01 1.352380000000000138e+01 1.265995000000000061e+02 2.100965000000000146e+03
1.430000000000000160e-01 1.874049999999999883e-01 1.374985000000000035e+01 1.272514999999999930e+02 2.101095000000000255e+03
1.440000000000000169e-01 1.874259999999999815e-01 1.400660000000000061e+01 1.279440000000000026e+02 2.101239999999999782e+03
1.450000000000000178e-01 1.874494999999999911e-01 1.427619999999999933e+01 1.286384999999999934e+02 2.101409999999999854e+03
1.459999999999999909e-01 1.874730000000000008e-01 1.454175000000000040e+01 1.292989999999999782e+02 2.101579999999999927e+03
1.469999999999999918e-01 1.874959999999999960e-01 1.478815000000000168e+01 1.298935000000000173e+02 2.101744999999999891e+03
1.479999999999999927e-01 1.875169999999999892e-01 1.500239999999999974e+01 1.303974999999999795e+02 2.101894999999999982e+03
1.489999999999999936e-01 1.875344999999999929e-01 1.517399999999999949e+01 1.307920000000000016e+02 2.102029999999999745e+03
1.499999999999999944e-01 1.875489999999999935e-01 1.529544999999999888e+01 1.310629999999999882e+02 2.102135000000000218e+03
1.509999999999999953e-01 1.875585000000000169e-01 1.536195000000000022e+01 1.312044999999999959e+02 2.102210000000000036e+03
1.519999999999999962e-01 1.875634999999999941e-01 1.537175000000000047e+01 1.312179999999999893e+02 2.102250000000000000e+03
1.529999999999999971e-01 1.875649999999999817e-01 1.532604999999999862e+01 1.311095000000000255e+02 2.102260000000000218e+03
1.539999999999999980e-01 1.875609999999999777e-01 1.522860000000000014e+01 1.308915000000000077e+02 2.102239999999999782e+03
1.549999999999999989e-01 1.875534999999999841e-01 1.508530000000000015e+01 1.305805000000000007e+02 2.102190000000000055e+03
1.559999999999999998e-01 1.875430000000000152e-01 1.490399999999999991e+01 1.301970000000000027e+02 2.102114999999999782e+03
1.570000000000000007e-01 1.875295000000000156e-01 1.469395000000000095e+01 1.297624999999999886e+02 2.102019999999999982e+03
1.580000000000000016e-01 1.875145000000000006e-01 1.446494999999999997e+01 1.293020000000000209e+02 2.101909999999999854e+03
1.590000000000000024e-01 1.874985000000000124e-01 1.422714999999999996e+01 1.288369999999999891e+02 2.101795000000000073e+03
