# t [s], A [cm^2], U [cm/s], P [cPa], c [cm/s]
1.000000000000000021e-03 4.919510000000000272e-01 2.864449999999997554e-03 1.058170000000000073e+02 1.451650000000000091e+03
2.000000000000000042e-03 4.919449999999999656e-01 2.250540000000000092e-03 1.057999999999999972e+02 1.451639999999999873e+03
3.000000000000000062e-03 4.919864999999999933e-01 8.453355000000001285e-02 1.058764999999999930e+02 1.451664999999999964e+03
4.000000000000000083e-03 4.920280000000000209e-01 1.693880499999999845e-01 1.059789999999999992e+02 1.451694999999999936e+03
5.000000000000000104e-03 4.920204999999999718e-01 1.576737500000000014e-01 1.059615000000000009e+02 1.451695000000000164e+03
6.000000000000000125e-03 4.919799999999999729e-01 7.699199999999997712e-02 1.058125000000000000e+02 1.451664999999999964e+03
7.000000000000000146e-03 4.919375000000000275e-01 -1.242900000000002336e-02 1.055895000000000010e+02 1.451619999999999891e+03
8.000000000000000167e-03 4.918784999999999963e-01 -1.422335000000000127e-01 1.052675000000000125e+02 1.451545000000000073e+03
9.000000000000001055e-03 4.917755000000000321e-01 -3.685499999999999332e-01 1.047704999999999984e+02 1.451434999999999945e+03
1.000000000000000194e-02 4.916220000000000034e-01 -7.015249999999999542e-01 1.040554999999999950e+02 1.451264999999999873e+03
1.099999999999999936e-02 4.914129999999999887e-01 -1.142900000000000027e+00 1.030870000000000033e+02 1.451030000000000200e+03
1.200000000000000025e-02 4.911365000000000314e-01 -1.700270000000000170e+00 1.018236500000000007e+02 1.450720000000000027e+03
1.300000000000000114e-02 4.907944999999999669e-01 -2.351879999999999971e+00 1.002562499999999943e+02 1.450324999999999818e+03
1.400000000000000203e-02 4.904115000000000002e-01 -3.022079999999999878e+00 9.844835000000000491e+01 1.449860000000000127e+03
1.499999999999999944e-02 4.900280000000000191e-01 -3.599494999999999667e+00 9.652844999999999231e+01 1.449345000000000027e+03
1.600000000000000033e-02 4.896820000000000062e-01 -3.980174999999999574e+00 9.464700000000000557e+01 1.448819999999999936e+03
1.700000000000000122e-02 4.893920000000000492e-01 -4.103103499999999570e+00 9.292480000000000473e+01 1.448309999999999945e+03
1.800000000000000211e-02 4.891579999999999817e-01 -3.962437500000000057e+00 9.141970000000000596e+01 1.447840000000000146e+03
1.900000000000000300e-02 4.889615000000000489e-01 -3.599040000000000017e+00 9.012319999999999709e+01 1.447410000000000082e+03
2.000000000000000042e-02 4.887770000000000170e-01 -3.080430999999999919e+00 8.897475000000000023e+01 1.447009999999999991e+03
2.100000000000000130e-02 4.885800000000000143e-01 -2.477838000000000207e+00 8.788870000000000005e+01 1.446619999999999891e+03
2.200000000000000219e-02 4.883540000000000103e-01 -1.846680000000000099e+00 8.678305000000000291e+01 1.446234999999999900e+03
2.299999999999999961e-02 4.880939999999999723e-01 -1.215580000000000105e+00 8.560224999999999795e+01 1.445829999999999927e+03
2.400000000000000050e-02 4.878044999999999742e-01 -5.865249999999999631e-01 8.432755000000000223e+01 1.445404999999999973e+03
2.500000000000000139e-02 4.874970000000000137e-01 5.521000000000020336e-02 8.297214999999999918e+01 1.444960000000000036e+03
2.600000000000000228e-02 4.871830000000000327e-01 7.264550000000000729e-01 8.156629999999999825e+01 1.444505000000000109e+03
2.700000000000000316e-02 4.868685000000000374e-01 1.432685000000000208e+00 8.013859999999999673e+01 1.444039999999999964e+03
2.800000000000000058e-02 4.865530000000000133e-01 2.160255000000000258e+00 7.870085000000000264e+01 1.443570000000000164e+03
2.900000000000000147e-02 4.862284999999999524e-01 2.875415000000000276e+00 7.724014999999999986e+01 1.443090000000000146e+03
3.000000000000000236e-02 4.858824999999999950e-01 3.529420000000000446e+00 7.571949999999999648e+01 1.442594999999999800e+03
3.099999999999999978e-02 4.854990000000000139e-01 4.067705000000000126e+00 7.408549999999999613e+01 1.442075000000000045e+03
3.200000000000000067e-02 4.850639999999999952e-01 4.440725000000000477e+00 7.228114999999999668e+01 1.441509999999999991e+03
3.300000000000000155e-02 4.845705000000000151e-01 4.613879999999999981e+00 7.026044999999999163e+01 1.440900000000000091e+03
3.400000000000000244e-02 4.840180000000000038e-01 4.574910000000000032e+00 6.800140000000000384e+01 1.440230000000000018e+03
3.500000000000000333e-02 4.834154999999999980e-01 4.336685000000000123e+00 6.551515000000000555e+01 1.439505000000000109e+03
3.600000000000000422e-02 4.827784999999999993e-01 3.935379999999999878e+00 6.284785000000000110e+01 1.438735000000000127e+03
3.700000000000000511e-02 4.821300000000000030e-01 3.424365000000000325e+00 6.007694999999999652e+01 1.437930000000000064e+03
3.799999999999999906e-02 4.814944999999999919e-01 2.866184999999999761e+00 5.730194999999999794e+01 1.437119999999999891e+03
3.899999999999999994e-02 4.808959999999999901e-01 2.324085000000000178e+00 5.463230000000000075e+01 1.436329999999999927e+03
4.000000000000000083e-02 4.803570000000000340e-01 1.855055000000000565e+00 5.217579999999999529e+01 1.435585000000000036e+03
4.100000000000000172e-02 4.798949999999999605e-01 1.505414999999999726e+00 5.002819999999999823e+01 1.434910000000000082e+03
4.200000000000000261e-02 4.795230000000000325e-01 1.308934999999999960e+00 4.826664999999999850e+01 1.434340000000000146e+03
4.300000000000000350e-02 4.792480000000000073e-01 1.287024999999999864e+00 4.694604999999999961e+01 1.433875000000000000e+03
4.400000000000000439e-02 4.790744999999999587e-01 1.450780000000000181e+00 4.609890000000000043e+01 1.433539999999999964e+03
4.499999999999999833e-02 4.790019999999999833e-01 1.803647050000000140e+00 4.573770000000000380e+01 1.433340000000000146e+03
4.599999999999999922e-02 4.790289999999999826e-01 2.344199999999999839e+00 4.585875000000000057e+01 1.433269999999999982e+03
4.700000000000000011e-02 4.791515000000000080e-01 3.068310000000000315e+00 4.644655000000000200e+01 1.433339999999999918e+03
4.800000000000000100e-02 4.793650000000000411e-01 3.970419999999999838e+00 4.747750000000000625e+01 1.433534999999999854e+03
4.900000000000000189e-02 4.796645000000000492e-01 5.043815000000000381e+00 4.892305000000000348e+01 1.433865000000000009e+03
5.000000000000000278e-02 4.800434999999999564e-01 6.280167000000000499e+00 5.075114999999999554e+01 1.434305000000000064e+03
5.100000000000000366e-02 4.804955000000000198e-01 7.668479999999999741e+00 5.292659999999999343e+01 1.434855000000000018e+03
5.200000000000000455e-02 4.810129999999999684e-01 9.194500000000001450e+00 5.541140000000000043e+01 1.435505000000000109e+03
5.300000000000000544e-02 4.815865000000000284e-01 1.083977499999999949e+01 5.816384999999999650e+01 1.436240000000000009e+03
5.399999999999999939e-02 4.822069999999999967e-01 1.258192500000000180e+01 6.113925000000000409e+01 1.437054999999999836e+03
5.500000000000000028e-02 4.828624999999999723e-01 1.439518999999999949e+01 6.428964999999999463e+01 1.437930000000000064e+03
5.600000000000000117e-02 4.835434999999999595e-01 1.625169999999999959e+01 6.756559999999998922e+01 1.438855000000000018e+03
5.700000000000000205e-02 4.842389999999999750e-01 1.812275999999999954e+01 7.091745000000000232e+01 1.439815000000000055e+03
5.800000000000000294e-02 4.849385000000000501e-01 1.998049999999999926e+01 7.429755000000000109e+01 1.440799999999999955e+03
5.900000000000000383e-02 4.856334999999999402e-01 2.179935000000000045e+01 7.766214999999999691e+01 1.441789999999999964e+03
6.000000000000000472e-02 4.863164999999999849e-01 2.355744999999999933e+01 8.097354999999998881e+01 1.442775000000000091e+03
6.099999999999999867e-02 4.869814999999999561e-01 2.523704999999999643e+01 8.420144999999999413e+01 1.443750000000000000e+03
6.199999999999999956e-02 4.876255000000000450e-01 2.682535000000000025e+01 8.732389999999999475e+01 1.444704999999999927e+03
6.300000000000000044e-02 4.882465000000000277e-01 2.831429999999999936e+01 9.032724999999999227e+01 1.445639999999999873e+03
6.400000000000000133e-02 4.888440000000000007e-01 2.970045000000000002e+01 9.320749999999999602e+01 1.446545000000000073e+03
6.500000000000000222e-02 4.894199999999999662e-01 3.098434999999999917e+01 9.596625000000000227e+01 1.447420000000000073e+03
6.600000000000000311e-02 4.899759999999999671e-01 3.216980000000000217e+01 9.861390000000000100e+01 1.448264999999999873e+03
6.700000000000000400e-02 4.905160000000000076e-01 3.326335000000000264e+01 1.011637000000000057e+02 1.449090000000000146e+03
6.800000000000000488e-02 4.910430000000000073e-01 3.427320000000000277e+01 1.036347000000000094e+02 1.449884999999999991e+03
6.900000000000000577e-02 4.915614999999999846e-01 3.520884999999999820e+01 1.060456000000000074e+02 1.450664999999999964e+03
7.000000000000000666e-02 4.920754999999999990e-01 3.608015000000000327e+01 1.084164999999999992e+02 1.451429999999999836e+03
7.100000000000000755e-02 4.925884999999999847e-01 3.689679999999999893e+01 1.107680000000000007e+02 1.452190000000000055e+03
7.200000000000000844e-02 4.931030000000000135e-01 3.766769999999999641e+01 1.131149999999999949e+02 1.452950000000000045e+03
7.300000000000000933e-02 4.936230000000000340e-01 3.840030000000000143e+01 1.154720000000000084e+02 1.453704999999999927e+03
7.399999999999999634e-02 4.941479999999999762e-01 3.910044999999999504e+01 1.178479999999999990e+02 1.454465000000000146e+03
7.499999999999999722e-02 4.946789999999999798e-01 3.977179999999999893e+01 1.202479999999999905e+02 1.455235000000000127e+03
7.599999999999999811e-02 4.952155000000000307e-01 4.041570000000000107e+01 1.226694999999999993e+02 1.456005000000000109e+03
7.699999999999999900e-02 4.957555000000000156e-01 4.103099999999999881e+01 1.251064999999999969e+02 1.456779999999999973e+03
7.799999999999999989e-02 4.962960000000000149e-01 4.161445000000000505e+01 1.275474999999999994e+02 1.457554999999999836e+03
7.900000000000000078e-02 4.968329999999999691e-01 4.216065000000000396e+01 1.299764999999999873e+02 1.458329999999999927e+03
8.000000000000000167e-02 4.973624999999999852e-01 4.266264999999999930e+01 1.323745000000000118e+02 1.459095000000000027e+03
8.100000000000000255e-02 4.978790000000000160e-01 4.311214999999999975e+01 1.347185000000000059e+02 1.459845000000000027e+03
8.200000000000000344e-02 4.983785000000000021e-01 4.350060000000000571e+01 1.369855000000000018e+02 1.460575000000000045e+03
8.300000000000000433e-02 4.988545000000000340e-01 4.381905000000000427e+01 1.391505000000000223e+02 1.461284999999999854e+03
8.400000000000000522e-02 4.993035000000000112e-01 4.405915000000000248e+01 1.411920000000000073e+02 1.461954999999999927e+03
8.500000000000000611e-02 4.997205000000000119e-01 4.421349999999999625e+01 1.430874999999999773e+02 1.462590000000000146e+03
8.600000000000000699e-02 5.001029999999999642e-01 4.427594999999999459e+01 1.448199999999999932e+02 1.463174999999999955e+03
8.700000000000000788e-02 5.004460000000000575e-01 4.424219999999999686e+01 1.463745000000000118e+02 1.463704999999999927e+03
8.800000000000000877e-02 5.007500000000000284e-01 4.410960000000000036e+01 1.477409999999999854e+02 1.464190000000000055e+03
8.899999999999999578e-02 5.010120000000000129e-01 4.387775000000000603e+01 1.489124999999999943e+02 1.464615000000000009e+03
8.999999999999999667e-02 5.012339999999999574e-01 4.354819999999999425e+01 1.498894999999999982e+02 1.464980000000000018e+03
9.099999999999999756e-02 5.014144999999999852e-01 4.312454999999999927e+01 1.506734999999999900e+02 1.465289999999999964e+03
9.199999999999999845e-02 5.015564999999999607e-01 4.261230000000000473e+01 1.512719999999999914e+02 1.465539999999999964e+03
9.299999999999999933e-02 5.016625000000000112e-01 4.201869999999999550e+01 1.516965000000000146e+02 1.465735000000000127e+03
9.400000000000000022e-02 5.017350000000000421e-01 4.135255000000000081e+01 1.519610000000000127e+02 1.465880000000000109e+03
9.500000000000000111e-02 5.017779999999999463e-01 4.062385000000000446e+01 1.520824999999999818e+02 1.465980000000000018e+03
9.600000000000000200e-02 5.017949999999999910e-01 3.984349999999999881e+01 1.520790000000000077e+02 1.466034999999999854e+03
9.700000000000000289e-02 5.017909999999999870e-01 3.902299999999999613e+01 1.519714999999999918e+02 1.466050000000000182e+03
9.800000000000000377e-02 5.017690000000000206e-01 3.817405000000000115e+01 1.517800000000000011e+02 1.466039999999999964e+03
9.900000000000000466e-02 5.017340000000000133e-01 3.730830000000000268e+01 1.515254999999999939e+02 1.466000000000000000e+03
1.000000000000000056e-01 5.016895000000000104e-01 3.643670000000000186e+01 1.512270000000000039e+02 1.465945000000000164e+03
1.010000000000000064e-01 5.016395000000000159e-01 3.556949999999999790e+01 1.509035000000000082e+02 1.465869999999999891e+03
1.020000000000000073e-01 5.015874999999999639e-01 3.471580000000000155e+01 1.505705000000000098e+02 1.465795000000000073e+03
1.030000000000000082e-01 5.015355000000000230e-01 3.388304999999999723e+01 1.502409999999999854e+02 1.465710000000000036e+03
1.040000000000000091e-01 5.014855000000000285e-01 3.307730000000000103e+01 1.499265000000000043e+02 1.465625000000000000e+03
1.050000000000000100e-01 5.014399999999999968e-01 3.230264999999999986e+01 1.496349999999999909e+02 1.465539999999999964e+03
1.059999999999999970e-01 5.013985000000000802e-01 3.156149999999999878e+01 1.493700000000000045e+02 1.465460000000000036e+03
1.069999999999999979e-01 5.013615000000000155e-01 3.085419999999999874e+01 1.491324999999999932e+02 1.465389999999999873e+03
1.079999999999999988e-01 5.013284999999999547e-01 3.017960000000000065e+01 1.489209999999999923e+02 1.465319999999999936e+03
1.089999999999999997e-01 5.012984999999999802e-01 2.953480000000000061e+01 1.487305000000000064e+02 1.465255000000000109e+03
1.100000000000000006e-01 5.012689999999999646e-01 2.891570000000000107e+01 1.485534999999999854e+02 1.465200000000000045e+03
1.110000000000000014e-01 5.012389999999999901e-01 2.831719999999999970e+01 1.483815000000000168e+02 1.465134999999999991e+03
1.120000000000000023e-01 5.012060000000000404e-01 2.773320000000000363e+01 1.482040000000000077e+02 1.465079999999999927e+03
1.130000000000000032e-01 5.011680000000000579e-01 2.715749999999999886e+01 1.480095000000000027e+02 1.465009999999999991e+03
1.140000000000000041e-01 5.011220000000000674e-01 2.658364999999999867e+01 1.477880000000000109e+02 1.464940000000000055e+03
1.150000000000000050e-01 5.010669999999999291e-01 2.600544999999999973e+01 1.475275000000000034e+02 1.464860000000000127e+03
1.160000000000000059e-01 5.010000000000000009e-01 2.541730000000000089e+01 1.472199999999999989e+02 1.464764999999999873e+03
1.170000000000000068e-01 5.009204999999999908e-01 2.481419999999999959e+01 1.468559999999999945e+02 1.464659999999999854e+03
1.180000000000000077e-01 5.008270000000000222e-01 2.419235000000000113e+01 1.464300000000000068e+02 1.464535000000000082e+03
1.190000000000000085e-01 5.007190000000000252e-01 2.354905000000000115e+01 1.459379999999999882e+02 1.464394999999999982e+03
1.200000000000000094e-01 5.005960000000000409e-01 2.288284999999999769e+01 1.453770000000000095e+02 1.464224999999999909e+03
1.209999999999999964e-01 5.004589999999999872e-01 2.219359999999999999e+01 1.447500000000000000e+02 1.464045000000000073e+03
1.219999999999999973e-01 5.003079999999999750e-01 2.148264999999999958e+01 1.440579999999999927e+02 1.463845000000000027e+03
1.229999999999999982e-01 5.001450000000000617e-01 2.075260000000000105e+01 1.433089999999999975e+02 1.463625000000000000e+03
1.239999999999999991e-01 4.999715000000000131e-01 2.000730000000000075e+01 1.425079999999999814e+02 1.463394999999999982e+03
1.250000000000000000e-01 4.997905000000000264e-01 1.925169999999999959e+01 1.416664999999999850e+02 1.463139999999999873e+03
1.260000000000000009e-01 4.996034999999999782e-01 1.849155000000000015e+01 1.407955000000000041e+02 1.462884999999999991e+03
1.270000000000000018e-01 4.994134999999999547e-01 1.773355000000000103e+01 1.399069999999999823e+02 1.462619999999999891e+03
1.280000000000000027e-01 4.992240000000000011e-01 1.698475000000000179e+01 1.390135000000000218e+02 1.462349999999999909e+03
1.290000000000000036e-01 4.990364999999999940e-01 1.625244999999999962e+01 1.381299999999999955e+02 1.462079999999999927e+03
1.300000000000000044e-01 4.988550000000000484e-01 1.554405000000000037e+01 1.372690000000000055e+02 1.461815000000000055e+03
1.310000000000000053e-01 4.986810000000000409e-01 1.486641000000000012e+01 1.364424999999999955e+02 1.461554999999999836e+03
1.320000000000000062e-01 4.985180000000000167e-01 1.422616999999999976e+01 1.356630000000000109e+02 1.461315000000000055e+03
1.330000000000000071e-01 4.983674999999999633e-01 1.362907500000000027e+01 1.349410000000000025e+02 1.461079999999999927e+03
1.340000000000000080e-01 4.982309999999999794e-01 1.307999500000000026e+01 1.342835000000000036e+02 1.460865000000000009e+03
1.350000000000000089e-01 4.981099999999999972e-01 1.258277000000000001e+01 1.336990000000000123e+02 1.460670000000000073e+03
1.360000000000000098e-01 4.980060000000000042e-01 1.213991500000000023e+01 1.331910000000000025e+02 1.460494999999999891e+03
1.370000000000000107e-01 4.979175000000000129e-01 1.175284500000000065e+01 1.327610000000000241e+02 1.460339999999999918e+03
1.380000000000000115e-01 4.978454999999999964e-01 1.142165500000000122e+01 1.324100000000000250e+02 1.460210000000000036e+03
1.390000000000000124e-01 4.977900000000000102e-01 1.114528499999999944e+01 1.321359999999999957e+02 1.460099999999999909e+03
1.400000000000000133e-01 4.977489999999999970e-01 1.092155500000000146e+01 1.319345000000000141e+02 1.460009999999999991e+03
1.410000000000000142e-01 4.977209999999999690e-01 1.074717500000000037e+01 1.317994999999999948e+02 1.459944999999999936e+03
1.420000000000000151e-01 4.977055000000000229e-01 1.061819999999999986e+01 1.317245000000000061e+02 1.459894999999999982e+03
1.430000000000000160e-01 4.977004999999999901e-01 1.052984000000000009e+01 1.317010000000000218e+02 1.459869999999999891e+03
1.440000000000000169e-01 4.977030000000000065e-01 1.047701999999999956e+01 1.317205000000000155e+02 1.459845000000000027e+03
1.450000000000000178e-01 4.977119999999999878e-01 1.045428000000000068e+01 1.317729999999999961e+02 1.459844999999999800e+03
1.459999999999999909e-01 4.977260000000000018e-01 1.045602500000000035e+01 1.318509999999999991e+02 1.459849999999999909e+03
1.469999999999999918e-01 4.977429999999999910e-01 1.047689499999999896e+01 1.319445000000000050e+02 1.459860000000000127e+03
1.479999999999999927e-01 4.977604999999999946e-01 1.051168499999999995e+01 1.320459999999999923e+02 1.459875000000000000e+03
1.489999999999999936e-01 4.977785000000000126e-01 1.055555000000000021e+01 1.321475000000000080e+02 1.459894999999999982e+03
1.499999999999999944e-01 4.977940000000000142e-01 1.060420000000000051e+01 1.322445000000000164e+02 1.459914999999999964e+03
1.509999999999999953e-01 4.978080000000000283e-01 1.065388499999999894e+01 1.323305000000000007e+02 1.459934999999999945e+03
1.519999999999999962e-01 4.978184999999999971e-01 1.070141999999999882e+01 1.324025000000000034e+02 1.459954999999999927e+03
1.529999999999999971e-01 4.978259999999999907e-01 1.074437999999999960e+01 1.324574999999999818e+02 1.459965000000000146e+03
1.539999999999999980e-01 4.978294999999999804e-01 1.078079500000000124e+01 1.324945000000000164e+02 1.459974999999999909e+03
1.549999999999999989e-01 4.978294999999999804e-01 1.080952500000000072e+01 1.325135000000000218e+02 1.459974999999999909e+03
1.559999999999999998e-01 4.978265000000000051e-01 1.082988500000000087e+01 1.325149999999999864e+02 1.459980000000000018e+03
1.570000000000000007e-01 4.978199999999999847e-01 1.084168500000000002e+01 1.325000000000000000e+02 1.459980000000000018e+03
1.580000000000000016e-01 4.978110000000000035e-01 1.084534500000000001e+01 1.324714999999999918e+02 1.459970000000000027e+03
1.590000000000000024e-01 4.978004999999999791e-01 1.084151500000000112e+01 1.324320000000000164e+02 1.459960000000000036e+03
