# t [s], A [cm^2], U [cm/s], P [cPa], c [cm/s]
1.000000000000000021e-03 1.718839999999999812e-01 2.491035000000000055e-01 1.046069999999999993e+02 2.344679999999999836e+03
2.000000000000000042e-03 1.718405000000000071e-01 1.699037499999999978e+00 1.011004499999999950e+02 2.344255000000000109e+03
3.000000000000000062e-03 1.717265000000000041e-01 3.544372500000000148e+00 9.608764999999999645e+01 2.343184999999999945e+03
4.000000000000000083e-03 1.715725000000000167e-01 5.651973500000000428e+00 9.056425000000000125e+01 2.341755000000000109e+03
5.000000000000000104e-03 1.714100000000000068e-01 7.933315000000000339e+00 8.558480000000000132e+01 2.340255000000000109e+03
6.000000000000000125e-03 1.712539999999999896e-01 1.017587499999999956e+01 8.147220000000000084e+01 2.338845000000000255e+03
7.000000000000000146e-03 1.711084999999999967e-01 1.213756500000000038e+01 7.790449999999999875e+01 2.337555000000000291e+03
8.000000000000000167e-03 1.709769999999999901e-01 1.375648500000000141e+01 7.469544999999999391e+01 2.336404999999999745e+03
9.000000000000001055e-03 1.708629999999999871e-01 1.508159999999999812e+01 7.197214999999999918e+01 2.335430000000000291e+03
1.000000000000000194e-02 1.707699999999999774e-01 1.614550000000000196e+01 6.981000000000000227e+01 2.334639999999999873e+03
1.099999999999999936e-02 1.706959999999999866e-01 1.696480000000000032e+01 6.816549999999999443e+01 2.334019999999999982e+03
1.200000000000000025e-02 1.706384999999999985e-01 1.754139999999999944e+01 6.691275000000000261e+01 2.333550000000000182e+03
1.300000000000000114e-02 1.705925000000000080e-01 1.787109999999999843e+01 6.585810000000000741e+01 2.333175000000000182e+03
1.400000000000000203e-02 1.705539999999999834e-01 1.800580000000000069e+01 6.491454999999999131e+01 2.332875000000000000e+03
1.499999999999999944e-02 1.705264999999999975e-01 1.809344999999999715e+01 6.430455000000000609e+01 2.332659999999999854e+03
1.600000000000000033e-02 1.705189999999999761e-01 1.832385000000000019e+01 6.449864999999999782e+01 2.332614999999999782e+03
1.700000000000000122e-02 1.705404999999999838e-01 1.881899999999999906e+01 6.589270000000000493e+01 2.332800000000000182e+03
1.800000000000000211e-02 1.705929999999999946e-01 1.955955000000000155e+01 6.849264999999999759e+01 2.333244999999999891e+03
1.900000000000000300e-02 1.706690000000000151e-01 2.039594999999999914e+01 7.183924999999999272e+01 2.333900000000000091e+03
2.000000000000000042e-02 1.707540000000000169e-01 2.112429999999999808e+01 7.519400000000000261e+01 2.334635000000000218e+03
2.100000000000000130e-02 1.708304999999999962e-01 2.157654999999999745e+01 7.784635000000000105e+01 2.335315000000000055e+03
2.200000000000000219e-02 1.708874999999999977e-01 2.168045000000000044e+01 7.937489999999999668e+01 2.335835000000000036e+03
2.299999999999999961e-02 1.709200000000000164e-01 2.146950000000000003e+01 7.975325000000000841e+01 2.336145000000000437e+03
2.400000000000000050e-02 1.709299999999999986e-01 2.104854999999999876e+01 7.928244999999999720e+01 2.336250000000000000e+03
2.500000000000000139e-02 1.709249999999999936e-01 2.053665000000000163e+01 7.840684999999999150e+01 2.336224999999999909e+03
2.600000000000000228e-02 1.709130000000000094e-01 2.001579999999999870e+01 7.750754999999999484e+01 2.336125000000000000e+03
2.700000000000000316e-02 1.708989999999999954e-01 1.950459999999999994e+01 7.676335000000000264e+01 2.336005000000000109e+03
2.800000000000000058e-02 1.708850000000000091e-01 1.896444999999999936e+01 7.612120000000000175e+01 2.335885000000000218e+03
2.900000000000000147e-02 1.708669999999999911e-01 1.832925000000000182e+01 7.537075000000000102e+01 2.335735000000000127e+03
3.000000000000000236e-02 1.708414999999999795e-01 1.754534999999999911e+01 7.427760000000000673e+01 2.335524999999999636e+03
3.099999999999999978e-02 1.708060000000000134e-01 1.660515000000000185e+01 7.271940000000000737e+01 2.335220000000000255e+03
3.200000000000000067e-02 1.707589999999999941e-01 1.556250000000000000e+01 7.077195000000000391e+01 2.334824999999999818e+03
3.300000000000000155e-02 1.707065000000000110e-01 1.452400000000000091e+01 6.871325000000000216e+01 2.334380000000000109e+03
3.400000000000000244e-02 1.706570000000000031e-01 1.361955000000000027e+01 6.694634999999999536e+01 2.333944999999999709e+03
3.500000000000000333e-02 1.706199999999999939e-01 1.296340000000000003e+01 6.587085000000000434e+01 2.333614999999999782e+03
3.600000000000000422e-02 1.706024999999999903e-01 1.262144999999999939e+01 6.575544999999999618e+01 2.333444999999999709e+03
3.700000000000000511e-02 1.706084999999999963e-01 1.259384999999999977e+01 6.665465000000000373e+01 2.333480000000000018e+03
3.799999999999999906e-02 1.706374999999999975e-01 1.281794999999999973e+01 6.839619999999999322e+01 2.333710000000000036e+03
3.899999999999999994e-02 1.706834999999999880e-01 1.318745000000000012e+01 7.063150000000000261e+01 2.334090000000000146e+03
4.000000000000000083e-02 1.707380000000000009e-01 1.357880000000000109e+01 7.292744999999999322e+01 2.334550000000000182e+03
4.100000000000000172e-02 1.707899999999999974e-01 1.387764999999999915e+01 7.486594999999999800e+01 2.335000000000000000e+03
4.200000000000000261e-02 1.708315000000000250e-01 1.399774999999999991e+01 7.612460000000000093e+01 2.335364999999999782e+03
4.300000000000000350e-02 1.708549999999999791e-01 1.388980000000000103e+01 7.652089999999999748e+01 2.335579999999999927e+03
4.400000000000000439e-02 1.708585000000000242e-01 1.354050000000000153e+01 7.601695000000000846e+01 2.335619999999999891e+03
4.499999999999999833e-02 1.708399999999999919e-01 1.296410000000000018e+01 7.469134999999999991e+01 2.335480000000000018e+03
4.599999999999999922e-02 1.708024999999999960e-01 1.219109999999999872e+01 7.269395000000000095e+01 2.335159999999999854e+03
4.700000000000000011e-02 1.707480000000000109e-01 1.125751999999999953e+01 7.019780000000000086e+01 2.334699999999999818e+03
4.800000000000000100e-02 1.706809999999999994e-01 1.019797499999999957e+01 6.736359999999999104e+01 2.334125000000000000e+03
4.900000000000000189e-02 1.706044999999999923e-01 9.042925000000000324e+00 6.432139999999999702e+01 2.333465000000000146e+03
5.000000000000000278e-02 1.705214999999999925e-01 7.820160000000000444e+00 6.116989999999999839e+01 2.332750000000000000e+03
5.100000000000000366e-02 1.704354999999999898e-01 6.558089999999999975e+00 5.798859999999999815e+01 2.332005000000000109e+03
5.200000000000000455e-02 1.703474999999999850e-01 5.289679999999999715e+00 5.485444999999999993e+01 2.331239999999999782e+03
5.300000000000000544e-02 1.702605000000000091e-01 4.055099999999999483e+00 5.185739999999999839e+01 2.330489999999999782e+03
5.399999999999999939e-02 1.701779999999999959e-01 2.902180500000000052e+00 4.910844999999999771e+01 2.329775000000000091e+03
5.500000000000000028e-02 1.701030000000000042e-01 1.884541000000000022e+00 4.673915000000000219e+01 2.329114999999999782e+03
5.600000000000000117e-02 1.700395000000000101e-01 1.057771000000000017e+00 4.489284999999999570e+01 2.328554999999999836e+03
5.700000000000000205e-02 1.699910000000000032e-01 4.745464999999999822e-01 4.371054999999999779e+01 2.328119999999999891e+03
5.800000000000000294e-02 1.699614999999999876e-01 1.796099999999999919e-01 4.331459999999999866e+01 2.327845000000000255e+03
5.900000000000000383e-02 1.699539999999999940e-01 2.055855000000000044e-01 4.379410000000000025e+01 2.327760000000000218e+03
6.000000000000000472e-02 1.699705000000000243e-01 5.701645000000000740e-01 4.519469999999999743e+01 2.327880000000000109e+03
6.099999999999999867e-02 1.700115000000000098e-01 1.274933499999999942e+00 4.751420000000000243e+01 2.328215000000000146e+03
6.199999999999999956e-02 1.700770000000000060e-01 2.305799550000000142e+00 5.070345000000000368e+01 2.328760000000000218e+03
6.300000000000000044e-02 1.701670000000000127e-01 3.634754499999999666e+00 5.467260000000000275e+01 2.329514999999999873e+03
6.400000000000000133e-02 1.702764999999999973e-01 5.222599999999999909e+00 5.930010000000000048e+01 2.330444999999999709e+03
6.500000000000000222e-02 1.704045000000000143e-01 7.022375000000000256e+00 6.444490000000000407e+01 2.331539999999999964e+03
6.600000000000000311e-02 1.705460000000000031e-01 8.983100000000000307e+00 6.995844999999999914e+01 2.332760000000000218e+03
6.700000000000000400e-02 1.706980000000000164e-01 1.105341999999999913e+01 7.569689999999999941e+01 2.334074999999999818e+03
6.800000000000000488e-02 1.708564999999999945e-01 1.318505000000000038e+01 8.153149999999999409e+01 2.335449999999999818e+03
6.900000000000000577e-02 1.710189999999999766e-01 1.533549999999999969e+01 8.735704999999998677e+01 2.336859999999999673e+03
7.000000000000000666e-02 1.711820000000000008e-01 1.746999999999999886e+01 9.309629999999999939e+01 2.338284999999999854e+03
7.100000000000000755e-02 1.713435000000000097e-01 1.956220000000000070e+01 9.870204999999999984e+01 2.339704999999999927e+03
7.200000000000000844e-02 1.715029999999999888e-01 2.159405000000000285e+01 1.041534499999999923e+02 2.341099999999999909e+03
7.300000000000000933e-02 1.716590000000000060e-01 2.355454999999999899e+01 1.094519999999999982e+02 2.342480000000000018e+03
7.399999999999999634e-02 1.718125000000000069e-01 2.543825000000000003e+01 1.146140000000000043e+02 2.343829999999999927e+03
7.499999999999999722e-02 1.719624999999999904e-01 2.724314999999999998e+01 1.196615000000000038e+02 2.345159999999999854e+03
7.599999999999999811e-02 1.721104999999999996e-01 2.896889999999999787e+01 1.246174999999999926e+02 2.346470000000000255e+03
7.699999999999999900e-02 1.722555000000000058e-01 3.061550000000000082e+01 1.294979999999999905e+02 2.347760000000000218e+03
7.799999999999999989e-02 1.723995000000000111e-01 3.218229999999999791e+01 1.343095000000000141e+02 2.349034999999999854e+03
7.900000000000000078e-02 1.725409999999999999e-01 3.366740000000000066e+01 1.390500000000000114e+02 2.350295000000000073e+03
8.000000000000000167e-02 1.726810000000000012e-01 3.506790000000000163e+01 1.437079999999999984e+02 2.351534999999999854e+03
8.100000000000000255e-02 1.728179999999999994e-01 3.637980000000000302e+01 1.482644999999999982e+02 2.352760000000000218e+03
8.200000000000000344e-02 1.729519999999999946e-01 3.759844999999999970e+01 1.526955000000000098e+02 2.353960000000000036e+03
8.300000000000000433e-02 1.730825000000000002e-01 3.871864999999999668e+01 1.569755000000000109e+02 2.355119999999999891e+03
8.400000000000000522e-02 1.732080000000000009e-01 3.973475000000000534e+01 1.610765000000000100e+02 2.356250000000000000e+03
8.500000000000000611e-02 1.733290000000000108e-01 4.064074999999999704e+01 1.649694999999999823e+02 2.357329999999999927e+03
8.600000000000000699e-02 1.734439999999999871e-01 4.143025000000000091e+01 1.686279999999999859e+02 2.358355000000000018e+03
8.700000000000000788e-02 1.735514999999999974e-01 4.209660000000000224e+01 1.720219999999999914e+02 2.359329999999999927e+03
8.800000000000000877e-02 1.736515000000000142e-01 4.263309999999999889e+01 1.751240000000000236e+02 2.360224999999999909e+03
8.899999999999999578e-02 1.737434999999999952e-01 4.303329999999999700e+01 1.779080000000000155e+02 2.361055000000000291e+03
8.999999999999999667e-02 1.738264999999999949e-01 4.329175000000000040e+01 1.803505000000000109e+02 2.361805000000000291e+03
9.099999999999999756e-02 1.738994999999999846e-01 4.340469999999999828e+01 1.824329999999999927e+02 2.362465000000000146e+03
9.199999999999999845e-02 1.739614999999999911e-01 4.337064999999999770e+01 1.841424999999999841e+02 2.363034999999999854e+03
9.299999999999999933e-02 1.740140000000000020e-01 4.319105000000000416e+01 1.854780000000000086e+02 2.363510000000000218e+03
9.400000000000000022e-02 1.740555000000000019e-01 4.287075000000000102e+01 1.864449999999999932e+02 2.363894999999999982e+03
9.500000000000000111e-02 1.740864999999999774e-01 4.241790000000000305e+01 1.870620000000000118e+02 2.364184999999999945e+03
9.600000000000000200e-02 1.741079999999999850e-01 4.184414999999999907e+01 1.873559999999999945e+02 2.364390000000000327e+03
9.700000000000000289e-02 1.741205000000000114e-01 4.116375000000000028e+01 1.873629999999999995e+02 2.364510000000000218e+03
9.800000000000000377e-02 1.741245000000000154e-01 4.039325000000000188e+01 1.871250000000000000e+02 2.364559999999999945e+03
9.900000000000000466e-02 1.741219999999999990e-01 3.955055000000000121e+01 1.866879999999999882e+02 2.364539999999999964e+03
1.000000000000000056e-01 1.741130000000000178e-01 3.865384999999999849e+01 1.860969999999999800e+02 2.364474999999999909e+03
1.010000000000000064e-01 1.741004999999999914e-01 3.772119999999999607e+01 1.853974999999999795e+02 2.364364999999999782e+03
1.020000000000000073e-01 1.740840000000000165e-01 3.676945000000000618e+01 1.846310000000000002e+02 2.364224999999999909e+03
1.030000000000000082e-01 1.740654999999999841e-01 3.581369999999999720e+01 1.838315000000000055e+02 2.364059999999999945e+03
1.040000000000000091e-01 1.740459999999999785e-01 3.486679999999999779e+01 1.830280000000000200e+02 2.363889999999999873e+03
1.050000000000000100e-01 1.740249999999999853e-01 3.393894999999999840e+01 1.822409999999999854e+02 2.363704999999999927e+03
1.059999999999999970e-01 1.740045000000000064e-01 3.303744999999999976e+01 1.814834999999999923e+02 2.363524999999999636e+03
1.069999999999999979e-01 1.739844999999999864e-01 3.216679999999999495e+01 1.807615000000000123e+02 2.363340000000000146e+03
1.079999999999999988e-01 1.739649999999999808e-01 3.132849999999999824e+01 1.800720000000000027e+02 2.363164999999999964e+03
1.089999999999999997e-01 1.739455000000000029e-01 3.052114999999999867e+01 1.794060000000000059e+02 2.362989999999999782e+03
1.100000000000000006e-01 1.739264999999999839e-01 2.974119999999999919e+01 1.787495000000000118e+02 2.362815000000000055e+03
1.110000000000000014e-01 1.739074999999999926e-01 2.898280000000000101e+01 1.780825000000000102e+02 2.362644999999999982e+03
1.120000000000000023e-01 1.738875000000000004e-01 2.823890000000000100e+01 1.773834999999999980e+02 2.362465000000000146e+03
1.130000000000000032e-01 1.738669999999999938e-01 2.750140000000000029e+01 1.766295000000000073e+02 2.362275000000000091e+03
1.140000000000000041e-01 1.738439999999999985e-01 2.676194999999999879e+01 1.757975000000000136e+02 2.362074999999999818e+03
1.150000000000000050e-01 1.738190000000000013e-01 2.601259999999999906e+01 1.748675000000000068e+02 2.361850000000000364e+03
1.160000000000000059e-01 1.737914999999999877e-01 2.524640000000000128e+01 1.738209999999999980e+02 2.361599999999999909e+03
1.170000000000000068e-01 1.737599999999999978e-01 2.445779999999999887e+01 1.726475000000000080e+02 2.361324999999999818e+03
1.180000000000000077e-01 1.737250000000000183e-01 2.364345000000000141e+01 1.713405000000000200e+02 2.361015000000000327e+03
1.190000000000000085e-01 1.736869999999999803e-01 2.280199999999999960e+01 1.699010000000000105e+02 2.360675000000000182e+03
1.200000000000000094e-01 1.736449999999999938e-01 2.193495000000000061e+01 1.683369999999999891e+02 2.360300000000000182e+03
1.209999999999999964e-01 1.736000000000000043e-01 2.104625000000000057e+01 1.666650000000000205e+02 2.359904999999999745e+03
1.219999999999999973e-01 1.735519999999999841e-01 2.014204999999999757e+01 1.649064999999999941e+02 2.359480000000000018e+03
1.229999999999999982e-01 1.735015000000000029e-01 1.923094999999999999e+01 1.630889999999999986e+02 2.359029999999999745e+03
1.239999999999999991e-01 1.734499999999999931e-01 1.832285000000000252e+01 1.612439999999999998e+02 2.358574999999999818e+03
1.250000000000000000e-01 1.733974999999999822e-01 1.742895000000000039e+01 1.594044999999999845e+02 2.358105000000000018e+03
1.260000000000000009e-01 1.733449999999999991e-01 1.656064999999999898e+01 1.576059999999999945e+02 2.357640000000000327e+03
1.270000000000000018e-01 1.732940000000000036e-01 1.572925000000000040e+01 1.558795000000000073e+02 2.357184999999999945e+03
1.280000000000000027e-01 1.732449999999999823e-01 1.494490000000000052e+01 1.542545000000000073e+02 2.356744999999999891e+03
1.290000000000000036e-01 1.731989999999999919e-01 1.421655000000000157e+01 1.527554999999999836e+02 2.356329999999999927e+03
1.300000000000000044e-01 1.731559999999999766e-01 1.355110000000000170e+01 1.513985000000000127e+02 2.355944999999999709e+03
1.310000000000000053e-01 1.731170000000000209e-01 1.295339999999999847e+01 1.501954999999999814e+02 2.355599999999999909e+03
1.320000000000000062e-01 1.730814999999999992e-01 1.242605000000000004e+01 1.491525000000000034e+02 2.355279999999999745e+03
1.330000000000000071e-01 1.730515000000000247e-01 1.196950000000000003e+01 1.482669999999999959e+02 2.355005000000000109e+03
1.340000000000000080e-01 1.730249999999999844e-01 1.158224999999999838e+01 1.475330000000000155e+02 2.354765000000000327e+03
1.350000000000000089e-01 1.730025000000000035e-01 1.126110500000000059e+01 1.469390000000000214e+02 2.354559999999999945e+03
1.360000000000000098e-01 1.729839999999999989e-01 1.100139000000000067e+01 1.464724999999999966e+02 2.354389999999999873e+03
1.370000000000000107e-01 1.729690000000000116e-01 1.079743999999999993e+01 1.461170000000000186e+02 2.354250000000000000e+03
1.380000000000000115e-01 1.729569999999999996e-01 1.064280000000000115e+01 1.458555000000000064e+02 2.354140000000000327e+03
1.390000000000000124e-01 1.729479999999999906e-01 1.053057000000000087e+01 1.456709999999999923e+02 2.354055000000000291e+03
1.400000000000000133e-01 1.729410000000000114e-01 1.045383999999999958e+01 1.455469999999999970e+02 2.353989999999999782e+03
1.410000000000000142e-01 1.729360000000000064e-01 1.040559999999999974e+01 1.454685000000000059e+02 2.353940000000000055e+03
1.420000000000000151e-01 1.729315000000000158e-01 1.037932999999999950e+01 1.454205000000000041e+02 2.353900000000000091e+03
1.430000000000000160e-01 1.729289999999999994e-01 1.036891499999999944e+01 1.453910000000000196e+02 2.353875000000000000e+03
1.440000000000000169e-01 1.729269999999999974e-01 1.036880999999999986e+01 1.453695000000000164e+02 2.353850000000000364e+03
1.450000000000000178e-01 1.729249999999999954e-01 1.037442499999999868e+01 1.453475000000000250e+02 2.353835000000000036e+03
1.459999999999999909e-01 1.729229999999999934e-01 1.038183499999999881e+01 1.453180000000000121e+02 2.353819999999999709e+03
1.469999999999999918e-01 1.729215000000000058e-01 1.038810499999999948e+01 1.452779999999999916e+02 2.353800000000000182e+03
1.479999999999999927e-01 1.729195000000000038e-01 1.039116500000000087e+01 1.452249999999999943e+02 2.353784999999999854e+03
1.489999999999999936e-01 1.729169999999999874e-01 1.038980000000000103e+01 1.451580000000000155e+02 2.353765000000000327e+03
1.499999999999999944e-01 1.729149999999999854e-01 1.038361000000000089e+01 1.450800000000000125e+02 2.353744999999999891e+03
1.509999999999999953e-01 1.729124999999999968e-01 1.037269500000000022e+01 1.449925000000000068e+02 2.353719999999999800e+03
1.519999999999999962e-01 1.729094999999999938e-01 1.035775999999999897e+01 1.449000000000000057e+02 2.353699999999999818e+03
1.529999999999999971e-01 1.729070000000000051e-01 1.033967999999999954e+01 1.448050000000000068e+02 2.353675000000000182e+03
1.539999999999999980e-01 1.729045000000000165e-01 1.031953999999999994e+01 1.447125000000000057e+02 2.353649999999999636e+03
1.549999999999999989e-01 1.729020000000000001e-01 1.029816999999999894e+01 1.446239999999999952e+02 2.353625000000000000e+03
1.559999999999999998e-01 1.728994999999999838e-01 1.027629500000000107e+01 1.445409999999999968e+02 2.353605000000000018e+03
1.570000000000000007e-01 1.728969999999999951e-01 1.025427499999999981e+01 1.444650000000000034e+02 2.353585000000000036e+03
1.580000000000000016e-01 1.728945000000000065e-01 1.023202999999999996e+01 1.443940000000000055e+02 2.353565000000000055e+03
1.590000000000000024e-01 1.728925000000000045e-01 1.020908000000000015e+01 1.443260000000000218e+02 2.353545000000000073e+03
