# t [s], A [cm^2], U [cm/s], P [cPa], c [cm/s]
1.000000000000000021e-03 5.671469999999999567e-01 3.619749999999997969e-03 1.086825000000000045e+02 1.413720000000000027e+03
2.000000000000000042e-03 5.671395000000000186e-01 1.005607999999999849e-03 1.086694999999999993e+02 1.413714999999999918e+03
3.000000000000000062e-03 5.671640000000000015e-01 3.904869999999999175e-02 1.087034999999999911e+02 1.413724999999999909e+03
4.000000000000000083e-03 5.672139999999999960e-01 1.171381999999999979e-01 1.087955000000000041e+02 1.413759999999999991e+03
5.000000000000000104e-03 5.672319999999999585e-01 1.479120500000000171e-01 1.088389999999999986e+02 1.413775000000000091e+03
6.000000000000000125e-03 5.672079999999999345e-01 1.109839499999999979e-01 1.087824999999999989e+02 1.413764999999999873e+03
7.000000000000000146e-03 5.671699999999999520e-01 4.944399999999998796e-02 1.086555000000000035e+02 1.413730000000000018e+03
8.000000000000000167e-03 5.671340000000000270e-01 -1.070599999999999330e-02 1.084899999999999949e+02 1.413690000000000055e+03
9.000000000000001055e-03 5.670810000000000572e-01 -1.041940000000000088e-01 1.082554999999999978e+02 1.413634999999999991e+03
1.000000000000000194e-02 5.669930000000000803e-01 -2.648464999999999847e-01 1.079050000000000011e+02 1.413539999999999964e+03
1.099999999999999936e-02 5.668630000000000058e-01 -5.014749999999998931e-01 1.074089999999999918e+02 1.413404999999999973e+03
1.200000000000000025e-02 5.666835000000000067e-01 -8.212900000000000755e-01 1.067374999999999972e+02 1.413224999999999909e+03
1.300000000000000114e-02 5.664439999999999475e-01 -1.231815000000000104e+00 1.058569999999999993e+02 1.412980000000000018e+03
1.400000000000000203e-02 5.661464999999999970e-01 -1.718679999999999986e+00 1.047564999999999884e+02 1.412670000000000073e+03
1.499999999999999944e-02 5.658090000000000064e-01 -2.232429999999999914e+00 1.034697000000000031e+02 1.412295000000000073e+03
1.600000000000000033e-02 5.654624999999999790e-01 -2.699864999999999959e+00 1.020701499999999982e+02 1.411875000000000000e+03
1.700000000000000122e-02 5.651359999999999717e-01 -3.049330000000000318e+00 1.006459499999999991e+02 1.411434999999999945e+03
1.800000000000000211e-02 5.648465000000000291e-01 -3.232334999999999958e+00 9.927315000000000111e+01 1.410984999999999900e+03
1.900000000000000300e-02 5.645964999999999456e-01 -3.232566999999999968e+00 9.799549999999999272e+01 1.410555000000000064e+03
2.000000000000000042e-02 5.643755000000000299e-01 -3.063068499999999972e+00 9.682094999999999629e+01 1.410139999999999873e+03
2.100000000000000130e-02 5.641659999999999453e-01 -2.756362500000000271e+00 9.572790000000000532e+01 1.409730000000000018e+03
2.200000000000000219e-02 5.639505000000000212e-01 -2.352329999999999810e+00 9.467660000000000764e+01 1.409335000000000036e+03
2.299999999999999961e-02 5.637134999999999785e-01 -1.887170000000000014e+00 9.362364999999999782e+01 1.408934999999999945e+03
2.400000000000000050e-02 5.634489999999999776e-01 -1.385774999999999757e+00 9.253419999999999845e+01 1.408519999999999982e+03
2.500000000000000139e-02 5.631559999999999899e-01 -8.586650000000000116e-01 9.138999999999998636e+01 1.408085000000000036e+03
2.600000000000000228e-02 5.628414999999999946e-01 -3.038599999999997969e-01 9.019095000000000084e+01 1.407634999999999991e+03
2.700000000000000316e-02 5.625145000000000284e-01 2.874099999999999433e-01 8.895165000000000077e+01 1.407174999999999955e+03
2.800000000000000058e-02 5.621834999999999471e-01 9.235400000000000276e-01 8.769299999999999784e+01 1.406704999999999927e+03
2.900000000000000147e-02 5.618544999999999234e-01 1.606095000000000050e+00 8.643385000000000673e+01 1.406235000000000127e+03
3.000000000000000236e-02 5.615269999999999984e-01 2.325950000000000184e+00 8.518379999999999086e+01 1.405759999999999991e+03
3.099999999999999978e-02 5.611969999999999459e-01 3.062544999999999629e+00 8.393914999999999793e+01 1.405289999999999964e+03
3.200000000000000067e-02 5.608560000000000212e-01 3.786089999999999733e+00 8.268299999999999272e+01 1.404815000000000055e+03
3.300000000000000155e-02 5.604925000000000601e-01 4.462004999999999555e+00 8.138830000000000098e+01 1.404329999999999927e+03
3.400000000000000244e-02 5.600979999999999848e-01 5.056205000000000283e+00 8.002379999999999427e+01 1.403824999999999818e+03
3.500000000000000333e-02 5.596640000000000503e-01 5.540669999999999540e+00 7.856080000000000041e+01 1.403295000000000073e+03
3.600000000000000422e-02 5.591889999999999361e-01 5.898020000000000707e+00 7.698019999999999641e+01 1.402735000000000127e+03
3.700000000000000511e-02 5.586754999999999916e-01 6.124245000000000161e+00 7.527789999999998827e+01 1.402144999999999982e+03
3.799999999999999906e-02 5.581324999999999203e-01 6.228859999999999175e+00 7.346739999999999782e+01 1.401529999999999973e+03
3.899999999999999994e-02 5.575729999999999853e-01 6.233344999999999914e+00 7.157980000000000587e+01 1.400884999999999991e+03
4.000000000000000083e-02 5.570135000000000502e-01 6.167370000000000019e+00 6.966065000000000396e+01 1.400235000000000127e+03
4.100000000000000172e-02 5.564704999999999790e-01 6.064664999999999750e+00 6.776494999999999891e+01 1.399590000000000146e+03
4.200000000000000261e-02 5.559610000000000385e-01 5.958755000000000024e+00 6.595130000000000337e+01 1.398960000000000036e+03
4.300000000000000350e-02 5.554989999999999650e-01 5.879805000000000170e+00 6.427684999999999604e+01 1.398375000000000000e+03
4.400000000000000439e-02 5.550960000000000338e-01 5.852660000000000196e+00 6.279254999999999853e+01 1.397840000000000146e+03
4.499999999999999833e-02 5.547610000000000596e-01 5.896052499999999696e+00 6.154050000000000153e+01 1.397375000000000000e+03
4.599999999999999922e-02 5.544985000000000053e-01 6.023017499999999913e+00 6.055259999999999820e+01 1.396994999999999891e+03
4.700000000000000011e-02 5.543130000000000557e-01 6.241755000000000386e+00 5.985065000000000168e+01 1.396695000000000164e+03
4.800000000000000100e-02 5.542049999999999477e-01 6.557479999999999976e+00 5.944745000000000346e+01 1.396494999999999891e+03
4.900000000000000189e-02 5.541760000000000019e-01 6.973339999999999428e+00 5.934855000000000302e+01 1.396389999999999873e+03
5.000000000000000278e-02 5.542245000000000088e-01 7.491864999999999775e+00 5.955429999999999779e+01 1.396384999999999991e+03
5.100000000000000366e-02 5.543504999999999683e-01 8.115445000000001130e+00 6.006130000000000280e+01 1.396485000000000127e+03
5.200000000000000455e-02 5.545525000000000038e-01 8.846499999999998920e+00 6.086390000000000100e+01 1.396679999999999836e+03
5.300000000000000544e-02 5.548295000000000865e-01 9.687030000000000030e+00 6.195440000000000680e+01 1.396974999999999909e+03
5.399999999999999939e-02 5.551794999999999369e-01 1.063795999999999964e+01 6.332345000000000113e+01 1.397369999999999891e+03
5.500000000000000028e-02 5.555995000000000239e-01 1.169843499999999992e+01 6.495949999999999136e+01 1.397855000000000018e+03
5.600000000000000117e-02 5.560864999999999281e-01 1.286496999999999957e+01 6.684810000000000230e+01 1.398425000000000182e+03
5.700000000000000205e-02 5.566345000000000320e-01 1.413107999999999898e+01 6.897185000000000343e+01 1.399079999999999927e+03
5.800000000000000294e-02 5.572380000000000111e-01 1.548716999999999899e+01 7.130965000000000487e+01 1.399815000000000055e+03
5.900000000000000383e-02 5.578899999999999970e-01 1.692088499999999840e+01 7.383714999999999407e+01 1.400619999999999891e+03
6.000000000000000472e-02 5.585824999999999818e-01 1.841745000000000232e+01 7.652740000000000009e+01 1.401480000000000018e+03
6.099999999999999867e-02 5.593080000000000274e-01 1.996059999999999945e+01 7.935105000000000075e+01 1.402400000000000091e+03
6.199999999999999956e-02 5.600585000000000147e-01 2.153340000000000032e+01 8.227815000000001078e+01 1.403360000000000127e+03
6.300000000000000044e-02 5.608254999999999768e-01 2.311905000000000143e+01 8.527889999999999304e+01 1.404360000000000127e+03
6.400000000000000133e-02 5.616025000000000045e-01 2.470179999999999865e+01 8.832500000000000284e+01 1.405384999999999991e+03
6.500000000000000222e-02 5.623825000000000074e-01 2.626750000000000185e+01 9.139090000000000202e+01 1.406420000000000073e+03
6.600000000000000311e-02 5.631614999999999815e-01 2.780389999999999873e+01 9.445435000000000514e+01 1.407470000000000027e+03
6.700000000000000400e-02 5.639349999999999641e-01 2.930105000000000004e+01 9.749644999999999584e+01 1.408519999999999982e+03
6.800000000000000488e-02 5.646995000000000209e-01 3.075130000000000052e+01 1.005032999999999959e+02 1.409565000000000055e+03
6.900000000000000577e-02 5.654544999999999710e-01 3.214920000000000044e+01 1.034643999999999977e+02 1.410610000000000127e+03
7.000000000000000666e-02 5.661974999999999092e-01 3.349099999999999966e+01 1.063744000000000085e+02 1.411630000000000109e+03
7.100000000000000755e-02 5.669294999999999751e-01 3.477459999999999951e+01 1.092293499999999966e+02 1.412650000000000091e+03
7.200000000000000844e-02 5.676505000000000578e-01 3.599925000000000352e+01 1.120300000000000011e+02 1.413654999999999973e+03
7.300000000000000933e-02 5.683599999999999763e-01 3.716499999999999915e+01 1.147785000000000082e+02 1.414639999999999873e+03
7.399999999999999634e-02 5.690604999999999691e-01 3.827240000000000464e+01 1.174770000000000039e+02 1.415615000000000009e+03
7.499999999999999722e-02 5.697514999999999663e-01 3.932220000000000226e+01 1.201299999999999955e+02 1.416579999999999927e+03
7.599999999999999811e-02 5.704350000000000254e-01 4.031519999999999726e+01 1.227410000000000139e+02 1.417529999999999973e+03
7.699999999999999900e-02 5.711100000000000065e-01 4.125184999999999746e+01 1.253120000000000118e+02 1.418460000000000036e+03
7.799999999999999989e-02 5.717769999999999797e-01 4.213224999999999909e+01 1.278460000000000036e+02 1.419389999999999873e+03
7.900000000000000078e-02 5.724359999999999449e-01 4.295584999999999809e+01 1.303425000000000011e+02 1.420305000000000064e+03
8.000000000000000167e-02 5.730855000000000254e-01 4.372154999999999347e+01 1.327990000000000066e+02 1.421204999999999927e+03
8.100000000000000255e-02 5.737250000000000405e-01 4.442764999999999986e+01 1.352125000000000057e+02 1.422089999999999918e+03
8.200000000000000344e-02 5.743519999999999737e-01 4.507179999999999609e+01 1.375774999999999864e+02 1.422965000000000146e+03
8.300000000000000433e-02 5.749644999999999895e-01 4.565139999999999532e+01 1.398870000000000005e+02 1.423820000000000164e+03
8.400000000000000522e-02 5.755605000000000304e-01 4.616334999999999411e+01 1.421324999999999932e+02 1.424654999999999973e+03
8.500000000000000611e-02 5.761365000000000514e-01 4.660474999999999568e+01 1.443045000000000186e+02 1.425465000000000146e+03
8.600000000000000699e-02 5.766910000000000647e-01 4.697229999999999706e+01 1.463930000000000007e+02 1.426250000000000000e+03
8.700000000000000788e-02 5.772205000000000252e-01 4.726344999999999885e+01 1.483874999999999886e+02 1.427005000000000109e+03
8.800000000000000877e-02 5.777235000000000564e-01 4.747570000000000334e+01 1.502789999999999964e+02 1.427724999999999909e+03
8.899999999999999578e-02 5.781970000000000720e-01 4.760734999999999673e+01 1.520584999999999809e+02 1.428410000000000082e+03
8.999999999999999667e-02 5.786390000000000144e-01 4.765725000000000477e+01 1.537180000000000177e+02 1.429054999999999836e+03
9.099999999999999756e-02 5.790484999999999660e-01 4.762505000000000166e+01 1.552509999999999764e+02 1.429660000000000082e+03
9.199999999999999845e-02 5.794239999999999391e-01 4.751125000000000398e+01 1.566519999999999868e+02 1.430210000000000036e+03
9.299999999999999933e-02 5.797654999999999337e-01 4.731700000000000017e+01 1.579194999999999993e+02 1.430724999999999909e+03
9.400000000000000022e-02 5.800724999999999909e-01 4.704469999999999885e+01 1.590504999999999995e+02 1.431190000000000055e+03
9.500000000000000111e-02 5.803445000000000409e-01 4.669720000000000226e+01 1.600459999999999923e+02 1.431605000000000018e+03
9.600000000000000200e-02 5.805829999999999602e-01 4.627819999999999823e+01 1.609085000000000036e+02 1.431970000000000027e+03
9.700000000000000289e-02 5.807885000000000408e-01 4.579245000000000232e+01 1.616419999999999959e+02 1.432295000000000073e+03
9.800000000000000377e-02 5.809630000000000072e-01 4.524500000000000455e+01 1.622510000000000048e+02 1.432569999999999936e+03
9.900000000000000466e-02 5.811080000000000689e-01 4.464180000000000348e+01 1.627434999999999832e+02 1.432804999999999836e+03
1.000000000000000056e-01 5.812249999999999917e-01 4.398904999999999887e+01 1.631270000000000095e+02 1.432994999999999891e+03
1.010000000000000064e-01 5.813169999999999726e-01 4.329359999999999786e+01 1.634105000000000132e+02 1.433150000000000091e+03
1.020000000000000073e-01 5.813865000000000283e-01 4.256244999999999834e+01 1.636039999999999850e+02 1.433269999999999982e+03
1.030000000000000082e-01 5.814354999999999940e-01 4.180275000000000318e+01 1.637175000000000011e+02 1.433355000000000018e+03
1.040000000000000091e-01 5.814669999999999561e-01 4.102154999999999774e+01 1.637620000000000005e+02 1.433420000000000073e+03
1.050000000000000100e-01 5.814840000000000009e-01 4.022590000000000288e+01 1.637479999999999905e+02 1.433450000000000045e+03
1.059999999999999970e-01 5.814890000000000336e-01 3.942235000000000156e+01 1.636854999999999905e+02 1.433460000000000036e+03
1.069999999999999979e-01 5.814825000000000133e-01 3.861705000000000609e+01 1.635840000000000032e+02 1.433460000000000036e+03
1.079999999999999988e-01 5.814694999999999725e-01 3.781540000000000390e+01 1.634530000000000030e+02 1.433440000000000055e+03
1.089999999999999997e-01 5.814500000000000224e-01 3.702210000000000178e+01 1.632995000000000232e+02 1.433409999999999854e+03
1.100000000000000006e-01 5.814254999999999285e-01 3.624094999999999800e+01 1.631304999999999836e+02 1.433365000000000009e+03
1.110000000000000014e-01 5.813975000000000115e-01 3.547469999999999857e+01 1.629515000000000100e+02 1.433315000000000055e+03
1.120000000000000023e-01 5.813669999999999671e-01 3.472509999999999764e+01 1.627649999999999864e+02 1.433255000000000109e+03
1.130000000000000032e-01 5.813340000000000174e-01 3.399309999999999832e+01 1.625734999999999957e+02 1.433200000000000045e+03
1.140000000000000041e-01 5.812980000000000924e-01 3.327844999999999942e+01 1.623779999999999859e+02 1.433139999999999873e+03
1.150000000000000050e-01 5.812595000000000400e-01 3.258030000000000115e+01 1.621770000000000209e+02 1.433069999999999936e+03
1.160000000000000059e-01 5.812175000000000535e-01 3.189679999999999893e+01 1.619694999999999823e+02 1.432994999999999891e+03
1.170000000000000068e-01 5.811705000000000343e-01 3.122570000000000334e+01 1.617515000000000214e+02 1.432920000000000073e+03
1.180000000000000077e-01 5.811184999999999823e-01 3.056425000000000125e+01 1.615200000000000102e+02 1.432840000000000146e+03
1.190000000000000085e-01 5.810609999999999387e-01 2.990944999999999965e+01 1.612710000000000150e+02 1.432750000000000000e+03
1.200000000000000094e-01 5.809950000000000392e-01 2.925805000000000078e+01 1.609990000000000236e+02 1.432655000000000200e+03
1.209999999999999964e-01 5.809204999999999508e-01 2.860705000000000098e+01 1.607005000000000052e+02 1.432549999999999955e+03
1.219999999999999973e-01 5.808375000000000066e-01 2.795354999999999990e+01 1.603720000000000141e+02 1.432440000000000055e+03
1.229999999999999982e-01 5.807434999999999681e-01 2.729485000000000383e+01 1.600090000000000146e+02 1.432309999999999945e+03
1.239999999999999991e-01 5.806394999999999751e-01 2.662870000000000203e+01 1.596094999999999970e+02 1.432175000000000182e+03
1.250000000000000000e-01 5.805240000000000400e-01 2.595349999999999824e+01 1.591709999999999923e+02 1.432025000000000091e+03
1.260000000000000009e-01 5.803979999999999695e-01 2.526784999999999926e+01 1.586935000000000002e+02 1.431865000000000009e+03
1.270000000000000018e-01 5.802614999999999856e-01 2.457135000000000247e+01 1.581764999999999759e+02 1.431684999999999945e+03
1.280000000000000027e-01 5.801144999999999774e-01 2.386395000000000266e+01 1.576204999999999927e+02 1.431494999999999891e+03
1.290000000000000036e-01 5.799579999999999735e-01 2.314620000000000033e+01 1.570295000000000130e+02 1.431295000000000073e+03
1.300000000000000044e-01 5.797930000000000028e-01 2.241945000000000121e+01 1.564050000000000011e+02 1.431079999999999927e+03
1.310000000000000053e-01 5.796204999999999830e-01 2.168540000000000134e+01 1.557520000000000095e+02 1.430855000000000018e+03
1.320000000000000062e-01 5.794430000000000414e-01 2.094650000000000034e+01 1.550749999999999886e+02 1.430619999999999891e+03
1.330000000000000071e-01 5.792604999999999560e-01 2.020550000000000068e+01 1.543805000000000121e+02 1.430384999999999991e+03
1.340000000000000080e-01 5.790755000000000763e-01 1.946565000000000012e+01 1.536730000000000018e+02 1.430134999999999991e+03
1.350000000000000089e-01 5.788895000000000568e-01 1.873039999999999949e+01 1.529604999999999961e+02 1.429889999999999873e+03
1.360000000000000098e-01 5.787039999999999962e-01 1.800350000000000250e+01 1.522485000000000070e+02 1.429639999999999873e+03
1.370000000000000107e-01 5.785219999999999807e-01 1.728890000000000171e+01 1.515450000000000159e+02 1.429390000000000100e+03
1.380000000000000115e-01 5.783445000000000391e-01 1.659044999999999703e+01 1.508565000000000111e+02 1.429144999999999982e+03
1.390000000000000124e-01 5.781730000000000480e-01 1.591205000000000069e+01 1.501895000000000095e+02 1.428904999999999973e+03
1.400000000000000133e-01 5.780095000000000649e-01 1.525725000000000087e+01 1.495500000000000114e+02 1.428674999999999955e+03
1.410000000000000142e-01 5.778544999999999376e-01 1.462954000000000043e+01 1.489435000000000002e+02 1.428454999999999927e+03
1.420000000000000151e-01 5.777099999999999458e-01 1.403189500000000045e+01 1.483754999999999882e+02 1.428240000000000009e+03
1.430000000000000160e-01 5.775770000000000071e-01 1.346693000000000140e+01 1.478489999999999895e+02 1.428045000000000073e+03
1.440000000000000169e-01 5.774559999999999693e-01 1.293669000000000047e+01 1.473685000000000116e+02 1.427864999999999782e+03
1.450000000000000178e-01 5.773470000000000546e-01 1.244269500000000050e+01 1.469350000000000023e+02 1.427694999999999936e+03
1.459999999999999909e-01 5.772515000000000285e-01 1.198584999999999923e+01 1.465500000000000114e+02 1.427545000000000073e+03
1.469999999999999918e-01 5.771680000000000144e-01 1.156649499999999975e+01 1.462135000000000105e+02 1.427409999999999854e+03
1.479999999999999927e-01 5.770965000000000122e-01 1.118436999999999948e+01 1.459254999999999995e+02 1.427284999999999854e+03
1.489999999999999936e-01 5.770370000000000221e-01 1.083859499999999976e+01 1.456835000000000093e+02 1.427184999999999945e+03
1.499999999999999944e-01 5.769874999999999865e-01 1.052785499999999885e+01 1.454839999999999804e+02 1.427094999999999800e+03
1.509999999999999953e-01 5.769489999999999341e-01 1.025035000000000096e+01 1.453255000000000052e+02 1.427019999999999982e+03
1.519999999999999962e-01 5.769185000000000008e-01 1.000386999999999915e+01 1.452024999999999864e+02 1.426960000000000036e+03
1.529999999999999971e-01 5.768964999999999232e-01 9.785959999999999326e+00 1.451105000000000018e+02 1.426909999999999854e+03
1.539999999999999980e-01 5.768800000000000594e-01 9.594014999999998849e+00 1.450464999999999804e+02 1.426869999999999891e+03
1.549999999999999989e-01 5.768689999999999651e-01 9.425205000000000055e+00 1.450040000000000191e+02 1.426835000000000036e+03
1.559999999999999998e-01 5.768619999999999859e-01 9.276699999999999946e+00 1.449789999999999850e+02 1.426815000000000055e+03
1.570000000000000007e-01 5.768579999999999819e-01 9.145830000000000126e+00 1.449664999999999964e+02 1.426795000000000073e+03
1.580000000000000016e-01 5.768554999999999655e-01 9.029989999999999739e+00 1.449635000000000105e+02 1.426785000000000082e+03
1.590000000000000024e-01 5.768539999999999779e-01 8.926655000000000229e+00 1.449650000000000034e+02 1.426769999999999982e+03
