# t [s], A [cm^2], U [cm/s], P [cPa], c [cm/s]
1.000000000000000021e-03 1.506635000000000058e-01 2.368095000000000061e-01 1.037185000000000059e+02 1.780015000000000100e+03
2.000000000000000042e-03 1.506445000000000145e-01 1.720892000000000088e+00 1.009003500000000031e+02 1.779815000000000055e+03
3.000000000000000062e-03 1.505535000000000068e-01 3.572415499999999966e+00 9.726699999999999591e+01 1.778924999999999955e+03
4.000000000000000083e-03 1.504099999999999882e-01 5.629519849999999437e+00 9.308650000000000091e+01 1.777549999999999955e+03
5.000000000000000104e-03 1.502364999999999950e-01 7.841565000000000119e+00 8.897390000000000043e+01 1.775910000000000082e+03
6.000000000000000125e-03 1.500540000000000207e-01 1.012903999999999982e+01 8.532775000000000887e+01 1.774195000000000164e+03
7.000000000000000146e-03 1.498734999999999928e-01 1.236503999999999870e+01 8.222475000000000023e+01 1.772514999999999873e+03
8.000000000000000167e-03 1.497005000000000141e-01 1.442608499999999871e+01 7.953104999999999336e+01 1.770930000000000064e+03
9.000000000000001055e-03 1.495374999999999899e-01 1.625410499999999914e+01 7.711660000000000537e+01 1.769454999999999927e+03
1.000000000000000194e-02 1.493879999999999930e-01 1.785444999999999993e+01 7.496459999999999013e+01 1.768119999999999891e+03
1.099999999999999936e-02 1.492545000000000122e-01 1.924834999999999852e+01 7.310654999999999859e+01 1.766940000000000055e+03
1.200000000000000025e-02 1.491374999999999784e-01 2.044875000000000043e+01 7.154569999999999652e+01 1.765914999999999964e+03
1.300000000000000114e-02 1.490369999999999751e-01 2.146410000000000196e+01 7.025399999999999068e+01 1.765045000000000073e+03
1.400000000000000203e-02 1.489524999999999877e-01 2.230120000000000147e+01 6.918914999999999793e+01 1.764315000000000055e+03
1.499999999999999944e-02 1.488809999999999856e-01 2.296500000000000341e+01 6.829710000000000036e+01 1.763704999999999927e+03
1.600000000000000033e-02 1.488194999999999935e-01 2.346560000000000201e+01 6.752504999999999313e+01 1.763199999999999818e+03
1.700000000000000122e-02 1.487680000000000113e-01 2.383265000000000100e+01 6.685734999999999673e+01 1.762775000000000091e+03
1.800000000000000211e-02 1.487264999999999837e-01 2.412199999999999989e+01 6.634789999999999566e+01 1.762434999999999945e+03
1.900000000000000300e-02 1.486965000000000092e-01 2.440619999999999834e+01 6.611529999999999063e+01 1.762194999999999936e+03
2.000000000000000042e-02 1.486819999999999808e-01 2.475189999999999912e+01 6.629524999999999579e+01 1.762090000000000146e+03
2.100000000000000130e-02 1.486859999999999848e-01 2.519660000000000011e+01 6.697610000000000241e+01 1.762144999999999982e+03
2.200000000000000219e-02 1.487104999999999955e-01 2.573679999999999879e+01 6.815049999999999386e+01 1.762365000000000009e+03
2.299999999999999961e-02 1.487525000000000097e-01 2.633024999999999949e+01 6.970420000000000016e+01 1.762735000000000127e+03
2.400000000000000050e-02 1.488075000000000092e-01 2.691060000000000230e+01 7.144225000000000136e+01 1.763230000000000018e+03
2.500000000000000139e-02 1.488690000000000013e-01 2.740705000000000169e+01 7.313894999999999413e+01 1.763779999999999973e+03
2.600000000000000228e-02 1.489300000000000068e-01 2.776265000000000072e+01 7.459220000000000539e+01 1.764329999999999927e+03
2.700000000000000316e-02 1.489844999999999919e-01 2.794644999999999868e+01 7.566630000000000678e+01 1.764829999999999927e+03
2.800000000000000058e-02 1.490285000000000082e-01 2.795700000000000074e+01 7.631255000000000166e+01 1.765235000000000127e+03
2.900000000000000147e-02 1.490604999999999847e-01 2.781755000000000067e+01 7.656565000000000509e+01 1.765534999999999854e+03
3.000000000000000236e-02 1.490799999999999903e-01 2.756654999999999944e+01 7.652035000000000764e+01 1.765730000000000018e+03
3.099999999999999978e-02 1.490905000000000147e-01 2.724544999999999817e+01 7.629704999999999870e+01 1.765840000000000146e+03
3.200000000000000067e-02 1.490949999999999775e-01 2.688810000000000144e+01 7.600759999999999650e+01 1.765889999999999873e+03
3.300000000000000155e-02 1.490954999999999919e-01 2.651440000000000197e+01 7.572944999999999993e+01 1.765904999999999973e+03
3.400000000000000244e-02 1.490945000000000187e-01 2.612890000000000157e+01 7.549399999999999977e+01 1.765894999999999982e+03
3.500000000000000333e-02 1.490914999999999879e-01 2.572384999999999877e+01 7.528934999999999889e+01 1.765884999999999991e+03
3.600000000000000422e-02 1.490885000000000127e-01 2.528520000000000323e+01 7.507455000000000211e+01 1.765855000000000018e+03
3.700000000000000511e-02 1.490814999999999779e-01 2.479970000000000141e+01 7.479930000000000234e+01 1.765800000000000182e+03
3.799999999999999906e-02 1.490719999999999823e-01 2.426140000000000185e+01 7.442480000000000473e+01 1.765720000000000027e+03
3.899999999999999994e-02 1.490584999999999827e-01 2.367614999999999981e+01 7.393940000000000623e+01 1.765605000000000018e+03
4.000000000000000083e-02 1.490405000000000202e-01 2.306230000000000047e+01 7.336664999999999281e+01 1.765460000000000036e+03
4.100000000000000172e-02 1.490199999999999858e-01 2.244930000000000092e+01 7.276400000000001000e+01 1.765279999999999973e+03
4.200000000000000261e-02 1.489995000000000069e-01 2.187274999999999991e+01 7.221309999999999718e+01 1.765099999999999909e+03
4.300000000000000350e-02 1.489805000000000157e-01 2.136824999999999974e+01 7.180370000000000630e+01 1.764934999999999945e+03
4.400000000000000439e-02 1.489670000000000161e-01 2.096525000000000105e+01 7.161590000000001055e+01 1.764815000000000055e+03
4.499999999999999833e-02 1.489610000000000101e-01 2.068175000000000097e+01 7.170400000000000773e+01 1.764759999999999991e+03
4.599999999999999922e-02 1.489650000000000141e-01 2.052130000000000010e+01 7.208559999999999945e+01 1.764784999999999854e+03
4.700000000000000011e-02 1.489785000000000137e-01 2.047274999999999778e+01 7.273794999999999789e+01 1.764894999999999982e+03
4.800000000000000100e-02 1.490009999999999946e-01 2.051189999999999714e+01 7.360129999999999484e+01 1.765085000000000036e+03
4.900000000000000189e-02 1.490315000000000112e-01 2.060539999999999949e+01 7.458805000000000973e+01 1.765345000000000027e+03
5.000000000000000278e-02 1.490660000000000041e-01 2.071504999999999797e+01 7.559569999999999368e+01 1.765644999999999982e+03
5.100000000000000366e-02 1.491020000000000123e-01 2.080284999999999940e+01 7.652020000000000266e+01 1.765954999999999927e+03
5.200000000000000455e-02 1.491354999999999764e-01 2.083474999999999966e+01 7.726875000000001137e+01 1.766250000000000000e+03
5.300000000000000544e-02 1.491635000000000044e-01 2.078365000000000151e+01 7.776874999999999716e+01 1.766494999999999891e+03
5.399999999999999939e-02 1.491835000000000244e-01 2.063074999999999903e+01 7.797299999999999898e+01 1.766675000000000182e+03
5.500000000000000028e-02 1.491935000000000067e-01 2.036594999999999800e+01 7.786109999999999332e+01 1.766769999999999982e+03
5.600000000000000117e-02 1.491930000000000200e-01 1.998740000000000094e+01 7.743704999999999927e+01 1.766769999999999982e+03
5.700000000000000205e-02 1.491804999999999937e-01 1.949960000000000093e+01 7.672429999999999950e+01 1.766664999999999964e+03
5.800000000000000294e-02 1.491574999999999984e-01 1.891195000000000093e+01 7.576005000000000678e+01 1.766469999999999800e+03
5.900000000000000383e-02 1.491244999999999932e-01 1.823730000000000118e+01 7.458950000000000102e+01 1.766184999999999945e+03
6.000000000000000472e-02 1.490825000000000067e-01 1.749040000000000106e+01 7.326050000000000750e+01 1.765820000000000164e+03
6.099999999999999867e-02 1.490334999999999854e-01 1.668720000000000070e+01 7.182070000000000221e+01 1.765389999999999873e+03
6.199999999999999956e-02 1.489790000000000003e-01 1.584445000000000014e+01 7.031534999999999513e+01 1.764914999999999964e+03
6.300000000000000044e-02 1.489205000000000112e-01 1.497954999999999970e+01 6.878704999999999359e+01 1.764404999999999973e+03
6.400000000000000133e-02 1.488599999999999923e-01 1.411059999999999981e+01 6.727649999999999864e+01 1.763869999999999891e+03
6.500000000000000222e-02 1.487990000000000146e-01 1.325685000000000002e+01 6.582335000000000491e+01 1.763335000000000036e+03
6.600000000000000311e-02 1.487390000000000101e-01 1.243854999999999933e+01 6.446770000000000778e+01 1.762804999999999836e+03
6.700000000000000400e-02 1.486814999999999942e-01 1.167707499999999854e+01 6.325070000000000192e+01 1.762304999999999836e+03
6.800000000000000488e-02 1.486294999999999977e-01 1.099442499999999967e+01 6.221439999999999770e+01 1.761840000000000146e+03
6.900000000000000577e-02 1.485835000000000072e-01 1.041272500000000001e+01 6.140160000000000196e+01 1.761430000000000064e+03
7.000000000000000666e-02 1.485460000000000114e-01 9.953600000000001558e+00 6.085425000000000040e+01 1.761095000000000027e+03
7.100000000000000755e-02 1.485179999999999834e-01 9.637174999999999159e+00 6.061169999999999902e+01 1.760840000000000146e+03
7.200000000000000844e-02 1.485024999999999817e-01 9.481270000000000309e+00 6.070860000000000412e+01 1.760690000000000055e+03
7.300000000000000933e-02 1.484995000000000065e-01 9.500389999999999446e+00 6.117314999999999969e+01 1.760654999999999973e+03
7.399999999999999634e-02 1.485114999999999907e-01 9.705165000000000930e+00 6.202510000000000190e+01 1.760750000000000000e+03
7.499999999999999722e-02 1.485385000000000177e-01 1.010179499999999919e+01 6.327455000000000496e+01 1.760974999999999909e+03
7.599999999999999811e-02 1.485815000000000052e-01 1.069166999999999845e+01 6.492125000000000057e+01 1.761340000000000146e+03
7.699999999999999900e-02 1.486410000000000231e-01 1.147154000000000096e+01 6.695455000000001178e+01 1.761849999999999909e+03
7.799999999999999989e-02 1.487160000000000148e-01 1.243365000000000009e+01 6.935405000000000086e+01 1.762494999999999891e+03
7.900000000000000078e-02 1.488069999999999948e-01 1.356600000000000072e+01 7.209074999999999989e+01 1.763285000000000082e+03
8.000000000000000167e-02 1.489119999999999888e-01 1.485324999999999918e+01 7.512864999999999327e+01 1.764199999999999818e+03
8.100000000000000255e-02 1.490309999999999968e-01 1.627740000000000009e+01 7.842669999999999675e+01 1.765230000000000018e+03
8.200000000000000344e-02 1.491615000000000024e-01 1.781840000000000046e+01 8.194079999999999586e+01 1.766369999999999891e+03
8.300000000000000433e-02 1.493019999999999903e-01 1.945519999999999783e+01 8.562579999999999814e+01 1.767605000000000018e+03
8.400000000000000522e-02 1.494504999999999861e-01 2.116659999999999897e+01 8.943774999999999409e+01 1.768925000000000182e+03
8.500000000000000611e-02 1.496064999999999756e-01 2.293169999999999931e+01 9.333545000000000869e+01 1.770300000000000182e+03
8.600000000000000699e-02 1.497674999999999979e-01 2.473105000000000331e+01 9.728129999999998745e+01 1.771724999999999909e+03
8.700000000000000788e-02 1.499324999999999963e-01 2.654659999999999798e+01 1.012435000000000116e+02 1.773194999999999936e+03
8.800000000000000877e-02 1.501000000000000112e-01 2.836274999999999835e+01 1.051968499999999977e+02 1.774684999999999945e+03
8.899999999999999578e-02 1.502680000000000127e-01 3.016590000000000060e+01 1.091214999999999975e+02 1.776190000000000055e+03
8.999999999999999667e-02 1.504365000000000008e-01 3.194514999999999816e+01 1.130030000000000001e+02 1.777704999999999927e+03
9.099999999999999756e-02 1.506045000000000023e-01 3.369174999999999898e+01 1.168345000000000056e+02 1.779215000000000146e+03
9.199999999999999845e-02 1.507720000000000171e-01 3.539920000000000044e+01 1.206105000000000018e+02 1.780720000000000027e+03
9.299999999999999933e-02 1.509380000000000166e-01 3.706284999999999741e+01 1.243329999999999984e+02 1.782220000000000027e+03
9.400000000000000022e-02 1.511025000000000007e-01 3.867950000000000443e+01 1.280035000000000025e+02 1.783710000000000036e+03
9.500000000000000111e-02 1.512654999999999972e-01 4.024705000000000155e+01 1.316254999999999882e+02 1.785184999999999945e+03
9.600000000000000200e-02 1.514270000000000060e-01 4.176415000000000077e+01 1.352030000000000030e+02 1.786654999999999973e+03
9.700000000000000289e-02 1.515865000000000129e-01 4.322960000000000491e+01 1.387394999999999925e+02 1.788110000000000127e+03
9.800000000000000377e-02 1.517449999999999910e-01 4.464249999999999829e+01 1.422355000000000018e+02 1.789554999999999836e+03
9.900000000000000466e-02 1.519019999999999815e-01 4.600145000000000550e+01 1.456904999999999859e+02 1.790990000000000009e+03
1.000000000000000056e-01 1.520569999999999977e-01 4.730459999999999354e+01 1.491005000000000109e+02 1.792410000000000082e+03
1.010000000000000064e-01 1.522104999999999986e-01 4.854975000000000307e+01 1.524599999999999795e+02 1.793820000000000164e+03
1.020000000000000073e-01 1.523614999999999831e-01 4.973395000000000010e+01 1.557604999999999791e+02 1.795210000000000036e+03
1.030000000000000082e-01 1.525104999999999933e-01 5.085365000000000180e+01 1.589909999999999854e+02 1.796579999999999927e+03
1.040000000000000091e-01 1.526565000000000005e-01 5.190505000000000280e+01 1.621399999999999864e+02 1.797929999999999836e+03
1.050000000000000100e-01 1.527995000000000048e-01 5.288349999999999795e+01 1.651924999999999955e+02 1.799244999999999891e+03
1.059999999999999970e-01 1.529384999999999772e-01 5.378450000000000131e+01 1.681339999999999861e+02 1.800529999999999973e+03
1.069999999999999979e-01 1.530725000000000002e-01 5.460335000000000605e+01 1.709509999999999934e+02 1.801775000000000091e+03
1.079999999999999988e-01 1.532020000000000048e-01 5.533520000000000039e+01 1.736279999999999859e+02 1.802974999999999909e+03
1.089999999999999997e-01 1.533260000000000178e-01 5.597574999999999790e+01 1.761514999999999986e+02 1.804125000000000000e+03
1.100000000000000006e-01 1.534429999999999961e-01 5.652074999999999960e+01 1.785074999999999932e+02 1.805215000000000146e+03
1.110000000000000014e-01 1.535535000000000094e-01 5.696674999999999756e+01 1.806870000000000118e+02 1.806250000000000000e+03
1.120000000000000023e-01 1.536575000000000024e-01 5.731085000000000207e+01 1.826779999999999973e+02 1.807215000000000146e+03
1.130000000000000032e-01 1.537530000000000008e-01 5.755095000000000027e+01 1.844735000000000014e+02 1.808115000000000009e+03
1.140000000000000041e-01 1.538404999999999911e-01 5.768590000000000373e+01 1.860685000000000002e+02 1.808940000000000055e+03
1.150000000000000050e-01 1.539200000000000013e-01 5.771560000000000201e+01 1.874599999999999795e+02 1.809684999999999945e+03
1.160000000000000059e-01 1.539905000000000024e-01 5.764109999999999445e+01 1.886469999999999914e+02 1.810349999999999909e+03
1.170000000000000068e-01 1.540524999999999811e-01 5.746460000000000434e+01 1.896320000000000050e+02 1.810940000000000055e+03
1.180000000000000077e-01 1.541060000000000207e-01 5.718945000000000078e+01 1.904194999999999993e+02 1.811444999999999936e+03
1.190000000000000085e-01 1.541514999999999969e-01 5.682030000000000314e+01 1.910174999999999841e+02 1.811880000000000109e+03
1.200000000000000094e-01 1.541875000000000051e-01 5.636289999999999623e+01 1.914354999999999905e+02 1.812230000000000018e+03
1.209999999999999964e-01 1.542165000000000064e-01 5.582399999999999807e+01 1.916859999999999786e+02 1.812514999999999873e+03
1.219999999999999973e-01 1.542385000000000006e-01 5.521134999999999593e+01 1.917830000000000155e+02 1.812720000000000027e+03
1.229999999999999982e-01 1.542530000000000012e-01 5.453325000000000244e+01 1.917420000000000186e+02 1.812869999999999891e+03
1.239999999999999991e-01 1.542610000000000092e-01 5.379865000000000208e+01 1.915794999999999959e+02 1.812954999999999927e+03
1.250000000000000000e-01 1.542634999999999978e-01 5.301670000000000016e+01 1.913129999999999882e+02 1.812985000000000127e+03
1.260000000000000009e-01 1.542605000000000226e-01 5.219660000000000366e+01 1.909590000000000032e+02 1.812970000000000027e+03
1.270000000000000018e-01 1.542534999999999878e-01 5.134744999999999493e+01 1.905344999999999800e+02 1.812910000000000082e+03
1.280000000000000027e-01 1.542425000000000046e-01 5.047769999999999868e+01 1.900545000000000186e+02 1.812815000000000055e+03
1.290000000000000036e-01 1.542290000000000050e-01 4.959534999999999627e+01 1.895330000000000155e+02 1.812690000000000055e+03
1.300000000000000044e-01 1.542119999999999880e-01 4.870750000000000313e+01 1.889825000000000159e+02 1.812539999999999964e+03
1.310000000000000053e-01 1.541939999999999977e-01 4.782035000000000480e+01 1.884134999999999991e+02 1.812369999999999891e+03
1.320000000000000062e-01 1.541735000000000189e-01 4.693900000000000006e+01 1.878324999999999818e+02 1.812184999999999945e+03
1.330000000000000071e-01 1.541524999999999979e-01 4.606739999999999924e+01 1.872459999999999809e+02 1.811990000000000009e+03
1.340000000000000080e-01 1.541305000000000036e-01 4.520860000000000412e+01 1.866574999999999989e+02 1.811779999999999973e+03
1.350000000000000089e-01 1.541075000000000084e-01 4.436430000000000007e+01 1.860674999999999955e+02 1.811565000000000055e+03
1.360000000000000098e-01 1.540839999999999987e-01 4.353529999999999944e+01 1.854764999999999873e+02 1.811349999999999909e+03
1.370000000000000107e-01 1.540594999999999881e-01 4.272145000000000437e+01 1.848804999999999836e+02 1.811125000000000000e+03
1.380000000000000115e-01 1.540349999999999775e-01 4.192179999999999751e+01 1.842769999999999868e+02 1.810894999999999982e+03
1.390000000000000124e-01 1.540094999999999936e-01 4.113450000000000273e+01 1.836600000000000250e+02 1.810659999999999854e+03
1.400000000000000133e-01 1.539834999999999954e-01 4.035750000000000171e+01 1.830249999999999773e+02 1.810414999999999964e+03
1.410000000000000142e-01 1.539570000000000105e-01 3.958804999999999552e+01 1.823644999999999925e+02 1.810164999999999964e+03
1.420000000000000151e-01 1.539289999999999825e-01 3.882319999999999993e+01 1.816730000000000018e+02 1.809900000000000091e+03
1.430000000000000160e-01 1.538990000000000080e-01 3.806005000000000393e+01 1.809445000000000050e+02 1.809619999999999891e+03
1.440000000000000169e-01 1.538680000000000048e-01 3.729545000000000243e+01 1.801734999999999900e+02 1.809335000000000036e+03
1.450000000000000178e-01 1.538355000000000139e-01 3.652674999999999983e+01 1.793539999999999850e+02 1.809025000000000091e+03
1.459999999999999909e-01 1.538005000000000067e-01 3.575135000000000218e+01 1.784824999999999875e+02 1.808700000000000045e+03
1.469999999999999918e-01 1.537629999999999830e-01 3.496719999999999828e+01 1.775559999999999832e+02 1.808355000000000018e+03
1.479999999999999927e-01 1.537239999999999995e-01 3.417260000000000275e+01 1.765724999999999909e+02 1.807994999999999891e+03
1.489999999999999936e-01 1.536824999999999997e-01 3.336650000000000205e+01 1.755314999999999941e+02 1.807610000000000127e+03
1.499999999999999944e-01 1.536385000000000112e-01 3.254860000000000042e+01 1.744339999999999975e+02 1.807200000000000045e+03
1.509999999999999953e-01 1.535920000000000063e-01 3.171889999999999787e+01 1.732819999999999823e+02 1.806769999999999982e+03
1.519999999999999962e-01 1.535430000000000128e-01 3.087855000000000061e+01 1.720790000000000077e+02 1.806319999999999936e+03
1.529999999999999971e-01 1.534925000000000039e-01 3.002905000000000157e+01 1.708299999999999841e+02 1.805849999999999909e+03
1.539999999999999980e-01 1.534395000000000064e-01 2.917264999999999731e+01 1.695415000000000134e+02 1.805365000000000009e+03
1.549999999999999989e-01 1.533849999999999936e-01 2.831234999999999857e+01 1.682214999999999918e+02 1.804860000000000127e+03
1.559999999999999998e-01 1.533285000000000065e-01 2.745154999999999745e+01 1.668779999999999859e+02 1.804345000000000027e+03
1.570000000000000007e-01 1.532715000000000050e-01 2.659420000000000073e+01 1.655210000000000150e+02 1.803815000000000055e+03
1.580000000000000016e-01 1.532135000000000025e-01 2.574455000000000027e+01 1.641600000000000250e+02 1.803275000000000091e+03
1.590000000000000024e-01 1.531549999999999856e-01 2.490719999999999956e+01 1.628065000000000282e+02 1.802735000000000127e+03
