# t [s], A [cm^2], U [cm/s], P [cPa], c [cm/s]
1.000000000000000021e-03 1.701370000000000104e-01 2.210970000000000157e-01 9.555029999999999291e+01 2.347154999999999745e+03
2.000000000000000042e-03 1.700959999999999972e-01 1.545516000000000112e+00 9.230609999999998649e+01 2.346739999999999782e+03
3.000000000000000062e-03 1.699904999999999888e-01 3.242712500000000109e+00 8.763020000000000209e+01 2.345704999999999927e+03
4.000000000000000083e-03 1.698485000000000134e-01 5.193480000000000096e+00 8.246229999999999905e+01 2.344324999999999818e+03
5.000000000000000104e-03 1.696980000000000155e-01 7.320444999999999425e+00 7.780330000000000723e+01 2.342880000000000109e+03
6.000000000000000125e-03 1.695550000000000113e-01 9.420695000000000263e+00 7.395589999999999975e+01 2.341529999999999745e+03
7.000000000000000146e-03 1.694215000000000027e-01 1.125621999999999900e+01 7.058830000000000382e+01 2.340295000000000073e+03
8.000000000000000167e-03 1.692994999999999917e-01 1.277105500000000049e+01 6.752224999999999966e+01 2.339184999999999945e+03
9.000000000000001055e-03 1.691944999999999977e-01 1.401650000000000063e+01 6.489610000000000412e+01 2.338244999999999891e+03
1.000000000000000194e-02 1.691070000000000073e-01 1.502289999999999992e+01 6.278620000000000800e+01 2.337475000000000364e+03
1.099999999999999936e-02 1.690380000000000216e-01 1.580574999999999974e+01 6.115299999999999159e+01 2.336869999999999891e+03
1.200000000000000025e-02 1.689829999999999943e-01 1.636520000000000152e+01 5.987770000000000437e+01 2.336394999999999982e+03
1.300000000000000114e-02 1.689379999999999771e-01 1.669279999999999831e+01 5.876694999999999425e+01 2.336015000000000327e+03
1.400000000000000203e-02 1.688994999999999802e-01 1.683774999999999977e+01 5.773485000000000156e+01 2.335695000000000164e+03
1.499999999999999944e-02 1.688700000000000201e-01 1.695155000000000101e+01 5.701999999999999602e+01 2.335454999999999927e+03
1.600000000000000033e-02 1.688610000000000111e-01 1.723000000000000043e+01 5.712199999999999989e+01 2.335385000000000218e+03
1.700000000000000122e-02 1.688815000000000177e-01 1.779585000000000150e+01 5.845560000000000400e+01 2.335560000000000400e+03
1.800000000000000211e-02 1.689319999999999988e-01 1.862075000000000102e+01 6.101640000000000441e+01 2.336014999999999873e+03
1.900000000000000300e-02 1.690059999999999896e-01 1.953894999999999982e+01 6.430584999999999241e+01 2.336670000000000073e+03
2.000000000000000042e-02 1.690865000000000007e-01 2.033010000000000161e+01 6.753679999999999950e+01 2.337404999999999745e+03
2.100000000000000130e-02 1.691575000000000162e-01 2.081739999999999924e+01 6.996710000000000207e+01 2.338065000000000055e+03
2.200000000000000219e-02 1.692059999999999953e-01 2.093074999999999974e+01 7.117754999999999654e+01 2.338529999999999745e+03
2.299999999999999961e-02 1.692279999999999895e-01 2.071545000000000059e+01 7.117764999999999986e+01 2.338755000000000109e+03
2.400000000000000050e-02 1.692275000000000029e-01 2.029180000000000206e+01 7.032319999999999993e+01 2.338774999999999636e+03
2.500000000000000139e-02 1.692120000000000013e-01 1.979204999999999970e+01 6.910954999999999870e+01 2.338650000000000091e+03
2.600000000000000228e-02 1.691914999999999947e-01 1.930430000000000135e+01 6.794785000000000252e+01 2.338465000000000146e+03
2.700000000000000316e-02 1.691710000000000158e-01 1.884555000000000291e+01 6.701775000000000659e+01 2.338284999999999854e+03
2.800000000000000058e-02 1.691515000000000102e-01 1.836955000000000027e+01 6.624290000000000589e+01 2.338100000000000364e+03
2.900000000000000147e-02 1.691294999999999882e-01 1.780055000000000121e+01 6.537709999999999866e+01 2.337904999999999745e+03
3.000000000000000236e-02 1.690995000000000137e-01 1.707730000000000103e+01 6.415364999999999895e+01 2.337640000000000327e+03
3.099999999999999978e-02 1.690590000000000148e-01 1.619004999999999939e+01 6.243404999999999916e+01 2.337284999999999854e+03
3.200000000000000067e-02 1.690070000000000183e-01 1.519689999999999941e+01 6.030075000000000074e+01 2.336824999999999818e+03
3.300000000000000155e-02 1.689499999999999891e-01 1.421344999999999992e+01 5.805849999999999511e+01 2.336315000000000055e+03
3.400000000000000244e-02 1.688959999999999906e-01 1.337924999999999898e+01 5.614525000000000432e+01 2.335824999999999818e+03
3.500000000000000333e-02 1.688554999999999917e-01 1.281535000000000046e+01 5.498969999999999914e+01 2.335449999999999818e+03
3.600000000000000422e-02 1.688370000000000148e-01 1.258779999999999966e+01 5.487109999999999843e+01 2.335264999999999873e+03
3.700000000000000511e-02 1.688439999999999941e-01 1.269055000000000000e+01 5.583259999999999934e+01 2.335300000000000182e+03
3.799999999999999906e-02 1.688744999999999830e-01 1.305005000000000059e+01 5.767130000000000223e+01 2.335555000000000291e+03
3.899999999999999994e-02 1.689220000000000166e-01 1.354705000000000048e+01 5.999864999999999782e+01 2.335965000000000146e+03
4.000000000000000083e-02 1.689775000000000027e-01 1.404605000000000103e+01 6.234239999999999782e+01 2.336454999999999927e+03
4.100000000000000172e-02 1.690285000000000259e-01 1.442425000000000068e+01 6.425544999999999618e+01 2.336920000000000073e+03
4.200000000000000261e-02 1.690674999999999817e-01 1.459159999999999968e+01 6.540160000000000196e+01 2.337279999999999745e+03
4.300000000000000350e-02 1.690865000000000007e-01 1.449985000000000035e+01 6.560105000000000075e+01 2.337465000000000146e+03
4.400000000000000439e-02 1.690834999999999977e-01 1.414055000000000106e+01 6.483240000000000691e+01 2.337449999999999818e+03
4.499999999999999833e-02 1.690574999999999994e-01 1.353519999999999968e+01 6.319904999999999973e+01 2.337230000000000018e+03
4.599999999999999922e-02 1.690115000000000089e-01 1.272214999999999918e+01 6.087749999999999773e+01 2.336829999999999927e+03
4.700000000000000011e-02 1.689490000000000158e-01 1.174453000000000102e+01 5.806454999999999700e+01 2.336274999999999636e+03
4.800000000000000100e-02 1.688735000000000097e-01 1.064234500000000061e+01 5.493755000000000166e+01 2.335604999999999563e+03
4.900000000000000189e-02 1.687899999999999956e-01 9.449505000000000265e+00 5.163524999999999920e+01 2.334850000000000364e+03
5.000000000000000278e-02 1.687009999999999899e-01 8.195325000000000415e+00 4.825804999999999723e+01 2.334050000000000182e+03
5.100000000000000366e-02 1.686090000000000089e-01 6.908215000000000217e+00 4.488150000000000261e+01 2.333215000000000146e+03
5.200000000000000455e-02 1.685165000000000135e-01 5.620415000000000383e+00 4.157609999999999673e+01 2.332380000000000109e+03
5.300000000000000544e-02 1.684255000000000058e-01 4.370575000000000543e+00 3.842400000000000659e+01 2.331554999999999836e+03
5.399999999999999939e-02 1.683395000000000030e-01 3.204750999999999905e+00 3.552884999999999849e+01 2.330775000000000091e+03
5.500000000000000028e-02 1.682605000000000073e-01 2.174472999999999878e+00 3.301534999999999798e+01 2.330055000000000291e+03
5.600000000000000117e-02 1.681934999999999958e-01 1.332834500000000144e+00 3.102050000000000196e+01 2.329434999999999945e+03
5.700000000000000205e-02 1.681414999999999993e-01 7.294840000000001323e-01 2.967830000000000013e+01 2.328949999999999818e+03
5.800000000000000294e-02 1.681075000000000208e-01 4.055265000000000120e-01 2.910309999999999775e+01 2.328630000000000109e+03
5.900000000000000383e-02 1.680949999999999944e-01 3.893694999999999795e-01 2.937464999999999904e+01 2.328494999999999891e+03
6.000000000000000472e-02 1.681055000000000188e-01 6.940965000000000051e-01 3.052795000000000059e+01 2.328560000000000400e+03
6.099999999999999867e-02 1.681389999999999829e-01 1.316562100000000068e+00 3.254930000000000234e+01 2.328845000000000255e+03
6.199999999999999956e-02 1.681960000000000122e-01 2.238173500000000260e+00 3.537824999999999420e+01 2.329329999999999927e+03
6.300000000000000044e-02 1.682739999999999791e-01 3.426994000000000096e+00 3.891454999999999842e+01 2.330019999999999982e+03
6.400000000000000133e-02 1.683699999999999919e-01 4.840799999999999770e+00 4.302844999999999942e+01 2.330869999999999891e+03
6.500000000000000222e-02 1.684819999999999929e-01 6.430735000000000312e+00 4.757309999999999661e+01 2.331869999999999891e+03
6.600000000000000311e-02 1.686050000000000049e-01 8.145255000000000578e+00 5.239730000000000132e+01 2.332970000000000255e+03
6.700000000000000400e-02 1.687365000000000115e-01 9.933859999999999246e+00 5.735799999999999699e+01 2.334149999999999636e+03
6.800000000000000488e-02 1.688715000000000077e-01 1.175063000000000102e+01 6.233074999999999477e+01 2.335369999999999891e+03
6.900000000000000577e-02 1.690074999999999772e-01 1.355695000000000050e+01 6.721784999999999854e+01 2.336610000000000127e+03
7.000000000000000666e-02 1.691420000000000146e-01 1.532310000000000016e+01 7.195279999999999632e+01 2.337835000000000036e+03
7.100000000000000755e-02 1.692744999999999944e-01 1.702904999999999802e+01 7.650114999999999554e+01 2.339039999999999964e+03
7.200000000000000844e-02 1.694019999999999970e-01 1.866355000000000075e+01 8.085739999999999839e+01 2.340215000000000146e+03
7.300000000000000933e-02 1.695260000000000100e-01 2.022319999999999851e+01 8.503845000000001164e+01 2.341355000000000018e+03
7.399999999999999634e-02 1.696464999999999779e-01 2.171000000000000085e+01 8.907605000000000928e+01 2.342465000000000146e+03
7.499999999999999722e-02 1.697635000000000116e-01 2.312930000000000064e+01 9.300769999999999982e+01 2.343545000000000073e+03
7.599999999999999811e-02 1.698780000000000012e-01 2.448769999999999669e+01 9.686930000000000973e+01 2.344605000000000018e+03
7.699999999999999900e-02 1.699915000000000176e-01 2.579135000000000133e+01 1.006893499999999904e+02 2.345650000000000091e+03
7.799999999999999989e-02 1.701035000000000186e-01 2.704489999999999839e+01 1.044857000000000085e+02 2.346684999999999945e+03
7.900000000000000078e-02 1.702150000000000052e-01 2.825110000000000099e+01 1.082644999999999982e+02 2.347720000000000255e+03
8.000000000000000167e-02 1.703260000000000052e-01 2.941075000000000017e+01 1.120204999999999984e+02 2.348739999999999782e+03
8.100000000000000255e-02 1.704355000000000175e-01 3.052255000000000251e+01 1.157404999999999973e+02 2.349755000000000109e+03
8.200000000000000344e-02 1.705444999999999878e-01 3.158364999999999867e+01 1.194055000000000035e+02 2.350760000000000218e+03
8.300000000000000433e-02 1.706509999999999971e-01 3.258995000000000175e+01 1.229909999999999997e+02 2.351750000000000000e+03
8.400000000000000522e-02 1.707555000000000045e-01 3.353570000000000562e+01 1.264704999999999870e+02 2.352715000000000146e+03
8.500000000000000611e-02 1.708565000000000222e-01 3.441429999999999723e+01 1.298145000000000095e+02 2.353654999999999745e+03
8.600000000000000699e-02 1.709529999999999939e-01 3.521795000000000186e+01 1.329934999999999832e+02 2.354559999999999945e+03
8.700000000000000788e-02 1.710455000000000170e-01 3.593789999999999907e+01 1.359749999999999943e+02 2.355414999999999964e+03
8.800000000000000877e-02 1.711314999999999920e-01 3.656499999999999773e+01 1.387280000000000086e+02 2.356219999999999800e+03
8.899999999999999578e-02 1.712114999999999887e-01 3.709009999999999962e+01 1.412210000000000036e+02 2.356965000000000146e+03
8.999999999999999667e-02 1.712839999999999918e-01 3.750480000000000302e+01 1.434259999999999877e+02 2.357640000000000327e+03
9.099999999999999756e-02 1.713480000000000003e-01 3.780225000000000080e+01 1.453205000000000098e+02 2.358244999999999891e+03
9.199999999999999845e-02 1.714029999999999998e-01 3.797814999999999941e+01 1.468880000000000052e+02 2.358769999999999982e+03
9.299999999999999933e-02 1.714495000000000047e-01 3.803110000000000213e+01 1.481225000000000023e+02 2.359204999999999927e+03
9.400000000000000022e-02 1.714864999999999862e-01 3.796329999999999671e+01 1.490279999999999916e+02 2.359560000000000400e+03
9.500000000000000111e-02 1.715145000000000142e-01 3.778045000000000186e+01 1.496195000000000164e+02 2.359824999999999818e+03
9.600000000000000200e-02 1.715339999999999920e-01 3.749170000000000158e+01 1.499215000000000089e+02 2.360015000000000327e+03
9.700000000000000289e-02 1.715450000000000030e-01 3.710909999999999798e+01 1.499675000000000011e+02 2.360135000000000218e+03
9.800000000000000377e-02 1.715495000000000214e-01 3.664685000000000059e+01 1.497980000000000018e+02 2.360180000000000291e+03
9.900000000000000466e-02 1.715474999999999917e-01 3.612064999999999770e+01 1.494549999999999841e+02 2.360175000000000182e+03
1.000000000000000056e-01 1.715409999999999990e-01 3.554664999999999964e+01 1.489825000000000159e+02 2.360119999999999891e+03
1.010000000000000064e-01 1.715309999999999890e-01 3.494084999999999752e+01 1.484239999999999782e+02 2.360034999999999854e+03
1.020000000000000073e-01 1.715180000000000038e-01 3.431820000000000448e+01 1.478159999999999741e+02 2.359920000000000073e+03
1.030000000000000082e-01 1.715039999999999898e-01 3.369195000000000562e+01 1.471924999999999955e+02 2.359789999999999964e+03
1.040000000000000091e-01 1.714884999999999882e-01 3.307335000000000491e+01 1.465799999999999841e+02 2.359644999999999982e+03
1.050000000000000100e-01 1.714735000000000009e-01 3.247114999999999441e+01 1.459970000000000141e+02 2.359510000000000218e+03
1.059999999999999970e-01 1.714585000000000137e-01 3.189114999999999966e+01 1.454549999999999841e+02 2.359369999999999891e+03
1.069999999999999979e-01 1.714444999999999997e-01 3.133639999999999759e+01 1.449569999999999936e+02 2.359235000000000127e+03
1.079999999999999988e-01 1.714310000000000000e-01 3.080700000000000216e+01 1.444979999999999905e+02 2.359110000000000127e+03
1.089999999999999997e-01 1.714180000000000148e-01 3.030035000000000167e+01 1.440679999999999836e+02 2.358989999999999782e+03
1.100000000000000006e-01 1.714060000000000028e-01 2.981130000000000280e+01 1.436479999999999961e+02 2.358875000000000000e+03
1.110000000000000014e-01 1.713935000000000042e-01 2.933279999999999887e+01 1.432169999999999845e+02 2.358760000000000218e+03
1.120000000000000023e-01 1.713804999999999912e-01 2.885640000000000072e+01 1.427485000000000070e+02 2.358630000000000109e+03
1.130000000000000032e-01 1.713660000000000183e-01 2.837279999999999802e+01 1.422164999999999964e+02 2.358500000000000000e+03
1.140000000000000041e-01 1.713500000000000023e-01 2.787284999999999968e+01 1.415955000000000155e+02 2.358349999999999909e+03
1.150000000000000050e-01 1.713310000000000111e-01 2.734765000000000157e+01 1.408619999999999948e+02 2.358175000000000182e+03
1.160000000000000059e-01 1.713085000000000024e-01 2.678985000000000127e+01 1.399964999999999975e+02 2.357970000000000255e+03
1.170000000000000068e-01 1.712825000000000042e-01 2.619395000000000095e+01 1.389869999999999948e+02 2.357730000000000018e+03
1.180000000000000077e-01 1.712529999999999886e-01 2.555675000000000097e+01 1.378274999999999864e+02 2.357460000000000036e+03
1.190000000000000085e-01 1.712190000000000101e-01 2.487764999999999915e+01 1.365199999999999818e+02 2.357150000000000091e+03
1.200000000000000094e-01 1.711814999999999864e-01 2.415905000000000058e+01 1.350745000000000005e+02 2.356805000000000291e+03
1.209999999999999964e-01 1.711400000000000143e-01 2.340619999999999834e+01 1.335095000000000027e+02 2.356425000000000182e+03
1.219999999999999973e-01 1.710959999999999981e-01 2.262669999999999959e+01 1.318505000000000109e+02 2.356014999999999873e+03
1.229999999999999982e-01 1.710490000000000066e-01 2.183064999999999856e+01 1.301285000000000025e+02 2.355590000000000146e+03
1.239999999999999991e-01 1.710004999999999997e-01 2.102955000000000041e+01 1.283779999999999859e+02 2.355139999999999873e+03
1.250000000000000000e-01 1.709519999999999929e-01 2.023594999999999899e+01 1.266365000000000123e+02 2.354690000000000055e+03
1.260000000000000009e-01 1.709030000000000271e-01 1.946249999999999858e+01 1.249410000000000025e+02 2.354239999999999782e+03
1.270000000000000018e-01 1.708554999999999935e-01 1.872145000000000081e+01 1.233259999999999934e+02 2.353805000000000291e+03
1.280000000000000027e-01 1.708109999999999906e-01 1.802384999999999948e+01 1.218209999999999980e+02 2.353385000000000218e+03
1.290000000000000036e-01 1.707684999999999897e-01 1.737900000000000134e+01 1.204509999999999934e+02 2.352994999999999891e+03
1.300000000000000044e-01 1.707299999999999929e-01 1.679410000000000025e+01 1.192339999999999947e+02 2.352635000000000218e+03
1.310000000000000053e-01 1.706955000000000000e-01 1.627409999999999712e+01 1.181804999999999950e+02 2.352315000000000055e+03
1.320000000000000062e-01 1.706654999999999978e-01 1.582150000000000034e+01 1.172955000000000041e+02 2.352024999999999636e+03
1.330000000000000071e-01 1.706400000000000139e-01 1.543649999999999878e+01 1.165750000000000028e+02 2.351784999999999854e+03
1.340000000000000080e-01 1.706185000000000063e-01 1.511730000000000018e+01 1.160134999999999934e+02 2.351579999999999927e+03
1.350000000000000089e-01 1.706014999999999893e-01 1.486050000000000004e+01 1.155979999999999990e+02 2.351425000000000182e+03
1.360000000000000098e-01 1.705880000000000174e-01 1.466089999999999982e+01 1.153129999999999882e+02 2.351295000000000073e+03
1.370000000000000107e-01 1.705790000000000084e-01 1.451255000000000095e+01 1.151419999999999959e+02 2.351204999999999927e+03
1.380000000000000115e-01 1.705730000000000024e-01 1.440845000000000020e+01 1.150664999999999907e+02 2.351139999999999873e+03
1.390000000000000124e-01 1.705690000000000262e-01 1.434154999999999980e+01 1.150670000000000073e+02 2.351099999999999909e+03
1.400000000000000133e-01 1.705669999999999964e-01 1.430429999999999957e+01 1.151260000000000048e+02 2.351079999999999927e+03
1.410000000000000142e-01 1.705674999999999830e-01 1.428944999999999865e+01 1.152259999999999991e+02 2.351079999999999927e+03
1.420000000000000151e-01 1.705685000000000118e-01 1.429025000000000034e+01 1.153515000000000015e+02 2.351090000000000146e+03
1.430000000000000160e-01 1.705710000000000004e-01 1.430034999999999989e+01 1.154874999999999972e+02 2.351110000000000127e+03
1.440000000000000169e-01 1.705734999999999890e-01 1.431429999999999936e+01 1.156239999999999952e+02 2.351130000000000109e+03
1.450000000000000178e-01 1.705765000000000198e-01 1.432774999999999999e+01 1.157514999999999930e+02 2.351159999999999854e+03
1.459999999999999909e-01 1.705789999999999806e-01 1.433714999999999939e+01 1.158624999999999972e+02 2.351179999999999836e+03
1.469999999999999918e-01 1.705814999999999970e-01 1.434019999999999939e+01 1.159549999999999983e+02 2.351199999999999818e+03
1.479999999999999927e-01 1.705840000000000134e-01 1.433579999999999899e+01 1.160289999999999964e+02 2.351225000000000364e+03
1.489999999999999936e-01 1.705855000000000010e-01 1.432390000000000008e+01 1.160844999999999914e+02 2.351239999999999782e+03
1.499999999999999944e-01 1.705869999999999886e-01 1.430529999999999902e+01 1.161280000000000001e+02 2.351255000000000109e+03
1.509999999999999953e-01 1.705885000000000040e-01 1.428170000000000073e+01 1.161645000000000039e+02 2.351265000000000327e+03
1.519999999999999962e-01 1.705889999999999906e-01 1.425510000000000055e+01 1.162009999999999934e+02 2.351275000000000091e+03
1.529999999999999971e-01 1.705904999999999783e-01 1.422814999999999941e+01 1.162450000000000045e+02 2.351284999999999854e+03
1.539999999999999980e-01 1.705919999999999936e-01 1.420315000000000083e+01 1.163040000000000020e+02 2.351300000000000182e+03
1.549999999999999989e-01 1.705939999999999956e-01 1.418244999999999933e+01 1.163834999999999980e+02 2.351320000000000164e+03
1.559999999999999998e-01 1.705964999999999843e-01 1.416785000000000139e+01 1.164885000000000019e+02 2.351345000000000255e+03
1.570000000000000007e-01 1.706000000000000016e-01 1.416049999999999898e+01 1.166210000000000093e+02 2.351375000000000000e+03
1.580000000000000016e-01 1.706040000000000056e-01 1.416089999999999982e+01 1.167805000000000035e+02 2.351409999999999854e+03
1.590000000000000024e-01 1.706084999999999963e-01 1.416900000000000048e+01 1.169654999999999916e+02 2.351454999999999927e+03
