# t [s], A [cm^2], U [cm/s], P [cPa], c [cm/s]
1.000000000000000021e-03 7.639359999999999484e-01 6.697499999999995124e-03 1.061295000000000073e+02 1.795105000000000018e+03
2.000000000000000042e-03 7.639320000000000555e-01 1.611744999999999844e-02 1.061004999999999967e+02 1.795099999999999909e+03
3.000000000000000062e-03 7.640314999999999745e-01 1.950379500000000155e-01 1.063130000000000024e+02 1.795144999999999982e+03
4.000000000000000083e-03 7.640369999999999662e-01 2.463945000000000163e-01 1.063419999999999987e+02 1.795150000000000091e+03
5.000000000000000104e-03 7.639134999999999120e-01 8.710250000000002712e-02 1.059679999999999893e+02 1.795074999999999818e+03
6.000000000000000125e-03 7.638030000000000097e-01 -7.015000000000004565e-02 1.054619999999999891e+02 1.794964999999999918e+03
7.000000000000000146e-03 7.636255000000000681e-01 -3.616949999999999887e-01 1.046905000000000001e+02 1.794799999999999955e+03
8.000000000000000167e-03 7.633265000000000189e-01 -8.884199999999998765e-01 1.034590000000000032e+02 1.794545000000000073e+03
9.000000000000001055e-03 7.629245000000000054e-01 -1.604969999999999786e+00 1.017502000000000066e+02 1.794179999999999836e+03
1.000000000000000194e-02 7.623725000000000085e-01 -2.561650000000000205e+00 9.942955000000000609e+01 1.793680000000000064e+03
1.099999999999999936e-02 7.616589999999999749e-01 -3.741525000000000212e+00 9.642730000000000246e+01 1.793019999999999982e+03
1.200000000000000025e-02 7.609135000000000204e-01 -4.880102499999999566e+00 9.305904999999999916e+01 1.792259999999999991e+03
1.300000000000000114e-02 7.603174999999999795e-01 -5.605342000000000269e+00 8.991534999999998945e+01 1.791509999999999991e+03
1.400000000000000203e-02 7.599650000000000016e-01 -5.694314999999999571e+00 8.747594999999999743e+01 1.790875000000000000e+03
1.499999999999999944e-02 7.598175000000000345e-01 -5.178729999999999833e+00 8.585605000000001041e+01 1.790404999999999973e+03
1.600000000000000033e-02 7.597435000000000160e-01 -4.287634999999999863e+00 8.480145000000000266e+01 1.790045000000000073e+03
1.700000000000000122e-02 7.595979999999999954e-01 -3.316244999999999887e+00 8.385314999999999941e+01 1.789719999999999800e+03
1.800000000000000211e-02 7.592864999999999753e-01 -2.487245000000000150e+00 8.258029999999999404e+01 1.789344999999999800e+03
1.900000000000000300e-02 7.588049999999999518e-01 -1.861169999999999769e+00 8.077725000000000932e+01 1.788869999999999891e+03
2.000000000000000042e-02 7.582275000000000542e-01 -1.343815000000000204e+00 7.852289999999999281e+01 1.788304999999999836e+03
2.100000000000000130e-02 7.576514999999999223e-01 -7.804250000000001464e-01 7.607765000000000555e+01 1.787690000000000055e+03
2.200000000000000219e-02 7.571399999999999242e-01 -6.702499999999966818e-02 7.370454999999999757e+01 1.787074999999999818e+03
2.299999999999999961e-02 7.566950000000000065e-01 7.835750000000003546e-01 7.152299999999999613e+01 1.786489999999999782e+03
2.400000000000000050e-02 7.562595000000000844e-01 1.637070000000000247e+00 6.944875000000000398e+01 1.785934999999999945e+03
2.500000000000000139e-02 7.557409999999999961e-01 2.280014999999999681e+00 6.722084999999999866e+01 1.785339999999999918e+03
2.600000000000000228e-02 7.550464999999999538e-01 2.488929999999999421e+00 6.449354999999999905e+01 1.784660000000000082e+03
2.700000000000000316e-02 7.541154999999999387e-01 2.106035000000000323e+00 6.096430000000000149e+01 1.783815000000000055e+03
2.800000000000000058e-02 7.529470000000000329e-01 1.097175000000000011e+00 5.649649999999999750e+01 1.782775000000000091e+03
2.900000000000000147e-02 7.516034999999999799e-01 -4.325000000000001066e-01 5.118750000000000000e+01 1.781559999999999945e+03
3.000000000000000236e-02 7.501929999999999987e-01 -2.271600000000000286e+00 4.535419999999999874e+01 1.780200000000000045e+03
3.099999999999999978e-02 7.488380000000000036e-01 -4.165224999999999511e+00 3.945105000000000217e+01 1.778809999999999945e+03
3.200000000000000067e-02 7.476454999999999629e-01 -5.875670000000000393e+00 3.396314999999999884e+01 1.777480000000000018e+03
3.300000000000000155e-02 7.466954999999999565e-01 -7.223349999999999049e+00 2.931390000000000029e+01 1.776309999999999945e+03
3.400000000000000244e-02 7.460299999999999709e-01 -8.101865000000000094e+00 2.580545000000000044e+01 1.775369999999999891e+03
3.500000000000000333e-02 7.456574999999999731e-01 -8.473485000000000156e+00 2.359705000000000297e+01 1.774714999999999918e+03
3.600000000000000422e-02 7.455665000000000209e-01 -8.350884999999999891e+00 2.271549999999999869e+01 1.774365000000000009e+03
3.700000000000000511e-02 7.457270000000000287e-01 -7.774199999999999555e+00 2.308820000000000050e+01 1.774309999999999945e+03
3.799999999999999906e-02 7.461094999999999811e-01 -6.789665000000000283e+00 2.458664999999999878e+01 1.774539999999999964e+03
3.899999999999999994e-02 7.466855000000000020e-01 -5.436440000000000161e+00 2.706504999999999939e+01 1.775014999999999873e+03
4.000000000000000083e-02 7.474315000000000264e-01 -3.744855000000000267e+00 3.038479999999999848e+01 1.775710000000000036e+03
4.100000000000000172e-02 7.483260000000000467e-01 -1.743009999999999948e+00 3.441890000000000072e+01 1.776590000000000146e+03
4.200000000000000261e-02 7.493449999999999278e-01 5.316499999999999559e-01 3.904404999999999859e+01 1.777630000000000109e+03
4.300000000000000350e-02 7.504585000000000283e-01 3.024055000000000604e+00 4.412725000000000364e+01 1.778800000000000182e+03
4.400000000000000439e-02 7.516309999999999381e-01 5.659060000000000201e+00 4.951760000000000161e+01 1.780055000000000064e+03
4.499999999999999833e-02 7.528200000000000447e-01 8.345874999999999488e+00 5.504670000000000130e+01 1.781375000000000000e+03
4.599999999999999922e-02 7.539865000000000039e-01 1.098752549999999850e+01 6.053844999999999743e+01 1.782695000000000164e+03
4.700000000000000011e-02 7.550919999999999854e-01 1.349249999999999972e+01 6.582474999999999454e+01 1.784000000000000000e+03
4.800000000000000100e-02 7.561090000000000311e-01 1.578480499999999864e+01 7.076290000000000191e+01 1.785240000000000009e+03
4.900000000000000189e-02 7.570200000000000262e-01 1.781139999999999901e+01 7.524975000000000591e+01 1.786389999999999873e+03
5.000000000000000278e-02 7.578195000000000903e-01 1.954429999999999978e+01 7.922974999999999568e+01 1.787429999999999836e+03
5.100000000000000366e-02 7.585125000000000339e-01 2.097944999999999993e+01 8.269519999999999982e+01 1.788360000000000127e+03
5.200000000000000455e-02 7.591114999999999391e-01 2.213210000000000122e+01 8.568059999999999832e+01 1.789179999999999836e+03
5.300000000000000544e-02 7.596335000000000726e-01 2.303144999999999953e+01 8.825249999999999773e+01 1.789904999999999973e+03
5.399999999999999939e-02 7.600995000000000390e-01 2.371565000000000012e+01 9.049904999999999688e+01 1.790539999999999964e+03
5.500000000000000028e-02 7.605310000000000681e-01 2.422845000000000226e+01 9.251994999999999436e+01 1.791115000000000009e+03
5.600000000000000117e-02 7.609485000000000277e-01 2.461649999999999849e+01 9.441904999999999859e+01 1.791650000000000091e+03
5.700000000000000205e-02 7.613739999999999952e-01 2.492770000000000152e+01 9.629850000000000421e+01 1.792174999999999955e+03
5.800000000000000294e-02 7.618260000000000032e-01 2.520945000000000036e+01 9.825374999999999659e+01 1.792700000000000045e+03
5.900000000000000383e-02 7.623219999999999441e-01 2.550574999999999903e+01 1.003684999999999974e+02 1.793259999999999991e+03
6.000000000000000472e-02 7.628740000000000521e-01 2.585360000000000014e+01 1.027069999999999936e+02 1.793865000000000009e+03
6.099999999999999867e-02 7.634879999999999445e-01 2.627920000000000300e+01 1.053100000000000023e+02 1.794519999999999982e+03
6.199999999999999956e-02 7.641640000000000654e-01 2.679500000000000171e+01 1.081899999999999977e+02 1.795240000000000009e+03
6.300000000000000044e-02 7.648939999999999628e-01 2.739780000000000015e+01 1.113230000000000075e+02 1.796014999999999873e+03
6.400000000000000133e-02 7.656620000000000648e-01 2.806895000000000095e+01 1.146550000000000011e+02 1.796845000000000027e+03
6.500000000000000222e-02 7.664469999999999894e-01 2.877694999999999936e+01 1.181039999999999992e+02 1.797700000000000045e+03
6.600000000000000311e-02 7.672254999999998937e-01 2.948085000000000022e+01 1.215660000000000025e+02 1.798570000000000164e+03
6.700000000000000400e-02 7.679705000000000004e-01 3.013485000000000014e+01 1.249254999999999995e+02 1.799425000000000182e+03
6.800000000000000488e-02 7.686565000000000758e-01 3.069284999999999997e+01 1.280670000000000073e+02 1.800230000000000018e+03
6.900000000000000577e-02 7.692634999999999890e-01 3.111280000000000001e+01 1.308834999999999980e+02 1.800969999999999800e+03
7.000000000000000666e-02 7.697720000000000118e-01 3.135965000000000202e+01 1.332849999999999966e+02 1.801615000000000009e+03
7.100000000000000755e-02 7.701715000000000089e-01 3.140820000000000078e+01 1.352049999999999841e+02 1.802154999999999973e+03
7.200000000000000844e-02 7.704545000000000421e-01 3.124374999999999858e+01 1.366039999999999850e+02 1.802570000000000164e+03
7.300000000000000933e-02 7.706224999999999881e-01 3.086325000000000074e+01 1.374694999999999823e+02 1.802855000000000018e+03
7.399999999999999634e-02 7.706804999999999906e-01 3.027430000000000021e+01 1.378174999999999955e+02 1.803009999999999991e+03
7.499999999999999722e-02 7.706390000000000740e-01 2.949445000000000050e+01 1.376879999999999882e+02 1.803049999999999955e+03
7.599999999999999811e-02 7.705124999999999336e-01 2.854984999999999928e+01 1.371415000000000077e+02 1.802984999999999900e+03
7.699999999999999900e-02 7.703174999999999883e-01 2.747334999999999638e+01 1.362535000000000025e+02 1.802819999999999936e+03
7.799999999999999989e-02 7.700744999999999951e-01 2.630245000000000033e+01 1.351105000000000018e+02 1.802590000000000146e+03
7.900000000000000078e-02 7.698015000000000274e-01 2.507700000000000173e+01 1.338034999999999854e+02 1.802304999999999836e+03
8.000000000000000167e-02 7.695189999999999531e-01 2.383719999999999928e+01 1.324240000000000066e+02 1.801990000000000009e+03
8.100000000000000255e-02 7.692440000000000389e-01 2.262075000000000102e+01 1.310554999999999950e+02 1.801670000000000073e+03
8.200000000000000344e-02 7.689920000000000089e-01 2.146140000000000114e+01 1.297740000000000009e+02 1.801355000000000018e+03
8.300000000000000433e-02 7.687744999999999163e-01 2.038700000000000045e+01 1.286394999999999982e+02 1.801069999999999936e+03
8.400000000000000522e-02 7.685994999999999910e-01 1.941799999999999926e+01 1.276980000000000075e+02 1.800819999999999936e+03
8.500000000000000611e-02 7.684725000000000028e-01 1.856719999999999970e+01 1.269749999999999943e+02 1.800625000000000000e+03
8.600000000000000699e-02 7.683925000000000338e-01 1.783899999999999864e+01 1.264799999999999898e+02 1.800474999999999909e+03
8.700000000000000788e-02 7.683575000000000266e-01 1.723029999999999973e+01 1.262060000000000031e+02 1.800380000000000109e+03
8.800000000000000877e-02 7.683614999999999196e-01 1.673080000000000211e+01 1.261294999999999931e+02 1.800325000000000045e+03
8.899999999999999578e-02 7.683949999999999392e-01 1.632394999999999996e+01 1.262150000000000034e+02 1.800320000000000164e+03
8.999999999999999667e-02 7.684485000000000898e-01 1.598855000000000004e+01 1.264159999999999968e+02 1.800345000000000027e+03
9.099999999999999756e-02 7.685100000000000264e-01 1.569960000000000022e+01 1.266804999999999950e+02 1.800389999999999873e+03
9.199999999999999845e-02 7.685670000000000002e-01 1.543039999999999878e+01 1.269525000000000006e+02 1.800434999999999945e+03
9.299999999999999933e-02 7.686074999999999990e-01 1.515414999999999957e+01 1.271754999999999995e+02 1.800480000000000018e+03
9.400000000000000022e-02 7.686214999999999575e-01 1.484529999999999816e+01 1.272980000000000018e+02 1.800509999999999991e+03
9.500000000000000111e-02 7.685994999999999910e-01 1.448160000000000025e+01 1.272745000000000033e+02 1.800505000000000109e+03
9.600000000000000200e-02 7.685349999999999682e-01 1.404555000000000042e+01 1.270699999999999932e+02 1.800460000000000036e+03
9.700000000000000289e-02 7.684245000000000658e-01 1.352529999999999788e+01 1.266610000000000014e+02 1.800375000000000000e+03
9.800000000000000377e-02 7.682670000000000332e-01 1.291558999999999990e+01 1.260399999999999920e+02 1.800235000000000127e+03
9.900000000000000466e-02 7.680664999999999853e-01 1.221828499999999984e+01 1.252119999999999891e+02 1.800050000000000182e+03
1.000000000000000056e-01 7.678264999999999674e-01 1.144192500000000123e+01 1.241959999999999980e+02 1.799820000000000164e+03
1.010000000000000064e-01 7.675575000000000037e-01 1.060127999999999915e+01 1.230275000000000034e+02 1.799549999999999955e+03
1.020000000000000073e-01 7.672685000000000199e-01 9.716480000000000672e+00 1.217489999999999952e+02 1.799250000000000000e+03
1.030000000000000082e-01 7.669725000000000570e-01 8.811645000000000394e+00 1.204124999999999943e+02 1.798930000000000064e+03
1.040000000000000091e-01 7.666819999999999746e-01 7.913245000000000751e+00 1.190755000000000052e+02 1.798605000000000018e+03
1.050000000000000100e-01 7.664100000000000357e-01 7.048509999999999387e+00 1.177969999999999970e+02 1.798284999999999854e+03
1.059999999999999970e-01 7.661670000000000424e-01 6.243875000000000064e+00 1.166315000000000026e+02 1.797990000000000009e+03
1.069999999999999979e-01 7.659639999999999782e-01 5.522949999999999804e+00 1.156285000000000025e+02 1.797730000000000018e+03
1.079999999999999988e-01 7.658095000000000319e-01 4.905384999999999884e+00 1.148290000000000077e+02 1.797509999999999991e+03
1.089999999999999997e-01 7.657070000000000265e-01 4.405625000000000568e+00 1.142625000000000028e+02 1.797344999999999800e+03
1.100000000000000006e-01 7.656600000000000072e-01 4.032214999999999883e+00 1.139445000000000050e+02 1.797240000000000009e+03
1.110000000000000014e-01 7.656670000000000975e-01 3.787479999999999958e+00 1.138780000000000001e+02 1.797190000000000055e+03
1.120000000000000023e-01 7.657244999999999191e-01 3.667675000000000018e+00 1.140519999999999925e+02 1.797199999999999818e+03
1.130000000000000032e-01 7.658270000000000355e-01 3.663470000000000226e+00 1.144445000000000050e+02 1.797265000000000100e+03
1.140000000000000041e-01 7.659670000000000645e-01 3.760754999999999626e+00 1.150240000000000009e+02 1.797380000000000109e+03
1.150000000000000050e-01 7.661355000000000803e-01 3.941659999999999719e+00 1.157495000000000118e+02 1.797529999999999973e+03
1.160000000000000059e-01 7.663210000000000299e-01 4.185710000000000264e+00 1.165769999999999982e+02 1.797715000000000146e+03
1.170000000000000068e-01 7.665150000000000574e-01 4.470979999999999954e+00 1.174604999999999961e+02 1.797914999999999964e+03
1.180000000000000077e-01 7.667064999999999575e-01 4.775274999999999714e+00 1.183530000000000086e+02 1.798125000000000000e+03
1.190000000000000085e-01 7.668874999999999442e-01 5.077204999999999302e+00 1.192129999999999939e+02 1.798329999999999927e+03
1.200000000000000094e-01 7.670494999999999397e-01 5.357165000000000177e+00 1.199994999999999976e+02 1.798519999999999982e+03
1.209999999999999964e-01 7.671870000000000633e-01 5.598090000000000011e+00 1.206825000000000045e+02 1.798700000000000045e+03
1.219999999999999973e-01 7.672939999999999205e-01 5.786115000000000563e+00 1.212360000000000042e+02 1.798845000000000027e+03
1.229999999999999982e-01 7.673689999999999678e-01 5.910989999999999966e+00 1.216435000000000031e+02 1.798954999999999927e+03
1.239999999999999991e-01 7.674104999999999954e-01 5.966334999999999944e+00 1.218969999999999914e+02 1.799034999999999854e+03
1.250000000000000000e-01 7.674185000000000034e-01 5.949679999999999858e+00 1.219954999999999927e+02 1.799075000000000045e+03
1.260000000000000009e-01 7.673965000000000369e-01 5.862339999999999662e+00 1.219459999999999980e+02 1.799085000000000036e+03
1.270000000000000018e-01 7.673460000000000836e-01 5.709125000000000227e+00 1.217614999999999981e+02 1.799059999999999945e+03
1.280000000000000027e-01 7.672734999999999417e-01 5.497894999999999754e+00 1.214620000000000033e+02 1.799000000000000000e+03
1.290000000000000036e-01 7.671829999999999483e-01 5.238984999999999559e+00 1.210695000000000050e+02 1.798925000000000182e+03
1.300000000000000044e-01 7.670805000000000540e-01 4.944535000000000124e+00 1.206105000000000018e+02 1.798825000000000045e+03
1.310000000000000053e-01 7.669725000000000570e-01 4.627710000000000434e+00 1.201109999999999900e+02 1.798714999999999918e+03
1.320000000000000062e-01 7.668639999999999901e-01 4.301949999999999719e+00 1.195985000000000014e+02 1.798595000000000027e+03
1.330000000000000071e-01 7.667604999999999560e-01 3.980165000000000397e+00 1.190970000000000084e+02 1.798474999999999909e+03
1.340000000000000080e-01 7.666660000000000696e-01 3.674025000000000318e+00 1.186285000000000025e+02 1.798360000000000127e+03
1.350000000000000089e-01 7.665834999999999733e-01 3.393369999999999997e+00 1.182090000000000032e+02 1.798259999999999991e+03
1.360000000000000098e-01 7.665155000000000163e-01 3.145725000000000104e+00 1.178509999999999991e+02 1.798164999999999964e+03
1.370000000000000107e-01 7.664625000000000465e-01 2.936034999999999950e+00 1.175614999999999952e+02 1.798090000000000146e+03
1.380000000000000115e-01 7.664250000000000229e-01 2.766550000000000065e+00 1.173400000000000034e+02 1.798025000000000091e+03
1.390000000000000124e-01 7.663995000000000113e-01 2.636935000000000251e+00 1.171835000000000093e+02 1.797974999999999909e+03
1.400000000000000133e-01 7.663860000000000117e-01 2.544490000000000141e+00 1.170819999999999936e+02 1.797940000000000055e+03
1.410000000000000142e-01 7.663794999999999913e-01 2.484529999999999905e+00 1.170234999999999985e+02 1.797920000000000073e+03
1.420000000000000151e-01 7.663774999999999338e-01 2.450849999999999973e+00 1.169925000000000068e+02 1.797904999999999973e+03
1.430000000000000160e-01 7.663759999999999462e-01 2.436239999999999739e+00 1.169720000000000084e+02 1.797894999999999982e+03
1.440000000000000169e-01 7.663709999999999134e-01 2.432999999999999829e+00 1.169449999999999932e+02 1.797880000000000109e+03
1.450000000000000178e-01 7.663595000000000823e-01 2.433464999999999989e+00 1.168965000000000032e+02 1.797865000000000009e+03
1.459999999999999909e-01 7.663379999999999637e-01 2.430494999999999628e+00 1.168125000000000000e+02 1.797840000000000146e+03
1.469999999999999918e-01 7.663059999999999317e-01 2.417850000000000055e+00 1.166804999999999950e+02 1.797805000000000064e+03
1.479999999999999927e-01 7.662605000000000111e-01 2.390579999999999927e+00 1.164929999999999950e+02 1.797759999999999991e+03
1.489999999999999936e-01 7.662010000000000209e-01 2.345239999999999991e+00 1.162475000000000023e+02 1.797700000000000045e+03
1.499999999999999944e-01 7.661284999999999901e-01 2.280100000000000016e+00 1.159415000000000049e+02 1.797630000000000109e+03
1.509999999999999953e-01 7.660439999999999472e-01 2.195174999999999876e+00 1.155790000000000077e+02 1.797545000000000073e+03
1.519999999999999962e-01 7.659495000000000609e-01 2.092210500000000195e+00 1.151684999999999945e+02 1.797444999999999936e+03
1.529999999999999971e-01 7.658469999999999445e-01 1.974558499999999883e+00 1.147199999999999989e+02 1.797335000000000036e+03
1.539999999999999980e-01 7.657404999999999351e-01 1.846940500000000096e+00 1.142454999999999927e+02 1.797219999999999800e+03
1.549999999999999989e-01 7.656324999999999381e-01 1.715176999999999952e+00 1.137624999999999886e+02 1.797099999999999909e+03
1.559999999999999998e-01 7.655274999999999164e-01 1.585811500000000152e+00 1.132844999999999942e+02 1.796980000000000018e+03
1.570000000000000007e-01 7.654279999999999973e-01 1.465746500000000063e+00 1.128305000000000007e+02 1.796869999999999891e+03
1.580000000000000016e-01 7.653389999999999915e-01 1.361822000000000088e+00 1.124155000000000086e+02 1.796760000000000218e+03
1.590000000000000024e-01 7.652624999999999567e-01 1.280455500000000191e+00 1.120544999999999902e+02 1.796664999999999964e+03
