# t [s], A [cm^2], U [cm/s], P [cPa], c [cm/s]
1.000000000000000021e-03 1.445535000000000014e-01 4.540409000000000250e-01 8.584315000000000850e+01 2.014929999999999836e+03
2.000000000000000042e-03 1.445130000000000026e-01 2.002968000000000082e+00 8.235190000000000055e+01 2.014500000000000000e+03
3.000000000000000062e-03 1.444090000000000096e-01 3.835281000000000162e+00 7.784725000000000250e+01 2.013409999999999854e+03
4.000000000000000083e-03 1.442705000000000237e-01 5.869739500000000554e+00 7.335479999999999734e+01 2.011990000000000009e+03
5.000000000000000104e-03 1.441260000000000041e-01 8.018824999999999648e+00 6.965794999999999959e+01 2.010509999999999991e+03
6.000000000000000125e-03 1.439880000000000049e-01 1.007121500000000047e+01 6.675934999999999775e+01 2.009115000000000009e+03
7.000000000000000146e-03 1.438585000000000003e-01 1.184391499999999908e+01 6.424949999999999761e+01 2.007835000000000036e+03
8.000000000000000167e-03 1.437400000000000067e-01 1.332571000000000083e+01 6.198090000000000543e+01 2.006679999999999836e+03
9.000000000000001055e-03 1.436370000000000147e-01 1.457225000000000037e+01 6.006200000000000472e+01 2.005684999999999945e+03
1.000000000000000194e-02 1.435489999999999822e-01 1.560164999999999935e+01 5.850950000000000273e+01 2.004849999999999909e+03
1.099999999999999936e-02 1.434765000000000068e-01 1.642105000000000103e+01 5.725119999999999720e+01 2.004170000000000073e+03
1.200000000000000025e-02 1.434165000000000023e-01 1.704175000000000040e+01 5.621460000000000434e+01 2.003610000000000127e+03
1.300000000000000114e-02 1.433670000000000222e-01 1.747080000000000055e+01 5.530964999999999776e+01 2.003154999999999973e+03
1.400000000000000203e-02 1.433245000000000213e-01 1.774159999999999826e+01 5.448489999999999611e+01 2.002769999999999982e+03
1.499999999999999944e-02 1.432900000000000007e-01 1.795635000000000048e+01 5.387169999999999703e+01 2.002465000000000146e+03
1.600000000000000033e-02 1.432689999999999797e-01 1.826890000000000214e+01 5.381029999999999802e+01 2.002284999999999854e+03
1.700000000000000122e-02 1.432709999999999817e-01 1.880734999999999957e+01 5.466254999999999598e+01 2.002315000000000055e+03
1.800000000000000211e-02 1.433004999999999973e-01 1.959539999999999793e+01 5.654959999999999809e+01 2.002599999999999909e+03
1.900000000000000300e-02 1.433560000000000112e-01 2.052925000000000111e+01 5.921039999999999992e+01 2.003130000000000109e+03
2.000000000000000042e-02 1.434279999999999999e-01 2.141884999999999906e+01 6.206589999999999918e+01 2.003819999999999936e+03
2.100000000000000130e-02 1.435005000000000031e-01 2.206390000000000029e+01 6.443540000000000134e+01 2.004529999999999973e+03
2.200000000000000219e-02 1.435595000000000065e-01 2.232679999999999865e+01 6.578440000000000509e+01 2.005115000000000009e+03
2.299999999999999961e-02 1.435939999999999994e-01 2.217285000000000039e+01 6.589619999999999322e+01 2.005465000000000146e+03
2.400000000000000050e-02 1.436000000000000054e-01 2.166844999999999999e+01 6.490800000000000125e+01 2.005554999999999836e+03
2.500000000000000139e-02 1.435819999999999874e-01 2.094300000000000139e+01 6.321479999999999677e+01 2.005400000000000091e+03
2.600000000000000228e-02 1.435474999999999945e-01 2.013589999999999947e+01 6.129689999999999372e+01 2.005085000000000036e+03
2.700000000000000316e-02 1.435069999999999957e-01 1.935000000000000142e+01 5.954755000000000109e+01 2.004704999999999927e+03
2.800000000000000058e-02 1.434679999999999844e-01 1.862894999999999968e+01 5.816559999999999775e+01 2.004329999999999927e+03
2.900000000000000147e-02 1.434334999999999916e-01 1.796014999999999873e+01 5.713920000000000243e+01 2.004005000000000109e+03
3.000000000000000236e-02 1.434030000000000027e-01 1.729739999999999966e+01 5.630664999999999765e+01 2.003710000000000036e+03
3.099999999999999978e-02 1.433745000000000158e-01 1.659205000000000041e+01 5.545810000000000173e+01 2.003429999999999836e+03
3.200000000000000067e-02 1.433429999999999982e-01 1.581980000000000075e+01 5.443815000000000026e+01 2.003134999999999991e+03
3.300000000000000155e-02 1.433075000000000043e-01 1.499714999999999954e+01 5.321535000000000082e+01 2.002804999999999836e+03
3.400000000000000244e-02 1.432690000000000075e-01 1.418189999999999884e+01 5.190209999999999724e+01 2.002429999999999836e+03
3.500000000000000333e-02 1.432305000000000106e-01 1.345894999999999975e+01 5.072249999999999659e+01 2.002065000000000055e+03
3.600000000000000422e-02 1.431975000000000053e-01 1.291675000000000040e+01 4.994150000000000489e+01 2.001744999999999891e+03
3.700000000000000511e-02 1.431775000000000131e-01 1.262160000000000082e+01 4.978024999999999523e+01 2.001545000000000073e+03
3.799999999999999906e-02 1.431740000000000235e-01 1.259759999999999991e+01 5.034459999999999980e+01 2.001494999999999891e+03
3.899999999999999994e-02 1.431894999999999973e-01 1.281869999999999976e+01 5.158704999999999785e+01 2.001630000000000109e+03
4.000000000000000083e-02 1.432215000000000016e-01 1.321215000000000117e+01 5.331060000000000088e+01 2.001920000000000073e+03
4.100000000000000172e-02 1.432654999999999901e-01 1.367269999999999897e+01 5.520855000000000246e+01 2.002329999999999927e+03
4.200000000000000261e-02 1.433134999999999826e-01 1.408194999999999908e+01 5.692640000000000100e+01 2.002780000000000200e+03
4.300000000000000350e-02 1.433560000000000112e-01 1.432825000000000060e+01 5.812810000000000343e+01 2.003190000000000055e+03
4.400000000000000439e-02 1.433849999999999847e-01 1.432235000000000014e+01 5.855064999999999742e+01 2.003470000000000027e+03
4.499999999999999833e-02 1.433939999999999937e-01 1.400724999999999909e+01 5.803775000000000261e+01 2.003559999999999945e+03
4.599999999999999922e-02 1.433785000000000198e-01 1.336105000000000054e+01 5.654989999999999384e+01 2.003420000000000073e+03
4.700000000000000011e-02 1.433365000000000056e-01 1.239400999999999975e+01 5.415250000000000341e+01 2.003034999999999854e+03
4.800000000000000100e-02 1.432694999999999941e-01 1.114224000000000103e+01 5.098975000000000080e+01 2.002400000000000091e+03
4.900000000000000189e-02 1.431804999999999883e-01 9.659175000000001177e+00 4.725319999999999965e+01 2.001559999999999945e+03
5.000000000000000278e-02 1.430740000000000067e-01 8.008160000000000167e+00 4.315169999999999817e+01 2.000545000000000073e+03
5.100000000000000366e-02 1.429555000000000131e-01 6.256190000000000140e+00 3.888925000000000409e+01 1.999414999999999964e+03
5.200000000000000455e-02 1.428290000000000115e-01 4.470423000000000258e+00 3.465129999999999910e+01 1.998215000000000146e+03
5.300000000000000544e-02 1.427014999999999811e-01 2.715855000000000352e+00 3.060090000000000288e+01 1.996994999999999891e+03
5.399999999999999939e-02 1.425770000000000093e-01 1.054844999999999811e+00 2.687964999999999804e+01 1.995799999999999955e+03
5.500000000000000028e-02 1.424600000000000033e-01 -4.531950000000000145e-01 2.361204999999999998e+01 1.994680000000000064e+03
5.600000000000000117e-02 1.423550000000000093e-01 -1.752244999999999830e+00 2.090959999999999752e+01 1.993664999999999964e+03
5.700000000000000205e-02 1.422654999999999892e-01 -2.790703000000000156e+00 1.887190000000000012e+01 1.992795000000000073e+03
5.800000000000000294e-02 1.421945000000000014e-01 -3.523159999999999847e+00 1.758565000000000111e+01 1.992105000000000018e+03
5.900000000000000383e-02 1.421454999999999802e-01 -3.912675000000000125e+00 1.712015000000000242e+01 1.991619999999999891e+03
6.000000000000000472e-02 1.421209999999999973e-01 -3.933214999999999684e+00 1.752170000000000272e+01 1.991369999999999891e+03
6.099999999999999867e-02 1.421224999999999850e-01 -3.571720000000000006e+00 1.880780000000000030e+01 1.991360000000000127e+03
6.199999999999999956e-02 1.421505000000000130e-01 -2.829500000000000348e+00 2.096325000000000216e+01 1.991605000000000018e+03
6.300000000000000044e-02 1.422054999999999847e-01 -1.722493499999999900e+00 2.393815000000000026e+01 1.992105000000000018e+03
6.400000000000000133e-02 1.422855000000000092e-01 -2.804549999999998988e-01 2.765055000000000263e+01 1.992849999999999909e+03
6.500000000000000222e-02 1.423889999999999878e-01 1.454954999999999998e+00 3.199070000000000391e+01 1.993815000000000055e+03
6.600000000000000311e-02 1.425130000000000008e-01 3.432826500000000003e+00 3.682869999999999777e+01 1.994985000000000127e+03
6.700000000000000400e-02 1.426540000000000030e-01 5.596130000000000493e+00 4.202325000000000443e+01 1.996320000000000164e+03
6.800000000000000488e-02 1.428075000000000039e-01 7.885035000000000238e+00 4.743050000000000210e+01 1.997779999999999973e+03
6.900000000000000577e-02 1.429699999999999860e-01 1.023989500000000064e+01 5.291214999999999691e+01 1.999335000000000036e+03
7.000000000000000666e-02 1.431375000000000008e-01 1.260421000000000014e+01 5.834290000000000020e+01 2.000934999999999945e+03
7.100000000000000755e-02 1.433059999999999889e-01 1.492709999999999937e+01 6.361574999999999847e+01 2.002554999999999836e+03
7.200000000000000844e-02 1.434719999999999884e-01 1.716525000000000034e+01 6.864619999999999322e+01 2.004164999999999964e+03
7.300000000000000933e-02 1.436330000000000107e-01 1.928419999999999845e+01 7.337484999999999502e+01 2.005724999999999909e+03
7.399999999999999634e-02 1.437869999999999981e-01 2.125999999999999801e+01 7.776850000000000307e+01 2.007224999999999909e+03
7.499999999999999722e-02 1.439324999999999910e-01 2.307894999999999897e+01 8.181990000000000407e+01 2.008644999999999982e+03
7.599999999999999811e-02 1.440694999999999892e-01 2.473785000000000167e+01 8.554634999999998968e+01 2.009985000000000127e+03
7.699999999999999900e-02 1.441975000000000062e-01 2.624320000000000164e+01 8.898615000000000919e+01 2.011240000000000009e+03
7.799999999999999989e-02 1.443170000000000008e-01 2.760974999999999824e+01 9.219460000000000832e+01 2.012420000000000073e+03
7.900000000000000078e-02 1.444305000000000172e-01 2.885869999999999891e+01 9.523869999999999436e+01 2.013534999999999854e+03
8.000000000000000167e-02 1.445385000000000142e-01 3.001545000000000130e+01 9.819015000000000271e+01 2.014610000000000127e+03
8.100000000000000255e-02 1.446439999999999948e-01 3.110739999999999839e+01 1.011214999999999975e+02 2.015650000000000091e+03
8.200000000000000344e-02 1.447479999999999878e-01 3.216129999999999711e+01 1.040979000000000099e+02 2.016680000000000064e+03
8.300000000000000433e-02 1.448530000000000095e-01 3.320145000000000124e+01 1.071734999999999900e+02 2.017715000000000146e+03
8.400000000000000522e-02 1.449600000000000055e-01 3.424745000000000061e+01 1.103870000000000005e+02 2.018764999999999873e+03
8.500000000000000611e-02 1.450704999999999911e-01 3.531340000000000146e+01 1.137595000000000027e+02 2.019855000000000018e+03
8.600000000000000699e-02 1.451844999999999941e-01 3.640630000000000166e+01 1.172925000000000040e+02 2.020985000000000127e+03
8.700000000000000788e-02 1.453030000000000155e-01 3.752655000000000030e+01 1.209694999999999965e+02 2.022150000000000091e+03
8.800000000000000877e-02 1.454249999999999987e-01 3.866755000000000564e+01 1.247580000000000098e+02 2.023355000000000018e+03
8.899999999999999578e-02 1.455504999999999993e-01 3.981669999999999732e+01 1.286094999999999970e+02 2.024585000000000036e+03
8.999999999999999667e-02 1.456770000000000009e-01 4.095635000000000048e+01 1.324664999999999964e+02 2.025840000000000146e+03
9.099999999999999756e-02 1.458035000000000025e-01 4.206515000000000271e+01 1.362635000000000218e+02 2.027090000000000146e+03
9.199999999999999845e-02 1.459290000000000032e-01 4.311955000000000382e+01 1.399339999999999975e+02 2.028329999999999927e+03
9.299999999999999933e-02 1.460504999999999998e-01 4.409505000000000052e+01 1.434105000000000132e+02 2.029534999999999854e+03
9.400000000000000022e-02 1.461664999999999770e-01 4.496814999999999429e+01 1.466324999999999932e+02 2.030684999999999945e+03
9.500000000000000111e-02 1.462755000000000027e-01 4.571715000000000373e+01 1.495469999999999970e+02 2.031764999999999873e+03
9.600000000000000200e-02 1.463750000000000051e-01 4.632359999999999900e+01 1.521095000000000255e+02 2.032759999999999991e+03
9.700000000000000289e-02 1.464644999999999975e-01 4.677329999999999899e+01 1.542900000000000205e+02 2.033654999999999973e+03
9.800000000000000377e-02 1.465420000000000056e-01 4.705665000000000475e+01 1.560699999999999932e+02 2.034440000000000055e+03
9.900000000000000466e-02 1.466075000000000017e-01 4.716929999999999978e+01 1.574435000000000002e+02 2.035105000000000018e+03
1.000000000000000056e-01 1.466615000000000002e-01 4.711220000000000141e+01 1.584189999999999827e+02 2.035644999999999982e+03
1.010000000000000064e-01 1.467025000000000134e-01 4.689139999999999731e+01 1.590160000000000196e+02 2.036065000000000055e+03
1.020000000000000073e-01 1.467320000000000013e-01 4.651775000000000659e+01 1.592644999999999982e+02 2.036369999999999891e+03
1.030000000000000082e-01 1.467499999999999916e-01 4.600630000000000308e+01 1.592040000000000077e+02 2.036565000000000055e+03
1.040000000000000091e-01 1.467579999999999996e-01 4.537560000000000571e+01 1.588804999999999836e+02 2.036659999999999854e+03
1.050000000000000100e-01 1.467575000000000129e-01 4.464645000000000152e+01 1.583430000000000177e+02 2.036660000000000082e+03
1.059999999999999970e-01 1.467494999999999772e-01 4.384144999999999470e+01 1.576444999999999936e+02 2.036595000000000027e+03
1.069999999999999979e-01 1.467354999999999909e-01 4.298369999999999891e+01 1.568365000000000009e+02 2.036460000000000036e+03
1.079999999999999988e-01 1.467169999999999863e-01 4.209575000000000244e+01 1.559685000000000059e+02 2.036289999999999964e+03
1.089999999999999997e-01 1.466959999999999931e-01 4.119890000000000185e+01 1.550860000000000127e+02 2.036079999999999927e+03
1.100000000000000006e-01 1.466724999999999834e-01 4.031230000000000047e+01 1.542275000000000205e+02 2.035860000000000127e+03
1.110000000000000014e-01 1.466494999999999882e-01 3.945229999999999393e+01 1.534240000000000066e+02 2.035630000000000109e+03
1.120000000000000023e-01 1.466270000000000073e-01 3.863170000000000215e+01 1.526995000000000005e+02 2.035405000000000200e+03
1.130000000000000032e-01 1.466054999999999997e-01 3.785980000000000700e+01 1.520685000000000002e+02 2.035195000000000164e+03
1.140000000000000041e-01 1.465865000000000085e-01 3.714194999999999425e+01 1.515360000000000014e+02 2.035000000000000000e+03
1.150000000000000050e-01 1.465699999999999781e-01 3.647964999999999947e+01 1.510994999999999777e+02 2.034835000000000036e+03
1.160000000000000059e-01 1.465549999999999908e-01 3.587075000000000102e+01 1.507479999999999905e+02 2.034679999999999836e+03
1.170000000000000068e-01 1.465425000000000200e-01 3.530979999999999563e+01 1.504639999999999986e+02 2.034555000000000064e+03
1.180000000000000077e-01 1.465319999999999956e-01 3.478855000000000075e+01 1.502235000000000014e+02 2.034445000000000164e+03
1.190000000000000085e-01 1.465225000000000000e-01 3.429645000000000010e+01 1.499989999999999952e+02 2.034349999999999909e+03
1.200000000000000094e-01 1.465135000000000187e-01 3.382164999999999822e+01 1.497615000000000123e+02 2.034255000000000109e+03
1.209999999999999964e-01 1.465040000000000231e-01 3.335125000000000028e+01 1.494805000000000064e+02 2.034159999999999854e+03
1.219999999999999973e-01 1.464934999999999987e-01 3.287254999999999683e+01 1.491260000000000048e+02 2.034045000000000073e+03
1.229999999999999982e-01 1.464809999999999723e-01 3.237340000000000373e+01 1.486719999999999970e+02 2.033920000000000073e+03
1.239999999999999991e-01 1.464654999999999985e-01 3.184290000000000020e+01 1.480964999999999918e+02 2.033764999999999873e+03
1.250000000000000000e-01 1.464465000000000072e-01 3.127235000000000298e+01 1.473815000000000168e+02 2.033575000000000045e+03
1.260000000000000009e-01 1.464234999999999842e-01 3.065524999999999878e+01 1.465174999999999841e+02 2.033345000000000027e+03
1.270000000000000018e-01 1.463959999999999984e-01 2.998799999999999955e+01 1.455000000000000000e+02 2.033079999999999927e+03
1.280000000000000027e-01 1.463645000000000085e-01 2.926989999999999981e+01 1.443340000000000032e+02 2.032764999999999873e+03
1.290000000000000036e-01 1.463274999999999992e-01 2.850339999999999918e+01 1.430289999999999964e+02 2.032409999999999854e+03
1.300000000000000044e-01 1.462870000000000004e-01 2.769379999999999953e+01 1.416024999999999920e+02 2.032009999999999991e+03
1.310000000000000053e-01 1.462430000000000119e-01 2.684894999999999854e+01 1.400790000000000077e+02 2.031574999999999818e+03
1.320000000000000062e-01 1.461959999999999926e-01 2.597935000000000016e+01 1.384859999999999900e+02 2.031105000000000018e+03
1.330000000000000071e-01 1.461459999999999981e-01 2.509700000000000131e+01 1.368559999999999945e+02 2.030615000000000009e+03
1.340000000000000080e-01 1.460949999999999749e-01 2.421504999999999797e+01 1.352214999999999918e+02 2.030115000000000009e+03
1.350000000000000089e-01 1.460429999999999784e-01 2.334740000000000038e+01 1.336170000000000186e+02 2.029605000000000018e+03
1.360000000000000098e-01 1.459920000000000107e-01 2.250775000000000148e+01 1.320754999999999768e+02 2.029095000000000027e+03
1.370000000000000107e-01 1.459420000000000162e-01 2.170915000000000106e+01 1.306265000000000214e+02 2.028605000000000018e+03
1.380000000000000115e-01 1.458949999999999969e-01 2.096340000000000003e+01 1.292974999999999852e+02 2.028134999999999991e+03
1.390000000000000124e-01 1.458510000000000084e-01 2.028045000000000186e+01 1.281090000000000089e+02 2.027700000000000045e+03
1.400000000000000133e-01 1.458109999999999962e-01 1.966814999999999714e+01 1.270780000000000030e+02 2.027299999999999955e+03
1.410000000000000142e-01 1.457755000000000023e-01 1.913194999999999979e+01 1.262134999999999962e+02 2.026944999999999936e+03
1.420000000000000151e-01 1.457444999999999991e-01 1.867490000000000094e+01 1.255190000000000055e+02 2.026634999999999991e+03
1.430000000000000160e-01 1.457185000000000008e-01 1.829729999999999990e+01 1.249934999999999974e+02 2.026375000000000000e+03
1.440000000000000169e-01 1.456985000000000086e-01 1.799719999999999942e+01 1.246295000000000073e+02 2.026170000000000073e+03
1.450000000000000178e-01 1.456824999999999926e-01 1.777045000000000030e+01 1.244130000000000109e+02 2.026005000000000109e+03
1.459999999999999909e-01 1.456709999999999949e-01 1.761079999999999757e+01 1.243299999999999983e+02 2.025889999999999873e+03
1.469999999999999918e-01 1.456649999999999889e-01 1.751069999999999993e+01 1.243594999999999970e+02 2.025820000000000164e+03
1.479999999999999927e-01 1.456609999999999849e-01 1.746130000000000138e+01 1.244814999999999969e+02 2.025780000000000200e+03
1.489999999999999936e-01 1.456614999999999993e-01 1.745304999999999751e+01 1.246740000000000066e+02 2.025775000000000091e+03
1.499999999999999944e-01 1.456640000000000157e-01 1.747605000000000075e+01 1.249140000000000015e+02 2.025795000000000073e+03
1.509999999999999953e-01 1.456685000000000063e-01 1.752055000000000007e+01 1.251814999999999998e+02 2.025840000000000146e+03
1.519999999999999962e-01 1.456739999999999979e-01 1.757714999999999961e+01 1.254565000000000055e+02 2.025889999999999873e+03
1.529999999999999971e-01 1.456804999999999906e-01 1.763725000000000165e+01 1.257214999999999918e+02 2.025949999999999818e+03
1.539999999999999980e-01 1.456870000000000109e-01 1.769315000000000282e+01 1.259629999999999939e+02 2.026009999999999991e+03
1.549999999999999989e-01 1.456929999999999892e-01 1.773839999999999861e+01 1.261680000000000064e+02 2.026075000000000045e+03
1.559999999999999998e-01 1.456989999999999952e-01 1.776784999999999926e+01 1.263284999999999911e+02 2.026125000000000000e+03
1.570000000000000007e-01 1.457034999999999858e-01 1.777785000000000082e+01 1.264399999999999977e+02 2.026170000000000073e+03
1.580000000000000016e-01 1.457065000000000166e-01 1.776590000000000202e+01 1.264994999999999976e+02 2.026200000000000045e+03
1.590000000000000024e-01 1.457085000000000186e-01 1.773120000000000118e+01 1.265074999999999932e+02 2.026224999999999909e+03
