# t [s], A [cm^2], U [cm/s], P [cPa], c [cm/s]
1.000000000000000021e-03 5.442145000000000454e-01 2.075399999999998080e-03 9.087180000000000746e+01 1.600494999999999891e+03
2.000000000000000042e-03 5.442114999999999592e-01 9.757249999999998563e-03 9.085394999999999754e+01 1.600490000000000009e+03
3.000000000000000062e-03 5.442730000000000068e-01 1.402342000000000033e-01 9.099080000000000723e+01 1.600525000000000091e+03
4.000000000000000083e-03 5.443014999999999937e-01 2.129679999999999906e-01 9.107980000000000587e+01 1.600545000000000073e+03
5.000000000000000104e-03 5.442599999999999660e-01 1.430430000000000035e-01 9.094890000000000896e+01 1.600519999999999982e+03
6.000000000000000125e-03 5.442000000000000171e-01 2.482449999999997159e-02 9.066729999999999734e+01 1.600460000000000036e+03
7.000000000000000146e-03 5.441300000000000026e-01 -1.243549999999999933e-01 9.027039999999999509e+01 1.600369999999999891e+03
8.000000000000000167e-03 5.440055000000000307e-01 -4.007800000000000251e-01 8.963790000000000191e+01 1.600230000000000018e+03
9.000000000000001055e-03 5.438125000000000320e-01 -8.307799999999999629e-01 8.869114999999999327e+01 1.600014999999999873e+03
1.000000000000000194e-02 5.435464999999999325e-01 -1.415605000000000002e+00 8.738219999999999743e+01 1.599720000000000027e+03
1.099999999999999936e-02 5.431884999999999630e-01 -2.171935000000000393e+00 8.564639999999999986e+01 1.599309999999999945e+03
1.200000000000000025e-02 5.427475000000000493e-01 -3.061679999999999957e+00 8.348525000000000773e+01 1.598795000000000073e+03
1.300000000000000114e-02 5.422730000000000050e-01 -3.947799999999999976e+00 8.104849999999999000e+01 1.598195000000000164e+03
1.400000000000000203e-02 5.418350000000000666e-01 -4.645915999999999713e+00 7.859934999999998695e+01 1.597565000000000055e+03
1.499999999999999944e-02 5.414870000000000516e-01 -5.014556000000000680e+00 7.639744999999999209e+01 1.596970000000000027e+03
1.600000000000000033e-02 5.412390000000000256e-01 -5.009514999999999496e+00 7.459590000000000032e+01 1.596440000000000055e+03
1.700000000000000122e-02 5.410665000000000058e-01 -4.683485000000000120e+00 7.320340000000000202e+01 1.595994999999999891e+03
1.800000000000000211e-02 5.409249999999999892e-01 -4.149659999999999904e+00 7.210729999999999507e+01 1.595615000000000009e+03
1.900000000000000300e-02 5.407690000000000552e-01 -3.532810000000000450e+00 7.113290000000000646e+01 1.595264999999999873e+03
2.000000000000000042e-02 5.405685000000000073e-01 -2.925929000000000002e+00 7.011435000000000173e+01 1.594914999999999964e+03
2.100000000000000130e-02 5.403164999999999774e-01 -2.366693500000000228e+00 6.894845000000000823e+01 1.594545000000000073e+03
2.200000000000000219e-02 5.400249999999999773e-01 -1.841050000000000075e+00 6.761459999999999582e+01 1.594139999999999873e+03
2.299999999999999961e-02 5.397155000000000147e-01 -1.309004999999999752e+00 6.615564999999999429e+01 1.593704999999999927e+03
2.400000000000000050e-02 5.394065000000000110e-01 -7.376300000000002299e-01 6.463564999999999827e+01 1.593255000000000109e+03
2.500000000000000139e-02 5.391025000000000400e-01 -1.259200000000002539e-01 6.309635000000000105e+01 1.592795000000000073e+03
2.600000000000000228e-02 5.387930000000000774e-01 4.863200000000000855e-01 6.153000000000000114e+01 1.592325000000000045e+03
2.700000000000000316e-02 5.384545000000000581e-01 1.025269999999999904e+00 5.987349999999999994e+01 1.591835000000000036e+03
2.800000000000000058e-02 5.380610000000000115e-01 1.401079999999999881e+00 5.802344999999999686e+01 1.591289999999999964e+03
2.900000000000000147e-02 5.375849999999999795e-01 1.530685000000000073e+00 5.586509999999999820e+01 1.590684999999999945e+03
3.000000000000000236e-02 5.370135000000000325e-01 1.359609999999999985e+00 5.330715000000000003e+01 1.589990000000000009e+03
3.099999999999999978e-02 5.363470000000000182e-01 8.769200000000001438e-01 5.031239999999999668e+01 1.589195000000000164e+03
3.200000000000000067e-02 5.356030000000000513e-01 1.194449999999998013e-01 4.691634999999999422e+01 1.588299999999999955e+03
3.300000000000000155e-02 5.348150000000000404e-01 -8.353399999999995273e-01 4.322775000000000034e+01 1.587329999999999927e+03
3.400000000000000244e-02 5.340225000000000666e-01 -1.884740000000000748e+00 3.941315000000000168e+01 1.586320000000000164e+03
3.500000000000000333e-02 5.332669999999999355e-01 -2.919264999999999777e+00 3.567074999999999818e+01 1.585309999999999945e+03
3.600000000000000422e-02 5.325885000000000202e-01 -3.838910000000000267e+00 3.220175000000000409e+01 1.584349999999999909e+03
3.700000000000000511e-02 5.320145000000000568e-01 -4.563989999999999547e+00 2.918499999999999872e+01 1.583485000000000127e+03
3.799999999999999906e-02 5.315665000000000529e-01 -5.039975000000000094e+00 2.676015000000000299e+01 1.582755000000000109e+03
3.899999999999999994e-02 5.312565000000000204e-01 -5.236640000000000406e+00 2.501914999999999978e+01 1.582190000000000055e+03
4.000000000000000083e-02 5.310850000000000293e-01 -5.143544999999999590e+00 2.400665000000000049e+01 1.581799999999999955e+03
4.100000000000000172e-02 5.310509999999999398e-01 -4.763989999999999725e+00 2.372690000000000055e+01 1.581605000000000018e+03
4.200000000000000261e-02 5.311464999999999659e-01 -4.108905000000000030e+00 2.415384999999999849e+01 1.581590000000000146e+03
4.300000000000000350e-02 5.313634999999999886e-01 -3.192607999999999890e+00 2.524175000000000324e+01 1.581764999999999873e+03
4.400000000000000439e-02 5.316925000000000123e-01 -2.030834999999999724e+00 2.693370000000000175e+01 1.582099999999999909e+03
4.499999999999999833e-02 5.321215000000000250e-01 -6.409850000000001380e-01 2.916694999999999993e+01 1.582595000000000027e+03
4.599999999999999922e-02 5.326400000000000023e-01 9.561899999999998734e-01 3.187525000000000119e+01 1.583230000000000018e+03
4.700000000000000011e-02 5.332345000000000557e-01 2.734639999999999738e+00 3.498829999999999529e+01 1.583984999999999900e+03
4.800000000000000100e-02 5.338914999999999633e-01 4.661870000000000402e+00 3.843149999999999977e+01 1.584839999999999918e+03
4.900000000000000189e-02 5.345940000000000136e-01 6.698835000000000761e+00 4.212494999999999834e+01 1.585779999999999973e+03
5.000000000000000278e-02 5.353259999999999685e-01 8.801615500000000480e+00 4.598545000000000016e+01 1.586784999999999854e+03
5.100000000000000366e-02 5.360700000000000465e-01 1.092393999999999998e+01 4.992870000000000630e+01 1.587825000000000045e+03
5.200000000000000455e-02 5.368109999999999271e-01 1.302033499999999933e+01 5.387330000000000041e+01 1.588884999999999991e+03
5.300000000000000544e-02 5.375345000000000262e-01 1.504923500000000125e+01 5.774545000000000528e+01 1.589940000000000055e+03
5.399999999999999939e-02 5.382305000000000561e-01 1.697590999999999894e+01 6.148314999999999486e+01 1.590980000000000018e+03
5.500000000000000028e-02 5.388910000000000089e-01 1.877394999999999925e+01 6.503959999999999297e+01 1.591985000000000127e+03
5.600000000000000117e-02 5.395115000000000327e-01 2.042644999999999911e+01 6.838530000000000086e+01 1.592949999999999818e+03
5.700000000000000205e-02 5.400920000000000165e-01 2.192549999999999955e+01 7.150849999999999795e+01 1.593865000000000009e+03
5.800000000000000294e-02 5.406345000000000178e-01 2.327199999999999847e+01 7.441415000000000646e+01 1.594724999999999909e+03
5.900000000000000383e-02 5.411445000000000283e-01 2.447380000000000067e+01 7.712190000000001078e+01 1.595539999999999964e+03
6.000000000000000472e-02 5.416285000000000682e-01 2.554455000000000098e+01 7.966294999999999504e+01 1.596309999999999945e+03
6.099999999999999867e-02 5.420939999999999648e-01 2.650195000000000078e+01 8.207699999999999818e+01 1.597045000000000073e+03
6.199999999999999956e-02 5.425495000000000179e-01 2.736625000000000085e+01 8.440819999999999368e+01 1.597755000000000109e+03
6.300000000000000044e-02 5.430030000000000134e-01 2.815894999999999726e+01 8.670224999999999227e+01 1.598454999999999927e+03
6.400000000000000133e-02 5.434630000000000294e-01 2.890115000000000123e+01 8.900300000000000011e+01 1.599144999999999982e+03
6.500000000000000222e-02 5.439365000000000450e-01 2.961265000000000214e+01 9.134964999999999691e+01 1.599849999999999909e+03
6.600000000000000311e-02 5.444280000000000230e-01 3.031029999999999802e+01 9.377405000000000257e+01 1.600565000000000055e+03
6.700000000000000400e-02 5.449414999999999676e-01 3.100734999999999886e+01 9.629890000000000327e+01 1.601305000000000064e+03
6.800000000000000488e-02 5.454775000000000595e-01 3.171225000000000094e+01 9.893564999999999543e+01 1.602070000000000164e+03
6.900000000000000577e-02 5.460355000000000070e-01 3.242815000000000225e+01 1.016834000000000060e+02 1.602860000000000127e+03
7.000000000000000666e-02 5.466130000000000155e-01 3.315290000000000248e+01 1.045310999999999950e+02 1.603679999999999836e+03
7.100000000000000755e-02 5.472029999999999950e-01 3.387904999999999944e+01 1.074544999999999959e+02 1.604519999999999982e+03
7.200000000000000844e-02 5.477994999999999948e-01 3.459479999999999933e+01 1.104194999999999993e+02 1.605369999999999891e+03
7.300000000000000933e-02 5.483940000000000481e-01 3.528464999999999918e+01 1.133859999999999957e+02 1.606224999999999909e+03
7.399999999999999634e-02 5.489770000000000483e-01 3.593094999999999573e+01 1.163064999999999998e+02 1.607075000000000045e+03
7.499999999999999722e-02 5.495385000000000408e-01 3.651489999999999725e+01 1.191340000000000003e+02 1.607904999999999973e+03
7.599999999999999811e-02 5.500705000000000178e-01 3.701805000000000234e+01 1.218209999999999980e+02 1.608699999999999818e+03
7.699999999999999900e-02 5.505655000000000410e-01 3.742350000000000421e+01 1.243225000000000051e+02 1.609450000000000045e+03
7.799999999999999989e-02 5.510144999999999627e-01 3.771679999999999922e+01 1.266020000000000039e+02 1.610144999999999982e+03
7.900000000000000078e-02 5.514145000000000296e-01 3.788684999999999548e+01 1.286285000000000025e+02 1.610779999999999973e+03
8.000000000000000167e-02 5.517609999999999459e-01 3.792634999999999934e+01 1.303814999999999884e+02 1.611335000000000036e+03
8.100000000000000255e-02 5.520525000000000571e-01 3.783225000000000193e+01 1.318489999999999895e+02 1.611820000000000164e+03
8.200000000000000344e-02 5.522890000000000299e-01 3.760575000000000045e+01 1.330305000000000177e+02 1.612224999999999909e+03
8.300000000000000433e-02 5.524725000000000330e-01 3.725209999999999866e+01 1.339329999999999927e+02 1.612550000000000182e+03
8.400000000000000522e-02 5.526075000000000292e-01 3.678050000000000352e+01 1.345735000000000241e+02 1.612805000000000064e+03
8.500000000000000611e-02 5.526974999999999527e-01 3.620329999999999870e+01 1.349764999999999873e+02 1.612994999999999891e+03
8.600000000000000699e-02 5.527489999999999348e-01 3.553569999999999851e+01 1.351715000000000089e+02 1.613115000000000009e+03
8.700000000000000788e-02 5.527684999999999960e-01 3.479500000000000171e+01 1.351924999999999955e+02 1.613184999999999945e+03
8.800000000000000877e-02 5.527634999999999632e-01 3.399954999999999927e+01 1.350759999999999934e+02 1.613210000000000036e+03
8.899999999999999578e-02 5.527395000000000502e-01 3.316839999999999833e+01 1.348609999999999900e+02 1.613199999999999818e+03
8.999999999999999667e-02 5.527050000000000018e-01 3.232010000000000360e+01 1.345825000000000102e+02 1.613154999999999973e+03
9.099999999999999756e-02 5.526655000000000317e-01 3.147209999999999752e+01 1.342764999999999986e+02 1.613105000000000018e+03
9.199999999999999845e-02 5.526269999999999794e-01 3.064005000000000223e+01 1.339724999999999966e+02 1.613045000000000073e+03
9.299999999999999933e-02 5.525940000000000296e-01 2.983715000000000117e+01 1.336959999999999980e+02 1.612980000000000018e+03
9.400000000000000022e-02 5.525689999999999769e-01 2.907375000000000043e+01 1.334664999999999964e+02 1.612930000000000064e+03
9.500000000000000111e-02 5.525550000000000184e-01 2.835699999999999932e+01 1.332980000000000018e+02 1.612884999999999991e+03
9.600000000000000200e-02 5.525525000000000020e-01 2.769064999999999799e+01 1.331949999999999932e+02 1.612855000000000018e+03
9.700000000000000289e-02 5.525615000000000387e-01 2.707525000000000048e+01 1.331595000000000084e+02 1.612835000000000036e+03
9.800000000000000377e-02 5.525795000000000012e-01 2.650809999999999889e+01 1.331839999999999975e+02 1.612835000000000036e+03
9.900000000000000466e-02 5.526054999999999717e-01 2.598389999999999844e+01 1.332580000000000098e+02 1.612849999999999909e+03
1.000000000000000056e-01 5.526355000000000572e-01 2.549494999999999933e+01 1.333650000000000091e+02 1.612864999999999782e+03
1.010000000000000064e-01 5.526659999999999906e-01 2.503195000000000192e+01 1.334859999999999900e+02 1.612889999999999873e+03
1.020000000000000073e-01 5.526925000000000310e-01 2.458425000000000082e+01 1.335999999999999943e+02 1.612920000000000073e+03
1.030000000000000082e-01 5.527115000000000222e-01 2.414099999999999824e+01 1.336850000000000023e+02 1.612934999999999945e+03
1.040000000000000091e-01 5.527180000000000426e-01 2.369115000000000038e+01 1.337205000000000155e+02 1.612940000000000055e+03
1.050000000000000100e-01 5.527104999999999935e-01 2.322469999999999857e+01 1.336860000000000070e+02 1.612934999999999945e+03
1.059999999999999970e-01 5.526845000000000230e-01 2.273279999999999745e+01 1.335660000000000025e+02 1.612909999999999854e+03
1.069999999999999979e-01 5.526385000000000325e-01 2.220835000000000292e+01 1.333469999999999800e+02 1.612849999999999909e+03
1.079999999999999988e-01 5.525700000000000056e-01 2.164645000000000152e+01 1.330204999999999984e+02 1.612775000000000091e+03
1.089999999999999997e-01 5.524809999999999999e-01 2.104449999999999932e+01 1.325829999999999984e+02 1.612659999999999854e+03
1.100000000000000006e-01 5.523700000000000276e-01 2.040244999999999820e+01 1.320360000000000014e+02 1.612525000000000091e+03
1.110000000000000014e-01 5.522394999999999943e-01 1.972289999999999921e+01 1.313859999999999957e+02 1.612360000000000127e+03
1.120000000000000023e-01 5.520924999999999860e-01 1.901060000000000016e+01 1.306440000000000055e+02 1.612159999999999854e+03
1.130000000000000032e-01 5.519309999999999494e-01 1.827284999999999826e+01 1.298249999999999886e+02 1.611945000000000164e+03
1.140000000000000041e-01 5.517600000000000282e-01 1.751844999999999786e+01 1.289480000000000075e+02 1.611715000000000146e+03
1.150000000000000050e-01 5.515830000000000455e-01 1.675789999999999935e+01 1.280355000000000132e+02 1.611464999999999918e+03
1.160000000000000059e-01 5.514045000000000751e-01 1.600260000000000105e+01 1.271094999999999970e+02 1.611214999999999918e+03
1.170000000000000068e-01 5.512295000000000389e-01 1.526429999999999865e+01 1.261940000000000026e+02 1.610960000000000036e+03
1.180000000000000077e-01 5.510629999999999695e-01 1.455477499999999935e+01 1.253125000000000000e+02 1.610710000000000036e+03
1.190000000000000085e-01 5.509074999999999944e-01 1.388507500000000050e+01 1.244869999999999948e+02 1.610474999999999909e+03
1.200000000000000094e-01 5.507680000000000353e-01 1.326514500000000041e+01 1.237369999999999948e+02 1.610255000000000109e+03
1.209999999999999964e-01 5.506459999999999688e-01 1.270325499999999863e+01 1.230790000000000077e+02 1.610054999999999836e+03
1.219999999999999973e-01 5.505455000000000210e-01 1.220593000000000039e+01 1.225240000000000009e+02 1.609880000000000109e+03
1.229999999999999982e-01 5.504660000000000108e-01 1.177748500000000043e+01 1.220815000000000055e+02 1.609735000000000127e+03
1.239999999999999991e-01 5.504089999999999261e-01 1.141994500000000023e+01 1.217545000000000073e+02 1.609619999999999891e+03
1.250000000000000000e-01 5.503734999999999600e-01 1.113304499999999919e+01 1.215420000000000016e+02 1.609535000000000082e+03
1.260000000000000009e-01 5.503580000000000139e-01 1.091449000000000069e+01 1.214389999999999930e+02 1.609480000000000018e+03
1.270000000000000018e-01 5.503609999999999891e-01 1.075990999999999964e+01 1.214364999999999952e+02 1.609450000000000045e+03
1.280000000000000027e-01 5.503804999999999392e-01 1.066328999999999994e+01 1.215229999999999961e+02 1.609444999999999936e+03
1.290000000000000036e-01 5.504130000000000411e-01 1.061732999999999905e+01 1.216839999999999975e+02 1.609470000000000027e+03
1.300000000000000044e-01 5.504554999999999865e-01 1.061384499999999953e+01 1.219029999999999916e+02 1.609505000000000109e+03
1.310000000000000053e-01 5.505050000000000221e-01 1.064395500000000006e+01 1.221640000000000015e+02 1.609559999999999945e+03
1.320000000000000062e-01 5.505584999999999507e-01 1.069874499999999884e+01 1.224505000000000052e+02 1.609619999999999891e+03
1.330000000000000071e-01 5.506130000000000191e-01 1.076937999999999995e+01 1.227464999999999975e+02 1.609690000000000055e+03
1.340000000000000080e-01 5.506655000000000300e-01 1.084758000000000067e+01 1.230379999999999967e+02 1.609759999999999991e+03
1.350000000000000089e-01 5.507144999999999957e-01 1.092577999999999960e+01 1.233125000000000000e+02 1.609829999999999927e+03
1.360000000000000098e-01 5.507575000000000109e-01 1.099750500000000031e+01 1.235585000000000093e+02 1.609894999999999982e+03
1.370000000000000107e-01 5.507929999999999771e-01 1.105729000000000006e+01 1.237694999999999936e+02 1.609954999999999927e+03
1.380000000000000115e-01 5.508210000000000051e-01 1.110084499999999963e+01 1.239389999999999930e+02 1.610000000000000000e+03
1.390000000000000124e-01 5.508410000000000251e-01 1.112528000000000006e+01 1.240655000000000001e+02 1.610039999999999964e+03
1.400000000000000133e-01 5.508520000000000083e-01 1.112885499999999972e+01 1.241469999999999914e+02 1.610070000000000164e+03
1.410000000000000142e-01 5.508554999999999424e-01 1.111098499999999945e+01 1.241860000000000070e+02 1.610085000000000036e+03
1.420000000000000151e-01 5.508520000000000083e-01 1.107224500000000056e+01 1.241850000000000023e+02 1.610090000000000146e+03
1.430000000000000160e-01 5.508429999999999715e-01 1.101405499999999904e+01 1.241500000000000057e+02 1.610085000000000036e+03
1.440000000000000169e-01 5.508285000000000542e-01 1.093863999999999947e+01 1.240865000000000009e+02 1.610079999999999927e+03
1.450000000000000178e-01 5.508109999999999395e-01 1.084898000000000096e+01 1.240014999999999930e+02 1.610059999999999945e+03
1.459999999999999909e-01 5.507914999999999894e-01 1.074825500000000034e+01 1.239025000000000034e+02 1.610039999999999964e+03
1.469999999999999918e-01 5.507705000000000517e-01 1.064008499999999913e+01 1.237959999999999923e+02 1.610014999999999873e+03
1.479999999999999927e-01 5.507504999999999207e-01 1.052805000000000035e+01 1.236889999999999930e+02 1.609994999999999891e+03
1.489999999999999936e-01 5.507324999999999582e-01 1.041558999999999990e+01 1.235884999999999962e+02 1.609970000000000027e+03
1.499999999999999944e-01 5.507165000000000532e-01 1.030603499999999961e+01 1.234994999999999976e+02 1.609940000000000055e+03
1.509999999999999953e-01 5.507044999999999302e-01 1.020204999999999984e+01 1.234260000000000019e+02 1.609924999999999955e+03
1.519999999999999962e-01 5.506959999999999633e-01 1.010600499999999968e+01 1.233714999999999975e+02 1.609909999999999854e+03
1.529999999999999971e-01 5.506919999999999593e-01 1.001960500000000032e+01 1.233375000000000057e+02 1.609900000000000091e+03
1.539999999999999980e-01 5.506919999999999593e-01 9.943875000000000242e+00 1.233255000000000052e+02 1.609894999999999982e+03
1.549999999999999989e-01 5.506959999999999633e-01 9.879300000000000637e+00 1.233340000000000032e+02 1.609894999999999982e+03
1.559999999999999998e-01 5.507035000000000124e-01 9.825784999999999769e+00 1.233609999999999900e+02 1.609900000000000091e+03
1.570000000000000007e-01 5.507134999999999669e-01 9.782585000000000974e+00 1.234050000000000011e+02 1.609910000000000082e+03
1.580000000000000016e-01 5.507260000000000488e-01 9.748680000000000234e+00 1.234615000000000009e+02 1.609925000000000182e+03
1.590000000000000024e-01 5.507400000000000073e-01 9.722595000000000098e+00 1.235269999999999868e+02 1.609940000000000055e+03
