# t [s], A [cm^2], U [cm/s], P [cPa], c [cm/s]
1.000000000000000021e-03 1.640604999999999980e-01 2.130845000000000100e-01 9.493434999999999491e+01 1.931789999999999964e+03
2.000000000000000042e-03 1.640329999999999844e-01 1.561393000000000031e+00 9.223685000000000400e+01 1.931539999999999964e+03
3.000000000000000062e-03 1.639349999999999974e-01 3.251106500000000121e+00 8.858344999999999914e+01 1.930675000000000182e+03
4.000000000000000083e-03 1.637895000000000045e-01 5.142185500000000076e+00 8.440335000000000321e+01 1.929414999999999964e+03
5.000000000000000104e-03 1.636209999999999887e-01 7.184594999999999843e+00 8.039150000000000773e+01 1.927980000000000018e+03
6.000000000000000125e-03 1.634504999999999986e-01 9.279749999999999943e+00 7.694629999999999370e+01 1.926539999999999964e+03
7.000000000000000146e-03 1.632875000000000021e-01 1.127069499999999991e+01 7.406370000000001141e+01 1.925179999999999836e+03
8.000000000000000167e-03 1.631334999999999869e-01 1.302929999999999922e+01 7.153979999999999961e+01 1.923920000000000073e+03
9.000000000000001055e-03 1.629924999999999846e-01 1.452868499999999941e+01 6.927949999999999875e+01 1.922780000000000200e+03
1.000000000000000194e-02 1.628680000000000128e-01 1.579769999999999897e+01 6.733019999999999072e+01 1.921784999999999854e+03
1.099999999999999936e-02 1.627615000000000034e-01 1.685900000000000176e+01 6.573134999999999195e+01 1.920945000000000164e+03
1.200000000000000025e-02 1.626730000000000120e-01 1.772445000000000093e+01 6.446490000000000009e+01 1.920250000000000000e+03
1.300000000000000114e-02 1.626009999999999955e-01 1.840269999999999939e+01 6.348284999999999911e+01 1.919699999999999818e+03
1.400000000000000203e-02 1.625429999999999930e-01 1.889699999999999847e+01 6.271235000000000070e+01 1.919259999999999991e+03
1.499999999999999944e-02 1.624960000000000016e-01 1.921385000000000076e+01 6.207039999999999935e+01 1.918909999999999854e+03
1.600000000000000033e-02 1.624574999999999769e-01 1.938749999999999929e+01 6.152479999999999905e+01 1.918630000000000109e+03
1.700000000000000122e-02 1.624285000000000034e-01 1.949385000000000190e+01 6.115765000000000384e+01 1.918424999999999955e+03
1.800000000000000211e-02 1.624130000000000018e-01 1.963370000000000104e+01 6.115690000000000026e+01 1.918325000000000045e+03
1.900000000000000300e-02 1.624169999999999781e-01 1.989379999999999882e+01 6.172690000000000055e+01 1.918365000000000009e+03
2.000000000000000042e-02 1.624439999999999773e-01 2.030955000000000155e+01 6.297350000000000136e+01 1.918590000000000146e+03
2.100000000000000130e-02 1.624939999999999996e-01 2.085090000000000288e+01 6.483089999999999975e+01 1.918990000000000009e+03
2.200000000000000219e-02 1.625620000000000120e-01 2.143459999999999965e+01 6.706504999999999939e+01 1.919534999999999854e+03
2.299999999999999961e-02 1.626400000000000068e-01 2.195445000000000135e+01 6.934225000000000705e+01 1.920160000000000082e+03
2.400000000000000050e-02 1.627170000000000005e-01 2.231544999999999845e+01 7.132849999999999113e+01 1.920784999999999854e+03
2.500000000000000139e-02 1.627839999999999843e-01 2.245980000000000132e+01 7.277965000000000373e+01 1.921339999999999918e+03
2.600000000000000228e-02 1.628350000000000075e-01 2.237729999999999819e+01 7.359475000000000477e+01 1.921769999999999982e+03
2.700000000000000316e-02 1.628680000000000128e-01 2.210069999999999979e+01 7.382054999999999723e+01 1.922055000000000064e+03
2.800000000000000058e-02 1.628850000000000020e-01 2.168880000000000052e+01 7.361285000000000878e+01 1.922204999999999927e+03
2.900000000000000147e-02 1.628895000000000204e-01 2.120474999999999710e+01 7.317275000000000773e+01 1.922259999999999991e+03
3.000000000000000236e-02 1.628864999999999896e-01 2.069705000000000084e+01 7.268070000000000164e+01 1.922244999999999891e+03
3.099999999999999978e-02 1.628799999999999970e-01 2.018864999999999910e+01 7.224895000000000778e+01 1.922200000000000045e+03
3.200000000000000067e-02 1.628735000000000044e-01 1.967640000000000100e+01 7.190385000000000559e+01 1.922144999999999982e+03
3.300000000000000155e-02 1.628654999999999964e-01 1.913819999999999766e+01 7.159719999999998663e+01 1.922090000000000146e+03
3.400000000000000244e-02 1.628554999999999864e-01 1.854585000000000150e+01 7.123959999999999582e+01 1.922009999999999991e+03
3.500000000000000333e-02 1.628419999999999868e-01 1.787879999999999825e+01 7.074219999999999686e+01 1.921905000000000200e+03
3.600000000000000422e-02 1.628215000000000079e-01 1.713459999999999894e+01 7.005559999999999832e+01 1.921744999999999891e+03
3.700000000000000511e-02 1.627949999999999953e-01 1.633419999999999916e+01 6.919444999999998913e+01 1.921545000000000073e+03
3.799999999999999906e-02 1.627640000000000198e-01 1.552035000000000053e+01 6.824209999999999354e+01 1.921304999999999836e+03
3.899999999999999994e-02 1.627315000000000011e-01 1.474990000000000023e+01 6.733570000000000277e+01 1.921050000000000182e+03
4.000000000000000083e-02 1.627024999999999999e-01 1.408194999999999908e+01 6.663460000000000605e+01 1.920815000000000055e+03
4.100000000000000172e-02 1.626815000000000067e-01 1.356530000000000058e+01 6.628350000000000364e+01 1.920644999999999982e+03
4.200000000000000261e-02 1.626730000000000120e-01 1.322830000000000084e+01 6.637790000000001100e+01 1.920565000000000055e+03
4.300000000000000350e-02 1.626790000000000180e-01 1.307345000000000113e+01 6.694214999999999804e+01 1.920599999999999909e+03
4.400000000000000439e-02 1.627000000000000113e-01 1.307750000000000057e+01 6.792375000000001251e+01 1.920755000000000109e+03
4.499999999999999833e-02 1.627339999999999898e-01 1.319594999999999985e+01 6.920330000000001291e+01 1.921014999999999873e+03
4.599999999999999922e-02 1.627770000000000050e-01 1.337134999999999962e+01 7.061660000000000537e+01 1.921349999999999909e+03
4.700000000000000011e-02 1.628235000000000099e-01 1.354234999999999900e+01 7.198284999999999911e+01 1.921714999999999918e+03
4.800000000000000100e-02 1.628684999999999994e-01 1.365215000000000067e+01 7.313190000000000168e+01 1.922070000000000164e+03
4.900000000000000189e-02 1.629065000000000096e-01 1.365484999999999971e+01 7.392690000000000339e+01 1.922369999999999891e+03
5.000000000000000278e-02 1.629324999999999801e-01 1.351924999999999955e+01 7.427774999999999750e+01 1.922585000000000036e+03
5.100000000000000366e-02 1.629440000000000055e-01 1.322935000000000016e+01 7.414520000000000266e+01 1.922684999999999945e+03
5.200000000000000455e-02 1.629404999999999881e-01 1.278324999999999889e+01 7.353679999999999950e+01 1.922660000000000082e+03
5.300000000000000544e-02 1.629200000000000093e-01 1.218970000000000020e+01 7.249684999999999491e+01 1.922505000000000109e+03
5.399999999999999939e-02 1.628850000000000020e-01 1.146524499999999946e+01 7.109340000000000259e+01 1.922235000000000127e+03
5.500000000000000028e-02 1.628359999999999808e-01 1.063031499999999951e+01 6.940524999999999523e+01 1.921849999999999909e+03
5.600000000000000117e-02 1.627764999999999906e-01 9.707250000000000156e+00 6.751239999999999952e+01 1.921384999999999991e+03
5.700000000000000205e-02 1.627084999999999781e-01 8.718804999999999694e+00 6.548919999999999675e+01 1.920845000000000027e+03
5.800000000000000294e-02 1.626350000000000018e-01 7.687734999999999985e+00 6.340189999999999770e+01 1.920259999999999991e+03
5.900000000000000383e-02 1.625574999999999937e-01 6.637195000000000178e+00 6.130974999999999397e+01 1.919639999999999873e+03
6.000000000000000472e-02 1.624780000000000113e-01 5.591355000000000075e+00 5.926735000000000042e+01 1.919009999999999991e+03
6.099999999999999867e-02 1.624005000000000032e-01 4.576060000000000016e+00 5.732809999999999917e+01 1.918384999999999991e+03
6.199999999999999956e-02 1.623249999999999971e-01 3.619095000000000173e+00 5.554725000000000534e+01 1.917789999999999964e+03
6.300000000000000044e-02 1.622554999999999970e-01 2.750004500000000185e+00 5.398290000000000077e+01 1.917224999999999909e+03
6.400000000000000133e-02 1.621934999999999905e-01 1.999325800000000042e+00 5.269610000000000127e+01 1.916724999999999909e+03
6.500000000000000222e-02 1.621420000000000083e-01 1.397370000000000001e+00 5.174855000000000160e+01 1.916305000000000064e+03
6.600000000000000311e-02 1.621029999999999971e-01 9.726905000000000134e-01 5.119944999999999879e+01 1.915985000000000127e+03
6.700000000000000400e-02 1.620789999999999731e-01 7.504040000000000710e-01 5.110134999999999650e+01 1.915780000000000200e+03
6.800000000000000488e-02 1.620710000000000206e-01 7.506570000000000187e-01 5.149620000000000175e+01 1.915704999999999927e+03
6.900000000000000577e-02 1.620820000000000038e-01 9.873209999999998931e-01 5.241199999999999903e+01 1.915775000000000091e+03
7.000000000000000666e-02 1.621130000000000071e-01 1.467135000000000078e+00 5.385979999999999990e+01 1.916005000000000109e+03
7.100000000000000755e-02 1.621635000000000160e-01 2.189290499999999806e+00 5.583320000000000505e+01 1.916384999999999991e+03
7.200000000000000844e-02 1.622335000000000027e-01 3.145547500000000163e+00 5.830819999999999936e+01 1.916934999999999945e+03
7.300000000000000933e-02 1.623235000000000094e-01 4.320734999999999992e+00 6.124490000000000123e+01 1.917630000000000109e+03
7.399999999999999634e-02 1.624309999999999921e-01 5.693674999999999820e+00 6.458979999999999677e+01 1.918474999999999909e+03
7.499999999999999722e-02 1.625544999999999907e-01 7.238344999999999807e+00 6.827939999999999543e+01 1.919444999999999936e+03
7.599999999999999811e-02 1.626925000000000177e-01 8.925319999999999254e+00 7.224379999999999313e+01 1.920539999999999964e+03
7.699999999999999900e-02 1.628410000000000135e-01 1.072295000000000087e+01 7.641034999999999400e+01 1.921720000000000027e+03
7.799999999999999989e-02 1.629990000000000050e-01 1.259924499999999981e+01 8.070795000000001096e+01 1.922980000000000018e+03
7.900000000000000078e-02 1.631630000000000025e-01 1.452280000000000015e+01 8.506995000000000573e+01 1.924295000000000073e+03
8.000000000000000167e-02 1.633310000000000040e-01 1.646440000000000126e+01 8.943760000000000332e+01 1.925644999999999982e+03
8.100000000000000255e-02 1.635014999999999941e-01 1.839774999999999849e+01 9.376165000000000305e+01 1.927010000000000218e+03
8.200000000000000344e-02 1.636710000000000109e-01 2.030039999999999978e+01 9.800390000000000157e+01 1.928380000000000109e+03
8.300000000000000433e-02 1.638395000000000268e-01 2.215390000000000015e+01 1.021388000000000034e+02 1.929744999999999891e+03
8.400000000000000522e-02 1.640044999999999975e-01 2.394429999999999836e+01 1.061504999999999939e+02 1.931085000000000036e+03
8.500000000000000611e-02 1.641659999999999786e-01 2.566154999999999831e+01 1.100339999999999918e+02 1.932404999999999973e+03
8.600000000000000699e-02 1.643244999999999845e-01 2.729950000000000188e+01 1.137930000000000064e+02 1.933700000000000045e+03
8.700000000000000788e-02 1.644784999999999997e-01 2.885495000000000232e+01 1.174360000000000070e+02 1.934960000000000036e+03
8.800000000000000877e-02 1.646289999999999976e-01 3.032689999999999841e+01 1.209759999999999991e+02 1.936194999999999936e+03
8.899999999999999578e-02 1.647760000000000058e-01 3.171620000000000061e+01 1.244270000000000067e+02 1.937400000000000091e+03
8.999999999999999667e-02 1.649194999999999967e-01 3.302445000000000164e+01 1.278025000000000091e+02 1.938585000000000036e+03
9.099999999999999756e-02 1.650599999999999845e-01 3.425359999999999872e+01 1.311119999999999948e+02 1.939750000000000000e+03
9.199999999999999845e-02 1.651989999999999847e-01 3.540529999999999688e+01 1.343629999999999995e+02 1.940889999999999873e+03
9.299999999999999933e-02 1.653344999999999954e-01 3.648069999999999879e+01 1.375579999999999927e+02 1.942014999999999873e+03
9.400000000000000022e-02 1.654685000000000183e-01 3.748024999999999807e+01 1.406940000000000168e+02 1.943119999999999891e+03
9.500000000000000111e-02 1.655999999999999972e-01 3.840330000000000155e+01 1.437669999999999959e+02 1.944210000000000036e+03
9.600000000000000200e-02 1.657285000000000008e-01 3.924849999999999994e+01 1.467644999999999982e+02 1.945275000000000091e+03
9.700000000000000289e-02 1.658544999999999880e-01 4.001355000000000217e+01 1.496750000000000114e+02 1.946320000000000164e+03
9.800000000000000377e-02 1.659769999999999857e-01 4.069565000000000055e+01 1.524830000000000041e+02 1.947329999999999927e+03
9.900000000000000466e-02 1.660944999999999783e-01 4.129135000000000133e+01 1.551719999999999970e+02 1.948319999999999936e+03
1.000000000000000056e-01 1.662079999999999946e-01 4.179694999999999538e+01 1.577249999999999943e+02 1.949259999999999991e+03
1.010000000000000064e-01 1.663165000000000060e-01 4.220859999999999701e+01 1.601254999999999882e+02 1.950164999999999964e+03
1.020000000000000073e-01 1.664184999999999970e-01 4.252255000000000251e+01 1.623559999999999945e+02 1.951019999999999982e+03
1.030000000000000082e-01 1.665145000000000097e-01 4.273534999999999684e+01 1.644025000000000034e+02 1.951819999999999936e+03
1.040000000000000091e-01 1.666024999999999867e-01 4.284400000000000119e+01 1.662510000000000048e+02 1.952559999999999945e+03
1.050000000000000100e-01 1.666829999999999978e-01 4.284620000000000317e+01 1.678909999999999911e+02 1.953240000000000009e+03
1.059999999999999970e-01 1.667560000000000153e-01 4.274075000000000557e+01 1.693134999999999764e+02 1.953855000000000018e+03
1.069999999999999979e-01 1.668205000000000104e-01 4.252745000000000175e+01 1.705140000000000100e+02 1.954394999999999982e+03
1.079999999999999988e-01 1.668755000000000099e-01 4.220744999999999436e+01 1.714894999999999925e+02 1.954865000000000009e+03
1.089999999999999997e-01 1.669220000000000148e-01 4.178334999999999866e+01 1.722429999999999950e+02 1.955259999999999991e+03
1.100000000000000006e-01 1.669599999999999973e-01 4.125939999999999941e+01 1.727794999999999845e+02 1.955585000000000036e+03
1.110000000000000014e-01 1.669889999999999985e-01 4.064135000000000275e+01 1.731090000000000089e+02 1.955835000000000036e+03
1.120000000000000023e-01 1.670099999999999918e-01 3.993639999999999901e+01 1.732434999999999832e+02 1.956019999999999982e+03
1.130000000000000032e-01 1.670229999999999770e-01 3.915319999999999823e+01 1.732009999999999934e+02 1.956139999999999873e+03
1.140000000000000041e-01 1.670285000000000242e-01 3.830160000000000053e+01 1.729995000000000118e+02 1.956195000000000164e+03
1.150000000000000050e-01 1.670280000000000098e-01 3.739235000000000042e+01 1.726605000000000132e+02 1.956199999999999818e+03
1.160000000000000059e-01 1.670210000000000028e-01 3.643659999999999854e+01 1.722059999999999889e+02 1.956150000000000091e+03
1.170000000000000068e-01 1.670095000000000052e-01 3.544594999999999629e+01 1.716589999999999918e+02 1.956059999999999945e+03
1.180000000000000077e-01 1.669935000000000169e-01 3.443175000000000097e+01 1.710414999999999850e+02 1.955929999999999836e+03
1.190000000000000085e-01 1.669744999999999979e-01 3.340505000000000280e+01 1.703750000000000000e+02 1.955780000000000200e+03
1.200000000000000094e-01 1.669530000000000181e-01 3.237590000000000146e+01 1.696779999999999973e+02 1.955605000000000018e+03
1.209999999999999964e-01 1.669295000000000084e-01 3.135344999999999871e+01 1.689664999999999964e+02 1.955409999999999854e+03
1.219999999999999973e-01 1.669045000000000112e-01 3.034570000000000078e+01 1.682554999999999836e+02 1.955204999999999927e+03
1.229999999999999982e-01 1.668789999999999996e-01 2.935909999999999798e+01 1.675545000000000186e+02 1.954994999999999891e+03
1.239999999999999991e-01 1.668534999999999879e-01 2.839880000000000138e+01 1.668700000000000045e+02 1.954784999999999854e+03
1.250000000000000000e-01 1.668279999999999763e-01 2.746804999999999808e+01 1.662065000000000055e+02 1.954570000000000164e+03
1.260000000000000009e-01 1.668029999999999791e-01 2.656889999999999930e+01 1.655640000000000214e+02 1.954360000000000127e+03
1.270000000000000018e-01 1.667779999999999818e-01 2.570179999999999865e+01 1.649409999999999741e+02 1.954154999999999973e+03
1.280000000000000027e-01 1.667534999999999989e-01 2.486585000000000178e+01 1.643319999999999936e+02 1.953945000000000164e+03
1.290000000000000036e-01 1.667290000000000161e-01 2.405895000000000294e+01 1.637289999999999850e+02 1.953740000000000009e+03
1.300000000000000044e-01 1.667044999999999777e-01 2.327790000000000248e+01 1.631245000000000118e+02 1.953534999999999854e+03
1.310000000000000053e-01 1.666799999999999948e-01 2.251869999999999905e+01 1.625079999999999814e+02 1.953325000000000045e+03
1.320000000000000062e-01 1.666549999999999976e-01 2.177680000000000149e+01 1.618684999999999832e+02 1.953115000000000009e+03
1.330000000000000071e-01 1.666285000000000127e-01 2.104735000000000156e+01 1.611940000000000168e+02 1.952889999999999873e+03
1.340000000000000080e-01 1.666009999999999991e-01 2.032515000000000072e+01 1.604759999999999991e+02 1.952664999999999964e+03
1.350000000000000089e-01 1.665719999999999978e-01 1.960544999999999760e+01 1.597019999999999982e+02 1.952420000000000073e+03
1.360000000000000098e-01 1.665405000000000080e-01 1.888354999999999961e+01 1.588654999999999973e+02 1.952155000000000200e+03
1.370000000000000107e-01 1.665065000000000017e-01 1.815555000000000163e+01 1.579585000000000150e+02 1.951869999999999891e+03
1.380000000000000115e-01 1.664694999999999925e-01 1.741829999999999856e+01 1.569764999999999873e+02 1.951565000000000055e+03
1.390000000000000124e-01 1.664305000000000090e-01 1.666949999999999932e+01 1.559170000000000016e+02 1.951244999999999891e+03
1.400000000000000133e-01 1.663879999999999804e-01 1.590800000000000125e+01 1.547810000000000059e+02 1.950894999999999982e+03
1.410000000000000142e-01 1.663430000000000186e-01 1.513380000000000081e+01 1.535699999999999932e+02 1.950519999999999982e+03
1.420000000000000151e-01 1.662945000000000118e-01 1.434815000000000040e+01 1.522899999999999920e+02 1.950119999999999891e+03
1.430000000000000160e-01 1.662440000000000029e-01 1.355344999999999978e+01 1.509499999999999886e+02 1.949700000000000045e+03
1.440000000000000169e-01 1.661910000000000054e-01 1.275324999999999953e+01 1.495604999999999905e+02 1.949264999999999873e+03
1.450000000000000178e-01 1.661354999999999915e-01 1.195213499999999840e+01 1.481349999999999909e+02 1.948809999999999945e+03
1.459999999999999909e-01 1.660789999999999766e-01 1.115555999999999948e+01 1.466864999999999952e+02 1.948345000000000027e+03
1.469999999999999918e-01 1.660214999999999885e-01 1.036968500000000049e+01 1.452325000000000159e+02 1.947865000000000009e+03
1.479999999999999927e-01 1.659634999999999860e-01 9.601049999999998974e+00 1.437884999999999991e+02 1.947389999999999873e+03
1.489999999999999936e-01 1.659054999999999835e-01 8.856360000000000454e+00 1.423710000000000093e+02 1.946909999999999854e+03
1.499999999999999944e-01 1.658489999999999964e-01 8.142234999999999445e+00 1.409970000000000141e+02 1.946444999999999936e+03
1.509999999999999953e-01 1.657934999999999826e-01 7.464964999999999407e+00 1.396800000000000068e+02 1.945980000000000018e+03
1.519999999999999962e-01 1.657394999999999841e-01 6.830194999999999794e+00 1.384329999999999927e+02 1.945539999999999964e+03
1.529999999999999971e-01 1.656890000000000029e-01 6.242779999999999774e+00 1.372674999999999841e+02 1.945115000000000009e+03
1.539999999999999980e-01 1.656404999999999961e-01 5.706590000000000273e+00 1.361899999999999977e+02 1.944715000000000146e+03
1.549999999999999989e-01 1.655955000000000066e-01 5.224389999999999645e+00 1.352079999999999984e+02 1.944345000000000027e+03
1.559999999999999998e-01 1.655534999999999923e-01 4.797784999999999300e+00 1.343224999999999909e+02 1.943994999999999891e+03
1.570000000000000007e-01 1.655159999999999965e-01 4.427154999999999951e+00 1.335344999999999800e+02 1.943680000000000064e+03
1.580000000000000016e-01 1.654815000000000036e-01 4.111740000000000173e+00 1.328404999999999916e+02 1.943389999999999873e+03
1.590000000000000024e-01 1.654505000000000003e-01 3.849660000000000082e+00 1.322359999999999900e+02 1.943130000000000109e+03
