# t [s], A [cm^2], U [cm/s], P [cPa], c [cm/s]
1.000000000000000021e-03 6.888385000000000202e-01 6.287050000000002359e-03 1.012284999999999968e+02 1.683009999999999991e+03
2.000000000000000042e-03 6.888259999999999383e-01 -4.200390000000000026e-03 1.011965000000000003e+02 1.683005000000000109e+03
3.000000000000000062e-03 6.888780000000001014e-01 8.260565000000000269e-02 1.012949999999999875e+02 1.683030000000000200e+03
4.000000000000000083e-03 6.889315000000000300e-01 1.828268500000000130e-01 1.014244999999999948e+02 1.683059999999999945e+03
5.000000000000000104e-03 6.889075000000000060e-01 1.667570499999999900e-01 1.013780000000000001e+02 1.683049999999999955e+03
6.000000000000000125e-03 6.888380000000000614e-01 7.081499999999998907e-02 1.011589999999999918e+02 1.683005000000000109e+03
7.000000000000000146e-03 6.887814999999999355e-01 -9.616499999999972292e-03 1.008954999999999984e+02 1.682945000000000164e+03
8.000000000000000167e-03 6.886989999999999501e-01 -1.465209999999999568e-01 1.005194999999999936e+02 1.682865000000000009e+03
9.000000000000001055e-03 6.885559999999999459e-01 -4.028450000000000086e-01 9.993415000000000248e+01 1.682740000000000009e+03
1.000000000000000194e-02 6.883494999999999475e-01 -7.835149999999999615e-01 9.909550000000000125e+01 1.682559999999999945e+03
1.099999999999999936e-02 6.880600000000000049e-01 -1.312599999999999989e+00 9.793290000000000362e+01 1.682304999999999836e+03
1.200000000000000025e-02 6.876750000000000362e-01 -1.996905000000000152e+00 9.638894999999999413e+01 1.681970000000000027e+03
1.300000000000000114e-02 6.872279999999999500e-01 -2.755755000000000177e+00 9.452400000000000091e+01 1.681549999999999955e+03
1.400000000000000203e-02 6.867900000000000116e-01 -3.436104999999999965e+00 9.252494999999998981e+01 1.681085000000000036e+03
1.499999999999999944e-02 6.864230000000000054e-01 -3.893506000000000355e+00 9.061164999999999736e+01 1.680619999999999891e+03
1.600000000000000033e-02 6.861500000000000377e-01 -4.056935000000000180e+00 8.893135000000000900e+01 1.680190000000000055e+03
1.700000000000000122e-02 6.859494999999999898e-01 -3.941281000000000034e+00 8.751439999999999486e+01 1.679799999999999955e+03
1.800000000000000211e-02 6.857769999999999699e-01 -3.620779999999999887e+00 8.628860000000000241e+01 1.679450000000000045e+03
1.900000000000000300e-02 6.855854999999999588e-01 -3.188432000000000155e+00 8.512850000000000250e+01 1.679110000000000127e+03
2.000000000000000042e-02 6.853430000000000355e-01 -2.719373050000000180e+00 8.391150000000000375e+01 1.678755000000000109e+03
2.100000000000000130e-02 6.850415000000000809e-01 -2.248665499999999984e+00 8.256295000000000073e+01 1.678380000000000109e+03
2.200000000000000219e-02 6.846944999999999837e-01 -1.768379999999999841e+00 8.107554999999999268e+01 1.677965000000000146e+03
2.299999999999999961e-02 6.843304999999999527e-01 -1.243004999999999916e+00 7.949934999999999263e+01 1.677539999999999964e+03
2.400000000000000050e-02 6.839745000000000408e-01 -6.349000000000002419e-01 7.790959999999999752e+01 1.677099999999999909e+03
2.500000000000000139e-02 6.836415000000000131e-01 7.182999999999983842e-02 7.636889999999999645e+01 1.676670000000000073e+03
2.600000000000000228e-02 6.833279999999999355e-01 8.578199999999998049e-01 7.489775000000000205e+01 1.676250000000000000e+03
2.700000000000000316e-02 6.830140000000000100e-01 1.668050000000000255e+00 7.346260000000000900e+01 1.675844999999999800e+03
2.800000000000000058e-02 6.826689999999999703e-01 2.422709999999999475e+00 7.198239999999999839e+01 1.675424999999999955e+03
2.900000000000000147e-02 6.822605000000000475e-01 3.035279999999999756e+00 7.034960000000000946e+01 1.674980000000000018e+03
3.000000000000000236e-02 6.817649999999999544e-01 3.433120000000000172e+00 6.846014999999999873e+01 1.674480000000000018e+03
3.099999999999999978e-02 6.811730000000000285e-01 3.575385000000000257e+00 6.624474999999999625e+01 1.673914999999999964e+03
3.200000000000000067e-02 6.804940000000000433e-01 3.462780000000000413e+00 6.369194999999999851e+01 1.673280000000000200e+03
3.300000000000000155e-02 6.797560000000000269e-01 3.136480000000000157e+00 6.085609999999999786e+01 1.672575000000000045e+03
3.400000000000000244e-02 6.789975000000000316e-01 2.666514999999999969e+00 5.784789999999999566e+01 1.671835000000000036e+03
3.500000000000000333e-02 6.782595000000000152e-01 2.134944999999999649e+00 5.481284999999999741e+01 1.671079999999999927e+03
3.600000000000000422e-02 6.775785000000000835e-01 1.619635000000000602e+00 5.190470000000000539e+01 1.670340000000000146e+03
3.700000000000000511e-02 6.769830000000000014e-01 1.182955000000000201e+00 4.926279999999999859e+01 1.669659999999999854e+03
3.799999999999999906e-02 6.764915000000000234e-01 8.667100000000003135e-01 4.699660000000000082e+01 1.669055000000000064e+03
3.899999999999999994e-02 6.761099999999999888e-01 6.928450000000001552e-01 4.517879999999999541e+01 1.668549999999999955e+03
4.000000000000000083e-02 6.758405000000000662e-01 6.679500000000002657e-01 4.384669999999999845e+01 1.668159999999999854e+03
4.100000000000000172e-02 6.756785000000000707e-01 7.896850000000000813e-01 4.300894999999999868e+01 1.667884999999999991e+03
4.200000000000000261e-02 6.756189999999999696e-01 1.053200500000000206e+00 4.265534999999999854e+01 1.667730000000000018e+03
4.300000000000000350e-02 6.756575000000000220e-01 1.455989999999999895e+00 4.276675000000000182e+01 1.667695000000000164e+03
4.400000000000000439e-02 6.757910000000000306e-01 2.000138500000000263e+00 4.332290000000000418e+01 1.667775000000000091e+03
4.499999999999999833e-02 6.760180000000000078e-01 2.691853749999999934e+00 4.430615000000000236e+01 1.667965000000000146e+03
4.599999999999999922e-02 6.763384999999999536e-01 3.538653500000000118e+00 4.570170000000000243e+01 1.668259999999999991e+03
4.700000000000000011e-02 6.767495000000000038e-01 4.545627999999999780e+00 4.749419999999999931e+01 1.668654999999999973e+03
4.800000000000000100e-02 6.772475000000000023e-01 5.711860999999999855e+00 4.966384999999999650e+01 1.669150000000000091e+03
4.900000000000000189e-02 6.778239999999999821e-01 7.028046500000000307e+00 5.218215000000000714e+01 1.669740000000000009e+03
5.000000000000000278e-02 6.784695000000000586e-01 8.475989999999999469e+00 5.500979999999999848e+01 1.670414999999999964e+03
5.100000000000000366e-02 6.791684999999999528e-01 1.002976999999999919e+01 5.809675000000000011e+01 1.671159999999999854e+03
5.200000000000000455e-02 6.799070000000000391e-01 1.165782500000000077e+01 6.138429999999999609e+01 1.671954999999999927e+03
5.300000000000000544e-02 6.806689999999999685e-01 1.332628000000000057e+01 6.480920000000000414e+01 1.672800000000000182e+03
5.399999999999999939e-02 6.814405000000000046e-01 1.500180999999999898e+01 6.830809999999999604e+01 1.673674999999999955e+03
5.500000000000000028e-02 6.822079999999999256e-01 1.665466500000000138e+01 7.182240000000000180e+01 1.674570000000000164e+03
5.600000000000000117e-02 6.829625000000000279e-01 1.826020000000000110e+01 7.530209999999999582e+01 1.675460000000000036e+03
5.700000000000000205e-02 6.836984999999999868e-01 1.980025000000000190e+01 7.870874999999999488e+01 1.676339999999999918e+03
5.800000000000000294e-02 6.844099999999999628e-01 2.126279999999999859e+01 8.201630000000000109e+01 1.677204999999999927e+03
5.900000000000000383e-02 6.850985000000000547e-01 2.264199999999999946e+01 8.521129999999999427e+01 1.678049999999999955e+03
6.000000000000000472e-02 6.857644999999999991e-01 2.393650000000000233e+01 8.829130000000000678e+01 1.678869999999999891e+03
6.099999999999999867e-02 6.864105000000000345e-01 2.514884999999999948e+01 9.126349999999999341e+01 1.679670000000000073e+03
6.199999999999999956e-02 6.870404999999999429e-01 2.628405000000000058e+01 9.414060000000000628e+01 1.680440000000000055e+03
6.300000000000000044e-02 6.876590000000000202e-01 2.734844999999999970e+01 9.694089999999999918e+01 1.681199999999999818e+03
6.400000000000000133e-02 6.882690000000000197e-01 2.834884999999999877e+01 9.968370000000000175e+01 1.681944999999999936e+03
6.500000000000000222e-02 6.888754999999999740e-01 2.929175000000000040e+01 1.023869499999999988e+02 1.682675000000000182e+03
6.600000000000000311e-02 6.894804999999999406e-01 3.018234999999999957e+01 1.050663999999999874e+02 1.683394999999999982e+03
6.700000000000000400e-02 6.900850000000000595e-01 3.102420000000000044e+01 1.077334999999999923e+02 1.684115000000000009e+03
6.800000000000000488e-02 6.906909999999999439e-01 3.181880000000000308e+01 1.103924999999999983e+02 1.684829999999999927e+03
6.900000000000000577e-02 6.912949999999999928e-01 3.256524999999999892e+01 1.130430000000000064e+02 1.685549999999999955e+03
7.000000000000000666e-02 6.918949999999999267e-01 3.326069999999999993e+01 1.156775000000000091e+02 1.686260000000000218e+03
7.100000000000000755e-02 6.924879999999999924e-01 3.390030000000000143e+01 1.182819999999999965e+02 1.686960000000000036e+03
7.200000000000000844e-02 6.930689999999999351e-01 3.447794999999999987e+01 1.208395000000000010e+02 1.687654999999999973e+03
7.300000000000000933e-02 6.936324999999999852e-01 3.498685000000000400e+01 1.233284999999999911e+02 1.688329999999999927e+03
7.399999999999999634e-02 6.941739999999999577e-01 3.542040000000000077e+01 1.257259999999999991e+02 1.688985000000000127e+03
7.499999999999999722e-02 6.946879999999999722e-01 3.577235000000000298e+01 1.280105000000000075e+02 1.689615000000000009e+03
7.599999999999999811e-02 6.951704999999999135e-01 3.603750000000000142e+01 1.301610000000000014e+02 1.690210000000000036e+03
7.699999999999999900e-02 6.956189999999999873e-01 3.621205000000000496e+01 1.321589999999999918e+02 1.690769999999999982e+03
7.799999999999999989e-02 6.960285000000000499e-01 3.629354999999999620e+01 1.339900000000000091e+02 1.691289999999999964e+03
7.900000000000000078e-02 6.963989999999999903e-01 3.628100000000000591e+01 1.356434999999999889e+02 1.691764999999999873e+03
8.000000000000000167e-02 6.967280000000000140e-01 3.617515000000000214e+01 1.371114999999999782e+02 1.692190000000000055e+03
8.100000000000000255e-02 6.970155000000000101e-01 3.597804999999999609e+01 1.383919999999999959e+02 1.692569999999999936e+03
8.200000000000000344e-02 6.972625000000000073e-01 3.569319999999999737e+01 1.394859999999999900e+02 1.692900000000000091e+03
8.300000000000000433e-02 6.974700000000000344e-01 3.532569999999999766e+01 1.403979999999999961e+02 1.693184999999999945e+03
8.400000000000000522e-02 6.976400000000000379e-01 3.488199999999999790e+01 1.411359999999999957e+02 1.693414999999999964e+03
8.500000000000000611e-02 6.977754999999999930e-01 3.436999999999999744e+01 1.417115000000000009e+02 1.693605000000000018e+03
8.600000000000000699e-02 6.978790000000000271e-01 3.379860000000000042e+01 1.421399999999999864e+02 1.693759999999999991e+03
8.700000000000000788e-02 6.979549999999999921e-01 3.317799999999999727e+01 1.424364999999999952e+02 1.693875000000000000e+03
8.800000000000000877e-02 6.980079999999999618e-01 3.251890000000000214e+01 1.426204999999999927e+02 1.693950000000000045e+03
8.899999999999999578e-02 6.980410000000000226e-01 3.183259999999999934e+01 1.427119999999999891e+02 1.694005000000000109e+03
8.999999999999999667e-02 6.980600000000000138e-01 3.113005000000000067e+01 1.427299999999999898e+02 1.694039999999999964e+03
9.099999999999999756e-02 6.980679999999999108e-01 3.042174999999999940e+01 1.426945000000000050e+02 1.694049999999999955e+03
9.199999999999999845e-02 6.980695000000000094e-01 2.971715000000000018e+01 1.426229999999999905e+02 1.694049999999999955e+03
9.299999999999999933e-02 6.980669999999999931e-01 2.902429999999999666e+01 1.425310000000000059e+02 1.694034999999999854e+03
9.400000000000000022e-02 6.980629999999999891e-01 2.834934999999999761e+01 1.424314999999999998e+02 1.694025000000000091e+03
9.500000000000000111e-02 6.980589999999999851e-01 2.769654999999999845e+01 1.423330000000000268e+02 1.694005000000000109e+03
9.600000000000000200e-02 6.980554999999999399e-01 2.706810000000000116e+01 1.422415000000000020e+02 1.693980000000000018e+03
9.700000000000000289e-02 6.980524999999999647e-01 2.646405000000000030e+01 1.421569999999999823e+02 1.693965000000000146e+03
9.800000000000000377e-02 6.980489999999999196e-01 2.588275000000000148e+01 1.420785000000000196e+02 1.693940000000000055e+03
9.900000000000000466e-02 6.980435000000000390e-01 2.532114999999999938e+01 1.420004999999999882e+02 1.693920000000000073e+03
1.000000000000000056e-01 6.980345000000000022e-01 2.477469999999999928e+01 1.419155000000000086e+02 1.693900000000000091e+03
1.010000000000000064e-01 6.980195000000000149e-01 2.423809999999999931e+01 1.418145000000000095e+02 1.693869999999999891e+03
1.020000000000000073e-01 6.979954999999999909e-01 2.370575000000000188e+01 1.416860000000000070e+02 1.693835000000000036e+03
1.030000000000000082e-01 6.979610000000000536e-01 2.317174999999999940e+01 1.415210000000000150e+02 1.693789999999999964e+03
1.040000000000000091e-01 6.979139999999999233e-01 2.263044999999999973e+01 1.413079999999999927e+02 1.693735000000000127e+03
1.050000000000000100e-01 6.978519999999999168e-01 2.207685000000000031e+01 1.410384999999999991e+02 1.693670000000000073e+03
1.059999999999999970e-01 6.977740000000000054e-01 2.150665000000000049e+01 1.407055000000000007e+02 1.693590000000000146e+03
1.069999999999999979e-01 6.976799999999999669e-01 2.091675000000000040e+01 1.403034999999999854e+02 1.693490000000000009e+03
1.079999999999999988e-01 6.975694999999999535e-01 2.030515000000000114e+01 1.398305000000000007e+02 1.693375000000000000e+03
1.089999999999999997e-01 6.974415000000000475e-01 1.967139999999999844e+01 1.392860000000000014e+02 1.693234999999999900e+03
1.100000000000000006e-01 6.972990000000000022e-01 1.901654999999999873e+01 1.386734999999999900e+02 1.693079999999999927e+03
1.110000000000000014e-01 6.971424999999999983e-01 1.834304999999999808e+01 1.379989999999999952e+02 1.692920000000000073e+03
1.120000000000000023e-01 6.969754999999999701e-01 1.765484999999999971e+01 1.372710000000000150e+02 1.692735000000000127e+03
1.130000000000000032e-01 6.967995000000000161e-01 1.695724999999999838e+01 1.365014999999999930e+02 1.692535000000000082e+03
1.140000000000000041e-01 6.966194999999999471e-01 1.625645000000000095e+01 1.357034999999999911e+02 1.692335000000000036e+03
1.150000000000000050e-01 6.964375000000000426e-01 1.555959999999999965e+01 1.348925000000000125e+02 1.692130000000000109e+03
1.160000000000000059e-01 6.962580000000000435e-01 1.487444999999999951e+01 1.340829999999999984e+02 1.691920000000000073e+03
1.170000000000000068e-01 6.960839999999999250e-01 1.420879000000000048e+01 1.332934999999999945e+02 1.691710000000000036e+03
1.180000000000000077e-01 6.959195000000000242e-01 1.357023999999999830e+01 1.325374999999999943e+02 1.691514999999999873e+03
1.190000000000000085e-01 6.957675000000000942e-01 1.296603499999999798e+01 1.318315000000000055e+02 1.691319999999999936e+03
1.200000000000000094e-01 6.956309999999999993e-01 1.240251500000000107e+01 1.311870000000000118e+02 1.691150000000000091e+03
1.209999999999999964e-01 6.955115000000000602e-01 1.188499000000000017e+01 1.306154999999999973e+02 1.690990000000000009e+03
1.219999999999999973e-01 6.954105000000000425e-01 1.141744500000000073e+01 1.301254999999999882e+02 1.690845000000000027e+03
1.229999999999999982e-01 6.953300000000000036e-01 1.100248999999999988e+01 1.297220000000000084e+02 1.690724999999999909e+03
1.239999999999999991e-01 6.952684999999999560e-01 1.064120000000000132e+01 1.294074999999999989e+02 1.690630000000000109e+03
1.250000000000000000e-01 6.952264999999999695e-01 1.033333000000000013e+01 1.291810000000000116e+02 1.690554999999999836e+03
1.260000000000000009e-01 6.952030000000000154e-01 1.007704000000000022e+01 1.290380000000000109e+02 1.690500000000000000e+03
1.270000000000000018e-01 6.951959999999999251e-01 9.869379999999999598e+00 1.289735000000000014e+02 1.690470000000000027e+03
1.280000000000000027e-01 6.952030000000000154e-01 9.706379999999999342e+00 1.289795000000000016e+02 1.690449999999999818e+03
1.290000000000000036e-01 6.952220000000000066e-01 9.583334999999999937e+00 1.290459999999999923e+02 1.690454999999999927e+03
1.300000000000000044e-01 6.952515000000000223e-01 9.494885000000000019e+00 1.291619999999999777e+02 1.690469999999999800e+03
1.310000000000000053e-01 6.952880000000000171e-01 9.435500000000001108e+00 1.293170000000000073e+02 1.690494999999999891e+03
1.320000000000000062e-01 6.953300000000000036e-01 9.399699999999999278e+00 1.295004999999999882e+02 1.690534999999999854e+03
1.330000000000000071e-01 6.953739999999999366e-01 9.382014999999999105e+00 1.297010000000000218e+02 1.690569999999999936e+03
1.340000000000000080e-01 6.954194999999999682e-01 9.377439999999999998e+00 1.299110000000000014e+02 1.690619999999999891e+03
1.350000000000000089e-01 6.954635000000000122e-01 9.381405000000000882e+00 1.301209999999999809e+02 1.690664999999999964e+03
1.360000000000000098e-01 6.955059999999999576e-01 9.389979999999999549e+00 1.303245000000000005e+02 1.690720000000000027e+03
1.370000000000000107e-01 6.955459999999999976e-01 9.399694999999999467e+00 1.305174999999999841e+02 1.690764999999999873e+03
1.380000000000000115e-01 6.955819999999999226e-01 9.407824999999998994e+00 1.306945000000000050e+02 1.690809999999999945e+03
1.390000000000000124e-01 6.956139999999999546e-01 9.412205000000000155e+00 1.308545000000000016e+02 1.690849999999999909e+03
1.400000000000000133e-01 6.956424999999999415e-01 9.411279999999999646e+00 1.309959999999999809e+02 1.690884999999999991e+03
1.410000000000000142e-01 6.956670000000000353e-01 9.404009999999999536e+00 1.311184999999999832e+02 1.690920000000000073e+03
1.420000000000000151e-01 6.956875000000000142e-01 9.389884999999999593e+00 1.312239999999999895e+02 1.690950000000000045e+03
1.430000000000000160e-01 6.957054999999999767e-01 9.368850000000000122e+00 1.313135000000000048e+02 1.690974999999999909e+03
1.440000000000000169e-01 6.957204999999999639e-01 9.341260000000000119e+00 1.313885000000000218e+02 1.691000000000000000e+03
1.450000000000000178e-01 6.957329999999999348e-01 9.307794999999998709e+00 1.314524999999999864e+02 1.691019999999999982e+03
1.459999999999999909e-01 6.957444999999999879e-01 9.269360000000000710e+00 1.315079999999999814e+02 1.691030000000000200e+03
1.469999999999999918e-01 6.957554999999999712e-01 9.227014999999999745e+00 1.315579999999999927e+02 1.691050000000000182e+03
1.479999999999999927e-01 6.957659999999999956e-01 9.181969999999999743e+00 1.316050000000000182e+02 1.691065000000000055e+03
1.489999999999999936e-01 6.957769999999999788e-01 9.135470000000001534e+00 1.316524999999999750e+02 1.691075000000000045e+03
1.499999999999999944e-01 6.957884999999999209e-01 9.088609999999999189e+00 1.317015000000000100e+02 1.691090000000000146e+03
1.509999999999999953e-01 6.958020000000000316e-01 9.042455000000000354e+00 1.317540000000000191e+02 1.691110000000000127e+03
1.519999999999999962e-01 6.958159999999999901e-01 8.997875000000000512e+00 1.318120000000000118e+02 1.691125000000000000e+03
1.529999999999999971e-01 6.958325000000000760e-01 8.955539999999999168e+00 1.318760000000000048e+02 1.691139999999999873e+03
1.539999999999999980e-01 6.958495000000000097e-01 8.915829999999999700e+00 1.319459999999999980e+02 1.691159999999999854e+03
1.549999999999999989e-01 6.958679999999999310e-01 8.878949999999999676e+00 1.320210000000000150e+02 1.691179999999999836e+03
1.559999999999999998e-01 6.958880000000000621e-01 8.844950000000000756e+00 1.321014999999999873e+02 1.691199999999999818e+03
1.570000000000000007e-01 6.959085000000000409e-01 8.813600000000000989e+00 1.321854999999999905e+02 1.691224999999999909e+03
1.580000000000000016e-01 6.959290000000000198e-01 8.784639999999999560e+00 1.322719999999999914e+02 1.691244999999999891e+03
1.590000000000000024e-01 6.959500000000000686e-01 8.757699999999999818e+00 1.323584999999999923e+02 1.691269999999999982e+03
