# t [s], A [cm^2], U [cm/s], P [cPa], c [cm/s]
1.000000000000000021e-03 1.829685000000000061e-01 2.117439999999999878e-01 9.719595000000001050e+01 2.118805000000000291e+03
2.000000000000000042e-03 1.829279999999999795e-01 1.593274999999999997e+00 9.419695000000000107e+01 2.118454999999999927e+03
3.000000000000000062e-03 1.828084999999999849e-01 3.353172500000000333e+00 8.993325000000000102e+01 2.117465000000000146e+03
4.000000000000000083e-03 1.826399999999999968e-01 5.354989500000000291e+00 8.509354999999999336e+01 2.116095000000000255e+03
5.000000000000000104e-03 1.824544999999999917e-01 7.534900000000000375e+00 8.055925000000000580e+01 2.114605000000000018e+03
6.000000000000000125e-03 1.822739999999999916e-01 9.743805000000000049e+00 7.673875000000001023e+01 2.113164999999999964e+03
7.000000000000000146e-03 1.821030000000000149e-01 1.176669500000000035e+01 7.348545000000000016e+01 2.111829999999999927e+03
8.000000000000000167e-03 1.819445000000000090e-01 1.348645000000000138e+01 7.054804999999998927e+01 2.110619999999999891e+03
9.000000000000001055e-03 1.818035000000000068e-01 1.492225000000000001e+01 6.794159999999999400e+01 2.109550000000000182e+03
1.000000000000000194e-02 1.816834999999999978e-01 1.611364999999999981e+01 6.576494999999999891e+01 2.108654999999999745e+03
1.099999999999999936e-02 1.815839999999999954e-01 1.708035000000000281e+01 6.402795000000000414e+01 2.107920000000000073e+03
1.200000000000000025e-02 1.815039999999999987e-01 1.783755000000000024e+01 6.268379999999999797e+01 2.107335000000000036e+03
1.300000000000000114e-02 1.814410000000000189e-01 1.838909999999999911e+01 6.163814999999999600e+01 2.106885000000000218e+03
1.400000000000000203e-02 1.813899999999999957e-01 1.873584999999999923e+01 6.075704999999999956e+01 2.106525000000000091e+03
1.499999999999999944e-02 1.813474999999999948e-01 1.892099999999999937e+01 5.998234999999999673e+01 2.106230000000000018e+03
1.600000000000000033e-02 1.813164999999999916e-01 1.905805000000000149e+01 5.946090000000000231e+01 2.106019999999999982e+03
1.700000000000000122e-02 1.813039999999999929e-01 1.929660000000000153e+01 5.951704999999999757e+01 2.105940000000000055e+03
1.800000000000000211e-02 1.813190000000000079e-01 1.974739999999999895e+01 6.046059999999999945e+01 2.106059999999999945e+03
1.900000000000000300e-02 1.813664999999999861e-01 2.042219999999999658e+01 6.237054999999999438e+01 2.106409999999999854e+03
2.000000000000000042e-02 1.814405000000000046e-01 2.122549999999999670e+01 6.500159999999999627e+01 2.106970000000000255e+03
2.100000000000000130e-02 1.815299999999999969e-01 2.199690000000000012e+01 6.785544999999999050e+01 2.107640000000000327e+03
2.200000000000000219e-02 1.816185000000000160e-01 2.257529999999999859e+01 7.036254999999999882e+01 2.108319999999999709e+03
2.299999999999999961e-02 1.816909999999999914e-01 2.285559999999999903e+01 7.207829999999999870e+01 2.108894999999999982e+03
2.400000000000000050e-02 1.817394999999999983e-01 2.281665000000000276e+01 7.281399999999999295e+01 2.109284999999999854e+03
2.500000000000000139e-02 1.817610000000000059e-01 2.251529999999999987e+01 7.266040000000000987e+01 2.109470000000000255e+03
2.600000000000000228e-02 1.817599999999999771e-01 2.205369999999999919e+01 7.191165000000000873e+01 2.109484999999999673e+03
2.700000000000000316e-02 1.817455000000000043e-01 2.153610000000000113e+01 7.093049999999999500e+01 2.109385000000000218e+03
2.800000000000000058e-02 1.817249999999999976e-01 2.103260000000000218e+01 7.001285000000000025e+01 2.109239999999999782e+03
2.900000000000000147e-02 1.817055000000000198e-01 2.056204999999999927e+01 6.929975000000000307e+01 2.109090000000000146e+03
3.000000000000000236e-02 1.816879999999999884e-01 2.009580000000000055e+01 6.875995000000000346e+01 2.108960000000000036e+03
3.099999999999999978e-02 1.816699999999999982e-01 1.957869999999999777e+01 6.823609999999999332e+01 2.108819999999999709e+03
3.200000000000000067e-02 1.816474999999999895e-01 1.895745000000000147e+01 6.753069999999999595e+01 2.108654999999999745e+03
3.300000000000000155e-02 1.816159999999999997e-01 1.820684999999999931e+01 6.649944999999999595e+01 2.108425000000000182e+03
3.400000000000000244e-02 1.815734999999999988e-01 1.734635000000000105e+01 6.512109999999999843e+01 2.108114999999999782e+03
3.500000000000000333e-02 1.815225000000000033e-01 1.644069999999999965e+01 6.352355000000000018e+01 2.107734999999999673e+03
3.600000000000000422e-02 1.814695000000000058e-01 1.558644999999999925e+01 6.195785000000000053e+01 2.107340000000000146e+03
3.700000000000000511e-02 1.814219999999999999e-01 1.488670000000000115e+01 6.072999999999999687e+01 2.106974999999999909e+03
3.799999999999999906e-02 1.813889999999999947e-01 1.442404999999999937e+01 6.011449999999999960e+01 2.106715000000000146e+03
3.899999999999999994e-02 1.813775000000000248e-01 1.423995000000000033e+01 6.027715000000000600e+01 2.106605000000000018e+03
4.000000000000000083e-02 1.813899999999999957e-01 1.432499999999999929e+01 6.123075000000000045e+01 2.106690000000000055e+03
4.100000000000000172e-02 1.814259999999999762e-01 1.462300000000000111e+01 6.283220000000000027e+01 2.106940000000000055e+03
4.200000000000000261e-02 1.814795000000000158e-01 1.504394999999999882e+01 6.481704999999999472e+01 2.107329999999999927e+03
4.300000000000000350e-02 1.815414999999999945e-01 1.548339999999999961e+01 6.685814999999999486e+01 2.107789999999999964e+03
4.400000000000000439e-02 1.816030000000000144e-01 1.584099999999999930e+01 6.863020000000000209e+01 2.108250000000000000e+03
4.499999999999999833e-02 1.816544999999999965e-01 1.603584999999999994e+01 6.986539999999999395e+01 2.108640000000000327e+03
4.599999999999999922e-02 1.816880000000000162e-01 1.601504999999999868e+01 7.038919999999998822e+01 2.108900000000000091e+03
4.700000000000000011e-02 1.816979999999999984e-01 1.575574999999999903e+01 7.013280000000000314e+01 2.108994999999999891e+03
4.800000000000000100e-02 1.816849999999999854e-01 1.526185000000000080e+01 6.912369999999999948e+01 2.108904999999999745e+03
4.900000000000000189e-02 1.816474999999999895e-01 1.455635000000000012e+01 6.746110000000000184e+01 2.108640000000000327e+03
5.000000000000000278e-02 1.815900000000000014e-01 1.367334999999999923e+01 6.528414999999999679e+01 2.108215000000000146e+03
5.100000000000000366e-02 1.815154999999999963e-01 1.265071499999999993e+01 6.274235000000000184e+01 2.107659999999999854e+03
5.200000000000000455e-02 1.814280000000000059e-01 1.152516500000000121e+01 5.997375000000000256e+01 2.107010000000000218e+03
5.300000000000000544e-02 1.813319999999999932e-01 1.033015499999999953e+01 5.709320000000000306e+01 2.106284999999999854e+03
5.399999999999999939e-02 1.812304999999999888e-01 9.096465000000000245e+00 5.419214999999999804e+01 2.105525000000000091e+03
5.500000000000000028e-02 1.811280000000000112e-01 7.853839999999999932e+00 5.134430000000000405e+01 2.104744999999999891e+03
5.600000000000000117e-02 1.810260000000000202e-01 6.633269999999999555e+00 4.861565000000000225e+01 2.103974999999999909e+03
5.700000000000000205e-02 1.809275000000000189e-01 5.468764999999999432e+00 4.607365000000000066e+01 2.103230000000000018e+03
5.800000000000000294e-02 1.808359999999999967e-01 4.397845000000000226e+00 4.379375000000000284e+01 2.102529999999999745e+03
5.900000000000000383e-02 1.807535000000000114e-01 3.460765000000000313e+00 4.186025000000000063e+01 2.101900000000000091e+03
6.000000000000000472e-02 1.806840000000000113e-01 2.698507500000000281e+00 4.036379999999999768e+01 2.101364999999999782e+03
6.099999999999999867e-02 1.806304999999999994e-01 2.149927499999999991e+00 3.939385000000000048e+01 2.100949999999999818e+03
6.199999999999999956e-02 1.805959999999999788e-01 1.848584999999999923e+00 3.903034999999999854e+01 2.100670000000000073e+03
6.300000000000000044e-02 1.805835000000000079e-01 1.819879999999999942e+00 3.933469999999999800e+01 2.100559999999999945e+03
6.400000000000000133e-02 1.805944999999999911e-01 2.078924999999999912e+00 4.034260000000000446e+01 2.100619999999999891e+03
6.500000000000000222e-02 1.806304999999999994e-01 2.629294999999999938e+00 4.206000000000000227e+01 2.100875000000000000e+03
6.600000000000000311e-02 1.806915000000000049e-01 3.462930000000000064e+00 4.446179999999999666e+01 2.101315000000000055e+03
6.700000000000000400e-02 1.807765000000000066e-01 4.560880000000000045e+00 4.749399999999999977e+01 2.101934999999999945e+03
6.800000000000000488e-02 1.808839999999999892e-01 5.894890000000000185e+00 5.107854999999999990e+01 2.102730000000000018e+03
6.900000000000000577e-02 1.810110000000000052e-01 7.429420000000000357e+00 5.511910000000000309e+01 2.103670000000000073e+03
7.000000000000000666e-02 1.811539999999999817e-01 9.124114999999999753e+00 5.950860000000000127e+01 2.104744999999999891e+03
7.100000000000000755e-02 1.813104999999999856e-01 1.093620499999999929e+01 6.413665000000000305e+01 2.105914999999999964e+03
7.200000000000000844e-02 1.814759999999999984e-01 1.282304000000000066e+01 6.889650000000000318e+01 2.107159999999999854e+03
7.300000000000000933e-02 1.816464999999999885e-01 1.474455000000000027e+01 7.369159999999999400e+01 2.108454999999999927e+03
7.399999999999999634e-02 1.818200000000000094e-01 1.666510000000000247e+01 7.844084999999999752e+01 2.109774999999999636e+03
7.499999999999999722e-02 1.819925000000000015e-01 1.855499999999999972e+01 8.308225000000000193e+01 2.111090000000000146e+03
7.599999999999999811e-02 1.821630000000000194e-01 2.039155000000000229e+01 8.757480000000001041e+01 2.112394999999999982e+03
7.699999999999999900e-02 1.823295000000000055e-01 2.215939999999999799e+01 9.189875000000000682e+01 2.113670000000000073e+03
7.799999999999999989e-02 1.824910000000000143e-01 2.385020000000000095e+01 9.605334999999999468e+01 2.114914999999999964e+03
7.900000000000000078e-02 1.826480000000000048e-01 2.546154999999999902e+01 1.000540500000000037e+02 2.116125000000000000e+03
8.000000000000000167e-02 1.828004999999999769e-01 2.699579999999999913e+01 1.039261500000000069e+02 2.117305000000000291e+03
8.100000000000000255e-02 1.829500000000000015e-01 2.845860000000000056e+01 1.077015000000000100e+02 2.118454999999999927e+03
8.200000000000000344e-02 1.830950000000000077e-01 2.985719999999999885e+01 1.114124999999999943e+02 2.119585000000000036e+03
8.300000000000000433e-02 1.832389999999999852e-01 3.119899999999999807e+01 1.150879999999999939e+02 2.120699999999999818e+03
8.400000000000000522e-02 1.833825000000000038e-01 3.249060000000000059e+01 1.187489999999999952e+02 2.121810000000000400e+03
8.500000000000000611e-02 1.835244999999999793e-01 3.373669999999999902e+01 1.224085000000000036e+02 2.122909999999999854e+03
8.600000000000000699e-02 1.836665000000000103e-01 3.493999999999999773e+01 1.260689999999999884e+02 2.124010000000000218e+03
8.700000000000000788e-02 1.838075000000000125e-01 3.610065000000000168e+01 1.297245000000000061e+02 2.125109999999999673e+03
8.800000000000000877e-02 1.839485000000000148e-01 3.721634999999999849e+01 1.333609999999999900e+02 2.126204999999999927e+03
8.899999999999999578e-02 1.840884999999999883e-01 3.828284999999999627e+01 1.369555000000000007e+02 2.127295000000000073e+03
8.999999999999999667e-02 1.842270000000000019e-01 3.929410000000000025e+01 1.404825000000000159e+02 2.128369999999999891e+03
9.099999999999999756e-02 1.843619999999999981e-01 4.024235000000000184e+01 1.439130000000000109e+02 2.129425000000000182e+03
9.199999999999999845e-02 1.844934999999999770e-01 4.111910000000000309e+01 1.472139999999999986e+02 2.130449999999999818e+03
9.299999999999999933e-02 1.846200000000000063e-01 4.191490000000000293e+01 1.503545000000000016e+02 2.131440000000000055e+03
9.400000000000000022e-02 1.847405000000000019e-01 4.262035000000000196e+01 1.533034999999999854e+02 2.132380000000000109e+03
9.500000000000000111e-02 1.848540000000000183e-01 4.322610000000000241e+01 1.560319999999999823e+02 2.133269999999999982e+03
9.600000000000000200e-02 1.849589999999999845e-01 4.372355000000000302e+01 1.585120000000000005e+02 2.134095000000000255e+03
9.700000000000000289e-02 1.850549999999999973e-01 4.410524999999999807e+01 1.607224999999999966e+02 2.134850000000000364e+03
9.800000000000000377e-02 1.851410000000000000e-01 4.436544999999999561e+01 1.626460000000000150e+02 2.135529999999999745e+03
9.900000000000000466e-02 1.852169999999999928e-01 4.450050000000000239e+01 1.642699999999999818e+02 2.136130000000000109e+03
1.000000000000000056e-01 1.852814999999999879e-01 4.450945000000000107e+01 1.655904999999999916e+02 2.136649999999999636e+03
1.010000000000000064e-01 1.853354999999999864e-01 4.439379999999999882e+01 1.666105000000000018e+02 2.137079999999999927e+03
1.020000000000000073e-01 1.853779999999999872e-01 4.415840000000000032e+01 1.673410000000000082e+02 2.137425000000000182e+03
1.030000000000000082e-01 1.854099999999999915e-01 4.381064999999999543e+01 1.677984999999999900e+02 2.137684999999999945e+03
1.040000000000000091e-01 1.854325000000000001e-01 4.336059999999999803e+01 1.680074999999999932e+02 2.137864999999999782e+03
1.050000000000000100e-01 1.854454999999999854e-01 4.282044999999999391e+01 1.679979999999999905e+02 2.137985000000000127e+03
1.059999999999999970e-01 1.854504999999999904e-01 4.220409999999999684e+01 1.678044999999999902e+02 2.138029999999999745e+03
1.069999999999999979e-01 1.854485000000000161e-01 4.152644999999999698e+01 1.674599999999999795e+02 2.138025000000000091e+03
1.079999999999999988e-01 1.854405000000000081e-01 4.080275000000000318e+01 1.670020000000000095e+02 2.137970000000000255e+03
1.089999999999999997e-01 1.854284999999999961e-01 4.004779999999999518e+01 1.664650000000000034e+02 2.137885000000000218e+03
1.100000000000000006e-01 1.854129999999999945e-01 3.927580000000000382e+01 1.658799999999999955e+02 2.137765000000000327e+03
1.110000000000000014e-01 1.853954999999999909e-01 3.849944999999999595e+01 1.652740000000000009e+02 2.137630000000000109e+03
1.120000000000000023e-01 1.853764999999999996e-01 3.772960000000000491e+01 1.646705000000000041e+02 2.137485000000000127e+03
1.130000000000000032e-01 1.853569999999999940e-01 3.697514999999999930e+01 1.640860000000000127e+02 2.137329999999999927e+03
1.140000000000000041e-01 1.853374999999999884e-01 3.624260000000000304e+01 1.635319999999999823e+02 2.137180000000000291e+03
1.150000000000000050e-01 1.853184999999999971e-01 3.553600000000000136e+01 1.630140000000000100e+02 2.137034999999999854e+03
1.160000000000000059e-01 1.853005000000000069e-01 3.485710000000000264e+01 1.625310000000000059e+02 2.136890000000000327e+03
1.170000000000000068e-01 1.852829999999999755e-01 3.420539999999999736e+01 1.620784999999999911e+02 2.136750000000000000e+03
1.180000000000000077e-01 1.852665000000000006e-01 3.357805000000000462e+01 1.616449999999999818e+02 2.136619999999999891e+03
1.190000000000000085e-01 1.852504999999999846e-01 3.297064999999999912e+01 1.612175000000000011e+02 2.136489999999999782e+03
1.200000000000000094e-01 1.852340000000000098e-01 3.237715000000000032e+01 1.607785000000000082e+02 2.136359999999999673e+03
1.209999999999999964e-01 1.852165000000000061e-01 3.179050000000000153e+01 1.603095000000000141e+02 2.136220000000000255e+03
1.219999999999999973e-01 1.851980000000000015e-01 3.120315000000000083e+01 1.597909999999999968e+02 2.136074999999999818e+03
1.229999999999999982e-01 1.851774999999999949e-01 3.060734999999999673e+01 1.592034999999999911e+02 2.135914999999999964e+03
1.239999999999999991e-01 1.851544999999999996e-01 2.999575000000000102e+01 1.585300000000000011e+02 2.135735000000000127e+03
1.250000000000000000e-01 1.851280000000000148e-01 2.936180000000000234e+01 1.577564999999999884e+02 2.135534999999999854e+03
1.260000000000000009e-01 1.850979999999999848e-01 2.870035000000000025e+01 1.568714999999999975e+02 2.135300000000000182e+03
1.270000000000000018e-01 1.850644999999999929e-01 2.800769999999999982e+01 1.558689999999999998e+02 2.135039999999999964e+03
1.280000000000000027e-01 1.850264999999999826e-01 2.728209999999999980e+01 1.547470000000000141e+02 2.134739999999999782e+03
1.290000000000000036e-01 1.849840000000000095e-01 2.652369999999999806e+01 1.535095000000000027e+02 2.134414999999999964e+03
1.300000000000000044e-01 1.849379999999999913e-01 2.573499999999999943e+01 1.521659999999999968e+02 2.134059999999999945e+03
1.310000000000000053e-01 1.848879999999999968e-01 2.492030000000000101e+01 1.507300000000000182e+02 2.133675000000000182e+03
1.320000000000000062e-01 1.848345000000000127e-01 2.408590000000000231e+01 1.492214999999999918e+02 2.133260000000000218e+03
1.330000000000000071e-01 1.847785000000000122e-01 2.323984999999999701e+01 1.476619999999999777e+02 2.132829999999999927e+03
1.340000000000000080e-01 1.847209999999999963e-01 2.239130000000000109e+01 1.460774999999999864e+02 2.132385000000000218e+03
1.350000000000000089e-01 1.846630000000000216e-01 2.155030000000000001e+01 1.444944999999999879e+02 2.131929999999999836e+03
1.360000000000000098e-01 1.846045000000000047e-01 2.072729999999999961e+01 1.429410000000000025e+02 2.131474999999999909e+03
1.370000000000000107e-01 1.845470000000000166e-01 1.993265000000000242e+01 1.414429999999999836e+02 2.131030000000000200e+03
1.380000000000000115e-01 1.844915000000000027e-01 1.917600000000000193e+01 1.400244999999999891e+02 2.130599999999999909e+03
1.390000000000000124e-01 1.844390000000000196e-01 1.846610000000000085e+01 1.387069999999999936e+02 2.130190000000000055e+03
1.400000000000000133e-01 1.843899999999999983e-01 1.781020000000000181e+01 1.375080000000000098e+02 2.129804999999999836e+03
1.410000000000000142e-01 1.843444999999999945e-01 1.721390000000000242e+01 1.364390000000000214e+02 2.129449999999999818e+03
1.420000000000000151e-01 1.843039999999999956e-01 1.668104999999999905e+01 1.355084999999999980e+02 2.129130000000000109e+03
1.430000000000000160e-01 1.842679999999999874e-01 1.621369999999999933e+01 1.347195000000000107e+02 2.128845000000000255e+03
1.440000000000000169e-01 1.842374999999999985e-01 1.581190000000000140e+01 1.340699999999999932e+02 2.128604999999999563e+03
1.450000000000000178e-01 1.842115000000000002e-01 1.547409999999999997e+01 1.335544999999999902e+02 2.128389999999999873e+03
1.459999999999999909e-01 1.841904999999999792e-01 1.519735000000000014e+01 1.331634999999999991e+02 2.128225000000000364e+03
1.469999999999999918e-01 1.841734999999999900e-01 1.497729999999999961e+01 1.328865000000000123e+02 2.128085000000000036e+03
1.479999999999999927e-01 1.841610000000000191e-01 1.480865000000000009e+01 1.327094999999999914e+02 2.127985000000000127e+03
1.489999999999999936e-01 1.841519999999999824e-01 1.468549999999999933e+01 1.326170000000000186e+02 2.127909999999999854e+03
1.499999999999999944e-01 1.841460000000000041e-01 1.460135000000000005e+01 1.325949999999999989e+02 2.127855000000000018e+03
1.509999999999999953e-01 1.841424999999999867e-01 1.454970000000000141e+01 1.326285000000000025e+02 2.127829999999999927e+03
1.519999999999999962e-01 1.841420000000000001e-01 1.452390000000000114e+01 1.327035000000000196e+02 2.127819999999999709e+03
1.529999999999999971e-01 1.841424999999999867e-01 1.451764999999999972e+01 1.328059999999999832e+02 2.127820000000000164e+03
1.539999999999999980e-01 1.841440000000000021e-01 1.452519999999999989e+01 1.329254999999999995e+02 2.127829999999999927e+03
1.549999999999999989e-01 1.841470000000000051e-01 1.454100000000000037e+01 1.330504999999999995e+02 2.127855000000000018e+03
1.559999999999999998e-01 1.841504999999999947e-01 1.456054999999999922e+01 1.331739999999999782e+02 2.127875000000000000e+03
1.570000000000000007e-01 1.841534999999999977e-01 1.457975000000000065e+01 1.332875000000000227e+02 2.127900000000000091e+03
1.580000000000000016e-01 1.841565000000000007e-01 1.459550000000000125e+01 1.333874999999999886e+02 2.127920000000000073e+03
1.590000000000000024e-01 1.841595000000000037e-01 1.460534999999999961e+01 1.334699999999999989e+02 2.127940000000000055e+03
