# t [s], A [cm^2], U [cm/s], P [cPa], c [cm/s]
1.000000000000000021e-03 6.022205000000000474e-01 3.465500000000003300e-03 9.384619999999999607e+01 1.519944999999999936e+03
2.000000000000000042e-03 6.022119999999999695e-01 7.534199999999998711e-04 9.382245000000000346e+01 1.519934999999999945e+03
3.000000000000000062e-03 6.022715000000000707e-01 1.068047499999999900e-01 9.392520000000000380e+01 1.519965000000000146e+03
4.000000000000000083e-03 6.023184999999999789e-01 1.997770999999999852e-01 9.403260000000000218e+01 1.519990000000000009e+03
5.000000000000000104e-03 6.022879999999999345e-01 1.650385500000000061e-01 9.396455000000000268e+01 1.519974999999999909e+03
6.000000000000000125e-03 6.022184999999999899e-01 5.579450000000002463e-02 9.373644999999999072e+01 1.519924999999999955e+03
7.000000000000000146e-03 6.021509999999999918e-01 -5.821050000000005387e-02 9.343149999999999977e+01 1.519860000000000127e+03
8.000000000000000167e-03 6.020449999999999413e-01 -2.521100000000000563e-01 9.297745000000000459e+01 1.519759999999999991e+03
9.000000000000001055e-03 6.018710000000000448e-01 -5.799799999999999400e-01 9.228470000000000084e+01 1.519605000000000018e+03
1.000000000000000194e-02 6.016295000000000393e-01 -1.034899999999999931e+00 9.132024999999998727e+01 1.519384999999999991e+03
1.099999999999999936e-02 6.013070000000000359e-01 -1.626579999999999693e+00 9.003704999999999359e+01 1.519095000000000027e+03
1.200000000000000025e-02 6.008884999999999366e-01 -2.363119999999999887e+00 8.838599999999999568e+01 1.518710000000000036e+03
1.300000000000000114e-02 6.003944999999999421e-01 -3.183749999999999858e+00 8.640104999999999791e+01 1.518235000000000127e+03
1.400000000000000203e-02 5.998870000000000591e-01 -3.948185000000000056e+00 8.423750000000001137e+01 1.517699999999999818e+03
1.499999999999999944e-02 5.994360000000000799e-01 -4.497003499999999931e+00 8.211834999999999241e+01 1.517159999999999854e+03
1.600000000000000033e-02 5.990849999999999786e-01 -4.722833999999999754e+00 8.023900000000000432e+01 1.516644999999999982e+03
1.700000000000000122e-02 5.988360000000000349e-01 -4.604402999999999579e+00 7.869884999999999309e+01 1.516194999999999936e+03
1.800000000000000211e-02 5.986580000000000235e-01 -4.199265000000000470e+00 7.748279999999999745e+01 1.515815000000000055e+03
1.900000000000000300e-02 5.985015000000000196e-01 -3.612084999999999990e+00 7.648539999999999850e+01 1.515474999999999909e+03
2.000000000000000042e-02 5.983190000000000452e-01 -2.954747000000000234e+00 7.555779999999998608e+01 1.515154999999999973e+03
2.100000000000000130e-02 5.980799999999999450e-01 -2.310947499999999710e+00 7.456280000000000996e+01 1.514824999999999818e+03
2.200000000000000219e-02 5.977774999999999617e-01 -1.715714999999999879e+00 7.341714999999999236e+01 1.514470000000000027e+03
2.299999999999999961e-02 5.974270000000000413e-01 -1.156730000000000258e+00 7.210845000000000482e+01 1.514085000000000036e+03
2.400000000000000050e-02 5.970539999999999736e-01 -5.949500000000000899e-01 7.068110000000000070e+01 1.513670000000000073e+03
2.500000000000000139e-02 5.966834999999999223e-01 6.804999999999949978e-03 6.920250000000000057e+01 1.513240000000000009e+03
2.600000000000000228e-02 5.963249999999999940e-01 6.602100000000001856e-01 6.772620000000000573e+01 1.512804999999999836e+03
2.700000000000000316e-02 5.959745000000000736e-01 1.340174999999999894e+00 6.626545000000000130e+01 1.512369999999999891e+03
2.800000000000000058e-02 5.956105000000000427e-01 1.987009999999999943e+00 6.478369999999999607e+01 1.511924999999999955e+03
2.900000000000000147e-02 5.952034999999999965e-01 2.518909999999999982e+00 6.320140000000000668e+01 1.511460000000000036e+03
3.000000000000000236e-02 5.947225000000000428e-01 2.850439999999999863e+00 6.141590000000000060e+01 1.510960000000000036e+03
3.099999999999999978e-02 5.941449999999999232e-01 2.912420000000000009e+00 5.932885000000000275e+01 1.510384999999999991e+03
3.200000000000000067e-02 5.934605000000000574e-01 2.668634999999999646e+00 5.687425000000000352e+01 1.509735000000000127e+03
3.300000000000000155e-02 5.926780000000000381e-01 2.125324999999999687e+00 5.404010000000000247e+01 1.508994999999999891e+03
3.400000000000000244e-02 5.918225000000000291e-01 1.330804999999999794e+00 5.087825000000000131e+01 1.508174999999999955e+03
3.500000000000000333e-02 5.909335000000000004e-01 3.658999999999998920e-01 4.749909999999999854e+01 1.507299999999999955e+03
3.600000000000000422e-02 5.900545000000000373e-01 -6.711000000000000298e-01 4.405514999999999759e+01 1.506400000000000091e+03
3.700000000000000511e-02 5.892304999999999904e-01 -1.680719999999999992e+00 4.071829999999999927e+01 1.505505000000000109e+03
3.799999999999999906e-02 5.884979999999999656e-01 -2.575069999999999748e+00 3.765655000000000285e+01 1.504670000000000073e+03
3.899999999999999994e-02 5.878870000000000484e-01 -3.286005000000000287e+00 3.501520000000000010e+01 1.503925000000000182e+03
4.000000000000000083e-02 5.874160000000000492e-01 -3.768304999999999794e+00 3.290469999999999828e+01 1.503295000000000073e+03
4.100000000000000172e-02 5.870929999999999760e-01 -3.997846000000000011e+00 3.139555000000000007e+01 1.502809999999999945e+03
4.200000000000000261e-02 5.869195000000000384e-01 -3.967535000000000256e+00 3.051950000000000074e+01 1.502480000000000018e+03
4.300000000000000350e-02 5.868915000000000104e-01 -3.681675000000000253e+00 3.027590000000000003e+01 1.502315000000000055e+03
4.400000000000000439e-02 5.869999999999999662e-01 -3.150615000000000165e+00 3.064025000000000176e+01 1.502309999999999945e+03
4.499999999999999833e-02 5.872364999999999391e-01 -2.386842000000000130e+00 3.157294999999999874e+01 1.502454999999999927e+03
4.599999999999999922e-02 5.875905000000000156e-01 -1.403049999999999908e+00 3.302660000000000196e+01 1.502750000000000000e+03
4.700000000000000011e-02 5.880509999999999904e-01 -2.123300000000001297e-01 3.495029999999999859e+01 1.503170000000000073e+03
4.800000000000000100e-02 5.886090000000000488e-01 1.170254999999999601e+00 3.729169999999999874e+01 1.503715000000000146e+03
4.900000000000000189e-02 5.892500000000000515e-01 2.725559999999999761e+00 3.999600000000000222e+01 1.504365000000000009e+03
5.000000000000000278e-02 5.899619999999999864e-01 4.428645000000000387e+00 4.300489999999999924e+01 1.505105000000000018e+03
5.100000000000000366e-02 5.907289999999999486e-01 6.248124999999999929e+00 4.625534999999999997e+01 1.505920000000000073e+03
5.200000000000000455e-02 5.915334999999999344e-01 8.146874999999999645e+00 4.967974999999999852e+01 1.506795000000000073e+03
5.300000000000000544e-02 5.923579999999999401e-01 1.008377649999999903e+01 5.320704999999999529e+01 1.507710000000000036e+03
5.399999999999999939e-02 5.931850000000000733e-01 1.201626000000000083e+01 5.676545000000000130e+01 1.508650000000000091e+03
5.500000000000000028e-02 5.939980000000000260e-01 1.390330499999999958e+01 6.028634999999999877e+01 1.509595000000000027e+03
5.600000000000000117e-02 5.947830000000000616e-01 1.570806500000000128e+01 6.370765000000000100e+01 1.510525000000000091e+03
5.700000000000000205e-02 5.955289999999999750e-01 1.740005000000000024e+01 6.697739999999998872e+01 1.511430000000000064e+03
5.800000000000000294e-02 5.962285000000000501e-01 1.895640000000000214e+01 7.005639999999999645e+01 1.512300000000000182e+03
5.900000000000000383e-02 5.968769999999999909e-01 2.036240000000000094e+01 7.291964999999999009e+01 1.513115000000000009e+03
6.000000000000000472e-02 5.974749999999999783e-01 2.161124999999999829e+01 7.555615000000000236e+01 1.513884999999999991e+03
6.099999999999999867e-02 5.980240000000000000e-01 2.270329999999999870e+01 7.796869999999999834e+01 1.514599999999999909e+03
6.199999999999999956e-02 5.985289999999999777e-01 2.364504999999999768e+01 8.017144999999999300e+01 1.515259999999999991e+03
6.300000000000000044e-02 5.989959999999999729e-01 2.444774999999999920e+01 8.218795000000000073e+01 1.515880000000000109e+03
6.400000000000000133e-02 5.994319999999999649e-01 2.512620000000000076e+01 8.404885000000000161e+01 1.516449999999999818e+03
6.500000000000000222e-02 5.998459999999999903e-01 2.569780000000000086e+01 8.578889999999999816e+01 1.516985000000000127e+03
6.600000000000000311e-02 6.002469999999999750e-01 2.618144999999999811e+01 8.744519999999999982e+01 1.517494999999999891e+03
6.700000000000000400e-02 6.006415000000000504e-01 2.659649999999999892e+01 8.905440000000000111e+01 1.517994999999999891e+03
6.800000000000000488e-02 6.010389999999999899e-01 2.696195000000000164e+01 9.065094999999999459e+01 1.518480000000000018e+03
6.900000000000000577e-02 6.014439999999999786e-01 2.729529999999999745e+01 9.226539999999999964e+01 1.518965000000000146e+03
7.000000000000000666e-02 6.018630000000000368e-01 2.761184999999999690e+01 9.392215000000000202e+01 1.519450000000000045e+03
7.100000000000000755e-02 6.022984999999999589e-01 2.792350000000000065e+01 9.563864999999999839e+01 1.519954999999999927e+03
7.200000000000000844e-02 6.027519999999999545e-01 2.823825000000000074e+01 9.742359999999999332e+01 1.520470000000000027e+03
7.300000000000000933e-02 6.032214999999999661e-01 2.855959999999999965e+01 9.927639999999999532e+01 1.521005000000000109e+03
7.399999999999999634e-02 6.037049999999999361e-01 2.888660000000000139e+01 1.011881500000000074e+02 1.521550000000000182e+03
7.499999999999999722e-02 6.041959999999999553e-01 2.921374999999999744e+01 1.031400000000000006e+02 1.522105000000000018e+03
7.599999999999999811e-02 6.046880000000000033e-01 2.953200000000000003e+01 1.051075000000000017e+02 1.522664999999999964e+03
7.699999999999999900e-02 6.051729999999999610e-01 2.982925000000000182e+01 1.070570000000000022e+02 1.523224999999999909e+03
7.799999999999999989e-02 6.056420000000000137e-01 3.009140000000000015e+01 1.089540000000000077e+02 1.523769999999999982e+03
7.900000000000000078e-02 6.060870000000000424e-01 3.030344999999999800e+01 1.107625000000000028e+02 1.524295000000000073e+03
8.000000000000000167e-02 6.064979999999999816e-01 3.045084999999999908e+01 1.124445000000000050e+02 1.524789999999999964e+03
8.100000000000000255e-02 6.068685000000000329e-01 3.051980000000000004e+01 1.139664999999999964e+02 1.525244999999999891e+03
8.200000000000000344e-02 6.071914999999999951e-01 3.049884999999999735e+01 1.152999999999999972e+02 1.525654999999999973e+03
8.300000000000000433e-02 6.074625000000000163e-01 3.037884999999999991e+01 1.164205000000000041e+02 1.526010000000000218e+03
8.400000000000000522e-02 6.076774999999999816e-01 3.015394999999999825e+01 1.173130000000000024e+02 1.526300000000000182e+03
8.500000000000000611e-02 6.078354999999999730e-01 2.982144999999999868e+01 1.179669999999999987e+02 1.526535000000000082e+03
8.600000000000000699e-02 6.079375000000000195e-01 2.938214999999999932e+01 1.183814999999999884e+02 1.526699999999999818e+03
8.700000000000000788e-02 6.079835000000000100e-01 2.884004999999999797e+01 1.185625000000000000e+02 1.526805000000000064e+03
8.800000000000000877e-02 6.079790000000000472e-01 2.820244999999999891e+01 1.185229999999999961e+02 1.526849999999999909e+03
8.899999999999999578e-02 6.079280000000000239e-01 2.747919999999999874e+01 1.182814999999999941e+02 1.526829999999999927e+03
8.999999999999999667e-02 6.078354999999999730e-01 2.668264999999999887e+01 1.178624999999999972e+02 1.526764999999999873e+03
9.099999999999999756e-02 6.077094999999999025e-01 2.582704999999999984e+01 1.172930000000000064e+02 1.526650000000000091e+03
9.199999999999999845e-02 6.075565000000000548e-01 2.492774999999999963e+01 1.166030000000000086e+02 1.526494999999999891e+03
9.299999999999999933e-02 6.073840000000000350e-01 2.400084999999999980e+01 1.158255000000000052e+02 1.526320000000000164e+03
9.400000000000000022e-02 6.071999999999999620e-01 2.306255000000000166e+01 1.149915000000000020e+02 1.526115000000000009e+03
9.500000000000000111e-02 6.070104999999998974e-01 2.212829999999999941e+01 1.141315000000000026e+02 1.525894999999999982e+03
9.600000000000000200e-02 6.068225000000000424e-01 2.121265000000000001e+01 1.132735000000000127e+02 1.525670000000000073e+03
9.700000000000000289e-02 6.066420000000000146e-01 2.032819999999999894e+01 1.124429999999999978e+02 1.525449999999999818e+03
9.800000000000000377e-02 6.064720000000000111e-01 1.948554999999999993e+01 1.116610000000000014e+02 1.525235000000000127e+03
9.900000000000000466e-02 6.063174999999999537e-01 1.869294999999999973e+01 1.109429999999999978e+02 1.525035000000000082e+03
1.000000000000000056e-01 6.061799999999999411e-01 1.795575000000000188e+01 1.103010000000000019e+02 1.524845000000000027e+03
1.010000000000000064e-01 6.060605000000000020e-01 1.727660000000000196e+01 1.097394999999999925e+02 1.524679999999999836e+03
1.020000000000000073e-01 6.059590000000000254e-01 1.665549999999999997e+01 1.092605000000000075e+02 1.524530000000000200e+03
1.030000000000000082e-01 6.058729999999999949e-01 1.608964999999999890e+01 1.088590000000000089e+02 1.524400000000000091e+03
1.040000000000000091e-01 6.058025000000000215e-01 1.557420000000000115e+01 1.085259999999999962e+02 1.524285000000000082e+03
1.050000000000000100e-01 6.057420000000000027e-01 1.510210000000000008e+01 1.082500000000000000e+02 1.524195000000000164e+03
1.059999999999999970e-01 6.056894999999999918e-01 1.466475000000000151e+01 1.080150000000000006e+02 1.524110000000000127e+03
1.069999999999999979e-01 6.056399999999999562e-01 1.425250000000000128e+01 1.078045000000000044e+02 1.524039999999999964e+03
1.079999999999999988e-01 6.055890000000000439e-01 1.385494999999999877e+01 1.075995000000000061e+02 1.523965000000000146e+03
1.089999999999999997e-01 6.055330000000000990e-01 1.346165000000000056e+01 1.073815000000000026e+02 1.523894999999999982e+03
1.100000000000000006e-01 6.054675000000000473e-01 1.306259999999999977e+01 1.071329999999999956e+02 1.523815000000000055e+03
1.110000000000000014e-01 6.053889999999999549e-01 1.264850000000000030e+01 1.068375000000000057e+02 1.523730000000000018e+03
1.120000000000000023e-01 6.052945000000000686e-01 1.221139499999999956e+01 1.064814999999999969e+02 1.523630000000000109e+03
1.130000000000000032e-01 6.051824999999999566e-01 1.174483999999999995e+01 1.060540000000000020e+02 1.523514999999999873e+03
1.140000000000000041e-01 6.050504999999999356e-01 1.124442999999999948e+01 1.055480000000000018e+02 1.523375000000000000e+03
1.150000000000000050e-01 6.048989999999999645e-01 1.070778499999999944e+01 1.049594999999999914e+02 1.523220000000000027e+03
1.160000000000000059e-01 6.047289999999999610e-01 1.013471999999999973e+01 1.042895000000000039e+02 1.523045000000000073e+03
1.170000000000000068e-01 6.045404999999999252e-01 9.527240000000000819e+00 1.035427999999999997e+02 1.522849999999999909e+03
1.180000000000000077e-01 6.043370000000000131e-01 8.889610000000001122e+00 1.027279000000000053e+02 1.522630000000000109e+03
1.190000000000000085e-01 6.041220000000000478e-01 8.227890000000000370e+00 1.018563000000000045e+02 1.522400000000000091e+03
1.200000000000000094e-01 6.038980000000000459e-01 7.549914999999999488e+00 1.009425999999999988e+02 1.522154999999999973e+03
1.209999999999999964e-01 6.036704999999999988e-01 6.864835000000000242e+00 1.000049500000000080e+02 1.521900000000000091e+03
1.219999999999999973e-01 6.034435000000000215e-01 6.182685000000000208e+00 9.906125000000000114e+01 1.521650000000000091e+03
1.229999999999999982e-01 6.032215000000000771e-01 5.514190000000000147e+00 9.813124999999999432e+01 1.521394999999999982e+03
1.239999999999999991e-01 6.030094999999999761e-01 4.869949999999999335e+00 9.723470000000000368e+01 1.521139999999999873e+03
1.250000000000000000e-01 6.028115000000000556e-01 4.260290000000000354e+00 9.638965000000000316e+01 1.520904999999999973e+03
1.260000000000000009e-01 6.026310000000000278e-01 3.694663499999999878e+00 9.561374999999999602e+01 1.520680000000000064e+03
1.270000000000000018e-01 6.024724999999999664e-01 3.181314499999999601e+00 9.492085000000000150e+01 1.520474999999999909e+03
1.280000000000000027e-01 6.023369999999999003e-01 2.726941500000000129e+00 9.432319999999999993e+01 1.520289999999999964e+03
1.290000000000000036e-01 6.022270000000000678e-01 2.336444999999999883e+00 9.382890000000000441e+01 1.520134999999999991e+03
1.300000000000000044e-01 6.021419999999999551e-01 2.012757999999999825e+00 9.344249999999999545e+01 1.520009999999999991e+03
1.310000000000000053e-01 6.020834999999999937e-01 1.756806500000000160e+00 9.316495000000000459e+01 1.519914999999999964e+03
1.320000000000000062e-01 6.020495000000000152e-01 1.567503499999999939e+00 9.299340000000000828e+01 1.519840000000000146e+03
1.330000000000000071e-01 6.020380000000000731e-01 1.441885000000000083e+00 9.292175000000000296e+01 1.519799999999999955e+03
1.340000000000000080e-01 6.020475000000000687e-01 1.375305000000000000e+00 9.294075000000000841e+01 1.519775000000000091e+03
1.350000000000000089e-01 6.020744999999999569e-01 1.361650000000000027e+00 9.303874999999999318e+01 1.519779999999999973e+03
1.360000000000000098e-01 6.021155000000000257e-01 1.393664999999999932e+00 9.320204999999999984e+01 1.519804999999999836e+03
1.370000000000000107e-01 6.021670000000000078e-01 1.463267499999999943e+00 9.341575000000000273e+01 1.519845000000000027e+03
1.380000000000000115e-01 6.022255000000000802e-01 1.561870000000000092e+00 9.366440000000000055e+01 1.519889999999999873e+03
1.390000000000000124e-01 6.022870000000000168e-01 1.680679999999999952e+00 9.393224999999999625e+01 1.519950000000000045e+03
1.400000000000000133e-01 6.023475000000000357e-01 1.811069999999999958e+00 9.420435000000000514e+01 1.520014999999999873e+03
1.410000000000000142e-01 6.024055000000000382e-01 1.944790000000000019e+00 9.446670000000000300e+01 1.520079999999999927e+03
1.420000000000000151e-01 6.024570000000000203e-01 2.074244999999999894e+00 9.470689999999999031e+01 1.520134999999999991e+03
1.430000000000000160e-01 6.025000000000000355e-01 2.192705000000000126e+00 9.491425000000000978e+01 1.520190000000000055e+03
1.440000000000000169e-01 6.025335000000000552e-01 2.294449999999999878e+00 9.508015000000000327e+01 1.520240000000000009e+03
1.450000000000000178e-01 6.025544999999999929e-01 2.374899999999999789e+00 9.519829999999998904e+01 1.520269999999999982e+03
1.459999999999999909e-01 6.025635000000000296e-01 2.430665000000000298e+00 9.526454999999999984e+01 1.520295000000000073e+03
1.469999999999999918e-01 6.025599999999999845e-01 2.459579999999999878e+00 9.527700000000000102e+01 1.520304999999999836e+03
1.479999999999999927e-01 6.025439999999999685e-01 2.460700000000000109e+00 9.523584999999999923e+01 1.520305000000000064e+03
1.489999999999999936e-01 6.025165000000000104e-01 2.434219999999999828e+00 9.514329999999999643e+01 1.520284999999999854e+03
1.499999999999999944e-01 6.024784999999999169e-01 2.381415000000000060e+00 9.500315000000000509e+01 1.520250000000000000e+03
1.509999999999999953e-01 6.024309999999999388e-01 2.304479999999999862e+00 9.482079999999999131e+01 1.520215000000000146e+03
1.519999999999999962e-01 6.023764999999999814e-01 2.206415000000000237e+00 9.460255000000000791e+01 1.520164999999999964e+03
1.529999999999999971e-01 6.023155000000000037e-01 2.090859000000000023e+00 9.435575000000000045e+01 1.520099999999999909e+03
1.539999999999999980e-01 6.022509999999999808e-01 1.961866499999999958e+00 9.408799999999999386e+01 1.520034999999999854e+03
1.549999999999999989e-01 6.021840000000000526e-01 1.823769999999999891e+00 9.380719999999999459e+01 1.519965000000000146e+03
1.559999999999999998e-01 6.021164999999999434e-01 1.680952500000000072e+00 9.352084999999999582e+01 1.519894999999999982e+03
1.570000000000000007e-01 6.020505000000000440e-01 1.537675499999999973e+00 9.323619999999999663e+01 1.519815000000000055e+03
1.580000000000000016e-01 6.019870000000000498e-01 1.397911500000000196e+00 9.295955000000000723e+01 1.519744999999999891e+03
1.590000000000000024e-01 6.019269999999999898e-01 1.265191000000000177e+00 9.269624999999999204e+01 1.519670000000000073e+03
