# t [s], A [cm^2], U [cm/s], P [cPa], c [cm/s]
1.000000000000000021e-03 6.211174999999999891e-01 2.939100000000000046e-03 1.079985000000000070e+02 1.443074999999999818e+03
2.000000000000000042e-03 6.211094999999999811e-01 1.787764999999999970e-03 1.079825000000000017e+02 1.443074999999999818e+03
3.000000000000000062e-03 6.211569999999999592e-01 7.508914999999999340e-02 1.080509999999999877e+02 1.443090000000000146e+03
4.000000000000000083e-03 6.212115000000000276e-01 1.590475499999999820e-01 1.081525000000000034e+02 1.443125000000000000e+03
5.000000000000000104e-03 6.212079999999999824e-01 1.564360000000000195e-01 1.081495000000000033e+02 1.443130000000000109e+03
6.000000000000000125e-03 6.211629999999999097e-01 8.633150000000000546e-02 1.080234999999999985e+02 1.443105000000000018e+03
7.000000000000000146e-03 6.211145000000000138e-01 6.496000000000001773e-03 1.078269999999999982e+02 1.443059999999999945e+03
8.000000000000000167e-03 6.210499999999999909e-01 -1.030300000000000105e-01 1.075469999999999970e+02 1.442990000000000009e+03
9.000000000000001055e-03 6.209379999999999900e-01 -2.969200000000000728e-01 1.071159999999999997e+02 1.442884999999999991e+03
1.000000000000000194e-02 6.207664999999999988e-01 -5.914050000000000695e-01 1.064869999999999948e+02 1.442730000000000018e+03
1.099999999999999936e-02 6.205285000000000384e-01 -9.891999999999999682e-01 1.056245000000000118e+02 1.442505000000000109e+03
1.200000000000000025e-02 6.202104999999999979e-01 -1.498445000000000249e+00 1.044899999999999949e+02 1.442210000000000036e+03
1.300000000000000114e-02 6.198114999999999597e-01 -2.105125000000000135e+00 1.030656999999999925e+02 1.441824999999999818e+03
1.400000000000000203e-02 6.193549999999999889e-01 -2.747349999999999959e+00 1.013955500000000001e+02 1.441360000000000127e+03
1.499999999999999944e-02 6.188875000000000348e-01 -3.325989999999999558e+00 9.958729999999999905e+01 1.440845000000000027e+03
1.600000000000000033e-02 6.184534999999999894e-01 -3.741355000000000430e+00 9.777709999999999013e+01 1.440304999999999836e+03
1.700000000000000122e-02 6.180805000000000327e-01 -3.927328499999999778e+00 9.608025000000000659e+01 1.439779999999999973e+03
1.800000000000000211e-02 6.177719999999999878e-01 -3.866296499999999803e+00 9.456414999999999793e+01 1.439280000000000200e+03
1.900000000000000300e-02 6.175125000000000197e-01 -3.584940500000000085e+00 9.323579999999999757e+01 1.438815000000000055e+03
2.000000000000000042e-02 6.172729999999999606e-01 -3.138365000000000293e+00 9.205355000000000132e+01 1.438384999999999991e+03
2.100000000000000130e-02 6.170260000000000744e-01 -2.590214500000000086e+00 9.094729999999999848e+01 1.437970000000000027e+03
2.200000000000000219e-02 6.167500000000000204e-01 -1.994824999999999848e+00 8.984350000000000591e+01 1.437549999999999955e+03
2.299999999999999961e-02 6.164344999999999963e-01 -1.385610000000000008e+00 8.868635000000000446e+01 1.437125000000000000e+03
2.400000000000000050e-02 6.160824999999999774e-01 -7.724549999999998917e-01 8.744925000000000637e+01 1.436679999999999836e+03
2.500000000000000139e-02 6.157040000000000290e-01 -1.476600000000001245e-01 8.613505000000000678e+01 1.436210000000000036e+03
2.600000000000000228e-02 6.153124999999999289e-01 5.026749999999999829e-01 8.476590000000000202e+01 1.435730000000000018e+03
2.700000000000000316e-02 6.149175000000000058e-01 1.186790000000000234e+00 8.336849999999999739e+01 1.435235000000000127e+03
2.800000000000000058e-02 6.145214999999999428e-01 1.898789999999999978e+00 8.196000000000000796e+01 1.434740000000000009e+03
2.900000000000000147e-02 6.141205000000000691e-01 2.615629999999999900e+00 8.053894999999999982e+01 1.434235000000000127e+03
3.000000000000000236e-02 6.137010000000000520e-01 3.299395000000000078e+00 7.908330000000000837e+01 1.433724999999999909e+03
3.099999999999999978e-02 6.132474999999999454e-01 3.903694999999999915e+00 7.755385000000001128e+01 1.433194999999999936e+03
3.200000000000000067e-02 6.127449999999999841e-01 4.382095000000000518e+00 7.590354999999999563e+01 1.432625000000000000e+03
3.300000000000000155e-02 6.121814999999999340e-01 4.697144999999999904e+00 7.408854999999999791e+01 1.432025000000000091e+03
3.400000000000000244e-02 6.115524999999999434e-01 4.827359999999999651e+00 7.208015000000000327e+01 1.431369999999999891e+03
3.500000000000000333e-02 6.108629999999999338e-01 4.771634999999999849e+00 6.987354999999999450e+01 1.430659999999999854e+03
3.600000000000000422e-02 6.101265000000000160e-01 4.549875000000000114e+00 6.749264999999999759e+01 1.429904999999999973e+03
3.700000000000000511e-02 6.093649999999999345e-01 4.199429999999999552e+00 6.498964999999999748e+01 1.429125000000000000e+03
3.799999999999999906e-02 6.086030000000000051e-01 3.769604999999999873e+00 6.243945000000000789e+01 1.428315000000000055e+03
3.899999999999999994e-02 6.078689999999999927e-01 3.314574999999999605e+00 5.993130000000000734e+01 1.427514999999999873e+03
4.000000000000000083e-02 6.071884999999999089e-01 2.887085000000000345e+00 5.755894999999999584e+01 1.426750000000000000e+03
4.100000000000000172e-02 6.065845000000000820e-01 2.533330000000000304e+00 5.541165000000000163e+01 1.426039999999999964e+03
4.200000000000000261e-02 6.060745000000000715e-01 2.290159999999999751e+00 5.356674999999999898e+01 1.425409999999999854e+03
4.300000000000000350e-02 6.056710000000000704e-01 2.184060000000000112e+00 5.208514999999999873e+01 1.424875000000000000e+03
4.400000000000000439e-02 6.053815000000000168e-01 2.231819999999999915e+00 5.100924999999999443e+01 1.424454999999999927e+03
4.499999999999999833e-02 6.052094999999999558e-01 2.442344499999999918e+00 5.036360000000000525e+01 1.424164999999999964e+03
4.599999999999999922e-02 6.051549999999999985e-01 2.818810000000000038e+00 5.015684999999999860e+01 1.424005000000000109e+03
4.700000000000000011e-02 6.052154999999999063e-01 3.360739999999999839e+00 5.038519999999999754e+01 1.423974999999999909e+03
4.800000000000000100e-02 6.053880000000000372e-01 4.065545000000000186e+00 5.103544999999999732e+01 1.424085000000000036e+03
4.900000000000000189e-02 6.056660000000000377e-01 4.929285000000000139e+00 5.208785000000000309e+01 1.424315000000000055e+03
5.000000000000000278e-02 6.060455000000000148e-01 5.946660000000000501e+00 5.351819999999999311e+01 1.424675000000000182e+03
5.100000000000000366e-02 6.065190000000000303e-01 7.110619999999999941e+00 5.529890000000000327e+01 1.425144999999999982e+03
5.200000000000000455e-02 6.070784999999999654e-01 8.411395000000000621e+00 5.739920000000000044e+01 1.425724999999999909e+03
5.300000000000000544e-02 6.077150000000000052e-01 9.836064999999999614e+00 5.978515000000000157e+01 1.426405000000000200e+03
5.399999999999999939e-02 6.084184999999999732e-01 1.136804499999999862e+01 6.241935000000000144e+01 1.427170000000000073e+03
5.500000000000000028e-02 6.091775000000000384e-01 1.298731500000000061e+01 6.526139999999999475e+01 1.428009999999999991e+03
5.600000000000000117e-02 6.099795000000000078e-01 1.467103000000000002e+01 6.826805000000000234e+01 1.428914999999999964e+03
5.700000000000000205e-02 6.108119999999999106e-01 1.639444999999999908e+01 7.139490000000000691e+01 1.429869999999999891e+03
5.800000000000000294e-02 6.116629999999999567e-01 1.813236500000000007e+01 7.459714999999999918e+01 1.430859999999999900e+03
5.900000000000000383e-02 6.125205000000000233e-01 1.986009999999999920e+01 7.783199999999999363e+01 1.431875000000000000e+03
6.000000000000000472e-02 6.133744999999999337e-01 2.155519999999999925e+01 8.106000000000000227e+01 1.432894999999999982e+03
6.099999999999999867e-02 6.142170000000000130e-01 2.319800000000000040e+01 8.424674999999999159e+01 1.433925000000000182e+03
6.199999999999999956e-02 6.150409999999999489e-01 2.477250000000000085e+01 8.736424999999999841e+01 1.434940000000000055e+03
6.300000000000000044e-02 6.158414999999999306e-01 2.626680000000000348e+01 9.039150000000000773e+01 1.435940000000000055e+03
6.400000000000000133e-02 6.166160000000000529e-01 2.767285000000000039e+01 9.331489999999999441e+01 1.436910000000000082e+03
6.500000000000000222e-02 6.173634999999999540e-01 2.898684999999999690e+01 9.612860000000000582e+01 1.437865000000000009e+03
6.600000000000000311e-02 6.180860000000000243e-01 3.020805000000000007e+01 9.883240000000000691e+01 1.438785000000000082e+03
6.700000000000000400e-02 6.187840000000000007e-01 3.133879999999999910e+01 1.014321999999999946e+02 1.439675000000000182e+03
6.800000000000000488e-02 6.194625000000000270e-01 3.238344999999999629e+01 1.039380999999999915e+02 1.440545000000000073e+03
6.900000000000000577e-02 6.201229999999999798e-01 3.334815000000000396e+01 1.063644500000000050e+02 1.441384999999999991e+03
7.000000000000000666e-02 6.207715000000000316e-01 3.423989999999999867e+01 1.087254999999999967e+02 1.442210000000000036e+03
7.100000000000000755e-02 6.214104999999999768e-01 3.506605000000000416e+01 1.110370000000000061e+02 1.443019999999999982e+03
7.200000000000000844e-02 6.220445000000000002e-01 3.583384999999999820e+01 1.133139999999999930e+02 1.443809999999999945e+03
7.300000000000000933e-02 6.226750000000000895e-01 3.654975000000000307e+01 1.155695000000000050e+02 1.444599999999999909e+03
7.399999999999999634e-02 6.233055000000000678e-01 3.721914999999999907e+01 1.178129999999999882e+02 1.445380000000000109e+03
7.499999999999999722e-02 6.239365000000000050e-01 3.784619999999999607e+01 1.200504999999999995e+02 1.446160000000000082e+03
7.599999999999999811e-02 6.245674999999999422e-01 3.843325000000000102e+01 1.222860000000000014e+02 1.446934999999999945e+03
7.699999999999999900e-02 6.251980000000000315e-01 3.898090000000000543e+01 1.245159999999999911e+02 1.447710000000000036e+03
7.799999999999999989e-02 6.258265000000000633e-01 3.948805000000000121e+01 1.267355000000000018e+02 1.448474999999999909e+03
7.900000000000000078e-02 6.264480000000000048e-01 3.995194999999999652e+01 1.289345000000000141e+02 1.449240000000000009e+03
8.000000000000000167e-02 6.270599999999999508e-01 4.036834999999999951e+01 1.310989999999999895e+02 1.449990000000000009e+03
8.100000000000000255e-02 6.276570000000000205e-01 4.073199999999999932e+01 1.332135000000000105e+02 1.450730000000000018e+03
8.200000000000000344e-02 6.282345000000000290e-01 4.103685000000000116e+01 1.352595000000000027e+02 1.451450000000000045e+03
8.300000000000000433e-02 6.287869999999999848e-01 4.127649999999999864e+01 1.372185000000000059e+02 1.452139999999999873e+03
8.400000000000000522e-02 6.293094999999999661e-01 4.144474999999999909e+01 1.390715000000000146e+02 1.452800000000000182e+03
8.500000000000000611e-02 6.297970000000000512e-01 4.153575000000000017e+01 1.408000000000000114e+02 1.453424999999999955e+03
8.600000000000000699e-02 6.302455000000000140e-01 4.154460000000000264e+01 1.423890000000000100e+02 1.454005000000000109e+03
8.700000000000000788e-02 6.306519999999999904e-01 4.146750000000000114e+01 1.438229999999999791e+02 1.454534999999999854e+03
8.800000000000000877e-02 6.310135000000000050e-01 4.130209999999999582e+01 1.450914999999999964e+02 1.455019999999999982e+03
8.899999999999999578e-02 6.313275000000000414e-01 4.104744999999999777e+01 1.461885000000000048e+02 1.455450000000000045e+03
8.999999999999999667e-02 6.315939999999999888e-01 4.070430000000000348e+01 1.471080000000000041e+02 1.455820000000000164e+03
9.099999999999999756e-02 6.318135000000000279e-01 4.027514999999999645e+01 1.478514999999999873e+02 1.456130000000000109e+03
9.199999999999999845e-02 6.319859999999999367e-01 3.976395000000000124e+01 1.484225000000000136e+02 1.456384999999999991e+03
9.299999999999999933e-02 6.321144999999999126e-01 3.917614999999999981e+01 1.488274999999999864e+02 1.456585000000000036e+03
9.400000000000000022e-02 6.322015000000000828e-01 3.851874999999999716e+01 1.490755000000000052e+02 1.456735000000000127e+03
9.500000000000000111e-02 6.322499999999999787e-01 3.779970000000000141e+01 1.491800000000000068e+02 1.456829999999999927e+03
9.600000000000000200e-02 6.322645000000000071e-01 3.702795000000000414e+01 1.491555000000000177e+02 1.456884999999999991e+03
9.700000000000000289e-02 6.322484999999999911e-01 3.621314999999999884e+01 1.490185000000000173e+02 1.456890000000000100e+03
9.800000000000000377e-02 6.322069999999999634e-01 3.536540000000000106e+01 1.487855000000000132e+02 1.456865000000000009e+03
9.900000000000000466e-02 6.321449999999999569e-01 3.449490000000000123e+01 1.484750000000000227e+02 1.456804999999999836e+03
1.000000000000000056e-01 6.320664999999999756e-01 3.361155000000000115e+01 1.481055000000000064e+02 1.456720000000000027e+03
1.010000000000000064e-01 6.319770000000000110e-01 3.272509999999999764e+01 1.476920000000000073e+02 1.456619999999999891e+03
1.020000000000000073e-01 6.318799999999999972e-01 3.184424999999999883e+01 1.472520000000000095e+02 1.456500000000000000e+03
1.030000000000000082e-01 6.317785000000000206e-01 3.097695000000000221e+01 1.467994999999999948e+02 1.456369999999999891e+03
1.040000000000000091e-01 6.316764999999999741e-01 3.012984999999999758e+01 1.463470000000000084e+02 1.456240000000000009e+03
1.050000000000000100e-01 6.315760000000000263e-01 2.930819999999999936e+01 1.459050000000000011e+02 1.456105000000000018e+03
1.059999999999999970e-01 6.314789999999999015e-01 2.851565000000000083e+01 1.454800000000000182e+02 1.455965000000000146e+03
1.069999999999999979e-01 6.313864999999999617e-01 2.775459999999999994e+01 1.450769999999999982e+02 1.455835000000000036e+03
1.079999999999999988e-01 6.312995000000000134e-01 2.702550000000000097e+01 1.446985000000000241e+02 1.455710000000000036e+03
1.089999999999999997e-01 6.312159999999999993e-01 2.632764999999999844e+01 1.443435000000000059e+02 1.455585000000000036e+03
1.100000000000000006e-01 6.311364999999999892e-01 2.565869999999999962e+01 1.440095000000000027e+02 1.455465000000000146e+03
1.110000000000000014e-01 6.310590000000000366e-01 2.501530000000000342e+01 1.436915000000000191e+02 1.455355000000000018e+03
1.120000000000000023e-01 6.309820000000000428e-01 2.439309999999999690e+01 1.433820000000000050e+02 1.455244999999999891e+03
1.130000000000000032e-01 6.309029999999999916e-01 2.378705000000000069e+01 1.430740000000000123e+02 1.455134999999999991e+03
1.140000000000000041e-01 6.308194999999999775e-01 2.319169999999999732e+01 1.427574999999999932e+02 1.455025000000000091e+03
1.150000000000000050e-01 6.307294999999999430e-01 2.260139999999999816e+01 1.424250000000000114e+02 1.454904999999999973e+03
1.160000000000000059e-01 6.306305000000000938e-01 2.201075000000000159e+01 1.420660000000000025e+02 1.454779999999999973e+03
1.170000000000000068e-01 6.305214999999999570e-01 2.141465000000000174e+01 1.416740000000000066e+02 1.454650000000000091e+03
1.180000000000000077e-01 6.303990000000000427e-01 2.080850000000000222e+01 1.412404999999999973e+02 1.454505000000000109e+03
1.190000000000000085e-01 6.302639999999999354e-01 2.018864999999999910e+01 1.407605000000000075e+02 1.454349999999999909e+03
1.200000000000000094e-01 6.301134999999999931e-01 1.955239999999999867e+01 1.402300000000000182e+02 1.454175000000000182e+03
1.209999999999999964e-01 6.299489999999999812e-01 1.889795000000000158e+01 1.396469999999999914e+02 1.453990000000000009e+03
1.219999999999999973e-01 6.297694999999999821e-01 1.822480000000000189e+01 1.390105000000000075e+02 1.453785000000000082e+03
1.229999999999999982e-01 6.295760000000000245e-01 1.753350000000000009e+01 1.383235000000000241e+02 1.453565000000000055e+03
1.239999999999999991e-01 6.293705000000000549e-01 1.682574999999999932e+01 1.375900000000000034e+02 1.453329999999999927e+03
1.250000000000000000e-01 6.291539999999999910e-01 1.610439999999999827e+01 1.368149999999999977e+02 1.453085000000000036e+03
1.260000000000000009e-01 6.289294999999999192e-01 1.537314999999999898e+01 1.360065000000000168e+02 1.452820000000000164e+03
1.270000000000000018e-01 6.286990000000000078e-01 1.463669000000000153e+01 1.351725000000000136e+02 1.452555000000000064e+03
1.280000000000000027e-01 6.284655000000000102e-01 1.390031000000000105e+01 1.343240000000000123e+02 1.452280000000000200e+03
1.290000000000000036e-01 6.282309999999999839e-01 1.316979500000000058e+01 1.334714999999999918e+02 1.452000000000000000e+03
1.300000000000000044e-01 6.280000000000000027e-01 1.245138999999999996e+01 1.326250000000000000e+02 1.451719999999999800e+03
1.310000000000000053e-01 6.277745000000000131e-01 1.175122499999999981e+01 1.317969999999999970e+02 1.451449999999999818e+03
1.320000000000000062e-01 6.275585000000000191e-01 1.107545499999999983e+01 1.309979999999999905e+02 1.451174999999999955e+03
1.330000000000000071e-01 6.273535000000000084e-01 1.042999499999999991e+01 1.302384999999999877e+02 1.450920000000000073e+03
1.340000000000000080e-01 6.271619999999999973e-01 9.820074999999999221e+00 1.295264999999999986e+02 1.450674999999999955e+03
1.350000000000000089e-01 6.269865000000000022e-01 9.250349999999999184e+00 1.288709999999999809e+02 1.450445000000000164e+03
1.360000000000000098e-01 6.268289999999999695e-01 8.724615000000000009e+00 1.282779999999999916e+02 1.450230000000000018e+03
1.370000000000000107e-01 6.266890000000000516e-01 8.245820000000000149e+00 1.277520000000000095e+02 1.450039999999999964e+03
1.380000000000000115e-01 6.265685000000000837e-01 7.815749999999999531e+00 1.272959999999999923e+02 1.449865000000000009e+03
1.390000000000000124e-01 6.264669999999999961e-01 7.435290000000000177e+00 1.269110000000000014e+02 1.449720000000000027e+03
1.400000000000000133e-01 6.263845000000000107e-01 7.104255000000000209e+00 1.265964999999999918e+02 1.449590000000000146e+03
1.410000000000000142e-01 6.263199999999999878e-01 6.821474999999999511e+00 1.263489999999999895e+02 1.449485000000000127e+03
1.420000000000000151e-01 6.262714999999999810e-01 6.584875000000000256e+00 1.261654999999999944e+02 1.449404999999999973e+03
1.430000000000000160e-01 6.262385000000000312e-01 6.391610000000000014e+00 1.260399999999999920e+02 1.449335000000000036e+03
1.440000000000000169e-01 6.262189999999999701e-01 6.238165000000000404e+00 1.259664999999999964e+02 1.449285000000000082e+03
1.450000000000000178e-01 6.262099999999999334e-01 6.120540000000000092e+00 1.259369999999999976e+02 1.449255000000000109e+03
1.459999999999999909e-01 6.262109999999999621e-01 6.034385000000000332e+00 1.259445000000000050e+02 1.449235000000000127e+03
1.469999999999999918e-01 6.262189999999999701e-01 5.975144999999999484e+00 1.259814999999999969e+02 1.449224999999999909e+03
1.479999999999999927e-01 6.262315000000000520e-01 5.938225000000000087e+00 1.260390000000000015e+02 1.449230000000000018e+03
1.489999999999999936e-01 6.262475000000000680e-01 5.919130000000000003e+00 1.261109999999999900e+02 1.449235000000000127e+03
1.499999999999999944e-01 6.262650000000000716e-01 5.913555000000000561e+00 1.261894999999999953e+02 1.449250000000000000e+03
1.509999999999999953e-01 6.262825000000000752e-01 5.917519999999999669e+00 1.262685000000000031e+02 1.449264999999999873e+03
1.519999999999999962e-01 6.262980000000000214e-01 5.927424999999999500e+00 1.263445000000000107e+02 1.449279999999999973e+03
1.529999999999999971e-01 6.263115000000000210e-01 5.940099999999999270e+00 1.264110000000000014e+02 1.449289999999999964e+03
1.539999999999999980e-01 6.263220000000000454e-01 5.952859999999999374e+00 1.264654999999999916e+02 1.449309999999999945e+03
1.549999999999999989e-01 6.263285000000000657e-01 5.963494999999999990e+00 1.265060000000000002e+02 1.449315000000000055e+03
1.559999999999999998e-01 6.263309999999999711e-01 5.970285000000000508e+00 1.265304999999999893e+02 1.449320000000000164e+03
1.570000000000000007e-01 6.263294999999999835e-01 5.971975000000000477e+00 1.265390000000000015e+02 1.449325000000000045e+03
1.580000000000000016e-01 6.263235000000000330e-01 5.967749999999999666e+00 1.265314999999999941e+02 1.449325000000000045e+03
1.590000000000000024e-01 6.263140000000000374e-01 5.957190000000000651e+00 1.265079999999999956e+02 1.449315000000000055e+03
