# t [s], A [cm^2], U [cm/s], P [cPa], c [cm/s]
1.000000000000000021e-03 5.410334999999999450e-01 3.511349999999996419e-03 9.544129999999999825e+01 1.438559999999999945e+03
2.000000000000000042e-03 5.410254999999999370e-01 -1.319335000000000039e-03 9.542459999999999809e+01 1.438549999999999955e+03
3.000000000000000062e-03 5.410515000000000185e-01 4.446535000000000071e-02 9.546455000000000268e+01 1.438565000000000055e+03
4.000000000000000083e-03 5.411004999999999843e-01 1.319593000000000016e-01 9.556454999999999700e+01 1.438594999999999800e+03
5.000000000000000104e-03 5.411129999999999551e-01 1.625471500000000014e-01 9.560089999999999577e+01 1.438610000000000127e+03
6.000000000000000125e-03 5.410794999999999355e-01 1.130965000000000165e-01 9.551810000000000400e+01 1.438590000000000146e+03
7.000000000000000146e-03 5.410355000000000025e-01 4.088949999999996754e-02 9.536195000000000732e+01 1.438549999999999955e+03
8.000000000000000167e-03 5.409954999999999625e-01 -3.011850000000004801e-02 9.516689999999999827e+01 1.438505000000000109e+03
9.000000000000001055e-03 5.409315000000000095e-01 -1.490950000000000331e-01 9.488665000000000305e+01 1.438434999999999945e+03
1.000000000000000194e-02 5.408300000000000329e-01 -3.488499999999999934e-01 9.447175000000000011e+01 1.438329999999999927e+03
1.099999999999999936e-02 5.406854999999999301e-01 -6.329900000000000526e-01 9.389545000000001096e+01 1.438179999999999836e+03
1.200000000000000025e-02 5.404900000000000260e-01 -1.010709999999999997e+00 9.312420000000000186e+01 1.437985000000000127e+03
1.300000000000000114e-02 5.402329999999999632e-01 -1.490900000000000336e+00 9.212180000000000746e+01 1.437720000000000027e+03
1.400000000000000203e-02 5.399190000000000378e-01 -2.050120000000000164e+00 9.088644999999999641e+01 1.437390000000000100e+03
1.499999999999999944e-02 5.395759999999999446e-01 -2.620484999999999953e+00 8.947499999999999432e+01 1.437005000000000109e+03
1.600000000000000033e-02 5.392399999999999416e-01 -3.110929999999999751e+00 8.798919999999999675e+01 1.436579999999999927e+03
1.700000000000000122e-02 5.389420000000000321e-01 -3.441877499999999923e+00 8.653780000000000427e+01 1.436150000000000091e+03
1.800000000000000211e-02 5.386949999999999239e-01 -3.569738000000000078e+00 8.520060000000000855e+01 1.435744999999999891e+03
1.900000000000000300e-02 5.384940000000000282e-01 -3.492933499999999913e+00 8.401035000000000252e+01 1.435349999999999909e+03
2.000000000000000042e-02 5.383215000000000083e-01 -3.243521700000000063e+00 8.295314999999999372e+01 1.434990000000000009e+03
2.100000000000000130e-02 5.381529999999999925e-01 -2.871601000000000070e+00 8.198165000000000191e+01 1.434644999999999982e+03
2.200000000000000219e-02 5.379680000000000017e-01 -2.428791499999999992e+00 8.103449999999999420e+01 1.434305000000000064e+03
2.299999999999999961e-02 5.377529999999999255e-01 -1.954660000000000064e+00 8.005575000000000330e+01 1.433954999999999927e+03
2.400000000000000050e-02 5.375044999999999407e-01 -1.468980000000000175e+00 7.901015000000001010e+01 1.433590000000000146e+03
2.500000000000000139e-02 5.372274999999999689e-01 -9.713099999999998957e-01 7.788945000000001073e+01 1.433204999999999927e+03
2.600000000000000228e-02 5.369340000000000224e-01 -4.472850000000001547e-01 7.671004999999999541e+01 1.432800000000000182e+03
2.700000000000000316e-02 5.366379999999999484e-01 1.210100000000000620e-01 7.550230000000000530e+01 1.432389999999999873e+03
2.800000000000000058e-02 5.363480000000000469e-01 7.446199999999998376e-01 7.429734999999999445e+01 1.431974999999999909e+03
2.900000000000000147e-02 5.360665000000000013e-01 1.420344999999999747e+00 7.311509999999999820e+01 1.431570000000000164e+03
3.000000000000000236e-02 5.357890000000000708e-01 2.128104999999999691e+00 7.195619999999999550e+01 1.431159999999999854e+03
3.099999999999999978e-02 5.355054999999999676e-01 2.832914999999999850e+00 7.080074999999999363e+01 1.430755000000000109e+03
3.200000000000000067e-02 5.352014999999999967e-01 3.490410000000000235e+00 6.961154999999999404e+01 1.430339999999999918e+03
3.300000000000000155e-02 5.348625000000000185e-01 4.054615000000000080e+00 6.834210000000000207e+01 1.429914999999999964e+03
3.400000000000000244e-02 5.344774999999999388e-01 4.486159999999999926e+00 6.694705000000000439e+01 1.429450000000000045e+03
3.500000000000000333e-02 5.340400000000000702e-01 4.759514999999999496e+00 6.539289999999999736e+01 1.428954999999999927e+03
3.600000000000000422e-02 5.335535000000000139e-01 4.867879999999999541e+00 6.366710000000000491e+01 1.428414999999999964e+03
3.700000000000000511e-02 5.330269999999999175e-01 4.824065000000000047e+00 6.178285000000000338e+01 1.427829999999999927e+03
3.799999999999999906e-02 5.324769999999999781e-01 4.658030000000000115e+00 5.977949999999999875e+01 1.427215000000000146e+03
3.899999999999999994e-02 5.319229999999999237e-01 4.411674999999999791e+00 5.771764999999999901e+01 1.426579999999999927e+03
4.000000000000000083e-02 5.313879999999999715e-01 4.132175000000000153e+00 5.567170000000000130e+01 1.425950000000000045e+03
4.100000000000000172e-02 5.308904999999999319e-01 3.865444999999999798e+00 5.372095000000000198e+01 1.425340000000000146e+03
4.200000000000000261e-02 5.304495000000000182e-01 3.651704999999999757e+00 5.194110000000000582e+01 1.424769999999999982e+03
4.300000000000000350e-02 5.300770000000000204e-01 3.522394999999999943e+00 5.039794999999999447e+01 1.424259999999999991e+03
4.400000000000000439e-02 5.297825000000000450e-01 3.499505000000000088e+00 4.914334999999999809e+01 1.423825000000000045e+03
4.499999999999999833e-02 5.295699999999999852e-01 3.596338500000000327e+00 4.821389999999999532e+01 1.423485000000000127e+03
4.599999999999999922e-02 5.294425000000000381e-01 3.819477000000000011e+00 4.763124999999999432e+01 1.423244999999999891e+03
4.700000000000000011e-02 5.293984999999999941e-01 4.171100000000000030e+00 4.740460000000000207e+01 1.423105000000000018e+03
4.800000000000000100e-02 5.294380000000000752e-01 4.651279999999999859e+00 4.753385000000000105e+01 1.423075000000000045e+03
4.900000000000000189e-02 5.295575000000000143e-01 5.259730000000000238e+00 4.801245000000000118e+01 1.423150000000000091e+03
5.000000000000000278e-02 5.297564999999999635e-01 5.996729999999999450e+00 4.883055000000000234e+01 1.423335000000000036e+03
5.100000000000000366e-02 5.300329999999999764e-01 6.863195000000000157e+00 4.997644999999999982e+01 1.423619999999999891e+03
5.200000000000000455e-02 5.303839999999999666e-01 7.859919999999999796e+00 5.143730000000000047e+01 1.424005000000000109e+03
5.300000000000000544e-02 5.308070000000000288e-01 8.986520000000000508e+00 5.319920000000000471e+01 1.424485000000000127e+03
5.399999999999999939e-02 5.312989999999999657e-01 1.024007999999999896e+01 5.524580000000000268e+01 1.425059999999999945e+03
5.500000000000000028e-02 5.318549999999999667e-01 1.161421499999999973e+01 5.755799999999999272e+01 1.425720000000000027e+03
5.600000000000000117e-02 5.324689999999999701e-01 1.309852000000000061e+01 6.011229999999999762e+01 1.426460000000000036e+03
5.700000000000000205e-02 5.331325000000000092e-01 1.467850499999999947e+01 6.288119999999999976e+01 1.427280000000000200e+03
5.800000000000000294e-02 5.338389999999999525e-01 1.633633499999999827e+01 6.583320000000000505e+01 1.428154999999999973e+03
5.900000000000000383e-02 5.345779999999999976e-01 1.805149999999999721e+01 6.893350000000000932e+01 1.429085000000000036e+03
6.000000000000000472e-02 5.353404999999999969e-01 1.980230000000000246e+01 7.214564999999998918e+01 1.430059999999999945e+03
6.099999999999999867e-02 5.361175000000000246e-01 2.156684999999999874e+01 7.543289999999998940e+01 1.431069999999999936e+03
6.199999999999999956e-02 5.369009999999999616e-01 2.332464999999999833e+01 7.876014999999999588e+01 1.432099999999999909e+03
6.300000000000000044e-02 5.376834999999999809e-01 2.505709999999999837e+01 8.209555000000000291e+01 1.433144999999999982e+03
6.400000000000000133e-02 5.384599999999999387e-01 2.674859999999999971e+01 8.541134999999999877e+01 1.434195000000000164e+03
6.500000000000000222e-02 5.392255000000000242e-01 2.838660000000000139e+01 8.868540000000000134e+01 1.435235000000000127e+03
6.600000000000000311e-02 5.399774999999999991e-01 2.996184999999999832e+01 9.190084999999999127e+01 1.436275000000000091e+03
6.700000000000000400e-02 5.407134999999999581e-01 3.146804999999999808e+01 9.504659999999999798e+01 1.437295000000000073e+03
6.800000000000000488e-02 5.414349999999999996e-01 3.290174999999999983e+01 9.811759999999999593e+01 1.438299999999999955e+03
6.900000000000000577e-02 5.421400000000000663e-01 3.426165000000000305e+01 1.011127999999999929e+02 1.439284999999999854e+03
7.000000000000000666e-02 5.428309999999999524e-01 3.554824999999999591e+01 1.040346000000000117e+02 1.440255000000000109e+03
7.100000000000000755e-02 5.435094999999999787e-01 3.676340000000000430e+01 1.068879000000000019e+02 1.441204999999999927e+03
7.200000000000000844e-02 5.441765000000000629e-01 3.790964999999999918e+01 1.096814999999999998e+02 1.442139999999999873e+03
7.300000000000000933e-02 5.448344999999999994e-01 3.899004999999999654e+01 1.124215000000000089e+02 1.443054999999999836e+03
7.399999999999999634e-02 5.454854999999999565e-01 4.000754999999999484e+01 1.151175000000000068e+02 1.443960000000000036e+03
7.499999999999999722e-02 5.461289999999999756e-01 4.096479999999999677e+01 1.177750000000000057e+02 1.444849999999999909e+03
7.599999999999999811e-02 5.467675000000000729e-01 4.186379999999999768e+01 1.203995000000000033e+02 1.445735000000000127e+03
7.699999999999999900e-02 5.474004999999999566e-01 4.270559999999999690e+01 1.229945000000000022e+02 1.446610000000000127e+03
7.799999999999999989e-02 5.480275000000000007e-01 4.349039999999999395e+01 1.255584999999999951e+02 1.447474999999999909e+03
7.900000000000000078e-02 5.486469999999999958e-01 4.421720000000000539e+01 1.280904999999999916e+02 1.448329999999999927e+03
8.000000000000000167e-02 5.492580000000000240e-01 4.488405000000000200e+01 1.305825000000000102e+02 1.449170000000000073e+03
8.100000000000000255e-02 5.498570000000000402e-01 4.548805000000000121e+01 1.330285000000000082e+02 1.450000000000000000e+03
8.200000000000000344e-02 5.504419999999999868e-01 4.602570000000000050e+01 1.354170000000000016e+02 1.450809999999999945e+03
8.300000000000000433e-02 5.510095000000000409e-01 4.649285000000000423e+01 1.377350000000000136e+02 1.451599999999999909e+03
8.400000000000000522e-02 5.515559999999999352e-01 4.688554999999999495e+01 1.399710000000000036e+02 1.452369999999999891e+03
8.500000000000000611e-02 5.520789999999999864e-01 4.719969999999999999e+01 1.421105000000000018e+02 1.453110000000000127e+03
8.600000000000000699e-02 5.525754999999999972e-01 4.743189999999999884e+01 1.441410000000000196e+02 1.453815000000000055e+03
8.700000000000000788e-02 5.530414999999999637e-01 4.757920000000000016e+01 1.460500000000000114e+02 1.454485000000000127e+03
8.800000000000000877e-02 5.534759999999999680e-01 4.763965000000000316e+01 1.478269999999999982e+02 1.455109999999999900e+03
8.899999999999999578e-02 5.538769999999999527e-01 4.761240000000000094e+01 1.494644999999999868e+02 1.455695000000000164e+03
8.999999999999999667e-02 5.542430000000000412e-01 4.749739999999999895e+01 1.509544999999999959e+02 1.456235000000000127e+03
9.099999999999999756e-02 5.545729999999999826e-01 4.729590000000000316e+01 1.522939999999999827e+02 1.456724999999999909e+03
9.199999999999999845e-02 5.548669999999999991e-01 4.701024999999999920e+01 1.534809999999999945e+02 1.457175000000000182e+03
9.299999999999999933e-02 5.551254999999999384e-01 4.664379999999999882e+01 1.545169999999999959e+02 1.457569999999999936e+03
9.400000000000000022e-02 5.553500000000000103e-01 4.620094999999999885e+01 1.554054999999999893e+02 1.457914999999999964e+03
9.500000000000000111e-02 5.555404999999999927e-01 4.568704999999999927e+01 1.561510000000000105e+02 1.458210000000000036e+03
9.600000000000000200e-02 5.556999999999999718e-01 4.510824999999999818e+01 1.567615000000000123e+02 1.458465000000000146e+03
9.700000000000000289e-02 5.558294999999999764e-01 4.447154999999999347e+01 1.572454999999999927e+02 1.458679999999999836e+03
9.800000000000000377e-02 5.559330000000000105e-01 4.378435000000000343e+01 1.576140000000000043e+02 1.458845000000000027e+03
9.900000000000000466e-02 5.560125000000000206e-01 4.305469999999999686e+01 1.578779999999999859e+02 1.458985000000000127e+03
1.000000000000000056e-01 5.560700000000000642e-01 4.229080000000000439e+01 1.580509999999999877e+02 1.459079999999999927e+03
1.010000000000000064e-01 5.561099999999999932e-01 4.150100000000000477e+01 1.581444999999999936e+02 1.459154999999999973e+03
1.020000000000000073e-01 5.561350000000000460e-01 4.069360000000000355e+01 1.581725000000000136e+02 1.459195000000000164e+03
1.030000000000000082e-01 5.561475000000000168e-01 3.987650000000000006e+01 1.581465000000000032e+02 1.459220000000000027e+03
1.040000000000000091e-01 5.561499999999999222e-01 3.905705000000000382e+01 1.580799999999999841e+02 1.459224999999999909e+03
1.050000000000000100e-01 5.561454999999999593e-01 3.824204999999999899e+01 1.579825000000000159e+02 1.459220000000000027e+03
1.059999999999999970e-01 5.561365000000000336e-01 3.743730000000000047e+01 1.578650000000000091e+02 1.459200000000000045e+03
1.069999999999999979e-01 5.561240000000000627e-01 3.664744999999999919e+01 1.577350000000000136e+02 1.459170000000000073e+03
1.079999999999999988e-01 5.561089999999999645e-01 3.587619999999999720e+01 1.576000000000000227e+02 1.459144999999999982e+03
1.089999999999999997e-01 5.560935000000000183e-01 3.512584999999999980e+01 1.574629999999999939e+02 1.459105000000000018e+03
1.100000000000000006e-01 5.560769999999999325e-01 3.439764999999999873e+01 1.573290000000000077e+02 1.459065000000000055e+03
1.110000000000000014e-01 5.560604999999999576e-01 3.369150000000000489e+01 1.571965000000000146e+02 1.459029999999999973e+03
1.120000000000000023e-01 5.560420000000000362e-01 3.300630000000000308e+01 1.570660000000000025e+02 1.458985000000000127e+03
1.130000000000000032e-01 5.560220000000000162e-01 3.234000000000000341e+01 1.569345000000000141e+02 1.458944999999999936e+03
1.140000000000000041e-01 5.559990000000000210e-01 3.168975000000000009e+01 1.567980000000000018e+02 1.458894999999999982e+03
1.150000000000000050e-01 5.559715000000000629e-01 3.105214999999999748e+01 1.566514999999999986e+02 1.458849999999999909e+03
1.160000000000000059e-01 5.559395000000000309e-01 3.042325000000000301e+01 1.564900000000000091e+02 1.458789999999999964e+03
1.170000000000000068e-01 5.558999999999999497e-01 2.979919999999999902e+01 1.563064999999999998e+02 1.458735000000000127e+03
1.180000000000000077e-01 5.558520000000000127e-01 2.917589999999999861e+01 1.560960000000000036e+02 1.458664999999999964e+03
1.190000000000000085e-01 5.557950000000000390e-01 2.854959999999999809e+01 1.558524999999999920e+02 1.458585000000000036e+03
1.200000000000000094e-01 5.557279999999999998e-01 2.791664999999999708e+01 1.555709999999999980e+02 1.458500000000000000e+03
1.209999999999999964e-01 5.556495000000000184e-01 2.727424999999999855e+01 1.552475000000000023e+02 1.458400000000000091e+03
1.219999999999999973e-01 5.555590000000000250e-01 2.661990000000000123e+01 1.548785000000000025e+02 1.458284999999999854e+03
1.229999999999999982e-01 5.554565000000000197e-01 2.595179999999999865e+01 1.544629999999999939e+02 1.458155000000000200e+03
1.239999999999999991e-01 5.553424999999999612e-01 2.526919999999999789e+01 1.540000000000000000e+02 1.458009999999999991e+03
1.250000000000000000e-01 5.552169999999999606e-01 2.457169999999999987e+01 1.534890000000000043e+02 1.457849999999999909e+03
1.260000000000000009e-01 5.550810000000000466e-01 2.386009999999999920e+01 1.529339999999999975e+02 1.457679999999999836e+03
1.270000000000000018e-01 5.549344999999999972e-01 2.313575000000000159e+01 1.523369999999999891e+02 1.457494999999999891e+03
1.280000000000000027e-01 5.547794999999999810e-01 2.240075000000000216e+01 1.517030000000000030e+02 1.457295000000000073e+03
1.290000000000000036e-01 5.546179999999999444e-01 2.165810000000000102e+01 1.510380000000000109e+02 1.457085000000000036e+03
1.300000000000000044e-01 5.544504999999999573e-01 2.091124999999999901e+01 1.503480000000000132e+02 1.456875000000000000e+03
1.310000000000000053e-01 5.542804999999999538e-01 2.016410000000000124e+01 1.496410000000000196e+02 1.456644999999999982e+03
1.320000000000000062e-01 5.541085000000000038e-01 1.942099999999999937e+01 1.489244999999999948e+02 1.456420000000000073e+03
1.330000000000000071e-01 5.539374999999999716e-01 1.868665000000000020e+01 1.482069999999999936e+02 1.456190000000000055e+03
1.340000000000000080e-01 5.537684999999999969e-01 1.796580000000000155e+01 1.474964999999999975e+02 1.455960000000000036e+03
1.350000000000000089e-01 5.536045000000000549e-01 1.726304999999999978e+01 1.468015000000000043e+02 1.455730000000000018e+03
1.360000000000000098e-01 5.534459999999999935e-01 1.658310000000000173e+01 1.461295000000000073e+02 1.455509999999999991e+03
1.370000000000000107e-01 5.532960000000000100e-01 1.593019999999999925e+01 1.454884999999999877e+02 1.455300000000000182e+03
1.380000000000000115e-01 5.531550000000000633e-01 1.530815000000000126e+01 1.448835000000000264e+02 1.455090000000000146e+03
1.390000000000000124e-01 5.530249999999999888e-01 1.472039999999999971e+01 1.443204999999999814e+02 1.454900000000000091e+03
1.400000000000000133e-01 5.529064999999999674e-01 1.416959999999999908e+01 1.438045000000000186e+02 1.454724999999999909e+03
1.410000000000000142e-01 5.527999999999999581e-01 1.365791000000000111e+01 1.433379999999999939e+02 1.454559999999999945e+03
1.420000000000000151e-01 5.527059999999999196e-01 1.318665500000000179e+01 1.429230000000000018e+02 1.454409999999999854e+03
1.430000000000000160e-01 5.526244999999999630e-01 1.275643000000000171e+01 1.425604999999999905e+02 1.454275000000000091e+03
1.440000000000000169e-01 5.525545000000000595e-01 1.236717499999999959e+01 1.422495000000000118e+02 1.454159999999999854e+03
1.450000000000000178e-01 5.524970000000000159e-01 1.201808499999999924e+01 1.419884999999999877e+02 1.454054999999999836e+03
1.459999999999999909e-01 5.524499999999999966e-01 1.170769500000000107e+01 1.417755000000000223e+02 1.453974999999999909e+03
1.469999999999999918e-01 5.524124999999999730e-01 1.143408000000000158e+01 1.416055000000000064e+02 1.453900000000000091e+03
1.479999999999999927e-01 5.523839999999999861e-01 1.119483499999999943e+01 1.414744999999999777e+02 1.453840000000000146e+03
1.489999999999999936e-01 5.523635000000000073e-01 1.098705999999999960e+01 1.413779999999999859e+02 1.453789999999999964e+03
1.499999999999999944e-01 5.523485000000000200e-01 1.080777000000000143e+01 1.413109999999999786e+02 1.453755000000000109e+03
1.509999999999999953e-01 5.523390000000000244e-01 1.065372999999999948e+01 1.412674999999999841e+02 1.453724999999999909e+03
1.519999999999999962e-01 5.523335000000000328e-01 1.052167999999999992e+01 1.412429999999999950e+02 1.453704999999999927e+03
1.529999999999999971e-01 5.523299999999999876e-01 1.040844999999999843e+01 1.412314999999999827e+02 1.453690000000000055e+03
1.539999999999999980e-01 5.523279999999999301e-01 1.031089499999999859e+01 1.412295000000000016e+02 1.453675000000000182e+03
1.549999999999999989e-01 5.523274999999999713e-01 1.022610500000000044e+01 1.412309999999999945e+02 1.453664999999999964e+03
1.559999999999999998e-01 5.523265000000000535e-01 1.015143000000000129e+01 1.412344999999999970e+02 1.453659999999999854e+03
1.570000000000000007e-01 5.523244999999999960e-01 1.008448500000000081e+01 1.412355000000000018e+02 1.453654999999999973e+03
1.580000000000000016e-01 5.523209999999999509e-01 1.002304499999999976e+01 1.412319999999999993e+02 1.453644999999999982e+03
1.590000000000000024e-01 5.523160000000000291e-01 9.965399999999998926e+00 1.412214999999999918e+02 1.453634999999999991e+03
