# t [s], A [cm^2], U [cm/s], P [cPa], c [cm/s]
1.000000000000000021e-03 1.741659999999999875e-01 2.152315000000000200e-01 1.054550000000000125e+02 2.117164999999999964e+03
2.000000000000000042e-03 1.741285000000000194e-01 1.674950500000000009e+00 1.023226999999999975e+02 2.116835000000000036e+03
3.000000000000000062e-03 1.740114999999999856e-01 3.532884000000000135e+00 9.789990000000000236e+01 2.115885000000000218e+03
4.000000000000000083e-03 1.738454999999999862e-01 5.637149860000000068e+00 9.285464999999999236e+01 2.114559999999999945e+03
5.000000000000000104e-03 1.736610000000000098e-01 7.918370000000000353e+00 8.808709999999999241e+01 2.113090000000000146e+03
6.000000000000000125e-03 1.734785000000000077e-01 1.022999499999999884e+01 8.404410000000000025e+01 2.111659999999999854e+03
7.000000000000000146e-03 1.733075000000000032e-01 1.236012000000000022e+01 8.062415000000000020e+01 2.110340000000000146e+03
8.000000000000000167e-03 1.731485000000000107e-01 1.418038999999999916e+01 7.757804999999999040e+01 2.109130000000000109e+03
9.000000000000001055e-03 1.730059999999999931e-01 1.569749999999999979e+01 7.489185000000000514e+01 2.108074999999999818e+03
1.000000000000000194e-02 1.728850000000000109e-01 1.695054999999999978e+01 7.265810000000000457e+01 2.107180000000000291e+03
1.099999999999999936e-02 1.727849999999999941e-01 1.796189999999999998e+01 7.089499999999999602e+01 2.106454999999999927e+03
1.200000000000000025e-02 1.727059999999999984e-01 1.874739999999999895e+01 6.955734999999999957e+01 2.105880000000000109e+03
1.300000000000000114e-02 1.726440000000000197e-01 1.931334999999999980e+01 6.855330000000000723e+01 2.105449999999999818e+03
1.400000000000000203e-02 1.725949999999999984e-01 1.966259999999999764e+01 6.775220000000000198e+01 2.105109999999999673e+03
1.499999999999999944e-02 1.725559999999999872e-01 1.983210000000000051e+01 6.708050000000000068e+01 2.104850000000000364e+03
1.600000000000000033e-02 1.725280000000000147e-01 1.992150000000000176e+01 6.664085000000000036e+01 2.104670000000000073e+03
1.700000000000000122e-02 1.725164999999999893e-01 2.006909999999999883e+01 6.670859999999998990e+01 2.104599999999999909e+03
1.800000000000000211e-02 1.725295000000000023e-01 2.038844999999999885e+01 6.757649999999999579e+01 2.104704999999999927e+03
1.900000000000000300e-02 1.725710000000000022e-01 2.091120000000000090e+01 6.936015000000000441e+01 2.105015000000000327e+03
2.000000000000000042e-02 1.726384999999999725e-01 2.157244999999999990e+01 7.189414999999999623e+01 2.105514999999999873e+03
2.100000000000000130e-02 1.727225000000000010e-01 2.224080000000000013e+01 7.477020000000000266e+01 2.106144999999999982e+03
2.200000000000000219e-02 1.728105000000000058e-01 2.277189999999999870e+01 7.748104999999999620e+01 2.106809999999999945e+03
2.299999999999999961e-02 1.728899999999999881e-01 2.305975000000000108e+01 7.959190000000000964e+01 2.107414999999999964e+03
2.400000000000000050e-02 1.729505000000000070e-01 2.306605000000000061e+01 8.086750000000000682e+01 2.107889999999999873e+03
2.500000000000000139e-02 1.729895000000000183e-01 2.282169999999999987e+01 8.131434999999999036e+01 2.108199999999999818e+03
2.600000000000000228e-02 1.730074999999999807e-01 2.240375000000000227e+01 8.113535000000000252e+01 2.108355000000000018e+03
2.700000000000000316e-02 1.730114999999999847e-01 2.190059999999999718e+01 8.062545000000000073e+01 2.108399999999999636e+03
2.800000000000000058e-02 1.730069999999999941e-01 2.137900000000000134e+01 8.005429999999999779e+01 2.108375000000000000e+03
2.900000000000000147e-02 1.729999999999999871e-01 2.086550000000000082e+01 7.957935000000000514e+01 2.108324999999999818e+03
3.000000000000000236e-02 1.729930000000000079e-01 2.034505000000000052e+01 7.921439999999999770e+01 2.108275000000000091e+03
3.099999999999999978e-02 1.729839999999999989e-01 1.977599999999999980e+01 7.885499999999998977e+01 2.108204999999999927e+03
3.200000000000000067e-02 1.729709999999999859e-01 1.911260000000000048e+01 7.834344999999999004e+01 2.108109999999999673e+03
3.300000000000000155e-02 1.729495000000000060e-01 1.832860000000000156e+01 7.754779999999999518e+01 2.107965000000000146e+03
3.400000000000000244e-02 1.729189999999999894e-01 1.743335000000000079e+01 7.642754999999999654e+01 2.107744999999999891e+03
3.500000000000000333e-02 1.728800000000000059e-01 1.647619999999999862e+01 7.506659999999999400e+01 2.107460000000000036e+03
3.600000000000000422e-02 1.728365000000000040e-01 1.553764999999999930e+01 7.366315000000000168e+01 2.107144999999999982e+03
3.700000000000000511e-02 1.727954999999999908e-01 1.471030000000000015e+01 7.248050000000000637e+01 2.106840000000000146e+03
3.799999999999999906e-02 1.727650000000000019e-01 1.407574999999999932e+01 7.177630000000000621e+01 2.106605000000000018e+03
3.899999999999999994e-02 1.727505000000000013e-01 1.368440000000000012e+01 7.173250000000000171e+01 2.106480000000000018e+03
4.000000000000000083e-02 1.727559999999999929e-01 1.354455000000000098e+01 7.240770000000000550e+01 2.106510000000000218e+03
4.100000000000000172e-02 1.727825000000000055e-01 1.362160000000000082e+01 7.372270000000000323e+01 2.106690000000000055e+03
4.200000000000000261e-02 1.728254999999999930e-01 1.384740000000000038e+01 7.548024999999999807e+01 2.107000000000000000e+03
4.300000000000000350e-02 1.728800000000000059e-01 1.413494999999999990e+01 7.740949999999999420e+01 2.107389999999999873e+03
4.400000000000000439e-02 1.729370000000000074e-01 1.439494999999999969e+01 7.922084999999999866e+01 2.107809999999999945e+03
4.499999999999999833e-02 1.729884999999999895e-01 1.454984999999999928e+01 8.065684999999999150e+01 2.108195000000000164e+03
4.599999999999999922e-02 1.730285000000000017e-01 1.454340000000000011e+01 8.152984999999999616e+01 2.108494999999999891e+03
4.700000000000000011e-02 1.730510000000000104e-01 1.434420000000000073e+01 8.173994999999999322e+01 2.108675000000000182e+03
4.800000000000000100e-02 1.730539999999999856e-01 1.394454999999999956e+01 8.127325000000000443e+01 2.108704999999999927e+03
4.900000000000000189e-02 1.730365000000000097e-01 1.335484999999999900e+01 8.018569999999999709e+01 2.108585000000000036e+03
5.000000000000000278e-02 1.730005000000000015e-01 1.259755000000000003e+01 7.857785000000001219e+01 2.108329999999999927e+03
5.100000000000000366e-02 1.729485000000000050e-01 1.170021000000000022e+01 7.656895000000000095e+01 2.107945000000000164e+03
5.200000000000000455e-02 1.728830000000000089e-01 1.069134999999999991e+01 7.427629999999999200e+01 2.107465000000000146e+03
5.300000000000000544e-02 1.728084999999999760e-01 9.597675000000000622e+00 7.180204999999999416e+01 2.106914999999999964e+03
5.399999999999999939e-02 1.727265000000000050e-01 8.444375000000000853e+00 6.922990000000000066e+01 2.106305000000000291e+03
5.500000000000000028e-02 1.726400000000000157e-01 7.256075000000000053e+00 6.662854999999998995e+01 2.105664999999999964e+03
5.600000000000000117e-02 1.725520000000000109e-01 6.058969999999999523e+00 6.405889999999999418e+01 2.105005000000000109e+03
5.700000000000000205e-02 1.724640000000000062e-01 4.882729999999999571e+00 6.158299999999999841e+01 2.104355000000000018e+03
5.800000000000000294e-02 1.723795000000000188e-01 3.761180000000000412e+00 5.927009999999999934e+01 2.103720000000000255e+03
5.900000000000000383e-02 1.723000000000000087e-01 2.732136499999999746e+00 5.719984999999999786e+01 2.103119999999999891e+03
6.000000000000000472e-02 1.722294999999999798e-01 1.835962499999999942e+00 5.546059999999999945e+01 2.102590000000000146e+03
6.099999999999999867e-02 1.721699999999999897e-01 1.113168000000000157e+00 5.414484999999999815e+01 2.102135000000000218e+03
6.199999999999999956e-02 1.721254999999999868e-01 6.015205000000000135e-01 5.334120000000000061e+01 2.101795000000000073e+03
6.300000000000000044e-02 1.720984999999999876e-01 3.331284999999999941e-01 5.312635000000000218e+01 2.101579999999999927e+03
6.400000000000000133e-02 1.720915000000000084e-01 3.319199999999999928e-01 5.355705000000000382e+01 2.101510000000000218e+03
6.500000000000000222e-02 1.721064999999999956e-01 6.118502999999999581e-01 5.466474999999999795e+01 2.101600000000000364e+03
6.600000000000000311e-02 1.721435000000000048e-01 1.176016500000000020e+00 5.645215000000000316e+01 2.101855000000000018e+03
6.700000000000000400e-02 1.722035000000000093e-01 2.016631049999999981e+00 5.889345000000000141e+01 2.102284999999999854e+03
6.800000000000000488e-02 1.722855000000000081e-01 3.115874999999999950e+00 6.193629999999999569e+01 2.102880000000000109e+03
6.900000000000000577e-02 1.723879999999999857e-01 4.447314999999999685e+00 6.550669999999999504e+01 2.103625000000000000e+03
7.000000000000000666e-02 1.725079999999999947e-01 5.977809999999999846e+00 6.951479999999999393e+01 2.104505000000000109e+03
7.100000000000000755e-02 1.726429999999999909e-01 7.669715000000000060e+00 7.386140000000000327e+01 2.105500000000000000e+03
7.200000000000000844e-02 1.727899999999999991e-01 9.483055000000000234e+00 7.844495000000000573e+01 2.106590000000000146e+03
7.300000000000000933e-02 1.729455000000000020e-01 1.137805999999999962e+01 8.316785000000000139e+01 2.107744999999999891e+03
7.399999999999999634e-02 1.731070000000000109e-01 1.331683500000000109e+01 8.794200000000000728e+01 2.108949999999999818e+03
7.499999999999999722e-02 1.732710000000000083e-01 1.526539999999999964e+01 9.269350000000000023e+01 2.110184999999999945e+03
7.599999999999999811e-02 1.734359999999999791e-01 1.719490000000000052e+01 9.736580000000000723e+01 2.111420000000000073e+03
7.699999999999999900e-02 1.735984999999999889e-01 1.908210000000000051e+01 1.019196000000000026e+02 2.112650000000000091e+03
7.799999999999999989e-02 1.737595000000000112e-01 2.091000000000000014e+01 1.063346499999999963e+02 2.113859999999999673e+03
7.900000000000000078e-02 1.739160000000000150e-01 2.266720000000000113e+01 1.106059999999999945e+02 2.115055000000000291e+03
8.000000000000000167e-02 1.740690000000000015e-01 2.434705000000000297e+01 1.147399999999999949e+02 2.116215000000000146e+03
8.100000000000000255e-02 1.742184999999999984e-01 2.594660000000000011e+01 1.187530000000000001e+02 2.117349999999999909e+03
8.200000000000000344e-02 1.743644999999999778e-01 2.746569999999999823e+01 1.226630000000000109e+02 2.118465000000000146e+03
8.300000000000000433e-02 1.745069999999999955e-01 2.890555000000000163e+01 1.264904999999999973e+02 2.119554999999999836e+03
8.400000000000000522e-02 1.746475000000000111e-01 3.026754999999999995e+01 1.302495000000000118e+02 2.120630000000000109e+03
8.500000000000000611e-02 1.747854999999999825e-01 3.155310000000000059e+01 1.339504999999999768e+02 2.121684999999999945e+03
8.600000000000000699e-02 1.749220000000000219e-01 3.276265000000000072e+01 1.375970000000000084e+02 2.122730000000000018e+03
8.700000000000000788e-02 1.750555000000000028e-01 3.389565000000000339e+01 1.411859999999999786e+02 2.123755000000000109e+03
8.800000000000000877e-02 1.751874999999999960e-01 3.495040000000000191e+01 1.447065000000000055e+02 2.124769999999999982e+03
8.899999999999999578e-02 1.753170000000000006e-01 3.592435000000000400e+01 1.481459999999999866e+02 2.125764999999999873e+03
8.999999999999999667e-02 1.754434999999999745e-01 3.681400000000000006e+01 1.514855000000000018e+02 2.126735000000000127e+03
9.099999999999999756e-02 1.755670000000000008e-01 3.761530000000000484e+01 1.547049999999999841e+02 2.127680000000000291e+03
9.199999999999999845e-02 1.756849999999999801e-01 3.832354999999999734e+01 1.577825000000000273e+02 2.128595000000000255e+03
9.299999999999999933e-02 1.757984999999999964e-01 3.893389999999999418e+01 1.606955000000000098e+02 2.129470000000000255e+03
9.400000000000000022e-02 1.759060000000000068e-01 3.944115000000000038e+01 1.634234999999999900e+02 2.130300000000000182e+03
9.500000000000000111e-02 1.760074999999999834e-01 3.984019999999999584e+01 1.659430000000000121e+02 2.131085000000000036e+03
9.600000000000000200e-02 1.761010000000000075e-01 4.012614999999999554e+01 1.682355000000000018e+02 2.131815000000000055e+03
9.700000000000000289e-02 1.761865000000000236e-01 4.029460000000000264e+01 1.702819999999999823e+02 2.132480000000000018e+03
9.800000000000000377e-02 1.762635000000000174e-01 4.034205000000000041e+01 1.720674999999999955e+02 2.133074999999999818e+03
9.900000000000000466e-02 1.763319999999999887e-01 4.026624999999999943e+01 1.735805000000000007e+02 2.133609999999999673e+03
1.000000000000000056e-01 1.763899999999999912e-01 4.006664999999999566e+01 1.748125000000000000e+02 2.134064999999999600e+03
1.010000000000000064e-01 1.764384999999999981e-01 3.974460000000000548e+01 1.757634999999999934e+02 2.134449999999999818e+03
1.020000000000000073e-01 1.764769999999999950e-01 3.930365000000000464e+01 1.764350000000000023e+02 2.134760000000000218e+03
1.030000000000000082e-01 1.765059999999999962e-01 3.874974999999999881e+01 1.768385000000000105e+02 2.134989999999999782e+03
1.040000000000000091e-01 1.765249999999999875e-01 3.809109999999999729e+01 1.769909999999999854e+02 2.135150000000000091e+03
1.050000000000000100e-01 1.765359999999999985e-01 3.733820000000000050e+01 1.769134999999999991e+02 2.135239999999999782e+03
1.059999999999999970e-01 1.765384999999999871e-01 3.650319999999999965e+01 1.766334999999999980e+02 2.135275000000000091e+03
1.069999999999999979e-01 1.765335000000000099e-01 3.559975000000000023e+01 1.761804999999999950e+02 2.135239999999999782e+03
1.079999999999999988e-01 1.765229999999999855e-01 3.464229999999999876e+01 1.755875000000000057e+02 2.135170000000000073e+03
1.089999999999999997e-01 1.765065000000000106e-01 3.364560000000000173e+01 1.748865000000000123e+02 2.135050000000000182e+03
1.100000000000000006e-01 1.764864999999999906e-01 3.262415000000000020e+01 1.741094999999999970e+02 2.134900000000000091e+03
1.110000000000000014e-01 1.764629999999999810e-01 3.159165000000000134e+01 1.732855000000000132e+02 2.134724999999999909e+03
1.120000000000000023e-01 1.764374999999999971e-01 3.056069999999999709e+01 1.724404999999999859e+02 2.134534999999999854e+03
1.130000000000000032e-01 1.764110000000000122e-01 2.954214999999999947e+01 1.715955000000000155e+02 2.134329999999999927e+03
1.140000000000000041e-01 1.763839999999999852e-01 2.854504999999999981e+01 1.707674999999999841e+02 2.134119999999999891e+03
1.150000000000000050e-01 1.763564999999999994e-01 2.757629999999999981e+01 1.699675000000000011e+02 2.133909999999999854e+03
1.160000000000000059e-01 1.763299999999999867e-01 2.664079999999999870e+01 1.692024999999999864e+02 2.133710000000000036e+03
1.170000000000000068e-01 1.763039999999999885e-01 2.574105000000000132e+01 1.684724999999999966e+02 2.133505000000000109e+03
1.180000000000000077e-01 1.762789999999999913e-01 2.487744999999999962e+01 1.677744999999999891e+02 2.133310000000000400e+03
1.190000000000000085e-01 1.762544999999999806e-01 2.404860000000000042e+01 1.671000000000000227e+02 2.133119999999999891e+03
1.200000000000000094e-01 1.762299999999999978e-01 2.325115000000000265e+01 1.664379999999999882e+02 2.132925000000000182e+03
1.209999999999999964e-01 1.762064999999999881e-01 2.248045000000000115e+01 1.657749999999999773e+02 2.132739999999999782e+03
1.219999999999999973e-01 1.761820000000000053e-01 2.173075000000000045e+01 1.650939999999999941e+02 2.132550000000000182e+03
1.229999999999999982e-01 1.761564999999999936e-01 2.099540000000000006e+01 1.643795000000000073e+02 2.132355000000000018e+03
1.239999999999999991e-01 1.761300000000000088e-01 2.026769999999999783e+01 1.636134999999999877e+02 2.132150000000000091e+03
1.250000000000000000e-01 1.761020000000000085e-01 1.954104999999999848e+01 1.627814999999999941e+02 2.131934999999999945e+03
1.260000000000000009e-01 1.760710000000000053e-01 1.880915000000000248e+01 1.618695000000000164e+02 2.131695000000000164e+03
1.270000000000000018e-01 1.760375000000000134e-01 1.806674999999999898e+01 1.608665000000000020e+02 2.131440000000000055e+03
1.280000000000000027e-01 1.760010000000000185e-01 1.730984999999999729e+01 1.597665000000000077e+02 2.131154999999999745e+03
1.290000000000000036e-01 1.759614999999999929e-01 1.653580000000000183e+01 1.585660000000000025e+02 2.130850000000000364e+03
1.300000000000000044e-01 1.759180000000000188e-01 1.574375000000000036e+01 1.572665000000000077e+02 2.130519999999999982e+03
1.310000000000000053e-01 1.758715000000000139e-01 1.493469999999999942e+01 1.558745000000000118e+02 2.130164999999999964e+03
1.320000000000000062e-01 1.758215000000000194e-01 1.411135000000000161e+01 1.544000000000000057e+02 2.129784999999999854e+03
1.330000000000000071e-01 1.757690000000000086e-01 1.327815000000000012e+01 1.528584999999999923e+02 2.129390000000000327e+03
1.340000000000000080e-01 1.757144999999999957e-01 1.244120000000000026e+01 1.512685000000000173e+02 2.128970000000000255e+03
1.350000000000000089e-01 1.756579999999999808e-01 1.160792499999999983e+01 1.496514999999999986e+02 2.128539999999999964e+03
1.360000000000000098e-01 1.756010000000000071e-01 1.078655499999999989e+01 1.480314999999999941e+02 2.128100000000000364e+03
1.370000000000000107e-01 1.755434999999999912e-01 9.986010000000000275e+00 1.464314999999999998e+02 2.127664999999999964e+03
1.380000000000000115e-01 1.754870000000000041e-01 9.215279999999999916e+00 1.448764999999999930e+02 2.127235000000000127e+03
1.390000000000000124e-01 1.754319999999999768e-01 8.483084999999999098e+00 1.433884999999999934e+02 2.126805000000000291e+03
1.400000000000000133e-01 1.753790000000000071e-01 7.797425000000000495e+00 1.419875000000000114e+02 2.126400000000000091e+03
1.410000000000000142e-01 1.753290000000000126e-01 7.165195000000000647e+00 1.406904999999999859e+02 2.126015000000000327e+03
1.420000000000000151e-01 1.752819999999999934e-01 6.591965000000000074e+00 1.395110000000000241e+02 2.125654999999999745e+03
1.430000000000000160e-01 1.752394999999999925e-01 6.081725000000000492e+00 1.384565000000000055e+02 2.125324999999999818e+03
1.440000000000000169e-01 1.752009999999999956e-01 5.636824999999999974e+00 1.375324999999999989e+02 2.125024999999999636e+03
1.450000000000000178e-01 1.751665000000000028e-01 5.257920000000000371e+00 1.367384999999999877e+02 2.124755000000000109e+03
1.459999999999999909e-01 1.751360000000000139e-01 4.944069999999999965e+00 1.360699999999999932e+02 2.124525000000000091e+03
1.469999999999999918e-01 1.751105000000000023e-01 4.692849999999999966e+00 1.355210000000000150e+02 2.124324999999999818e+03
1.479999999999999927e-01 1.750889999999999946e-01 4.500560000000000116e+00 1.350799999999999841e+02 2.124149999999999636e+03
1.489999999999999936e-01 1.750710000000000044e-01 4.362434999999999619e+00 1.347355000000000018e+02 2.124010000000000218e+03
1.499999999999999944e-01 1.750559999999999894e-01 4.272910000000000430e+00 1.344744999999999777e+02 2.123890000000000327e+03
1.509999999999999953e-01 1.750444999999999918e-01 4.225844999999999629e+00 1.342820000000000107e+02 2.123795000000000073e+03
1.519999999999999962e-01 1.750355000000000105e-01 4.214800000000000324e+00 1.341444999999999936e+02 2.123720000000000255e+03
1.529999999999999971e-01 1.750280000000000169e-01 4.233254999999999768e+00 1.340484999999999900e+02 2.123659999999999854e+03
1.539999999999999980e-01 1.750224999999999975e-01 4.274789999999999424e+00 1.339795000000000016e+02 2.123614999999999782e+03
1.549999999999999989e-01 1.750174999999999925e-01 4.333309999999999995e+00 1.339269999999999925e+02 2.123574999999999818e+03
1.559999999999999998e-01 1.750140000000000029e-01 4.403169999999999362e+00 1.338804999999999836e+02 2.123545000000000073e+03
1.570000000000000007e-01 1.750105000000000133e-01 4.479284999999999961e+00 1.338310000000000173e+02 2.123514999999999873e+03
1.580000000000000016e-01 1.750074999999999825e-01 4.557259999999999422e+00 1.337724999999999795e+02 2.123489999999999782e+03
1.590000000000000024e-01 1.750039999999999929e-01 4.633395000000000152e+00 1.336990000000000123e+02 2.123465000000000146e+03
