# t [s], A [cm^2], U [cm/s], P [cPa], c [cm/s]
1.000000000000000021e-03 1.263880000000000003e-01 3.405384999999999662e-01 9.892189999999999372e+01 2.005414999999999964e+03
2.000000000000000042e-03 1.263584999999999847e-01 1.907924999999999871e+00 9.560330000000000439e+01 2.004994999999999891e+03
3.000000000000000062e-03 1.262695000000000067e-01 3.826010499999999759e+00 9.113615000000000066e+01 2.003809999999999945e+03
4.000000000000000083e-03 1.261430000000000051e-01 5.967915500000000151e+00 8.628520000000000323e+01 2.002159999999999854e+03
5.000000000000000104e-03 1.260040000000000049e-01 8.265935000000000699e+00 8.189779999999998950e+01 2.000355000000000018e+03
6.000000000000000125e-03 1.258675000000000210e-01 1.056229499999999888e+01 7.827875000000000227e+01 1.998605000000000018e+03
7.000000000000000146e-03 1.257375000000000020e-01 1.265610999999999997e+01 7.521860000000000923e+01 1.996970000000000027e+03
8.000000000000000167e-03 1.256170000000000064e-01 1.445215499999999942e+01 7.246490000000000009e+01 1.995474999999999909e+03
9.000000000000001055e-03 1.255090000000000094e-01 1.597605000000000075e+01 7.002649999999999864e+01 1.994150000000000091e+03
1.000000000000000194e-02 1.254144999999999843e-01 1.726490000000000080e+01 6.798269999999999413e+01 1.993009999999999991e+03
1.099999999999999936e-02 1.253354999999999886e-01 1.833399999999999963e+01 6.632540000000000191e+01 1.992059999999999945e+03
1.200000000000000025e-02 1.252705000000000068e-01 1.919570000000000221e+01 6.500114999999999554e+01 1.991289999999999964e+03
1.300000000000000114e-02 1.252169999999999950e-01 1.985604999999999976e+01 6.393135000000000190e+01 1.990670000000000073e+03
1.400000000000000203e-02 1.251730000000000065e-01 2.031895000000000095e+01 6.301050000000000040e+01 1.990164999999999964e+03
1.499999999999999944e-02 1.251359999999999972e-01 2.062109999999999843e+01 6.218915000000000504e+01 1.989744999999999891e+03
1.600000000000000033e-02 1.251059999999999950e-01 2.085944999999999894e+01 6.158485000000000298e+01 1.989414999999999964e+03
1.700000000000000122e-02 1.250890000000000057e-01 2.116854999999999976e+01 6.147724999999999795e+01 1.989230000000000018e+03
1.800000000000000211e-02 1.250894999999999924e-01 2.165765000000000029e+01 6.215704999999999814e+01 1.989250000000000000e+03
1.900000000000000300e-02 1.251124999999999876e-01 2.235324999999999918e+01 6.373369999999999891e+01 1.989529999999999973e+03
2.000000000000000042e-02 1.251559999999999895e-01 2.318294999999999817e+01 6.603215000000000146e+01 1.990055000000000064e+03
2.100000000000000130e-02 1.252135000000000054e-01 2.400479999999999947e+01 6.863030000000000541e+01 1.990750000000000000e+03
2.200000000000000219e-02 1.252745000000000108e-01 2.466205000000000069e+01 7.100380000000001246e+01 1.991500000000000000e+03
2.299999999999999961e-02 1.253285000000000093e-01 2.503770000000000095e+01 7.270305000000000462e+01 1.992175000000000182e+03
2.400000000000000050e-02 1.253670000000000062e-01 2.508765000000000001e+01 7.348704999999999643e+01 1.992670000000000073e+03
2.500000000000000139e-02 1.253869999999999985e-01 2.484495000000000076e+01 7.337260000000000559e+01 1.992940000000000055e+03
2.600000000000000228e-02 1.253890000000000005e-01 2.439744999999999919e+01 7.259094999999999231e+01 1.992994999999999891e+03
2.700000000000000316e-02 1.253785000000000038e-01 2.385110000000000241e+01 7.148050000000000637e+01 1.992884999999999991e+03
2.800000000000000058e-02 1.253615000000000146e-01 2.329359999999999786e+01 7.036185000000000400e+01 1.992690000000000055e+03
2.900000000000000147e-02 1.253430000000000100e-01 2.277130000000000010e+01 6.944140000000000157e+01 1.992470000000000027e+03
3.000000000000000236e-02 1.253259999999999930e-01 2.228430000000000177e+01 6.877029999999999177e+01 1.992269999999999982e+03
3.099999999999999978e-02 1.253120000000000067e-01 2.179795000000000016e+01 6.826210000000000377e+01 1.992094999999999800e+03
3.200000000000000067e-02 1.252980000000000205e-01 2.126409999999999911e+01 6.775350000000000250e+01 1.991925000000000182e+03
3.300000000000000155e-02 1.252814999999999901e-01 2.064524999999999721e+01 6.708164999999999623e+01 1.991724999999999909e+03
3.400000000000000244e-02 1.252594999999999958e-01 1.993240000000000123e+01 6.615349999999999397e+01 1.991470000000000027e+03
3.500000000000000333e-02 1.252324999999999966e-01 1.915379999999999683e+01 6.498779999999999291e+01 1.991150000000000091e+03
3.600000000000000422e-02 1.252020000000000077e-01 1.837144999999999939e+01 6.371909999999999741e+01 1.990779999999999973e+03
3.700000000000000511e-02 1.251704999999999901e-01 1.766659999999999897e+01 6.256369999999999720e+01 1.990400000000000091e+03
3.799999999999999906e-02 1.251434999999999909e-01 1.711965000000000003e+01 6.176115000000000066e+01 1.990069999999999936e+03
3.899999999999999994e-02 1.251265000000000016e-01 1.678969999999999985e+01 6.150719999999999743e+01 1.989855000000000018e+03
4.000000000000000083e-02 1.251220000000000110e-01 1.669995000000000118e+01 6.190094999999999459e+01 1.989799999999999955e+03
4.100000000000000172e-02 1.251335000000000086e-01 1.683249999999999957e+01 6.291745000000000232e+01 1.989910000000000082e+03
4.200000000000000261e-02 1.251585000000000059e-01 1.713204999999999956e+01 6.441214999999999691e+01 1.990200000000000045e+03
4.300000000000000350e-02 1.251939999999999997e-01 1.751774999999999949e+01 6.615144999999999698e+01 1.990610000000000127e+03
4.400000000000000439e-02 1.252334999999999976e-01 1.789759999999999707e+01 6.785935000000000628e+01 1.991090000000000146e+03
4.499999999999999833e-02 1.252725000000000088e-01 1.818420000000000059e+01 6.926734999999999332e+01 1.991554999999999836e+03
4.599999999999999922e-02 1.253039999999999987e-01 1.830630000000000024e+01 7.015675000000000239e+01 1.991940000000000055e+03
4.700000000000000011e-02 1.253235000000000043e-01 1.821640000000000015e+01 7.038599999999999568e+01 1.992184999999999945e+03
4.800000000000000100e-02 1.253275000000000083e-01 1.789304999999999879e+01 6.990055000000000973e+01 1.992244999999999891e+03
4.900000000000000189e-02 1.253150000000000097e-01 1.733855000000000146e+01 6.872615000000000407e+01 1.992105000000000018e+03
5.000000000000000278e-02 1.252860000000000085e-01 1.657390000000000185e+01 6.695095000000000596e+01 1.991764999999999873e+03
5.100000000000000366e-02 1.252419999999999922e-01 1.563250000000000028e+01 6.470154999999999745e+01 1.991240000000000009e+03
5.200000000000000455e-02 1.251855000000000051e-01 1.455414999999999992e+01 6.211974999999999625e+01 1.990565000000000055e+03
5.300000000000000544e-02 1.251200000000000090e-01 1.338076000000000043e+01 5.934479999999999933e+01 1.989779999999999973e+03
5.399999999999999939e-02 1.250485000000000069e-01 1.215358499999999964e+01 5.650234999999999985e+01 1.988914999999999964e+03
5.500000000000000028e-02 1.249734999999999874e-01 1.091255999999999915e+01 5.370139999999999958e+01 1.988005000000000109e+03
5.600000000000000117e-02 1.248984999999999956e-01 9.696674999999999045e+00 5.103614999999999924e+01 1.987094999999999800e+03
5.700000000000000205e-02 1.248254999999999920e-01 8.544964999999999478e+00 4.859154999999999802e+01 1.986215000000000146e+03
5.800000000000000294e-02 1.247574999999999934e-01 7.497080000000000410e+00 4.644839999999999947e+01 1.985389999999999873e+03
5.900000000000000383e-02 1.246970000000000023e-01 6.593404999999999738e+00 4.468750000000000000e+01 1.984650000000000091e+03
6.000000000000000472e-02 1.246464999999999934e-01 5.874315000000000175e+00 4.339034999999999798e+01 1.984029999999999973e+03
6.099999999999999867e-02 1.246074999999999960e-01 5.378569999999999851e+00 4.263710000000000377e+01 1.983550000000000182e+03
6.199999999999999956e-02 1.245840000000000003e-01 5.141130000000000422e+00 4.250155000000000172e+01 1.983240000000000009e+03
6.300000000000000044e-02 1.245759999999999923e-01 5.190799999999999415e+00 4.304560000000000031e+01 1.983134999999999991e+03
6.400000000000000133e-02 1.245870000000000033e-01 5.548045000000000115e+00 4.431265000000000498e+01 1.983240000000000009e+03
6.500000000000000222e-02 1.246170000000000055e-01 6.223349999999999937e+00 4.632280000000000086e+01 1.983585000000000036e+03
6.600000000000000311e-02 1.246670000000000000e-01 7.216319999999999624e+00 4.906985000000000241e+01 1.984170000000000073e+03
6.700000000000000400e-02 1.247375000000000012e-01 8.515644999999999243e+00 5.252100000000000080e+01 1.985000000000000000e+03
6.800000000000000488e-02 1.248275000000000079e-01 1.009994000000000014e+01 5.661844999999999573e+01 1.986065000000000055e+03
6.900000000000000577e-02 1.249349999999999905e-01 1.193898500000000062e+01 6.128374999999999773e+01 1.987349999999999909e+03
7.000000000000000666e-02 1.250590000000000035e-01 1.399579999999999913e+01 6.642269999999999186e+01 1.988835000000000036e+03
7.100000000000000755e-02 1.251964999999999884e-01 1.622865000000000180e+01 7.193189999999999884e+01 1.990494999999999891e+03
7.200000000000000844e-02 1.253450000000000120e-01 1.859329999999999927e+01 7.770470000000000255e+01 1.992299999999999955e+03
7.300000000000000933e-02 1.255024999999999891e-01 2.104554999999999865e+01 8.363724999999999454e+01 1.994210000000000036e+03
7.399999999999999634e-02 1.256659999999999999e-01 2.354269999999999996e+01 8.963370000000000459e+01 1.996199999999999818e+03
7.499999999999999722e-02 1.258319999999999994e-01 2.604605000000000103e+01 9.561060000000000514e+01 1.998240000000000009e+03
7.599999999999999811e-02 1.260000000000000009e-01 2.852179999999999893e+01 1.015013999999999896e+02 2.000299999999999955e+03
7.699999999999999900e-02 1.261665000000000147e-01 3.094270000000000209e+01 1.072555499999999995e+02 2.002355000000000018e+03
7.799999999999999989e-02 1.263309999999999989e-01 3.328829999999999956e+01 1.128435000000000059e+02 2.004389999999999873e+03
7.900000000000000078e-02 1.264919999999999933e-01 3.554519999999999413e+01 1.182530000000000001e+02 2.006394999999999982e+03
8.000000000000000167e-02 1.266500000000000126e-01 3.770674999999999955e+01 1.234879999999999995e+02 2.008360000000000127e+03
8.100000000000000255e-02 1.268035000000000134e-01 3.977190000000000225e+01 1.285639999999999930e+02 2.010280000000000200e+03
8.200000000000000344e-02 1.269540000000000113e-01 4.174405000000000143e+01 1.335080000000000098e+02 2.012164999999999964e+03
8.300000000000000433e-02 1.271015000000000061e-01 4.362989999999999924e+01 1.383500000000000227e+02 2.014009999999999991e+03
8.400000000000000522e-02 1.272459999999999980e-01 4.543760000000000332e+01 1.431210000000000093e+02 2.015835000000000036e+03
8.500000000000000611e-02 1.273885000000000156e-01 4.717544999999999789e+01 1.478464999999999918e+02 2.017630000000000109e+03
8.600000000000000699e-02 1.275300000000000045e-01 4.885074999999999790e+01 1.525470000000000255e+02 2.019414999999999964e+03
8.700000000000000788e-02 1.276705000000000201e-01 5.046860000000000213e+01 1.572339999999999804e+02 2.021190000000000055e+03
8.800000000000000877e-02 1.278104999999999936e-01 5.203164999999999907e+01 1.619069999999999823e+02 2.022954999999999927e+03
8.899999999999999578e-02 1.279494999999999938e-01 5.353914999999999935e+01 1.665554999999999950e+02 2.024720000000000027e+03
8.999999999999999667e-02 1.280879999999999797e-01 5.498754999999999882e+01 1.711619999999999777e+02 2.026470000000000027e+03
9.099999999999999756e-02 1.282244999999999913e-01 5.637049999999999983e+01 1.756974999999999909e+02 2.028204999999999927e+03
9.199999999999999845e-02 1.283590000000000009e-01 5.767905000000000371e+01 1.801285000000000025e+02 2.029914999999999964e+03
9.299999999999999933e-02 1.284899999999999931e-01 5.890259999999999962e+01 1.844180000000000064e+02 2.031590000000000146e+03
9.400000000000000022e-02 1.286174999999999957e-01 6.002944999999999709e+01 1.885260000000000105e+02 2.033215000000000146e+03
9.500000000000000111e-02 1.287395000000000067e-01 6.104729999999999990e+01 1.924124999999999943e+02 2.034775000000000091e+03
9.600000000000000200e-02 1.288555000000000117e-01 6.194419999999999504e+01 1.960420000000000016e+02 2.036264999999999873e+03
9.700000000000000289e-02 1.289645000000000097e-01 6.270904999999999774e+01 1.993789999999999907e+02 2.037664999999999964e+03
9.800000000000000377e-02 1.290654999999999997e-01 6.333225000000000193e+01 2.023960000000000150e+02 2.038964999999999918e+03
9.900000000000000466e-02 1.291574999999999807e-01 6.380615000000000236e+01 2.050704999999999814e+02 2.040154999999999973e+03
1.000000000000000056e-01 1.292405000000000082e-01 6.412550000000000239e+01 2.073880000000000052e+02 2.041230000000000018e+03
1.010000000000000064e-01 1.293134999999999979e-01 6.428785000000000593e+01 2.093385000000000105e+02 2.042179999999999836e+03
1.020000000000000073e-01 1.293769999999999920e-01 6.429370000000000118e+01 2.109240000000000066e+02 2.043000000000000000e+03
1.030000000000000082e-01 1.294295000000000029e-01 6.414670000000000982e+01 2.121499999999999773e+02 2.043690000000000055e+03
1.040000000000000091e-01 1.294720000000000037e-01 6.385354999999999848e+01 2.130324999999999989e+02 2.044260000000000218e+03
1.050000000000000100e-01 1.295049999999999812e-01 6.342395000000000493e+01 2.135935000000000059e+02 2.044694999999999936e+03
1.059999999999999970e-01 1.295295000000000196e-01 6.287019999999999698e+01 2.138605000000000018e+02 2.045019999999999982e+03
1.069999999999999979e-01 1.295445000000000069e-01 6.220680000000000121e+01 2.138675000000000068e+02 2.045230000000000018e+03
1.079999999999999988e-01 1.295525000000000149e-01 6.144999999999999574e+01 2.136505000000000223e+02 2.045345000000000027e+03
1.089999999999999997e-01 1.295540000000000025e-01 6.061714999999999520e+01 2.132495000000000118e+02 2.045370000000000118e+03
1.100000000000000006e-01 1.295489999999999975e-01 5.972589999999999577e+01 2.127024999999999864e+02 2.045325000000000045e+03
1.110000000000000014e-01 1.295399999999999885e-01 5.879384999999999906e+01 2.120484999999999900e+02 2.045215000000000146e+03
1.120000000000000023e-01 1.295270000000000032e-01 5.783750000000000568e+01 2.113229999999999791e+02 2.045059999999999945e+03
1.130000000000000032e-01 1.295115000000000016e-01 5.687214999999999776e+01 2.105579999999999927e+02 2.044864999999999782e+03
1.140000000000000041e-01 1.294939999999999980e-01 5.591110000000000468e+01 2.097800000000000011e+02 2.044644999999999982e+03
1.150000000000000050e-01 1.294754999999999934e-01 5.496529999999999916e+01 2.090104999999999791e+02 2.044409999999999854e+03
1.160000000000000059e-01 1.294565000000000021e-01 5.404335000000000377e+01 2.082649999999999864e+02 2.044164999999999964e+03
1.170000000000000068e-01 1.294375000000000109e-01 5.315104999999999791e+01 2.075529999999999973e+02 2.043920000000000073e+03
1.180000000000000077e-01 1.294190000000000063e-01 5.229155000000000086e+01 2.068764999999999930e+02 2.043679999999999836e+03
1.190000000000000085e-01 1.294005000000000016e-01 5.146545000000000414e+01 2.062344999999999970e+02 2.043444999999999936e+03
1.200000000000000094e-01 1.293825000000000114e-01 5.067094999999999771e+01 2.056179999999999950e+02 2.043210000000000036e+03
1.209999999999999964e-01 1.293650000000000078e-01 4.990409999999999968e+01 2.050160000000000196e+02 2.042980000000000018e+03
1.219999999999999973e-01 1.293475000000000041e-01 4.915925000000000011e+01 2.044124999999999943e+02 2.042755000000000109e+03
1.229999999999999982e-01 1.293300000000000005e-01 4.842934999999999945e+01 2.037895000000000039e+02 2.042519999999999982e+03
1.239999999999999991e-01 1.293114999999999959e-01 4.770664999999999623e+01 2.031295000000000073e+02 2.042285000000000082e+03
1.250000000000000000e-01 1.292920000000000180e-01 4.698284999999999911e+01 2.024125000000000227e+02 2.042034999999999854e+03
1.260000000000000009e-01 1.292705000000000104e-01 4.624980000000000047e+01 2.016200000000000045e+02 2.041760000000000218e+03
1.270000000000000018e-01 1.292480000000000018e-01 4.549985000000000213e+01 2.007365000000000066e+02 2.041460000000000036e+03
1.280000000000000027e-01 1.292220000000000035e-01 4.472634999999999650e+01 1.997485000000000070e+02 2.041130000000000109e+03
1.290000000000000036e-01 1.291934999999999889e-01 4.392399999999999949e+01 1.986469999999999914e+02 2.040769999999999982e+03
1.300000000000000044e-01 1.291619999999999990e-01 4.308915000000000362e+01 1.974265000000000043e+02 2.040369999999999891e+03
1.310000000000000053e-01 1.291279999999999928e-01 4.221999999999999886e+01 1.960850000000000080e+02 2.039930000000000064e+03
1.320000000000000062e-01 1.290900000000000103e-01 4.131654999999999944e+01 1.946279999999999859e+02 2.039445000000000164e+03
1.330000000000000071e-01 1.290489999999999970e-01 4.038110000000000355e+01 1.930640000000000214e+02 2.038930000000000064e+03
1.340000000000000080e-01 1.290054999999999952e-01 3.941764999999999475e+01 1.914064999999999941e+02 2.038375000000000000e+03
1.350000000000000089e-01 1.289589999999999903e-01 3.843219999999999459e+01 1.896719999999999970e+02 2.037779999999999973e+03
1.360000000000000098e-01 1.289105000000000112e-01 3.743215000000000003e+01 1.878820000000000050e+02 2.037164999999999964e+03
1.370000000000000107e-01 1.288600000000000023e-01 3.642634999999999934e+01 1.860600000000000023e+02 2.036525000000000091e+03
1.380000000000000115e-01 1.288090000000000068e-01 3.542434999999999690e+01 1.842300000000000182e+02 2.035875000000000000e+03
1.390000000000000124e-01 1.287570000000000103e-01 3.443619999999999948e+01 1.824175000000000182e+02 2.035219999999999800e+03
1.400000000000000133e-01 1.287059999999999871e-01 3.347200000000000131e+01 1.806480000000000246e+02 2.034565000000000055e+03
1.410000000000000142e-01 1.286555000000000060e-01 3.254144999999999754e+01 1.789435000000000002e+02 2.033924999999999955e+03
1.420000000000000151e-01 1.286065000000000125e-01 3.165324999999999989e+01 1.773249999999999886e+02 2.033300000000000182e+03
1.430000000000000160e-01 1.285600000000000076e-01 3.081524999999999892e+01 1.758104999999999905e+02 2.032704999999999927e+03
1.440000000000000169e-01 1.285155000000000047e-01 3.003345000000000198e+01 1.744119999999999777e+02 2.032139999999999873e+03
1.450000000000000178e-01 1.284740000000000049e-01 2.931254999999999811e+01 1.731405000000000030e+02 2.031610000000000127e+03
1.459999999999999909e-01 1.284365000000000090e-01 2.865525000000000233e+01 1.719995000000000118e+02 2.031119999999999891e+03
1.469999999999999918e-01 1.284015000000000017e-01 2.806259999999999977e+01 1.709904999999999973e+02 2.030675000000000182e+03
1.479999999999999927e-01 1.283704999999999985e-01 2.753390000000000271e+01 1.701094999999999970e+02 2.030275000000000091e+03
1.489999999999999936e-01 1.283429999999999849e-01 2.706700000000000017e+01 1.693494999999999777e+02 2.029914999999999964e+03
1.499999999999999944e-01 1.283185000000000020e-01 2.665834999999999866e+01 1.687015000000000100e+02 2.029599999999999909e+03
1.509999999999999953e-01 1.282965000000000078e-01 2.630339999999999989e+01 1.681535000000000082e+02 2.029320000000000164e+03
1.519999999999999962e-01 1.282780000000000031e-01 2.599690000000000012e+01 1.676929999999999836e+02 2.029079999999999927e+03
1.529999999999999971e-01 1.282619999999999871e-01 2.573299999999999699e+01 1.673070000000000164e+02 2.028875000000000000e+03
1.539999999999999980e-01 1.282484999999999875e-01 2.550574999999999903e+01 1.669815000000000111e+02 2.028695000000000164e+03
1.549999999999999989e-01 1.282365000000000033e-01 2.530920000000000059e+01 1.667040000000000077e+02 2.028539999999999964e+03
1.559999999999999998e-01 1.282260000000000066e-01 2.513779999999999859e+01 1.664644999999999868e+02 2.028400000000000091e+03
1.570000000000000007e-01 1.282169999999999976e-01 2.498620000000000019e+01 1.662514999999999930e+02 2.028279999999999973e+03
1.580000000000000016e-01 1.282090000000000174e-01 2.484984999999999999e+01 1.660570000000000164e+02 2.028170000000000073e+03
1.590000000000000024e-01 1.282014999999999960e-01 2.472449999999999903e+01 1.658754999999999882e+02 2.028079999999999927e+03
