# t [s], A [cm^2], U [cm/s], P [cPa], c [cm/s]
1.000000000000000021e-03 5.598969999999999780e-01 3.333050000000004065e-03 9.513425000000000864e+01 1.497965000000000146e+03
2.000000000000000042e-03 5.598890000000000811e-01 -1.105741999999999836e-03 9.511599999999999966e+01 1.497960000000000036e+03
3.000000000000000062e-03 5.599224999999999897e-01 5.947070000000000134e-02 9.517310000000000514e+01 1.497974999999999909e+03
4.000000000000000083e-03 5.599709999999999965e-01 1.478014500000000009e-01 9.527915000000000134e+01 1.498000000000000000e+03
5.000000000000000104e-03 5.599739999999999718e-01 1.622250000000000081e-01 9.529599999999999227e+01 1.498009999999999991e+03
6.000000000000000125e-03 5.599349999999999605e-01 1.006505000000000039e-01 9.518590000000000373e+01 1.497989999999999782e+03
7.000000000000000146e-03 5.598935000000000439e-01 2.840999999999999082e-02 9.501005000000000678e+01 1.497950000000000045e+03
8.000000000000000167e-03 5.598480000000000123e-01 -5.611949999999998884e-02 9.477830000000000155e+01 1.497900000000000091e+03
9.000000000000001055e-03 5.597699999999999898e-01 -2.088789999999999814e-01 9.442764999999999986e+01 1.497815000000000055e+03
1.000000000000000194e-02 5.596470000000000056e-01 -4.537249999999999339e-01 9.390954999999999586e+01 1.497700000000000045e+03
1.099999999999999936e-02 5.594740000000000268e-01 -7.972350000000000270e-01 9.318949999999999534e+01 1.497529999999999973e+03
1.200000000000000025e-02 5.592380000000000129e-01 -1.252275000000000027e+00 9.222464999999999691e+01 1.497300000000000182e+03
1.300000000000000114e-02 5.589370000000000172e-01 -1.812734999999999985e+00 9.099094999999999800e+01 1.497005000000000109e+03
1.400000000000000203e-02 5.585890000000000022e-01 -2.425605000000000011e+00 8.952355000000000018e+01 1.496639999999999873e+03
1.499999999999999944e-02 5.582310000000000327e-01 -2.999450000000000394e+00 8.792074999999999818e+01 1.496234999999999900e+03
1.600000000000000033e-02 5.579005000000000214e-01 -3.440234999999999932e+00 8.630795000000000528e+01 1.495809999999999945e+03
1.700000000000000122e-02 5.576200000000000045e-01 -3.684971999999999692e+00 8.479240000000000066e+01 1.495390000000000100e+03
1.800000000000000211e-02 5.573909999999999698e-01 -3.715891449999999985e+00 8.343309999999999604e+01 1.494994999999999891e+03
1.900000000000000300e-02 5.571989999999999998e-01 -3.555585000000000218e+00 8.223420000000000130e+01 1.494625000000000000e+03
2.000000000000000042e-02 5.570215000000000583e-01 -3.251481000000000066e+00 8.115625000000000000e+01 1.494275000000000091e+03
2.100000000000000130e-02 5.568359999999999976e-01 -2.857437000000000005e+00 8.013685000000000969e+01 1.493940000000000055e+03
2.200000000000000219e-02 5.566269999999999829e-01 -2.417909499999999934e+00 7.911350000000000193e+01 1.493605000000000018e+03
2.299999999999999961e-02 5.563879999999999937e-01 -1.958120000000000083e+00 7.804184999999999661e+01 1.493255000000000109e+03
2.400000000000000050e-02 5.561229999999999229e-01 -1.482255000000000100e+00 7.690520000000000778e+01 1.492894999999999982e+03
2.500000000000000139e-02 5.558414999999999884e-01 -9.794249999999997680e-01 7.571334999999999127e+01 1.492514999999999873e+03
2.600000000000000228e-02 5.555559999999999388e-01 -4.344050000000001521e-01 7.449174999999999613e+01 1.492134999999999991e+03
2.700000000000000316e-02 5.552734999999999754e-01 1.611400000000000610e-01 7.326715000000000089e+01 1.491750000000000000e+03
2.800000000000000058e-02 5.549960000000000448e-01 8.008599999999999053e-01 7.205414999999999281e+01 1.491365000000000009e+03
2.900000000000000147e-02 5.547174999999999745e-01 1.461164999999999825e+00 7.084720000000000084e+01 1.490980000000000018e+03
3.000000000000000236e-02 5.544255000000000155e-01 2.103850000000000442e+00 6.961924999999999386e+01 1.490585000000000036e+03
3.099999999999999978e-02 5.541059999999999874e-01 2.682630000000000070e+00 6.832689999999999486e+01 1.490179999999999836e+03
3.200000000000000067e-02 5.537449999999999317e-01 3.151760000000000339e+00 6.691955000000000098e+01 1.489750000000000000e+03
3.300000000000000155e-02 5.533325000000000049e-01 3.474829999999999863e+00 6.535205000000000553e+01 1.489279999999999973e+03
3.400000000000000244e-02 5.528650000000000508e-01 3.631799999999999695e+00 6.359564999999999912e+01 1.488775000000000091e+03
3.500000000000000333e-02 5.523480000000000611e-01 3.622860000000000191e+00 6.164699999999999847e+01 1.488220000000000027e+03
3.600000000000000422e-02 5.517940000000000067e-01 3.467940000000000023e+00 5.953190000000000026e+01 1.487619999999999891e+03
3.700000000000000511e-02 5.512209999999999610e-01 3.203174999999999883e+00 5.730304999999999893e+01 1.487000000000000000e+03
3.799999999999999906e-02 5.506510000000000016e-01 2.874070000000000569e+00 5.503350000000000364e+01 1.486360000000000127e+03
3.899999999999999994e-02 5.501049999999999551e-01 2.528789999999999871e+00 5.280740000000000123e+01 1.485724999999999909e+03
4.000000000000000083e-02 5.496039999999999814e-01 2.211965000000000181e+00 5.070969999999999800e+01 1.485119999999999891e+03
4.100000000000000172e-02 5.491624999999999979e-01 1.960480000000000000e+00 4.881820000000000448e+01 1.484559999999999945e+03
4.200000000000000261e-02 5.487919999999999465e-01 1.801730000000000054e+00 4.719709999999999894e+01 1.484070000000000164e+03
4.300000000000000350e-02 5.484999999999999876e-01 1.753765000000000018e+00 4.589450000000000074e+01 1.483650000000000091e+03
4.400000000000000439e-02 5.482905000000000140e-01 1.826875000000000027e+00 4.494190000000000396e+01 1.483320000000000164e+03
4.499999999999999833e-02 5.481644999999999435e-01 2.025934499999999971e+00 4.435594999999999999e+01 1.483095000000000027e+03
4.599999999999999922e-02 5.481205000000000105e-01 2.352870000000000239e+00 4.414175000000000182e+01 1.482965000000000146e+03
4.700000000000000011e-02 5.481590000000000629e-01 2.808595000000000397e+00 4.429614999999999725e+01 1.482934999999999945e+03
4.800000000000000100e-02 5.482769999999999033e-01 3.394144999999999968e+00 4.481099999999999994e+01 1.483014999999999873e+03
4.900000000000000189e-02 5.484734999999999472e-01 4.110884999999999678e+00 4.567504999999999882e+01 1.483190000000000055e+03
5.000000000000000278e-02 5.487465000000000259e-01 4.959855000000000125e+00 4.687519999999999953e+01 1.483460000000000036e+03
5.100000000000000366e-02 5.490919999999999135e-01 5.940664999999999196e+00 4.839610000000000412e+01 1.483824999999999818e+03
5.200000000000000455e-02 5.495075000000000376e-01 7.050230000000000885e+00 5.021985000000000099e+01 1.484279999999999973e+03
5.300000000000000544e-02 5.499870000000000037e-01 8.281769999999999854e+00 5.232469999999999999e+01 1.484820000000000164e+03
5.399999999999999939e-02 5.505245000000000832e-01 9.624249999999999972e+00 5.468435000000000201e+01 1.485434999999999945e+03
5.500000000000000028e-02 5.511120000000000463e-01 1.106254000000000026e+01 5.726784999999999570e+01 1.486119999999999891e+03
5.600000000000000117e-02 5.517414999999999958e-01 1.257784000000000013e+01 6.003994999999999749e+01 1.486865000000000009e+03
5.700000000000000205e-02 5.524014999999999898e-01 1.414895500000000084e+01 6.296219999999999573e+01 1.487659999999999854e+03
5.800000000000000294e-02 5.530844999999999789e-01 1.575361499999999992e+01 6.599459999999999127e+01 1.488494999999999891e+03
5.900000000000000383e-02 5.537799999999999390e-01 1.736965999999999966e+01 6.909740000000000748e+01 1.489365000000000009e+03
6.000000000000000472e-02 5.544805000000000428e-01 1.897635000000000005e+01 7.223300000000000409e+01 1.490250000000000000e+03
6.099999999999999867e-02 5.551785000000000192e-01 2.055545000000000044e+01 7.536785000000000423e+01 1.491139999999999873e+03
6.199999999999999956e-02 5.558689999999999465e-01 2.209179999999999922e+01 7.847364999999999213e+01 1.492039999999999964e+03
6.300000000000000044e-02 5.565470000000000139e-01 2.357379999999999853e+01 8.152835000000000321e+01 1.492929999999999836e+03
6.400000000000000133e-02 5.572110000000000118e-01 2.499314999999999998e+01 8.451635000000000275e+01 1.493809999999999945e+03
6.500000000000000222e-02 5.578594999999999526e-01 2.634474999999999767e+01 8.742849999999999966e+01 1.494670000000000073e+03
6.600000000000000311e-02 5.584930000000000172e-01 2.762655000000000172e+01 9.026160000000000139e+01 1.495525000000000091e+03
6.700000000000000400e-02 5.591114999999999835e-01 2.883849999999999625e+01 9.301715000000000089e+01 1.496355000000000018e+03
6.800000000000000488e-02 5.597174999999999789e-01 2.998239999999999839e+01 9.570089999999999009e+01 1.497164999999999964e+03
6.900000000000000577e-02 5.603124999999999911e-01 3.106099999999999994e+01 9.832070000000000221e+01 1.497970000000000027e+03
7.000000000000000666e-02 5.608990000000000364e-01 3.207789999999999964e+01 1.008868500000000097e+02 1.498750000000000000e+03
7.100000000000000755e-02 5.614784999999999915e-01 3.303659999999999997e+01 1.034081500000000062e+02 1.499519999999999982e+03
7.200000000000000844e-02 5.620530000000000248e-01 3.394035000000000224e+01 1.058935999999999922e+02 1.500285000000000082e+03
7.300000000000000933e-02 5.626225000000000254e-01 3.479169999999999874e+01 1.083509999999999991e+02 1.501039999999999964e+03
7.399999999999999634e-02 5.631895000000000095e-01 3.559220000000000539e+01 1.107839999999999918e+02 1.501784999999999854e+03
7.499999999999999722e-02 5.637524999999999897e-01 3.634234999999999616e+01 1.131949999999999932e+02 1.502525000000000091e+03
7.599999999999999811e-02 5.643105000000000482e-01 3.704139999999999588e+01 1.155810000000000031e+02 1.503259999999999991e+03
7.699999999999999900e-02 5.648619999999999752e-01 3.768750000000000000e+01 1.179375000000000000e+02 1.503984999999999900e+03
7.799999999999999989e-02 5.654055000000000053e-01 3.827779999999999916e+01 1.202560000000000002e+02 1.504700000000000045e+03
7.900000000000000078e-02 5.659364999999999535e-01 3.880854999999999677e+01 1.225259999999999962e+02 1.505400000000000091e+03
8.000000000000000167e-02 5.664535000000000542e-01 3.927575000000000216e+01 1.247339999999999947e+02 1.506085000000000036e+03
8.100000000000000255e-02 5.669520000000000115e-01 3.967504999999999882e+01 1.268669999999999902e+02 1.506755000000000109e+03
8.200000000000000344e-02 5.674289999999999612e-01 4.000220000000000198e+01 1.289105000000000132e+02 1.507400000000000091e+03
8.300000000000000433e-02 5.678825000000000678e-01 4.025345000000000084e+01 1.308494999999999777e+02 1.508009999999999991e+03
8.400000000000000522e-02 5.683084999999999942e-01 4.042575000000000074e+01 1.326714999999999804e+02 1.508590000000000146e+03
8.500000000000000611e-02 5.687045000000000572e-01 4.051675000000000182e+01 1.343650000000000091e+02 1.509134999999999991e+03
8.600000000000000699e-02 5.690690000000000470e-01 4.052510000000000190e+01 1.359205000000000041e+02 1.509644999999999982e+03
8.700000000000000788e-02 5.694010000000000460e-01 4.045054999999999978e+01 1.373310000000000173e+02 1.510115000000000009e+03
8.800000000000000877e-02 5.696984999999999966e-01 4.029384999999999906e+01 1.385914999999999964e+02 1.510534999999999854e+03
8.899999999999999578e-02 5.699619999999999687e-01 4.005700000000000216e+01 1.397004999999999768e+02 1.510920000000000073e+03
8.999999999999999667e-02 5.701914999999999623e-01 3.974295000000000044e+01 1.406574999999999989e+02 1.511255000000000109e+03
9.099999999999999756e-02 5.703875000000000473e-01 3.935580000000000211e+01 1.414660000000000082e+02 1.511545000000000073e+03
9.199999999999999845e-02 5.705525000000000180e-01 3.890045000000000641e+01 1.421320000000000050e+02 1.511795000000000073e+03
9.299999999999999933e-02 5.706860000000000266e-01 3.838289999999999935e+01 1.426625000000000227e+02 1.512005000000000109e+03
9.400000000000000022e-02 5.707929999999999948e-01 3.780984999999999729e+01 1.430660000000000025e+02 1.512170000000000073e+03
9.500000000000000111e-02 5.708735000000000337e-01 3.718864999999999554e+01 1.433540000000000134e+02 1.512299999999999955e+03
9.600000000000000200e-02 5.709309999999999663e-01 3.652720000000000056e+01 1.435395000000000039e+02 1.512394999999999982e+03
9.700000000000000289e-02 5.709690000000000598e-01 3.583364999999999867e+01 1.436340000000000146e+02 1.512465000000000146e+03
9.800000000000000377e-02 5.709899999999999975e-01 3.511619999999999919e+01 1.436514999999999986e+02 1.512509999999999991e+03
9.900000000000000466e-02 5.709965000000000179e-01 3.438309999999999889e+01 1.436055000000000064e+02 1.512525000000000091e+03
1.000000000000000056e-01 5.709925000000000139e-01 3.364209999999999923e+01 1.435099999999999909e+02 1.512529999999999973e+03
1.010000000000000064e-01 5.709800000000000431e-01 3.290044999999999931e+01 1.433765000000000214e+02 1.512514999999999873e+03
1.020000000000000073e-01 5.709610000000000518e-01 3.216460000000000008e+01 1.432164999999999964e+02 1.512480000000000018e+03
1.030000000000000082e-01 5.709389999999999743e-01 3.143984999999999985e+01 1.430409999999999968e+02 1.512444999999999936e+03
1.040000000000000091e-01 5.709135000000000737e-01 3.073060000000000258e+01 1.428565000000000111e+02 1.512404999999999973e+03
1.050000000000000100e-01 5.708869999999999223e-01 3.003979999999999961e+01 1.426700000000000159e+02 1.512364999999999782e+03
1.059999999999999970e-01 5.708599999999999230e-01 2.936930000000000263e+01 1.424855000000000018e+02 1.512315000000000055e+03
1.069999999999999979e-01 5.708325000000000760e-01 2.871965000000000146e+01 1.423045000000000186e+02 1.512259999999999991e+03
1.079999999999999988e-01 5.708050000000000068e-01 2.809009999999999962e+01 1.421264999999999930e+02 1.512215000000000146e+03
1.089999999999999997e-01 5.707754999999999912e-01 2.747920000000000229e+01 1.419510000000000218e+02 1.512159999999999854e+03
1.100000000000000006e-01 5.707440000000000291e-01 2.688425000000000153e+01 1.417730000000000246e+02 1.512105000000000018e+03
1.110000000000000014e-01 5.707094999999999807e-01 2.630225000000000080e+01 1.415885000000000105e+02 1.512050000000000182e+03
1.120000000000000023e-01 5.706704999999999695e-01 2.572944999999999993e+01 1.413924999999999841e+02 1.511990000000000009e+03
1.130000000000000032e-01 5.706255000000000077e-01 2.516199999999999903e+01 1.411779999999999973e+02 1.511930000000000064e+03
1.140000000000000041e-01 5.705735000000000667e-01 2.459590000000000032e+01 1.409399999999999977e+02 1.511855000000000018e+03
1.150000000000000050e-01 5.705135000000000067e-01 2.402754999999999797e+01 1.406715000000000089e+02 1.511775000000000091e+03
1.160000000000000059e-01 5.704434999999999922e-01 2.345345000000000013e+01 1.403684999999999832e+02 1.511690000000000055e+03
1.170000000000000068e-01 5.703639999999999821e-01 2.287064999999999770e+01 1.400255000000000223e+02 1.511589999999999918e+03
1.180000000000000077e-01 5.702739999999999476e-01 2.227689999999999770e+01 1.396409999999999911e+02 1.511480000000000018e+03
1.190000000000000085e-01 5.701730000000000409e-01 2.167054999999999865e+01 1.392119999999999891e+02 1.511360000000000127e+03
1.200000000000000094e-01 5.700614999999999988e-01 2.105069999999999908e+01 1.387384999999999877e+02 1.511224999999999909e+03
1.209999999999999964e-01 5.699400000000000022e-01 2.041740000000000066e+01 1.382214999999999918e+02 1.511075000000000045e+03
1.219999999999999973e-01 5.698085000000000511e-01 1.977154999999999774e+01 1.376639999999999873e+02 1.510920000000000073e+03
1.229999999999999982e-01 5.696695000000000508e-01 1.911475000000000080e+01 1.370699999999999932e+02 1.510750000000000000e+03
1.239999999999999991e-01 5.695240000000000302e-01 1.844930000000000092e+01 1.364440000000000168e+02 1.510565000000000055e+03
1.250000000000000000e-01 5.693725000000000591e-01 1.777850000000000108e+01 1.357930000000000064e+02 1.510384999999999991e+03
1.260000000000000009e-01 5.692175000000000429e-01 1.710594999999999999e+01 1.351250000000000000e+02 1.510190000000000055e+03
1.270000000000000018e-01 5.690619999999999568e-01 1.643584999999999852e+01 1.344470000000000027e+02 1.509994999999999891e+03
1.280000000000000027e-01 5.689060000000000228e-01 1.577265000000000050e+01 1.337685000000000173e+02 1.509795000000000073e+03
1.290000000000000036e-01 5.687529999999999530e-01 1.512119999999999820e+01 1.330980000000000132e+02 1.509599999999999909e+03
1.300000000000000044e-01 5.686050000000000271e-01 1.448619000000000057e+01 1.324445000000000050e+02 1.509400000000000091e+03
1.310000000000000053e-01 5.684630000000000516e-01 1.387227000000000032e+01 1.318164999999999907e+02 1.509215000000000146e+03
1.320000000000000062e-01 5.683295000000000430e-01 1.328381500000000059e+01 1.312220000000000084e+02 1.509030000000000200e+03
1.330000000000000071e-01 5.682059999999999889e-01 1.272484500000000018e+01 1.306675000000000182e+02 1.508860000000000127e+03
1.340000000000000080e-01 5.680935000000000290e-01 1.219865500000000047e+01 1.301594999999999800e+02 1.508704999999999927e+03
1.350000000000000089e-01 5.679935000000000400e-01 1.170817000000000085e+01 1.297024999999999864e+02 1.508559999999999945e+03
1.360000000000000098e-01 5.679054999999999520e-01 1.125540499999999966e+01 1.293004999999999995e+02 1.508424999999999955e+03
1.370000000000000107e-01 5.678305000000000158e-01 1.084160999999999930e+01 1.289540000000000077e+02 1.508309999999999945e+03
1.380000000000000115e-01 5.677685000000000093e-01 1.046739999999999959e+01 1.286655000000000086e+02 1.508210000000000036e+03
1.390000000000000124e-01 5.677189999999999737e-01 1.013245000000000040e+01 1.284319999999999879e+02 1.508125000000000000e+03
1.400000000000000133e-01 5.676820000000000199e-01 9.835820000000000007e+00 1.282520000000000095e+02 1.508055000000000064e+03
1.410000000000000142e-01 5.676550000000000207e-01 9.575805000000000788e+00 1.281229999999999905e+02 1.508000000000000000e+03
1.420000000000000151e-01 5.676385000000000458e-01 9.350245000000001028e+00 1.280395000000000039e+02 1.507960000000000036e+03
1.430000000000000160e-01 5.676304999999999268e-01 9.156444999999999723e+00 1.279969999999999857e+02 1.507934999999999945e+03
1.440000000000000169e-01 5.676300000000000789e-01 8.991420000000001522e+00 1.279890000000000043e+02 1.507914999999999964e+03
1.450000000000000178e-01 5.676354999999999595e-01 8.851860000000000284e+00 1.280095000000000027e+02 1.507904999999999973e+03
1.459999999999999909e-01 5.676449999999999552e-01 8.734420000000000073e+00 1.280529999999999973e+02 1.507909999999999854e+03
1.469999999999999918e-01 5.676584999999999548e-01 8.635774999999998869e+00 1.281129999999999995e+02 1.507914999999999964e+03
1.479999999999999927e-01 5.676735000000000531e-01 8.552620000000000999e+00 1.281850000000000023e+02 1.507925000000000182e+03
1.489999999999999936e-01 5.676900000000000279e-01 8.481880000000000308e+00 1.282615000000000123e+02 1.507940000000000055e+03
1.499999999999999944e-01 5.677060000000000439e-01 8.420664999999999623e+00 1.283394999999999868e+02 1.507954999999999927e+03
1.509999999999999953e-01 5.677210000000000312e-01 8.366400000000000503e+00 1.284155000000000086e+02 1.507970000000000027e+03
1.519999999999999962e-01 5.677349999999999897e-01 8.316805000000000447e+00 1.284850000000000136e+02 1.507985000000000127e+03
1.529999999999999971e-01 5.677470000000000017e-01 8.269930000000000447e+00 1.285464999999999804e+02 1.508000000000000000e+03
1.539999999999999980e-01 5.677569999999999562e-01 8.224140000000000228e+00 1.285975000000000250e+02 1.508014999999999873e+03
1.549999999999999989e-01 5.677640000000000464e-01 8.178129999999999455e+00 1.286370000000000005e+02 1.508019999999999982e+03
1.559999999999999998e-01 5.677685000000000093e-01 8.130905000000000271e+00 1.286645000000000039e+02 1.508029999999999973e+03
1.570000000000000007e-01 5.677704999999999558e-01 8.081735000000000113e+00 1.286804999999999950e+02 1.508034999999999854e+03
1.580000000000000016e-01 5.677699999999999969e-01 8.030170000000000030e+00 1.286845000000000141e+02 1.508039999999999964e+03
1.590000000000000024e-01 5.677665000000000628e-01 7.975979999999999848e+00 1.286784999999999854e+02 1.508034999999999854e+03
