# t [s], A [cm^2], U [cm/s], P [cPa], c [cm/s]
1.000000000000000021e-03 1.509375000000000022e-01 2.386725000000000096e-01 1.024649500000000018e+02 1.770609999999999900e+03
2.000000000000000042e-03 1.509169999999999956e-01 1.728657500000000180e+00 9.967994999999999095e+01 1.770404999999999973e+03
3.000000000000000062e-03 1.508229999999999849e-01 3.582972000000000268e+00 9.606730000000000302e+01 1.769545000000000073e+03
4.000000000000000083e-03 1.506755000000000178e-01 5.638893949999999933e+00 9.191644999999999754e+01 1.768220000000000027e+03
5.000000000000000104e-03 1.504995000000000083e-01 7.845295000000000130e+00 8.785509999999999309e+01 1.766660000000000082e+03
6.000000000000000125e-03 1.503149999999999764e-01 1.011970499999999973e+01 8.428454999999999586e+01 1.765039999999999964e+03
7.000000000000000146e-03 1.501339999999999897e-01 1.233039499999999933e+01 8.127500000000000568e+01 1.763469999999999800e+03
8.000000000000000167e-03 1.499619999999999842e-01 1.435034500000000079e+01 7.868295000000000528e+01 1.761990000000000009e+03
9.000000000000001055e-03 1.498005000000000031e-01 1.612240500000000054e+01 7.637560000000000571e+01 1.760630000000000109e+03
1.000000000000000194e-02 1.496544999999999959e-01 1.765565000000000140e+01 7.434069999999999823e+01 1.759405000000000200e+03
1.099999999999999936e-02 1.495250000000000190e-01 1.897344999999999970e+01 7.261204999999999643e+01 1.758335000000000036e+03
1.200000000000000025e-02 1.494129999999999903e-01 2.008984999999999843e+01 7.119110000000000582e+01 1.757420000000000073e+03
1.300000000000000114e-02 1.493194999999999939e-01 2.101484999999999914e+01 7.004800000000000182e+01 1.756659999999999854e+03
1.400000000000000203e-02 1.492410000000000125e-01 2.175720000000000098e+01 6.913965000000000316e+01 1.756034999999999854e+03
1.499999999999999944e-02 1.491764999999999897e-01 2.232329999999999970e+01 6.841110000000000468e+01 1.755525000000000091e+03
1.600000000000000033e-02 1.491235000000000199e-01 2.272435000000000116e+01 6.780769999999999698e+01 1.755115000000000009e+03
1.700000000000000122e-02 1.490799999999999903e-01 2.299170000000000158e+01 6.731260000000000332e+01 1.754789999999999964e+03
1.800000000000000211e-02 1.490464999999999984e-01 2.318420000000000059e+01 6.698165000000000191e+01 1.754539999999999964e+03
1.900000000000000300e-02 1.490254999999999774e-01 2.337784999999999869e+01 6.693779999999999575e+01 1.754389999999999873e+03
2.000000000000000042e-02 1.490205000000000002e-01 2.364159999999999684e+01 6.732044999999999391e+01 1.754369999999999891e+03
2.100000000000000130e-02 1.490354999999999874e-01 2.401279999999999859e+01 6.821699999999999875e+01 1.754509999999999991e+03
2.200000000000000219e-02 1.490704999999999947e-01 2.448470000000000013e+01 6.961250000000001137e+01 1.754800000000000182e+03
2.299999999999999961e-02 1.491235000000000199e-01 2.500945000000000107e+01 7.137924999999999898e+01 1.755250000000000000e+03
2.400000000000000050e-02 1.491899999999999893e-01 2.551454999999999984e+01 7.330625000000000568e+01 1.755795000000000073e+03
2.500000000000000139e-02 1.492605000000000182e-01 2.592435000000000045e+01 7.515359999999999729e+01 1.756394999999999982e+03
2.600000000000000228e-02 1.493295000000000039e-01 2.617929999999999779e+01 7.671094999999999686e+01 1.756980000000000018e+03
2.700000000000000316e-02 1.493904999999999816e-01 2.624909999999999854e+01 7.784264999999999191e+01 1.757494999999999891e+03
2.800000000000000058e-02 1.494385000000000019e-01 2.613575000000000159e+01 7.850844999999999629e+01 1.757914999999999964e+03
2.900000000000000147e-02 1.494725000000000081e-01 2.586789999999999878e+01 7.875775000000000148e+01 1.758215000000000146e+03
3.000000000000000236e-02 1.494940000000000158e-01 2.548960000000000292e+01 7.870229999999999393e+01 1.758414999999999964e+03
3.099999999999999978e-02 1.495060000000000000e-01 2.504679999999999751e+01 7.847784999999998945e+01 1.758525000000000091e+03
3.200000000000000067e-02 1.495110000000000050e-01 2.457585000000000264e+01 7.820595000000000141e+01 1.758579999999999927e+03
3.300000000000000155e-02 1.495130000000000070e-01 2.409669999999999845e+01 7.796719999999999118e+01 1.758599999999999909e+03
3.400000000000000244e-02 1.495135000000000214e-01 2.361204999999999998e+01 7.778945000000000221e+01 1.758610000000000127e+03
3.500000000000000333e-02 1.495134999999999936e-01 2.311095000000000255e+01 7.765285000000000082e+01 1.758610000000000127e+03
3.600000000000000422e-02 1.495114999999999916e-01 2.257634999999999792e+01 7.750669999999999504e+01 1.758599999999999909e+03
3.700000000000000511e-02 1.495080000000000020e-01 2.199275000000000091e+01 7.729245000000000232e+01 1.758579999999999927e+03
3.799999999999999906e-02 1.494999999999999940e-01 2.135374999999999801e+01 7.696649999999999636e+01 1.758519999999999982e+03
3.899999999999999994e-02 1.494880000000000098e-01 2.066624999999999801e+01 7.651744999999999663e+01 1.758425000000000182e+03
4.000000000000000083e-02 1.494719999999999938e-01 1.995169999999999888e+01 7.597384999999999877e+01 1.758295000000000073e+03
4.100000000000000172e-02 1.494524999999999881e-01 1.924329999999999785e+01 7.540174999999999272e+01 1.758144999999999982e+03
4.200000000000000261e-02 1.494329999999999825e-01 1.858064999999999856e+01 7.489265000000000327e+01 1.757985000000000127e+03
4.300000000000000350e-02 1.494165000000000076e-01 1.800280000000000058e+01 7.454519999999999413e+01 1.757849999999999909e+03
4.400000000000000439e-02 1.494059999999999833e-01 1.754090000000000060e+01 7.444499999999999318e+01 1.757759999999999991e+03
4.499999999999999833e-02 1.494044999999999956e-01 1.721274999999999977e+01 7.464674999999999727e+01 1.757739999999999782e+03
4.599999999999999922e-02 1.494130000000000180e-01 1.701980000000000004e+01 7.516355000000000075e+01 1.757804999999999836e+03
4.700000000000000011e-02 1.494324999999999959e-01 1.694700000000000273e+01 7.596325000000000216e+01 1.757954999999999927e+03
4.800000000000000100e-02 1.494619999999999838e-01 1.696535000000000082e+01 7.697350000000000136e+01 1.758190000000000055e+03
4.900000000000000189e-02 1.494984999999999786e-01 1.703620000000000090e+01 7.809309999999999263e+01 1.758485000000000127e+03
5.000000000000000278e-02 1.495394999999999919e-01 1.711650000000000205e+01 7.920645000000000380e+01 1.758815000000000055e+03
5.100000000000000366e-02 1.495799999999999907e-01 1.716425000000000267e+01 8.019925000000000637e+01 1.759150000000000091e+03
5.200000000000000455e-02 1.496170000000000000e-01 1.714269999999999783e+01 8.097190000000000509e+01 1.759454999999999927e+03
5.300000000000000544e-02 1.496474999999999889e-01 1.702305000000000135e+01 8.144910000000000139e+01 1.759704999999999927e+03
5.399999999999999939e-02 1.496675000000000089e-01 1.678665000000000163e+01 8.158504999999999541e+01 1.759869999999999891e+03
5.500000000000000028e-02 1.496755000000000169e-01 1.642454999999999998e+01 8.136410000000000764e+01 1.759940000000000055e+03
5.600000000000000117e-02 1.496699999999999975e-01 1.593650000000000055e+01 8.079714999999998781e+01 1.759914999999999964e+03
5.700000000000000205e-02 1.496524999999999939e-01 1.532969999999999899e+01 7.991634999999999422e+01 1.759769999999999982e+03
5.800000000000000294e-02 1.496230000000000060e-01 1.461610000000000120e+01 7.876754999999999995e+01 1.759529999999999973e+03
5.900000000000000383e-02 1.495819999999999927e-01 1.381145000000000067e+01 7.740425000000000466e+01 1.759194999999999936e+03
6.000000000000000472e-02 1.495319999999999983e-01 1.293309999999999960e+01 7.588185000000000002e+01 1.758784999999999854e+03
6.099999999999999867e-02 1.494739999999999958e-01 1.199973999999999918e+01 7.425440000000000396e+01 1.758315000000000055e+03
6.199999999999999956e-02 1.494110000000000160e-01 1.103049500000000016e+01 7.257214999999999350e+01 1.757795000000000073e+03
6.300000000000000044e-02 1.493444999999999911e-01 1.004515499999999939e+01 7.088209999999999411e+01 1.757250000000000000e+03
6.400000000000000133e-02 1.492760000000000198e-01 9.064254999999999285e+00 6.922835000000000605e+01 1.756684999999999945e+03
6.500000000000000222e-02 1.492080000000000073e-01 8.109224999999998573e+00 6.765370000000000061e+01 1.756119999999999891e+03
6.600000000000000311e-02 1.491414999999999824e-01 7.202519999999999811e+00 6.620080000000000098e+01 1.755570000000000164e+03
6.700000000000000400e-02 1.490790000000000171e-01 6.367465000000000153e+00 6.491285000000000593e+01 1.755055000000000064e+03
6.800000000000000488e-02 1.490230000000000166e-01 5.627835000000000143e+00 6.383379999999999654e+01 1.754579999999999927e+03
6.900000000000000577e-02 1.489745000000000097e-01 5.007190000000000474e+00 6.300750000000000028e+01 1.754174999999999955e+03
7.000000000000000666e-02 1.489349999999999841e-01 4.528064999999999785e+00 6.247605000000000075e+01 1.753844999999999800e+03
7.100000000000000755e-02 1.489074999999999982e-01 4.210924999999999585e+00 6.227814999999999657e+01 1.753610000000000127e+03
7.200000000000000844e-02 1.488935000000000120e-01 4.073209999999999553e+00 6.244634999999999536e+01 1.753480000000000018e+03
7.300000000000000933e-02 1.488929999999999976e-01 4.128420000000000201e+00 6.300544999999999618e+01 1.753469999999999800e+03
7.399999999999999634e-02 1.489090000000000136e-01 4.385365000000000180e+00 6.397039999999999793e+01 1.753585000000000036e+03
7.499999999999999722e-02 1.489415000000000044e-01 4.847679999999999545e+00 6.534520000000000550e+01 1.753835000000000036e+03
7.599999999999999811e-02 1.489904999999999979e-01 5.513630000000000031e+00 6.712239999999999895e+01 1.754230000000000018e+03
7.699999999999999900e-02 1.490560000000000218e-01 6.376160000000000494e+00 6.928315000000000623e+01 1.754755000000000109e+03
7.799999999999999989e-02 1.491385000000000072e-01 7.423280000000000101e+00 7.179829999999999757e+01 1.755420000000000073e+03
7.900000000000000078e-02 1.492350000000000065e-01 8.638639999999998764e+00 7.462995000000000800e+01 1.756204999999999927e+03
8.000000000000000167e-02 1.493459999999999788e-01 1.000225499999999990e+01 7.773314999999999486e+01 1.757110000000000127e+03
8.100000000000000255e-02 1.494694999999999774e-01 1.149145000000000039e+01 8.105840000000000600e+01 1.758119999999999891e+03
8.200000000000000344e-02 1.496029999999999860e-01 1.308187500000000014e+01 8.455389999999999873e+01 1.759224999999999909e+03
8.300000000000000433e-02 1.497459999999999902e-01 1.474820000000000064e+01 8.816804999999999382e+01 1.760394999999999982e+03
8.400000000000000522e-02 1.498944999999999861e-01 1.646545000000000059e+01 9.185115000000000407e+01 1.761625000000000000e+03
8.500000000000000611e-02 1.500475000000000003e-01 1.820949999999999847e+01 9.555805000000000859e+01 1.762900000000000091e+03
8.600000000000000699e-02 1.502040000000000042e-01 1.995820000000000149e+01 9.924879999999998859e+01 1.764195000000000164e+03
8.700000000000000788e-02 1.503609999999999947e-01 2.169140000000000157e+01 1.028902999999999963e+02 1.765509999999999991e+03
8.800000000000000877e-02 1.505174999999999985e-01 2.339199999999999946e+01 1.064568999999999903e+02 1.766820000000000164e+03
8.899999999999999578e-02 1.506724999999999870e-01 2.504579999999999984e+01 1.099310000000000116e+02 1.768125000000000000e+03
8.999999999999999667e-02 1.508255000000000012e-01 2.664164999999999850e+01 1.133010000000000019e+02 1.769409999999999854e+03
9.099999999999999756e-02 1.509745000000000115e-01 2.817145000000000010e+01 1.165635000000000048e+02 1.770670000000000073e+03
9.199999999999999845e-02 1.511204999999999909e-01 2.962969999999999970e+01 1.197180000000000035e+02 1.771909999999999854e+03
9.299999999999999933e-02 1.512634999999999952e-01 3.101340000000000074e+01 1.227715000000000032e+02 1.773115000000000009e+03
9.400000000000000022e-02 1.514015000000000222e-01 3.232139999999999702e+01 1.257315000000000111e+02 1.774295000000000073e+03
9.500000000000000111e-02 1.515370000000000050e-01 3.355404999999999660e+01 1.286080000000000041e+02 1.775450000000000045e+03
9.600000000000000200e-02 1.516689999999999983e-01 3.471245000000000402e+01 1.314105000000000132e+02 1.776575000000000045e+03
9.700000000000000289e-02 1.517979999999999885e-01 3.579840000000000089e+01 1.341475000000000080e+02 1.777679999999999836e+03
9.800000000000000377e-02 1.519245000000000179e-01 3.681385000000000218e+01 1.368265000000000100e+02 1.778759999999999991e+03
9.900000000000000466e-02 1.520480000000000165e-01 3.776035000000000252e+01 1.394515000000000100e+02 1.779825000000000045e+03
1.000000000000000056e-01 1.521695000000000131e-01 3.863899999999999579e+01 1.420244999999999891e+02 1.780865000000000009e+03
1.010000000000000064e-01 1.522890000000000077e-01 3.945040000000000191e+01 1.445430000000000064e+02 1.781884999999999991e+03
1.020000000000000073e-01 1.524050000000000127e-01 4.019440000000000168e+01 1.470034999999999741e+02 1.782894999999999982e+03
1.030000000000000082e-01 1.525194999999999745e-01 4.087004999999999910e+01 1.493979999999999961e+02 1.783875000000000000e+03
1.040000000000000091e-01 1.526305000000000023e-01 4.147585000000000122e+01 1.517180000000000177e+02 1.784835000000000036e+03
1.050000000000000100e-01 1.527390000000000136e-01 4.200964999999999350e+01 1.539519999999999982e+02 1.785765000000000100e+03
1.059999999999999970e-01 1.528430000000000066e-01 4.246904999999999575e+01 1.560889999999999986e+02 1.786670000000000073e+03
1.069999999999999979e-01 1.529435000000000100e-01 4.285110000000000241e+01 1.581165000000000020e+02 1.787539999999999964e+03
1.079999999999999988e-01 1.530390000000000084e-01 4.315299999999999869e+01 1.600215000000000032e+02 1.788365000000000009e+03
1.089999999999999997e-01 1.531295000000000017e-01 4.337194999999999823e+01 1.617920000000000016e+02 1.789154999999999973e+03
1.100000000000000006e-01 1.532145000000000035e-01 4.350509999999999877e+01 1.634170000000000016e+02 1.789889999999999873e+03
1.110000000000000014e-01 1.532934999999999992e-01 4.355020000000000380e+01 1.648870000000000005e+02 1.790579999999999927e+03
1.120000000000000023e-01 1.533654999999999879e-01 4.350529999999999831e+01 1.661929999999999836e+02 1.791210000000000036e+03
1.130000000000000032e-01 1.534309999999999841e-01 4.336925000000000097e+01 1.673280000000000030e+02 1.791785000000000082e+03
1.140000000000000041e-01 1.534895000000000009e-01 4.314150000000000063e+01 1.682874999999999943e+02 1.792295000000000073e+03
1.150000000000000050e-01 1.535404999999999964e-01 4.282229999999999848e+01 1.690690000000000168e+02 1.792744999999999891e+03
1.160000000000000059e-01 1.535834999999999839e-01 4.241295000000000215e+01 1.696709999999999923e+02 1.793125000000000000e+03
1.170000000000000068e-01 1.536190000000000055e-01 4.191559999999999775e+01 1.700960000000000036e+02 1.793434999999999945e+03
1.180000000000000077e-01 1.536464999999999914e-01 4.133360000000000412e+01 1.703480000000000132e+02 1.793690000000000055e+03
1.190000000000000085e-01 1.536664999999999837e-01 4.067135000000000389e+01 1.704329999999999927e+02 1.793869999999999891e+03
1.200000000000000094e-01 1.536799999999999833e-01 3.993425000000000580e+01 1.703600000000000136e+02 1.793990000000000009e+03
1.209999999999999964e-01 1.536854999999999749e-01 3.912884999999999991e+01 1.701410000000000196e+02 1.794050000000000182e+03
1.219999999999999973e-01 1.536845000000000017e-01 3.826239999999999952e+01 1.697880000000000109e+02 1.794054999999999836e+03
1.229999999999999982e-01 1.536775000000000224e-01 3.734315000000000140e+01 1.693154999999999859e+02 1.794005000000000109e+03
1.239999999999999991e-01 1.536649999999999960e-01 3.637964999999999804e+01 1.687395000000000209e+02 1.793904999999999973e+03
1.250000000000000000e-01 1.536474999999999924e-01 3.538115000000000521e+01 1.680769999999999982e+02 1.793755000000000109e+03
1.260000000000000009e-01 1.536260000000000125e-01 3.435684999999999434e+01 1.673439999999999941e+02 1.793575000000000045e+03
1.270000000000000018e-01 1.536005000000000009e-01 3.331580000000000297e+01 1.665579999999999927e+02 1.793360000000000127e+03
1.280000000000000027e-01 1.535719999999999863e-01 3.226684999999999803e+01 1.657334999999999923e+02 1.793119999999999891e+03
1.290000000000000036e-01 1.535409999999999831e-01 3.121835000000000093e+01 1.648859999999999957e+02 1.792855000000000018e+03
1.300000000000000044e-01 1.535090000000000066e-01 3.017764999999999986e+01 1.640275000000000034e+02 1.792579999999999927e+03
1.310000000000000053e-01 1.534750000000000003e-01 2.915144999999999698e+01 1.631689999999999827e+02 1.792289999999999964e+03
1.320000000000000062e-01 1.534405000000000074e-01 2.814520000000000266e+01 1.623190000000000168e+02 1.791994999999999891e+03
1.330000000000000071e-01 1.534059999999999868e-01 2.716329999999999956e+01 1.614834999999999923e+02 1.791695000000000164e+03
1.340000000000000080e-01 1.533714999999999939e-01 2.620875000000000199e+01 1.606655000000000086e+02 1.791394999999999982e+03
1.350000000000000089e-01 1.533370000000000011e-01 2.528359999999999985e+01 1.598675000000000068e+02 1.791095000000000027e+03
1.360000000000000098e-01 1.533025000000000082e-01 2.438844999999999885e+01 1.590869999999999891e+02 1.790800000000000182e+03
1.370000000000000107e-01 1.532685000000000020e-01 2.352295000000000158e+01 1.583220000000000027e+02 1.790505000000000109e+03
1.380000000000000115e-01 1.532350000000000101e-01 2.268570000000000064e+01 1.575670000000000073e+02 1.790215000000000146e+03
1.390000000000000124e-01 1.532014999999999905e-01 2.187444999999999951e+01 1.568149999999999977e+02 1.789925000000000182e+03
1.400000000000000133e-01 1.531679999999999986e-01 2.108614999999999995e+01 1.560604999999999905e+02 1.789630000000000109e+03
1.410000000000000142e-01 1.531345000000000067e-01 2.031729999999999947e+01 1.552930000000000064e+02 1.789340000000000146e+03
1.420000000000000151e-01 1.531000000000000139e-01 1.956400000000000006e+01 1.545060000000000002e+02 1.789039999999999964e+03
1.430000000000000160e-01 1.530644999999999922e-01 1.882225000000000037e+01 1.536910000000000025e+02 1.788730000000000018e+03
1.440000000000000169e-01 1.530279999999999974e-01 1.808784999999999954e+01 1.528394999999999868e+02 1.788414999999999964e+03
1.450000000000000178e-01 1.529905000000000015e-01 1.735699999999999932e+01 1.519445000000000050e+02 1.788089999999999918e+03
1.459999999999999909e-01 1.529510000000000036e-01 1.662619999999999720e+01 1.510004999999999882e+02 1.787750000000000000e+03
1.469999999999999918e-01 1.529095000000000037e-01 1.589235000000000042e+01 1.500029999999999859e+02 1.787389999999999873e+03
1.479999999999999927e-01 1.528654999999999875e-01 1.515289999999999893e+01 1.489484999999999957e+02 1.787014999999999873e+03
1.489999999999999936e-01 1.528194999999999970e-01 1.440625000000000000e+01 1.478354999999999961e+02 1.786615000000000009e+03
1.499999999999999944e-01 1.527709999999999901e-01 1.365124999999999922e+01 1.466650000000000205e+02 1.786199999999999818e+03
1.509999999999999953e-01 1.527199999999999946e-01 1.288779999999999859e+01 1.454379999999999882e+02 1.785764999999999873e+03
1.519999999999999962e-01 1.526664999999999828e-01 1.211653499999999894e+01 1.441585000000000036e+02 1.785305000000000064e+03
1.529999999999999971e-01 1.526109999999999967e-01 1.133889999999999887e+01 1.428315000000000055e+02 1.784835000000000036e+03
1.539999999999999980e-01 1.525539999999999952e-01 1.055719999999999992e+01 1.414650000000000034e+02 1.784340000000000146e+03
1.549999999999999989e-01 1.524945000000000050e-01 9.774409999999999599e+00 1.400670000000000073e+02 1.783835000000000036e+03
1.559999999999999998e-01 1.524334999999999996e-01 8.994225000000000136e+00 1.386465000000000032e+02 1.783315000000000055e+03
1.570000000000000007e-01 1.523714999999999931e-01 8.220905000000000129e+00 1.372144999999999868e+02 1.782784999999999854e+03
1.580000000000000016e-01 1.523089999999999999e-01 7.459060000000000912e+00 1.357814999999999941e+02 1.782250000000000000e+03
1.590000000000000024e-01 1.522459999999999924e-01 6.713599999999999568e+00 1.343584999999999923e+02 1.781715000000000146e+03
