# t [s], A [cm^2], U [cm/s], P [cPa], c [cm/s]
1.000000000000000021e-03 5.681855000000000100e-01 3.691599999999996273e-03 1.073285000000000053e+02 1.406280000000000200e+03
2.000000000000000042e-03 5.681775000000000020e-01 5.515945000000000396e-04 1.073145000000000095e+02 1.406275000000000091e+03
3.000000000000000062e-03 5.682035000000000835e-01 4.037334999999999535e-02 1.073490000000000038e+02 1.406284999999999854e+03
4.000000000000000083e-03 5.682544999999999957e-01 1.209831000000000101e-01 1.074429999999999978e+02 1.406320000000000164e+03
5.000000000000000104e-03 5.682719999999999994e-01 1.518337499999999896e-01 1.074844999999999970e+02 1.406335000000000036e+03
6.000000000000000125e-03 5.682450000000000001e-01 1.117453500000000072e-01 1.074219999999999970e+02 1.406324999999999818e+03
7.000000000000000146e-03 5.682035000000000835e-01 4.670250000000000790e-02 1.072870000000000061e+02 1.406289999999999964e+03
8.000000000000000167e-03 5.681644999999999612e-01 -1.697100000000001385e-02 1.071129999999999995e+02 1.406250000000000000e+03
9.000000000000001055e-03 5.681069999999999176e-01 -1.174780000000000268e-01 1.068654999999999973e+02 1.406184999999999945e+03
1.000000000000000194e-02 5.680119999999999614e-01 -2.891725000000000545e-01 1.064975000000000023e+02 1.406089999999999918e+03
1.099999999999999936e-02 5.678735000000000310e-01 -5.390849999999999254e-01 1.059805000000000064e+02 1.405960000000000036e+03
1.200000000000000025e-02 5.676844999999999253e-01 -8.736599999999998811e-01 1.052835000000000036e+02 1.405779999999999973e+03
1.300000000000000114e-02 5.674345000000000638e-01 -1.300650000000000084e+00 1.043739999999999952e+02 1.405539999999999964e+03
1.400000000000000203e-02 5.671230000000000437e-01 -1.805070000000000174e+00 1.032412500000000080e+02 1.405235000000000127e+03
1.499999999999999944e-02 5.667720000000000535e-01 -2.334959999999999702e+00 1.019211499999999972e+02 1.404865000000000009e+03
1.600000000000000033e-02 5.664135000000000142e-01 -2.813324999999999854e+00 1.004912999999999954e+02 1.404454999999999927e+03
1.700000000000000122e-02 5.660779999999999701e-01 -3.165144999999999875e+00 9.904579999999999984e+01 1.404025000000000091e+03
1.800000000000000211e-02 5.657845000000000235e-01 -3.340396499999999769e+00 9.766339999999999577e+01 1.403595000000000027e+03
1.900000000000000300e-02 5.655339999999999812e-01 -3.323587499999999917e+00 9.638939999999999486e+01 1.403184999999999945e+03
2.000000000000000042e-02 5.653155000000000818e-01 -3.130563500000000055e+00 9.523024999999999807e+01 1.402785000000000082e+03
2.100000000000000130e-02 5.651089999999999725e-01 -2.797835500000000142e+00 9.416060000000000230e+01 1.402410000000000082e+03
2.200000000000000219e-02 5.648960000000000647e-01 -2.369444999999999801e+00 9.313630000000000564e+01 1.402034999999999854e+03
2.299999999999999961e-02 5.646600000000000508e-01 -1.884955000000000158e+00 9.210970000000000368e+01 1.401660000000000082e+03
2.400000000000000050e-02 5.643934999999999924e-01 -1.371094999999999731e+00 9.104325000000000045e+01 1.401269999999999982e+03
2.500000000000000139e-02 5.640970000000000706e-01 -8.384749999999998593e-01 8.991819999999999879e+01 1.400865000000000009e+03
2.600000000000000228e-02 5.637784999999999602e-01 -2.838849999999997209e-01 8.873595000000000255e+01 1.400449999999999818e+03
2.700000000000000316e-02 5.634479999999999489e-01 3.032449999999999868e-01 8.751380000000000337e+01 1.400014999999999873e+03
2.800000000000000058e-02 5.631150000000000322e-01 9.326599999999998225e-01 8.627575000000000216e+01 1.399575000000000045e+03
2.900000000000000147e-02 5.627864999999999673e-01 1.606190000000000007e+00 8.504255000000000564e+01 1.399134999999999991e+03
3.000000000000000236e-02 5.624615000000000586e-01 2.313544999999999963e+00 8.382429999999999382e+01 1.398695000000000164e+03
3.099999999999999978e-02 5.621355000000000102e-01 3.031754999999999978e+00 8.261565000000000225e+01 1.398264999999999873e+03
3.200000000000000067e-02 5.617965000000000320e-01 3.727824999999999722e+00 8.139685000000000059e+01 1.397824999999999818e+03
3.300000000000000155e-02 5.614350000000000174e-01 4.363709999999999312e+00 8.013670000000000471e+01 1.397375000000000000e+03
3.400000000000000244e-02 5.610384999999999955e-01 4.902355000000000018e+00 7.879975000000000307e+01 1.396909999999999854e+03
3.500000000000000333e-02 5.605989999999999585e-01 5.314114999999999256e+00 7.735384999999999422e+01 1.396414999999999964e+03
3.600000000000000422e-02 5.601140000000000008e-01 5.581364999999999910e+00 7.577805000000000746e+01 1.395894999999999982e+03
3.700000000000000511e-02 5.595874999999999044e-01 5.701475000000000293e+00 7.406825000000000614e+01 1.395329999999999927e+03
3.799999999999999906e-02 5.590294999999999570e-01 5.687165000000000248e+00 7.224029999999999063e+01 1.394744999999999891e+03
3.899999999999999994e-02 5.584540000000000060e-01 5.563919999999999533e+00 7.032939999999999259e+01 1.394130000000000109e+03
4.000000000000000083e-02 5.578799999999999315e-01 5.366100000000000314e+00 6.838634999999999309e+01 1.393514999999999873e+03
4.100000000000000172e-02 5.573265000000000580e-01 5.131824999999999193e+00 6.647180000000000177e+01 1.392894999999999982e+03
4.200000000000000261e-02 5.568109999999999449e-01 4.898575000000000124e+00 6.464985000000000070e+01 1.392305000000000064e+03
4.300000000000000350e-02 5.563485000000000236e-01 4.699425000000000630e+00 6.298215000000000430e+01 1.391750000000000000e+03
4.400000000000000439e-02 5.559514999999999318e-01 4.561225000000000307e+00 6.152270000000000039e+01 1.391250000000000000e+03
4.499999999999999833e-02 5.556289999999999285e-01 4.503659999999999997e+00 6.031539999999999679e+01 1.390829999999999927e+03
4.599999999999999922e-02 5.553859999999999353e-01 4.539987499999999621e+00 5.939239999999999498e+01 1.390480000000000018e+03
4.700000000000000011e-02 5.552245000000000097e-01 4.678110000000000213e+00 5.877429999999999666e+01 1.390224999999999909e+03
4.800000000000000100e-02 5.551470000000000571e-01 4.922344999999999970e+00 5.847195000000000675e+01 1.390065000000000055e+03
4.900000000000000189e-02 5.551515000000000200e-01 5.274944999999999773e+00 5.848815000000000452e+01 1.390000000000000000e+03
5.000000000000000278e-02 5.552369999999999806e-01 5.737365000000000492e+00 5.881994999999999862e+01 1.390035000000000082e+03
5.100000000000000366e-02 5.554034999999999389e-01 6.310904999999999987e+00 5.946059999999999945e+01 1.390175000000000182e+03
5.200000000000000455e-02 5.556470000000000020e-01 6.996830000000000105e+00 6.040085000000000548e+01 1.390404999999999973e+03
5.300000000000000544e-02 5.559659999999999602e-01 7.795854999999999535e+00 6.162955000000000183e+01 1.390730000000000018e+03
5.399999999999999939e-02 5.563580000000000192e-01 8.707420000000000826e+00 6.313349999999999795e+01 1.391144999999999982e+03
5.500000000000000028e-02 5.568189999999999529e-01 9.728825000000000500e+00 6.489740000000000464e+01 1.391650000000000091e+03
5.600000000000000117e-02 5.573445000000000205e-01 1.085446999999999917e+01 6.690285000000000082e+01 1.392230000000000018e+03
5.700000000000000205e-02 5.579270000000000618e-01 1.207545000000000002e+01 6.912810000000000343e+01 1.392889999999999873e+03
5.800000000000000294e-02 5.585605000000000153e-01 1.337947999999999915e+01 7.154775000000000773e+01 1.393615000000000009e+03
5.900000000000000383e-02 5.592365000000000252e-01 1.475142500000000112e+01 7.413304999999999723e+01 1.394404999999999973e+03
6.000000000000000472e-02 5.599454999999999849e-01 1.617367499999999936e+01 7.685255000000000791e+01 1.395240000000000009e+03
6.099999999999999867e-02 5.606780000000000097e-01 1.762729999999999819e+01 7.967275000000000773e+01 1.396119999999999891e+03
6.199999999999999956e-02 5.614265000000000505e-01 1.909304999999999808e+01 8.256000000000000227e+01 1.397029999999999973e+03
6.300000000000000044e-02 5.621804999999999719e-01 2.055209999999999937e+01 8.548125000000000284e+01 1.397960000000000036e+03
6.400000000000000133e-02 5.629334999999999756e-01 2.198709999999999809e+01 8.840594999999999004e+01 1.398894999999999982e+03
6.500000000000000222e-02 5.636780000000000124e-01 2.338289999999999935e+01 9.130584999999999241e+01 1.399840000000000146e+03
6.600000000000000311e-02 5.644095000000000084e-01 2.472680000000000078e+01 9.415810000000000457e+01 1.400779999999999973e+03
6.700000000000000400e-02 5.651239999999999597e-01 2.600869999999999749e+01 9.694450000000000500e+01 1.401700000000000045e+03
6.800000000000000488e-02 5.658180000000000431e-01 2.722159999999999869e+01 9.965075000000000216e+01 1.402605000000000018e+03
6.900000000000000577e-02 5.664905000000000079e-01 2.836070000000000135e+01 1.022687999999999988e+02 1.403490000000000009e+03
7.000000000000000666e-02 5.671410000000000062e-01 2.942365000000000208e+01 1.047940000000000111e+02 1.404355000000000018e+03
7.100000000000000755e-02 5.677710000000000257e-01 3.041014999999999802e+01 1.072259999999999991e+02 1.405190000000000055e+03
7.200000000000000844e-02 5.683799999999999963e-01 3.132110000000000127e+01 1.095679999999999978e+02 1.406000000000000000e+03
7.300000000000000933e-02 5.689705000000000457e-01 3.215869999999999607e+01 1.118245000000000005e+02 1.406789999999999964e+03
7.399999999999999634e-02 5.695434999999999803e-01 3.292584999999999695e+01 1.140030000000000001e+02 1.407549999999999955e+03
7.499999999999999722e-02 5.701019999999999976e-01 3.362570000000000192e+01 1.161105000000000018e+02 1.408295000000000073e+03
7.599999999999999811e-02 5.706459999999999866e-01 3.426149999999999807e+01 1.181544999999999987e+02 1.409009999999999991e+03
7.699999999999999900e-02 5.711779999999999635e-01 3.483619999999999806e+01 1.201409999999999911e+02 1.409710000000000036e+03
7.799999999999999989e-02 5.716984999999999983e-01 3.535240000000000293e+01 1.220759999999999934e+02 1.410394999999999982e+03
7.900000000000000078e-02 5.722080000000000499e-01 3.581180000000000518e+01 1.239625000000000057e+02 1.411065000000000055e+03
8.000000000000000167e-02 5.727065000000000072e-01 3.621569999999999823e+01 1.258015000000000043e+02 1.411720000000000027e+03
8.100000000000000255e-02 5.731924999999999937e-01 3.656425000000000125e+01 1.275930000000000035e+02 1.412355000000000018e+03
8.200000000000000344e-02 5.736655000000000504e-01 3.685730000000000217e+01 1.293329999999999984e+02 1.412974999999999909e+03
8.300000000000000433e-02 5.741239999999999677e-01 3.709364999999999668e+01 1.310169999999999959e+02 1.413570000000000164e+03
8.400000000000000522e-02 5.745660000000000212e-01 3.727195000000000391e+01 1.326384999999999934e+02 1.414154999999999973e+03
8.500000000000000611e-02 5.749885000000000135e-01 3.739029999999999632e+01 1.341895000000000095e+02 1.414710000000000036e+03
8.600000000000000699e-02 5.753894999999999982e-01 3.744679999999999609e+01 1.356614999999999895e+02 1.415250000000000000e+03
8.700000000000000788e-02 5.757670000000000288e-01 3.743965000000000032e+01 1.370444999999999993e+02 1.415755000000000109e+03
8.800000000000000877e-02 5.761180000000000190e-01 3.736724999999999852e+01 1.383315000000000055e+02 1.416230000000000018e+03
8.899999999999999578e-02 5.764415000000000511e-01 3.722840000000000060e+01 1.395129999999999768e+02 1.416670000000000073e+03
8.999999999999999667e-02 5.767354999999999565e-01 3.702259999999999707e+01 1.405824999999999818e+02 1.417070000000000164e+03
9.099999999999999756e-02 5.769975000000000520e-01 3.674989999999999668e+01 1.415335000000000036e+02 1.417440000000000055e+03
9.199999999999999845e-02 5.772275000000000045e-01 3.641100000000000136e+01 1.423620000000000232e+02 1.417764999999999873e+03
9.299999999999999933e-02 5.774245000000000072e-01 3.600740000000000407e+01 1.430654999999999859e+02 1.418054999999999836e+03
9.400000000000000022e-02 5.775889999999999080e-01 3.554144999999999754e+01 1.436424999999999841e+02 1.418295000000000073e+03
9.500000000000000111e-02 5.777209999999999290e-01 3.501595000000000368e+01 1.440949999999999989e+02 1.418494999999999891e+03
9.600000000000000200e-02 5.778210000000000290e-01 3.443484999999999729e+01 1.444254999999999995e+02 1.418654999999999973e+03
9.700000000000000289e-02 5.778904999999999736e-01 3.380225000000000080e+01 1.446380000000000052e+02 1.418779999999999973e+03
9.800000000000000377e-02 5.779309999999999725e-01 3.312314999999999543e+01 1.447379999999999995e+02 1.418860000000000127e+03
9.900000000000000466e-02 5.779444999999999721e-01 3.240310000000000201e+01 1.447330000000000041e+02 1.418905000000000200e+03
1.000000000000000056e-01 5.779334999999999889e-01 3.164805000000000135e+01 1.446310000000000002e+02 1.418909999999999854e+03
1.010000000000000064e-01 5.778995000000000104e-01 3.086415000000000219e+01 1.444424999999999955e+02 1.418890000000000100e+03
1.020000000000000073e-01 5.778455000000000119e-01 3.005799999999999983e+01 1.441765000000000043e+02 1.418835000000000036e+03
1.030000000000000082e-01 5.777744999999999687e-01 2.923615000000000208e+01 1.438439999999999941e+02 1.418755000000000109e+03
1.040000000000000091e-01 5.776890000000000081e-01 2.840530000000000044e+01 1.434555000000000007e+02 1.418659999999999854e+03
1.050000000000000100e-01 5.775919999999999943e-01 2.757189999999999941e+01 1.430230000000000246e+02 1.418539999999999964e+03
1.059999999999999970e-01 5.774854999999999849e-01 2.674195000000000277e+01 1.425564999999999998e+02 1.418404999999999973e+03
1.069999999999999979e-01 5.773734999999999840e-01 2.592119999999999891e+01 1.420660000000000025e+02 1.418259999999999991e+03
1.079999999999999988e-01 5.772564999999999502e-01 2.511459999999999937e+01 1.415620000000000118e+02 1.418105000000000018e+03
1.089999999999999997e-01 5.771384999999999987e-01 2.432645000000000124e+01 1.410514999999999759e+02 1.417945000000000164e+03
1.100000000000000006e-01 5.770195000000000185e-01 2.355995000000000061e+01 1.405430000000000064e+02 1.417779999999999973e+03
1.110000000000000014e-01 5.769015000000000670e-01 2.281745000000000090e+01 1.400414999999999850e+02 1.417619999999999891e+03
1.120000000000000023e-01 5.767849999999999921e-01 2.210034999999999883e+01 1.395509999999999877e+02 1.417454999999999927e+03
1.130000000000000032e-01 5.766715000000000035e-01 2.140879999999999939e+01 1.390740000000000123e+02 1.417289999999999964e+03
1.140000000000000041e-01 5.765599999999999614e-01 2.074210000000000065e+01 1.386119999999999948e+02 1.417134999999999991e+03
1.150000000000000050e-01 5.764504999999999768e-01 2.009860000000000113e+01 1.381634999999999991e+02 1.416974999999999909e+03
1.160000000000000059e-01 5.763424999999999798e-01 1.947579999999999956e+01 1.377270000000000039e+02 1.416825000000000045e+03
1.170000000000000068e-01 5.762350000000000527e-01 1.887055000000000149e+01 1.372994999999999948e+02 1.416670000000000073e+03
1.180000000000000077e-01 5.761260000000000270e-01 1.827909999999999968e+01 1.368760000000000048e+02 1.416519999999999982e+03
1.190000000000000085e-01 5.760155000000000136e-01 1.769760000000000133e+01 1.364519999999999982e+02 1.416375000000000000e+03
1.200000000000000094e-01 5.759019999999999140e-01 1.712185000000000201e+01 1.360215000000000032e+02 1.416219999999999800e+03
1.209999999999999964e-01 5.757830000000000448e-01 1.654779999999999873e+01 1.355805000000000007e+02 1.416070000000000164e+03
1.219999999999999973e-01 5.756590000000000318e-01 1.597155000000000058e+01 1.351229999999999905e+02 1.415909999999999854e+03
1.229999999999999982e-01 5.755274999999999697e-01 1.538954999999999984e+01 1.346444999999999936e+02 1.415750000000000000e+03
1.239999999999999991e-01 5.753889999999999283e-01 1.479884999999999984e+01 1.341415000000000077e+02 1.415575000000000045e+03
1.250000000000000000e-01 5.752424999999999899e-01 1.419697000000000031e+01 1.336100000000000136e+02 1.415400000000000091e+03
1.260000000000000009e-01 5.750865000000000560e-01 1.358213999999999899e+01 1.330490000000000066e+02 1.415215000000000146e+03
1.270000000000000018e-01 5.749229999999999619e-01 1.295339999999999847e+01 1.324575000000000102e+02 1.415014999999999873e+03
1.280000000000000027e-01 5.747510000000000119e-01 1.231046500000000066e+01 1.318354999999999961e+02 1.414809999999999945e+03
1.290000000000000036e-01 5.745719999999999716e-01 1.165391999999999939e+01 1.311850000000000023e+02 1.414595000000000027e+03
1.300000000000000044e-01 5.743860000000000632e-01 1.098502500000000026e+01 1.305084999999999980e+02 1.414375000000000000e+03
1.310000000000000053e-01 5.741955000000000808e-01 1.030581500000000084e+01 1.298104999999999905e+02 1.414150000000000091e+03
1.320000000000000062e-01 5.740005000000000246e-01 9.618904999999999816e+00 1.290954999999999870e+02 1.413914999999999964e+03
1.330000000000000071e-01 5.738035000000000219e-01 8.927474999999999383e+00 1.283695000000000164e+02 1.413675000000000182e+03
1.340000000000000080e-01 5.736060000000000603e-01 8.235319999999999752e+00 1.276384999999999934e+02 1.413434999999999945e+03
1.350000000000000089e-01 5.734110000000000040e-01 7.546475000000000044e+00 1.269095000000000084e+02 1.413190000000000055e+03
1.360000000000000098e-01 5.732185000000000752e-01 6.865214999999999179e+00 1.261894999999999953e+02 1.412954999999999927e+03
1.370000000000000107e-01 5.730319999999999858e-01 6.195994999999999919e+00 1.254869999999999948e+02 1.412720000000000027e+03
1.380000000000000115e-01 5.728524999999999867e-01 5.543239999999999945e+00 1.248070000000000022e+02 1.412490000000000009e+03
1.390000000000000124e-01 5.726815000000000655e-01 4.911270000000000024e+00 1.241574999999999989e+02 1.412264999999999873e+03
1.400000000000000133e-01 5.725219999999999754e-01 4.304149999999999920e+00 1.235450000000000017e+02 1.412055000000000064e+03
1.410000000000000142e-01 5.723734999999999795e-01 3.725595999999999908e+00 1.229740000000000038e+02 1.411860000000000127e+03
1.420000000000000151e-01 5.722380000000000244e-01 3.178865000000000052e+00 1.224495000000000005e+02 1.411670000000000073e+03
1.430000000000000160e-01 5.721169999999999867e-01 2.666673999999999989e+00 1.219759999999999991e+02 1.411500000000000000e+03
1.440000000000000169e-01 5.720095000000000596e-01 2.191134499999999985e+00 1.215544999999999902e+02 1.411349999999999909e+03
1.450000000000000178e-01 5.719170000000000087e-01 1.753696199999999816e+00 1.211879999999999882e+02 1.411210000000000036e+03
1.459999999999999909e-01 5.718389999999999862e-01 1.355127149999999947e+00 1.208760000000000048e+02 1.411089999999999918e+03
1.469999999999999918e-01 5.717750000000000332e-01 9.954925000000001134e-01 1.206175000000000068e+02 1.410984999999999900e+03
1.479999999999999927e-01 5.717244999999999688e-01 6.742100000000000870e-01 1.204104999999999990e+02 1.410900000000000091e+03
1.489999999999999936e-01 5.716864999999999863e-01 3.900394999999999834e-01 1.202520000000000095e+02 1.410829999999999927e+03
1.499999999999999944e-01 5.716594999999999871e-01 1.411794999999999856e-01 1.201384999999999934e+02 1.410775000000000091e+03
1.509999999999999953e-01 5.716430000000000122e-01 -7.466850000000001264e-02 1.200649999999999977e+02 1.410730000000000018e+03
1.519999999999999962e-01 5.716350000000000042e-01 -2.602160000000000029e-01 1.200260000000000105e+02 1.410700000000000045e+03
1.529999999999999971e-01 5.716335000000000166e-01 -4.184864999999999835e-01 1.200159999999999911e+02 1.410680000000000064e+03
1.539999999999999980e-01 5.716379999999999795e-01 -5.527100000000000346e-01 1.200284999999999940e+02 1.410670000000000073e+03
1.549999999999999989e-01 5.716459999999999875e-01 -6.662240000000000384e-01 1.200579999999999927e+02 1.410670000000000073e+03
1.559999999999999998e-01 5.716559999999999420e-01 -7.623705000000000620e-01 1.200974999999999966e+02 1.410670000000000073e+03
1.570000000000000007e-01 5.716669999999999252e-01 -8.444024999999999448e-01 1.201430000000000007e+02 1.410670000000000073e+03
1.580000000000000016e-01 5.716775000000000606e-01 -9.153979999999999340e-01 1.201875000000000000e+02 1.410674999999999955e+03
1.590000000000000024e-01 5.716864999999999863e-01 -9.782060000000000199e-01 1.202280000000000086e+02 1.410679999999999836e+03
