# t [s], A [cm^2], U [cm/s], P [cPa], c [cm/s]
1.000000000000000021e-03 4.728490000000000193e-01 2.449800000000001976e-03 9.449475000000001046e+01 1.619105000000000018e+03
2.000000000000000042e-03 4.728465000000000029e-01 1.097530000000000033e-02 9.447694999999998799e+01 1.619099999999999909e+03
3.000000000000000062e-03 4.729004999999999459e-01 1.451056000000000012e-01 9.462049999999999272e+01 1.619134999999999991e+03
4.000000000000000083e-03 4.729240000000000110e-01 2.151639999999999942e-01 9.470685000000000286e+01 1.619159999999999854e+03
5.000000000000000104e-03 4.728854999999999587e-01 1.380929999999999935e-01 9.456069999999999709e+01 1.619130000000000109e+03
6.000000000000000125e-03 4.728320000000000300e-01 1.536949999999998040e-02 9.426109999999999900e+01 1.619065000000000055e+03
7.000000000000000146e-03 4.727685000000000359e-01 -1.433200000000000029e-01 9.383670000000000755e+01 1.618970000000000027e+03
8.000000000000000167e-03 4.726544999999999774e-01 -4.374350000000000183e-01 9.315850000000000364e+01 1.618819999999999936e+03
9.000000000000001055e-03 4.724805000000000255e-01 -8.876000000000000556e-01 9.215064999999999884e+01 1.618590000000000146e+03
1.000000000000000194e-02 4.722410000000000219e-01 -1.496354999999999880e+00 9.076179999999999382e+01 1.618264999999999873e+03
1.099999999999999936e-02 4.719194999999999363e-01 -2.280969999999999942e+00 8.892365000000000919e+01 1.617829999999999927e+03
1.200000000000000025e-02 4.715265000000000151e-01 -3.192829999999999835e+00 8.664894999999999925e+01 1.617275000000000091e+03
1.300000000000000114e-02 4.711110000000000575e-01 -4.078219999999999956e+00 8.411365000000000691e+01 1.616640000000000100e+03
1.400000000000000203e-02 4.707365000000000022e-01 -4.743088499999999819e+00 8.160515000000000896e+01 1.615990000000000009e+03
1.499999999999999944e-02 4.704455000000000164e-01 -5.050036500000000039e+00 7.938964999999998895e+01 1.615375000000000000e+03
1.600000000000000033e-02 4.702429999999999666e-01 -4.969390000000000640e+00 7.760745000000000005e+01 1.614835000000000036e+03
1.700000000000000122e-02 4.701020000000000199e-01 -4.571684999999999555e+00 7.624184999999999945e+01 1.614389999999999873e+03
1.800000000000000211e-02 4.699794999999999945e-01 -3.984070000000000000e+00 7.515319999999999823e+01 1.613994999999999891e+03
1.900000000000000300e-02 4.698359999999999759e-01 -3.336549999999999905e+00 7.414900000000000091e+01 1.613634999999999991e+03
2.000000000000000042e-02 4.696469999999999811e-01 -2.717311000000000032e+00 7.306059999999999377e+01 1.613259999999999991e+03
2.100000000000000130e-02 4.694119999999999959e-01 -2.152252499999999902e+00 7.179755000000000109e+01 1.612859999999999900e+03
2.200000000000000219e-02 4.691460000000000630e-01 -1.614840000000000053e+00 7.036015000000000441e+01 1.612424999999999955e+03
2.299999999999999961e-02 4.688700000000000090e-01 -1.058054999999999968e+00 6.881005000000000393e+01 1.611960000000000036e+03
2.400000000000000050e-02 4.685980000000000145e-01 -4.502450000000002284e-01 6.722039999999999793e+01 1.611485000000000127e+03
2.500000000000000139e-02 4.683329999999999993e-01 2.010050000000003223e-01 6.562985000000000468e+01 1.611000000000000000e+03
2.600000000000000228e-02 4.680619999999999781e-01 8.435000000000001386e-01 6.401720000000000255e+01 1.610505000000000109e+03
2.700000000000000316e-02 4.677615000000000522e-01 1.391700000000000159e+00 6.230174999999999841e+01 1.609990000000000009e+03
2.800000000000000058e-02 4.674059999999999881e-01 1.748654999999999848e+00 6.036464999999999748e+01 1.609420000000000073e+03
2.900000000000000147e-02 4.669740000000000002e-01 1.831754999999999800e+00 5.808435000000000059e+01 1.608775000000000091e+03
3.000000000000000236e-02 4.664565000000000516e-01 1.595359999999999889e+00 5.537579999999999814e+01 1.608034999999999854e+03
3.099999999999999978e-02 4.658590000000000231e-01 1.044340000000000046e+00 5.222190000000000509e+01 1.607194999999999936e+03
3.200000000000000067e-02 4.652040000000000619e-01 2.347149999999995629e-01 4.868829999999999814e+01 1.606255000000000109e+03
3.300000000000000155e-02 4.645234999999999781e-01 -7.379499999999996618e-01 4.491790000000000305e+01 1.605250000000000000e+03
3.400000000000000244e-02 4.638565000000000049e-01 -1.757785000000000153e+00 4.110814999999999486e+01 1.604224999999999909e+03
3.500000000000000333e-02 4.632410000000000139e-01 -2.708704999999999696e+00 3.747964999999999947e+01 1.603219999999999800e+03
3.600000000000000422e-02 4.627105000000000246e-01 -3.490609999999999769e+00 3.424484999999999957e+01 1.602299999999999955e+03
3.700000000000000511e-02 4.622880000000000322e-01 -4.028855000000000075e+00 3.158239999999999981e+01 1.601509999999999991e+03
3.799999999999999906e-02 4.619889999999999830e-01 -4.276727499999999793e+00 2.962255000000000038e+01 1.600880000000000109e+03
3.899999999999999994e-02 4.618194999999999939e-01 -4.212480000000000224e+00 2.844225000000000136e+01 1.600444999999999936e+03
4.000000000000000083e-02 4.617799999999999683e-01 -3.833079999999999821e+00 2.806875000000000142e+01 1.600210000000000036e+03
4.100000000000000172e-02 4.618649999999999700e-01 -3.147120000000000140e+00 2.848985000000000412e+01 1.600195000000000164e+03
4.200000000000000261e-02 4.620679999999999787e-01 -2.168785000000000185e+00 2.966584999999999894e+01 1.600380000000000109e+03
4.300000000000000350e-02 4.623809999999999865e-01 -9.143099999999999561e-01 3.154084999999999894e+01 1.600764999999999873e+03
4.400000000000000439e-02 4.627930000000000099e-01 5.988799999999998569e-01 3.405020000000000380e+01 1.601325000000000045e+03
4.499999999999999833e-02 4.632954999999999712e-01 2.350754999999999484e+00 3.712480000000000047e+01 1.602054999999999836e+03
4.599999999999999922e-02 4.638769999999999838e-01 4.316335000000000477e+00 4.069124999999999659e+01 1.602934999999999945e+03
4.700000000000000011e-02 4.645245000000000068e-01 6.463625000000000398e+00 4.467085000000000150e+01 1.603940000000000055e+03
4.800000000000000100e-02 4.652245000000000408e-01 8.753034999999998789e+00 4.897880000000000678e+01 1.605050000000000182e+03
4.900000000000000189e-02 4.659604999999999997e-01 1.113806599999999847e+01 5.352445000000000164e+01 1.606244999999999891e+03
5.000000000000000278e-02 4.667169999999999930e-01 1.356802500000000045e+01 5.821354999999999791e+01 1.607500000000000000e+03
5.100000000000000366e-02 4.674785000000000190e-01 1.599127999999999972e+01 6.295239999999999725e+01 1.608779999999999973e+03
5.200000000000000455e-02 4.682295000000000207e-01 1.835889500000000041e+01 6.765285000000000082e+01 1.610079999999999927e+03
5.300000000000000544e-02 4.689594999999999736e-01 2.062800000000000011e+01 7.223749999999999716e+01 1.611365000000000009e+03
5.399999999999999939e-02 4.696600000000000219e-01 2.276440000000000197e+01 7.664409999999999457e+01 1.612619999999999891e+03
5.500000000000000028e-02 4.703235000000000054e-01 2.474344999999999928e+01 8.082845000000000368e+01 1.613835000000000036e+03
5.600000000000000117e-02 4.709490000000000065e-01 2.655089999999999861e+01 8.476590000000000202e+01 1.614990000000000009e+03
5.700000000000000205e-02 4.715360000000000107e-01 2.818195000000000050e+01 8.845059999999999434e+01 1.616090000000000146e+03
5.800000000000000294e-02 4.720885000000000220e-01 2.964000000000000057e+01 9.189314999999999145e+01 1.617134999999999991e+03
5.900000000000000383e-02 4.726110000000000033e-01 3.093539999999999779e+01 9.511910000000000309e+01 1.618119999999999891e+03
6.000000000000000472e-02 4.731090000000000018e-01 3.208324999999999960e+01 9.816370000000000573e+01 1.619059999999999945e+03
6.099999999999999867e-02 4.735890000000000377e-01 3.310255000000000081e+01 1.010683999999999969e+02 1.619960000000000036e+03
6.199999999999999956e-02 4.740590000000000082e-01 3.401404999999999745e+01 1.038791999999999973e+02 1.620829999999999927e+03
6.300000000000000044e-02 4.745260000000000034e-01 3.483919999999999817e+01 1.066405000000000030e+02 1.621675000000000182e+03
6.400000000000000133e-02 4.749955000000000149e-01 3.559870000000000090e+01 1.093940000000000055e+02 1.622519999999999982e+03
6.500000000000000222e-02 4.754725000000000201e-01 3.631119999999999948e+01 1.121734999999999900e+02 1.623369999999999891e+03
6.600000000000000311e-02 4.759610000000000229e-01 3.699199999999999733e+01 1.150060000000000002e+02 1.624220000000000027e+03
6.700000000000000400e-02 4.764619999999999966e-01 3.765209999999999724e+01 1.179064999999999941e+02 1.625085000000000036e+03
6.800000000000000488e-02 4.769750000000000378e-01 3.829739999999999611e+01 1.208780000000000001e+02 1.625974999999999909e+03
6.900000000000000577e-02 4.774984999999999924e-01 3.892830000000000013e+01 1.239120000000000061e+02 1.626869999999999891e+03
7.000000000000000666e-02 4.780285000000000228e-01 3.953985000000000127e+01 1.269869999999999948e+02 1.627780000000000200e+03
7.100000000000000755e-02 4.785574999999999690e-01 4.012230000000000274e+01 1.300715000000000146e+02 1.628694999999999936e+03
7.200000000000000844e-02 4.790794999999999915e-01 4.066219999999999857e+01 1.331250000000000000e+02 1.629605000000000018e+03
7.300000000000000933e-02 4.795869999999999855e-01 4.114350000000000307e+01 1.361019999999999754e+02 1.630490000000000009e+03
7.399999999999999634e-02 4.800719999999999987e-01 4.154879999999999995e+01 1.389540000000000077e+02 1.631349999999999909e+03
7.499999999999999722e-02 4.805260000000000087e-01 4.186115000000000208e+01 1.416324999999999932e+02 1.632170000000000073e+03
7.599999999999999811e-02 4.809419999999999806e-01 4.206465000000000032e+01 1.440939999999999941e+02 1.632929999999999836e+03
7.699999999999999900e-02 4.813149999999999928e-01 4.214620000000000033e+01 1.462994999999999948e+02 1.633619999999999891e+03
7.799999999999999989e-02 4.816399999999999570e-01 4.209595000000000198e+01 1.482205000000000155e+02 1.634240000000000009e+03
7.900000000000000078e-02 4.819144999999999679e-01 4.190805000000000291e+01 1.498350000000000080e+02 1.634779999999999973e+03
8.000000000000000167e-02 4.821370000000000378e-01 4.158064999999999856e+01 1.511345000000000027e+02 1.635230000000000018e+03
8.100000000000000255e-02 4.823079999999999590e-01 4.111660000000000537e+01 1.521185000000000116e+02 1.635590000000000146e+03
8.200000000000000344e-02 4.824294999999999556e-01 4.052264999999999873e+01 1.527969999999999970e+02 1.635865000000000009e+03
8.300000000000000433e-02 4.825055000000000316e-01 3.980964999999999776e+01 1.531899999999999977e+02 1.636054999999999836e+03
8.400000000000000522e-02 4.825399999999999689e-01 3.899174999999999613e+01 1.533245000000000005e+02 1.636174999999999955e+03
8.500000000000000611e-02 4.825389999999999957e-01 3.808574999999999733e+01 1.532350000000000136e+02 1.636220000000000027e+03
8.600000000000000699e-02 4.825085000000000068e-01 3.711075000000000301e+01 1.529590000000000032e+02 1.636204999999999927e+03
8.700000000000000788e-02 4.824555000000000371e-01 3.608674999999999500e+01 1.525380000000000109e+02 1.636144999999999982e+03
8.800000000000000877e-02 4.823859999999999815e-01 3.503434999999999633e+01 1.520140000000000100e+02 1.636045000000000073e+03
8.899999999999999578e-02 4.823070000000000412e-01 3.397355000000000302e+01 1.514270000000000209e+02 1.635914999999999964e+03
8.999999999999999667e-02 4.822239999999999860e-01 3.292300000000000182e+01 1.508154999999999859e+02 1.635769999999999982e+03
9.099999999999999756e-02 4.821429999999999882e-01 3.189924999999999855e+01 1.502135000000000105e+02 1.635619999999999891e+03
9.199999999999999845e-02 4.820674999999999821e-01 3.091619999999999990e+01 1.496485000000000127e+02 1.635469999999999800e+03
9.299999999999999933e-02 4.820010000000000128e-01 2.998425000000000296e+01 1.491419999999999959e+02 1.635329999999999927e+03
9.400000000000000022e-02 4.819459999999999855e-01 2.911045000000000016e+01 1.487090000000000032e+02 1.635204999999999927e+03
9.500000000000000111e-02 4.819019999999999415e-01 2.829804999999999993e+01 1.483559999999999945e+02 1.635095000000000027e+03
9.600000000000000200e-02 4.818694999999999506e-01 2.754670000000000130e+01 1.480824999999999818e+02 1.635005000000000109e+03
9.700000000000000289e-02 4.818474999999999842e-01 2.685255000000000081e+01 1.478815000000000168e+02 1.634934999999999945e+03
9.800000000000000377e-02 4.818329999999999558e-01 2.620899999999999963e+01 1.477400000000000091e+02 1.634875000000000000e+03
9.900000000000000466e-02 4.818224999999999869e-01 2.560670000000000002e+01 1.476405000000000030e+02 1.634829999999999927e+03
1.000000000000000056e-01 4.818135000000000057e-01 2.503475000000000250e+01 1.475600000000000023e+02 1.634789999999999964e+03
1.010000000000000064e-01 4.818019999999999525e-01 2.448094999999999999e+01 1.474764999999999873e+02 1.634759999999999991e+03
1.020000000000000073e-01 4.817835000000000312e-01 2.393285000000000196e+01 1.473654999999999973e+02 1.634715000000000146e+03
1.030000000000000082e-01 4.817549999999999888e-01 2.337825000000000131e+01 1.472034999999999911e+02 1.634659999999999854e+03
1.040000000000000091e-01 4.817124999999999879e-01 2.280600000000000094e+01 1.469694999999999823e+02 1.634595000000000027e+03
1.050000000000000100e-01 4.816550000000000553e-01 2.220639999999999858e+01 1.466454999999999984e+02 1.634505000000000109e+03
1.059999999999999970e-01 4.815789999999999793e-01 2.157189999999999941e+01 1.462169999999999845e+02 1.634389999999999873e+03
1.069999999999999979e-01 4.814844999999999819e-01 2.089734999999999943e+01 1.456769999999999925e+02 1.634244999999999891e+03
1.079999999999999988e-01 4.813700000000000201e-01 2.018039999999999878e+01 1.450204999999999984e+02 1.634075000000000045e+03
1.089999999999999997e-01 4.812374999999999847e-01 1.942149999999999821e+01 1.442514999999999930e+02 1.633864999999999782e+03
1.100000000000000006e-01 4.810884999999999745e-01 1.862369999999999948e+01 1.433765000000000214e+02 1.633630000000000109e+03
1.110000000000000014e-01 4.809244999999999770e-01 1.779284999999999783e+01 1.424089999999999918e+02 1.633369999999999891e+03
1.120000000000000023e-01 4.807500000000000107e-01 1.693699999999999761e+01 1.413659999999999854e+02 1.633090000000000146e+03
1.130000000000000032e-01 4.805669999999999664e-01 1.606615000000000038e+01 1.402674999999999841e+02 1.632785000000000082e+03
1.140000000000000041e-01 4.803804999999999881e-01 1.519172999999999973e+01 1.391384999999999934e+02 1.632474999999999909e+03
1.150000000000000050e-01 4.801940000000000097e-01 1.432614500000000035e+01 1.380024999999999977e+02 1.632154999999999973e+03
1.160000000000000059e-01 4.800114999999999799e-01 1.348186000000000107e+01 1.368859999999999957e+02 1.631840000000000146e+03
1.170000000000000068e-01 4.798379999999999868e-01 1.267123499999999936e+01 1.358114999999999952e+02 1.631525000000000091e+03
1.180000000000000077e-01 4.796755000000000324e-01 1.190577499999999844e+01 1.348020000000000209e+02 1.631230000000000018e+03
1.190000000000000085e-01 4.795280000000000098e-01 1.119553999999999938e+01 1.338770000000000095e+02 1.630949999999999818e+03
1.200000000000000094e-01 4.793974999999999764e-01 1.054874000000000045e+01 1.330519999999999925e+02 1.630700000000000045e+03
1.209999999999999964e-01 4.792850000000000166e-01 9.971584999999999255e+00 1.323374999999999773e+02 1.630474999999999909e+03
1.219999999999999973e-01 4.791920000000000068e-01 9.467874999999999375e+00 1.317409999999999854e+02 1.630280000000000200e+03
1.229999999999999982e-01 4.791180000000000438e-01 9.039019999999998944e+00 1.312634999999999934e+02 1.630115000000000009e+03
1.239999999999999991e-01 4.790634999999999755e-01 8.684120000000000061e+00 1.309025000000000034e+02 1.629990000000000009e+03
1.250000000000000000e-01 4.790254999999999930e-01 8.399969999999999715e+00 1.306504999999999939e+02 1.629884999999999991e+03
1.260000000000000009e-01 4.790024999999999977e-01 8.181520000000000792e+00 1.304975000000000023e+02 1.629809999999999945e+03
1.270000000000000018e-01 4.789930000000000021e-01 8.022040000000000504e+00 1.304290000000000020e+02 1.629764999999999873e+03
1.280000000000000027e-01 4.789940000000000309e-01 7.913574999999999804e+00 1.304290000000000020e+02 1.629734999999999900e+03
1.290000000000000036e-01 4.790014999999999690e-01 7.847329999999999472e+00 1.304809999999999945e+02 1.629724999999999909e+03
1.300000000000000044e-01 4.790140000000000509e-01 7.814054999999999751e+00 1.305674999999999955e+02 1.629730000000000018e+03
1.310000000000000053e-01 4.790284999999999682e-01 7.804470000000000240e+00 1.306709999999999923e+02 1.629740000000000009e+03
1.320000000000000062e-01 4.790425000000000377e-01 7.809569999999999013e+00 1.307755000000000223e+02 1.629755000000000109e+03
1.330000000000000071e-01 4.790535000000000210e-01 7.820935000000000414e+00 1.308669999999999902e+02 1.629769999999999982e+03
1.340000000000000080e-01 4.790599999999999858e-01 7.831005000000000216e+00 1.309329999999999927e+02 1.629779999999999973e+03
1.350000000000000089e-01 4.790605000000000002e-01 7.833260000000000112e+00 1.309630000000000223e+02 1.629784999999999854e+03
1.360000000000000098e-01 4.790535000000000210e-01 7.822359999999999758e+00 1.309510000000000218e+02 1.629775000000000091e+03
1.370000000000000107e-01 4.790384999999999782e-01 7.794220000000000148e+00 1.308905000000000030e+02 1.629759999999999991e+03
1.380000000000000115e-01 4.790154999999999830e-01 7.746059999999999945e+00 1.307804999999999893e+02 1.629735000000000127e+03
1.390000000000000124e-01 4.789849999999999941e-01 7.676379999999999981e+00 1.306210000000000093e+02 1.629690000000000055e+03
1.400000000000000133e-01 4.789474999999999705e-01 7.584899999999999309e+00 1.304145000000000039e+02 1.629639999999999873e+03
1.410000000000000142e-01 4.789025000000000087e-01 7.472469999999999501e+00 1.301639999999999873e+02 1.629575000000000045e+03
1.420000000000000151e-01 4.788525000000000142e-01 7.340949999999999420e+00 1.298765000000000214e+02 1.629494999999999891e+03
1.430000000000000160e-01 4.787974999999999870e-01 7.193039999999999878e+00 1.295589999999999975e+02 1.629414999999999964e+03
1.440000000000000169e-01 4.787399999999999989e-01 7.032104999999999606e+00 1.292180000000000177e+02 1.629324999999999818e+03
1.450000000000000178e-01 4.786799999999999944e-01 6.862000000000000099e+00 1.288625000000000114e+02 1.629224999999999909e+03
1.459999999999999909e-01 4.786199999999999899e-01 6.686810000000000365e+00 1.285009999999999764e+02 1.629130000000000109e+03
1.469999999999999918e-01 4.785605000000000553e-01 6.510715000000000252e+00 1.281399999999999864e+02 1.629029999999999973e+03
1.479999999999999927e-01 4.785034999999999705e-01 6.337715000000000209e+00 1.277884999999999991e+02 1.628930000000000064e+03
1.489999999999999936e-01 4.784490000000000132e-01 6.171499999999999986e+00 1.274515000000000100e+02 1.628835000000000036e+03
1.499999999999999944e-01 4.783974999999999755e-01 6.015249999999999986e+00 1.271350000000000051e+02 1.628740000000000009e+03
1.509999999999999953e-01 4.783510000000000262e-01 5.871534999999999727e+00 1.268425000000000011e+02 1.628660000000000082e+03
1.519999999999999962e-01 4.783080000000000109e-01 5.742229999999999279e+00 1.265759999999999934e+02 1.628575000000000045e+03
1.529999999999999971e-01 4.782699999999999729e-01 5.628444999999999254e+00 1.263354999999999961e+02 1.628505000000000109e+03
1.539999999999999980e-01 4.782359999999999944e-01 5.530554999999999666e+00 1.261209999999999951e+02 1.628434999999999945e+03
1.549999999999999989e-01 4.782060000000000199e-01 5.448240000000000194e+00 1.259314999999999998e+02 1.628375000000000000e+03
1.559999999999999998e-01 4.781790000000000207e-01 5.380544999999999689e+00 1.257624999999999886e+02 1.628319999999999936e+03
1.570000000000000007e-01 4.781545000000000378e-01 5.326010000000000133e+00 1.256105000000000018e+02 1.628269999999999982e+03
1.580000000000000016e-01 4.781320000000000014e-01 5.282804999999999751e+00 1.254710000000000036e+02 1.628224999999999909e+03
1.590000000000000024e-01 4.781100000000000350e-01 5.248834999999999695e+00 1.253389999999999986e+02 1.628184999999999945e+03
