# t [s], A [cm^2], U [cm/s], P [cPa], c [cm/s]
1.000000000000000021e-03 2.169774999999999898e-01 3.123215000000000297e-01 1.034200000000000017e+02 1.979990000000000009e+03
2.000000000000000042e-03 2.169190000000000007e-01 1.946490499999999901e+00 1.001230999999999938e+02 1.979614999999999782e+03
3.000000000000000062e-03 2.167494999999999838e-01 3.960947999999999691e+00 9.557195000000000107e+01 1.978585000000000036e+03
4.000000000000000083e-03 2.165114999999999956e-01 6.208866999999999692e+00 9.055379999999999541e+01 1.977154999999999973e+03
5.000000000000000104e-03 2.162519999999999998e-01 8.615050000000000097e+00 8.599289999999999168e+01 1.975609999999999900e+03
6.000000000000000125e-03 2.159999999999999976e-01 1.100789500000000132e+01 8.225749999999999318e+01 1.974125000000000000e+03
7.000000000000000146e-03 2.157644999999999980e-01 1.316450000000000031e+01 7.916394999999999982e+01 1.972764999999999873e+03
8.000000000000000167e-03 2.155499999999999916e-01 1.497116000000000113e+01 7.644904999999999973e+01 1.971549999999999955e+03
9.000000000000001055e-03 2.153619999999999979e-01 1.645175000000000054e+01 7.411169999999999902e+01 1.970500000000000000e+03
1.000000000000000194e-02 2.152040000000000064e-01 1.765024999999999977e+01 7.223414999999999964e+01 1.969630000000000109e+03
1.099999999999999936e-02 2.150765000000000038e-01 1.858980000000000032e+01 7.081034999999999968e+01 1.968930000000000064e+03
1.200000000000000025e-02 2.149780000000000024e-01 1.929180000000000206e+01 6.978659999999999286e+01 1.968404999999999973e+03
1.300000000000000114e-02 2.149039999999999839e-01 1.977205000000000013e+01 6.908514999999999873e+01 1.968019999999999982e+03
1.400000000000000203e-02 2.148494999999999988e-01 2.003960000000000008e+01 6.859364999999999668e+01 1.967739999999999782e+03
1.499999999999999944e-02 2.148094999999999866e-01 2.013064999999999927e+01 6.823895000000000266e+01 1.967545000000000073e+03
1.600000000000000033e-02 2.147840000000000027e-01 2.014209999999999923e+01 6.810589999999999122e+01 1.967429999999999836e+03
1.700000000000000122e-02 2.147809999999999997e-01 2.021475000000000222e+01 6.845324999999999704e+01 1.967440000000000055e+03
1.800000000000000211e-02 2.148110000000000019e-01 2.047054999999999936e+01 6.957450000000000045e+01 1.967619999999999891e+03
1.900000000000000300e-02 2.148805000000000021e-01 2.094910000000000139e+01 7.160040000000000759e+01 1.968009999999999991e+03
2.000000000000000042e-02 2.149869999999999837e-01 2.158460000000000178e+01 7.437770000000000437e+01 1.968599999999999909e+03
2.100000000000000130e-02 2.151184999999999903e-01 2.223170000000000002e+01 7.748914999999999509e+01 1.969335000000000036e+03
2.200000000000000219e-02 2.152554999999999885e-01 2.272180000000000177e+01 8.039154999999999518e+01 1.970110000000000127e+03
2.299999999999999961e-02 2.153774999999999995e-01 2.292190000000000083e+01 8.259759999999999991e+01 1.970809999999999945e+03
2.400000000000000050e-02 2.154689999999999939e-01 2.277490000000000236e+01 8.382554999999999268e+01 1.971344999999999800e+03
2.500000000000000139e-02 2.155229999999999924e-01 2.230809999999999960e+01 8.406454999999999700e+01 1.971670000000000073e+03
2.600000000000000228e-02 2.155409999999999826e-01 2.161280000000000001e+01 8.354220000000000823e+01 1.971799999999999955e+03
2.700000000000000316e-02 2.155334999999999890e-01 2.080485000000000184e+01 8.261664999999999281e+01 1.971769999999999982e+03
2.800000000000000058e-02 2.155120000000000091e-01 1.998355000000000103e+01 8.164289999999999736e+01 1.971664999999999964e+03
2.900000000000000147e-02 2.154874999999999985e-01 1.920449999999999946e+01 8.086214999999999975e+01 1.971529999999999973e+03
3.000000000000000236e-02 2.154670000000000196e-01 1.847135000000000105e+01 8.034954999999999359e+01 1.971414999999999964e+03
3.099999999999999978e-02 2.154510000000000036e-01 1.774770000000000181e+01 8.002655000000000030e+01 1.971324999999999818e+03
3.200000000000000067e-02 2.154360000000000164e-01 1.698000000000000043e+01 7.972145000000000437e+01 1.971240000000000009e+03
3.300000000000000155e-02 2.154169999999999974e-01 1.612429999999999808e+01 7.925360000000000582e+01 1.971139999999999873e+03
3.400000000000000244e-02 2.153879999999999961e-01 1.516734999999999900e+01 7.851064999999999827e+01 1.970985000000000127e+03
3.500000000000000333e-02 2.153484999999999983e-01 1.413770000000000060e+01 7.749880000000000280e+01 1.970769999999999982e+03
3.600000000000000422e-02 2.153010000000000201e-01 1.310255000000000081e+01 7.635224999999999795e+01 1.970510000000000218e+03
3.700000000000000511e-02 2.152525000000000133e-01 1.215305000000000035e+01 7.530095000000000027e+01 1.970240000000000009e+03
3.799999999999999906e-02 2.152125000000000010e-01 1.138160000000000061e+01 7.460765000000000668e+01 1.970009999999999991e+03
3.899999999999999994e-02 2.151914999999999800e-01 1.085829999999999984e+01 7.449474999999999625e+01 1.969880000000000109e+03
4.000000000000000083e-02 2.151965000000000128e-01 1.061359999999999992e+01 7.508230000000000359e+01 1.969894999999999982e+03
4.100000000000000172e-02 2.152310000000000056e-01 1.063074999999999903e+01 7.635419999999999163e+01 1.970075000000000045e+03
4.200000000000000261e-02 2.152919999999999834e-01 1.084984999999999999e+01 7.815864999999999441e+01 1.970400000000000091e+03
4.300000000000000350e-02 2.153725000000000223e-01 1.117934999999999945e+01 8.023969999999999914e+01 1.970835000000000036e+03
4.400000000000000439e-02 2.154610000000000136e-01 1.151374999999999993e+01 8.228719999999999857e+01 1.971324999999999818e+03
4.499999999999999833e-02 2.155464999999999742e-01 1.175024999999999942e+01 8.399344999999999573e+01 1.971795000000000073e+03
4.599999999999999922e-02 2.156150000000000011e-01 1.180325000000000024e+01 8.510214999999999463e+01 1.972184999999999945e+03
4.700000000000000011e-02 2.156575000000000020e-01 1.161384999999999934e+01 8.544119999999999493e+01 1.972430000000000064e+03
4.800000000000000100e-02 2.156664999999999832e-01 1.115259999999999962e+01 8.493710000000000093e+01 1.972494999999999891e+03
4.900000000000000189e-02 2.156405000000000127e-01 1.041813499999999948e+01 8.360970000000000368e+01 1.972355000000000018e+03
5.000000000000000278e-02 2.155779999999999919e-01 9.431754999999999001e+00 8.155324999999999136e+01 1.972019999999999982e+03
5.100000000000000366e-02 2.154834999999999945e-01 8.230164999999999509e+00 7.891034999999999400e+01 1.971505000000000109e+03
5.200000000000000455e-02 2.153634999999999855e-01 6.858604999999999841e+00 7.584469999999998890e+01 1.970840000000000146e+03
5.300000000000000544e-02 2.152224999999999833e-01 5.365415000000000489e+00 7.251914999999999623e+01 1.970054999999999836e+03
5.399999999999999939e-02 2.150679999999999814e-01 3.798526199999999964e+00 6.908110000000000639e+01 1.969195000000000164e+03
5.500000000000000028e-02 2.149065000000000003e-01 2.204175000000000217e+00 6.565704999999999814e+01 1.968295000000000073e+03
5.600000000000000117e-02 2.147439999999999904e-01 6.268949999999997580e-01 6.235304999999999609e+01 1.967389999999999873e+03
5.700000000000000205e-02 2.145849999999999980e-01 -8.896250000000001101e-01 5.926009999999999422e+01 1.966494999999999891e+03
5.800000000000000294e-02 2.144345000000000001e-01 -2.301796999999999649e+00 5.646014999999999873e+01 1.965650000000000091e+03
5.900000000000000383e-02 2.142975000000000019e-01 -3.565920499999999826e+00 5.403144999999999953e+01 1.964869999999999891e+03
6.000000000000000472e-02 2.141764999999999919e-01 -4.638840000000000074e+00 5.205039999999999623e+01 1.964194999999999936e+03
6.099999999999999867e-02 2.140775000000000039e-01 -5.479470000000000063e+00 5.059125000000000227e+01 1.963625000000000000e+03
6.199999999999999956e-02 2.140035000000000132e-01 -6.051009999999999778e+00 4.972169999999999845e+01 1.963190000000000055e+03
6.300000000000000044e-02 2.139574999999999949e-01 -6.323375000000000412e+00 4.949769999999999470e+01 1.962920000000000073e+03
6.400000000000000133e-02 2.139424999999999799e-01 -6.275560000000000471e+00 4.995720000000000027e+01 1.962815000000000055e+03
6.500000000000000222e-02 2.139599999999999835e-01 -5.897400000000000198e+00 5.111520000000000152e+01 1.962889999999999873e+03
6.600000000000000311e-02 2.140104999999999924e-01 -5.190595000000000070e+00 5.296049999999999613e+01 1.963150000000000091e+03
6.700000000000000400e-02 2.140945000000000209e-01 -4.168739999999999668e+00 5.545479999999999876e+01 1.963599999999999909e+03
6.800000000000000488e-02 2.142089999999999828e-01 -2.856560500000000058e+00 5.853509999999999991e+01 1.964214999999999918e+03
6.900000000000000577e-02 2.143519999999999870e-01 -1.288335000000000008e+00 6.211719999999999686e+01 1.965000000000000000e+03
7.000000000000000666e-02 2.145190000000000152e-01 4.940849999999998854e-01 6.610169999999999391e+01 1.965914999999999964e+03
7.100000000000000755e-02 2.147064999999999946e-01 2.443605000000000249e+00 7.037990000000000634e+01 1.966954999999999927e+03
7.200000000000000844e-02 2.149090000000000167e-01 4.510246999999999673e+00 7.484045000000000414e+01 1.968074999999999818e+03
7.300000000000000933e-02 2.151219999999999799e-01 6.643485000000000085e+00 7.937514999999999077e+01 1.969259999999999991e+03
7.399999999999999634e-02 2.153395000000000170e-01 8.794499999999999318e+00 8.388429999999999609e+01 1.970480000000000018e+03
7.499999999999999722e-02 2.155575000000000130e-01 1.091801500000000047e+01 8.828104999999999336e+01 1.971704999999999927e+03
7.599999999999999811e-02 2.157724999999999782e-01 1.297418000000000049e+01 9.249500000000000455e+01 1.972920000000000073e+03
7.699999999999999900e-02 2.159804999999999919e-01 1.492989999999999995e+01 9.647419999999999618e+01 1.974095000000000027e+03
7.799999999999999989e-02 2.161784999999999957e-01 1.675990000000000180e+01 1.001869000000000085e+02 1.975219999999999800e+03
7.900000000000000078e-02 2.163665000000000171e-01 1.844705000000000084e+01 1.036221500000000049e+02 1.976289999999999964e+03
8.000000000000000167e-02 2.165414999999999979e-01 1.998255000000000337e+01 1.067862499999999955e+02 1.977295000000000073e+03
8.100000000000000255e-02 2.167054999999999954e-01 2.136520000000000152e+01 1.097035000000000053e+02 1.978235000000000127e+03
8.200000000000000344e-02 2.168590000000000240e-01 2.260060000000000002e+01 1.124095000000000084e+02 1.979115000000000009e+03
8.300000000000000433e-02 2.170030000000000014e-01 2.369940000000000069e+01 1.149495000000000005e+02 1.979950000000000045e+03
8.400000000000000522e-02 2.171394999999999853e-01 2.467610000000000170e+01 1.173725000000000023e+02 1.980735000000000127e+03
8.500000000000000611e-02 2.172709999999999919e-01 2.554719999999999658e+01 1.197245000000000061e+02 1.981500000000000000e+03
8.600000000000000699e-02 2.173984999999999945e-01 2.632929999999999993e+01 1.220510000000000019e+02 1.982240000000000009e+03
8.700000000000000788e-02 2.175250000000000239e-01 2.703815000000000168e+01 1.243855000000000075e+02 1.982969999999999800e+03
8.800000000000000877e-02 2.176509999999999834e-01 2.768710000000000093e+01 1.267519999999999953e+02 1.983700000000000045e+03
8.899999999999999578e-02 2.177784999999999860e-01 2.828625000000000256e+01 1.291630000000000109e+02 1.984434999999999945e+03
8.999999999999999667e-02 2.179075000000000040e-01 2.884205000000000041e+01 1.316200000000000045e+02 1.985174999999999955e+03
9.099999999999999756e-02 2.180374999999999952e-01 2.935719999999999885e+01 1.341115000000000066e+02 1.985930000000000064e+03
9.199999999999999845e-02 2.181690000000000018e-01 2.983054999999999879e+01 1.366154999999999973e+02 1.986684999999999945e+03
9.299999999999999933e-02 2.183005000000000084e-01 3.025769999999999982e+01 1.391050000000000182e+02 1.987440000000000055e+03
9.400000000000000022e-02 2.184304999999999997e-01 3.063125000000000142e+01 1.415425000000000182e+02 1.988195000000000164e+03
9.500000000000000111e-02 2.185575000000000156e-01 3.094190000000000040e+01 1.438924999999999841e+02 1.988924999999999955e+03
9.600000000000000200e-02 2.186799999999999855e-01 3.117900000000000205e+01 1.461134999999999877e+02 1.989634999999999991e+03
9.700000000000000289e-02 2.187965000000000049e-01 3.133115000000000094e+01 1.481680000000000064e+02 1.990304999999999836e+03
9.800000000000000377e-02 2.189039999999999875e-01 3.138734999999999786e+01 1.500204999999999984e+02 1.990929999999999836e+03
9.900000000000000466e-02 2.190024999999999888e-01 3.133755000000000024e+01 1.516399999999999864e+02 1.991505000000000109e+03
1.000000000000000056e-01 2.190889999999999782e-01 3.117310000000000159e+01 1.530009999999999764e+02 1.992009999999999991e+03
1.010000000000000064e-01 2.191629999999999967e-01 3.088770000000000238e+01 1.540849999999999795e+02 1.992444999999999936e+03
1.020000000000000073e-01 2.192240000000000022e-01 3.047744999999999749e+01 1.548815000000000168e+02 1.992799999999999955e+03
1.030000000000000082e-01 2.192705000000000071e-01 2.994164999999999921e+01 1.553870000000000005e+02 1.993079999999999927e+03
1.040000000000000091e-01 2.193029999999999979e-01 2.928249999999999886e+01 1.556059999999999945e+02 1.993275000000000091e+03
1.050000000000000100e-01 2.193215000000000026e-01 2.850554999999999950e+01 1.555500000000000114e+02 1.993384999999999991e+03
1.059999999999999970e-01 2.193265000000000076e-01 2.761934999999999718e+01 1.552394999999999925e+02 1.993430000000000064e+03
1.069999999999999979e-01 2.193189999999999862e-01 2.663560000000000016e+01 1.546990000000000123e+02 1.993389999999999873e+03
1.079999999999999988e-01 2.192989999999999939e-01 2.556804999999999950e+01 1.539594999999999914e+02 1.993289999999999964e+03
1.089999999999999997e-01 2.192700000000000204e-01 2.443274999999999864e+01 1.530550000000000068e+02 1.993134999999999991e+03
1.100000000000000006e-01 2.192319999999999824e-01 2.324699999999999989e+01 1.520219999999999914e+02 1.992920000000000073e+03
1.110000000000000014e-01 2.191869999999999929e-01 2.202884999999999849e+01 1.508979999999999961e+02 1.992670000000000073e+03
1.120000000000000023e-01 2.191375000000000128e-01 2.079650000000000176e+01 1.497194999999999823e+02 1.992384999999999991e+03
1.130000000000000032e-01 2.190845000000000153e-01 1.956749999999999901e+01 1.485204999999999984e+02 1.992085000000000036e+03
1.140000000000000041e-01 2.190294999999999881e-01 1.835815000000000197e+01 1.473329999999999984e+02 1.991769999999999982e+03
1.150000000000000050e-01 2.189740000000000020e-01 1.718325000000000102e+01 1.461829999999999927e+02 1.991454999999999927e+03
1.160000000000000059e-01 2.189194999999999891e-01 1.605519999999999925e+01 1.450914999999999964e+02 1.991144999999999982e+03
1.170000000000000068e-01 2.188674999999999926e-01 1.498409999999999975e+01 1.440745000000000005e+02 1.990845000000000027e+03
1.180000000000000077e-01 2.188180000000000125e-01 1.397719999999999985e+01 1.431409999999999911e+02 1.990549999999999955e+03
1.190000000000000085e-01 2.187724999999999809e-01 1.303870000000000040e+01 1.422944999999999993e+02 1.990284999999999854e+03
1.200000000000000094e-01 2.187294999999999934e-01 1.217014999999999958e+01 1.415319999999999823e+02 1.990034999999999854e+03
1.209999999999999964e-01 2.186905000000000099e-01 1.137008499999999955e+01 1.408460000000000036e+02 1.989809999999999945e+03
1.219999999999999973e-01 2.186549999999999883e-01 1.063451000000000057e+01 1.402224999999999966e+02 1.989595000000000027e+03
1.229999999999999982e-01 2.186210000000000098e-01 9.957264999999999588e+00 1.396435000000000173e+02 1.989394999999999982e+03
1.239999999999999991e-01 2.185900000000000065e-01 9.330239999999999867e+00 1.390899999999999750e+02 1.989210000000000036e+03
1.250000000000000000e-01 2.185595000000000176e-01 8.743940000000000268e+00 1.385389999999999873e+02 1.989034999999999854e+03
1.260000000000000009e-01 2.185290000000000010e-01 8.188040000000000873e+00 1.379675000000000011e+02 1.988849999999999909e+03
1.270000000000000018e-01 2.184969999999999968e-01 7.651915000000000688e+00 1.373530000000000086e+02 1.988670000000000073e+03
1.280000000000000027e-01 2.184634999999999772e-01 7.125214999999999854e+00 1.366744999999999948e+02 1.988469999999999800e+03
1.290000000000000036e-01 2.184269999999999823e-01 6.598345000000000127e+00 1.359145000000000039e+02 1.988259999999999991e+03
1.300000000000000044e-01 2.183864999999999834e-01 6.063029999999999475e+00 1.350584999999999809e+02 1.988019999999999982e+03
1.310000000000000053e-01 2.183414999999999939e-01 5.512685000000000279e+00 1.340969999999999800e+02 1.987759999999999991e+03
1.320000000000000062e-01 2.182914999999999994e-01 4.942790000000000461e+00 1.330260000000000105e+02 1.987480000000000018e+03
1.330000000000000071e-01 2.182359999999999856e-01 4.351099999999999746e+00 1.318460000000000036e+02 1.987164999999999964e+03
1.340000000000000080e-01 2.181760000000000088e-01 3.737804999999999822e+00 1.305645000000000095e+02 1.986815000000000055e+03
1.350000000000000089e-01 2.181109999999999993e-01 3.105490000000000084e+00 1.291935000000000002e+02 1.986450000000000045e+03
1.360000000000000098e-01 2.180420000000000136e-01 2.459046500000000357e+00 1.277500000000000000e+02 1.986049999999999955e+03
1.370000000000000107e-01 2.179694999999999827e-01 1.805390150000000027e+00 1.262549999999999955e+02 1.985634999999999991e+03
1.380000000000000115e-01 2.178940000000000043e-01 1.153147499999999992e+00 1.247334999999999923e+02 1.985210000000000036e+03
1.390000000000000124e-01 2.178184999999999982e-01 5.122049999999999104e-01 1.232115000000000009e+02 1.984775000000000091e+03
1.400000000000000133e-01 2.177419999999999911e-01 -1.067850000000000188e-01 1.217169999999999987e+02 1.984335000000000036e+03
1.410000000000000142e-01 2.176665000000000127e-01 -6.929240000000000954e-01 1.202760000000000105e+02 1.983905000000000200e+03
1.420000000000000151e-01 2.175934999999999953e-01 -1.235597999999999974e+00 1.189149999999999920e+02 1.983490000000000009e+03
1.430000000000000160e-01 2.175245000000000095e-01 -1.724989499999999953e+00 1.176554999999999893e+02 1.983095000000000027e+03
1.440000000000000169e-01 2.174605000000000010e-01 -2.152496000000000187e+00 1.165169999999999959e+02 1.982724999999999909e+03
1.450000000000000178e-01 2.174014999999999975e-01 -2.511155000000000026e+00 1.155140000000000100e+02 1.982384999999999991e+03
1.459999999999999909e-01 2.173490000000000144e-01 -2.795875000000000110e+00 1.146560000000000059e+02 1.982079999999999927e+03
1.469999999999999918e-01 2.173034999999999828e-01 -3.003675000000000317e+00 1.139475000000000051e+02 1.981815000000000055e+03
1.479999999999999927e-01 2.172649999999999859e-01 -3.133720000000000283e+00 1.133880000000000052e+02 1.981590000000000146e+03
1.489999999999999936e-01 2.172330000000000094e-01 -3.187335000000000029e+00 1.129735000000000014e+02 1.981404999999999973e+03
1.499999999999999944e-01 2.172084999999999988e-01 -3.167885000000000062e+00 1.126930000000000121e+02 1.981255000000000109e+03
1.509999999999999953e-01 2.171905000000000086e-01 -3.080564999999999998e+00 1.125345000000000084e+02 1.981150000000000091e+03
1.519999999999999962e-01 2.171784999999999966e-01 -2.932190000000000296e+00 1.124815000000000111e+02 1.981070000000000164e+03
1.529999999999999971e-01 2.171715000000000173e-01 -2.730830000000000091e+00 1.125155000000000030e+02 1.981025000000000091e+03
1.539999999999999980e-01 2.171690000000000009e-01 -2.485534999999999606e+00 1.126179999999999950e+02 1.981005000000000109e+03
1.549999999999999989e-01 2.171700000000000019e-01 -2.205935000000000201e+00 1.127680000000000007e+02 1.981005000000000109e+03
1.559999999999999998e-01 2.171735000000000193e-01 -1.901949999999999807e+00 1.129459999999999980e+02 1.981019999999999982e+03
1.570000000000000007e-01 2.171790000000000109e-01 -1.583420000000000050e+00 1.131340000000000003e+02 1.981049999999999955e+03
1.580000000000000016e-01 2.171845000000000026e-01 -1.259849999999999914e+00 1.133139999999999930e+02 1.981079999999999927e+03
1.590000000000000024e-01 2.171909999999999952e-01 -9.401070000000000260e-01 1.134710000000000036e+02 1.981115000000000009e+03
