# t [s], A [cm^2], U [cm/s], P [cPa], c [cm/s]
1.000000000000000021e-03 1.986100000000000088e-01 1.283564999999999845e-01 8.898390000000000555e+01 2.241194999999999709e+03
2.000000000000000042e-03 1.985695000000000099e-01 1.296666999999999792e+00 8.630414999999999281e+01 2.240880000000000109e+03
3.000000000000000062e-03 1.984545000000000059e-01 2.835934500000000025e+00 8.232294999999999163e+01 2.240050000000000182e+03
4.000000000000000083e-03 1.982935000000000114e-01 4.617818500000000270e+00 7.771225000000001160e+01 2.238914999999999964e+03
5.000000000000000104e-03 1.981189999999999896e-01 6.583099999999999952e+00 7.335330000000000439e+01 2.237690000000000055e+03
6.000000000000000125e-03 1.979525000000000035e-01 8.585905000000000342e+00 6.968160000000000309e+01 2.236529999999999745e+03
7.000000000000000146e-03 1.977964999999999862e-01 1.039897500000000008e+01 6.653900000000000148e+01 2.235465000000000146e+03
8.000000000000000167e-03 1.976519999999999944e-01 1.190714000000000006e+01 6.368104999999999905e+01 2.234510000000000218e+03
9.000000000000001055e-03 1.975259999999999794e-01 1.313918499999999945e+01 6.116485000000000127e+01 2.233679999999999836e+03
1.000000000000000194e-02 1.974199999999999844e-01 1.413370000000000104e+01 5.909785000000000110e+01 2.232994999999999891e+03
1.099999999999999936e-02 1.973354999999999970e-01 1.491175000000000139e+01 5.748584999999999923e+01 2.232449999999999818e+03
1.200000000000000025e-02 1.972694999999999865e-01 1.549114999999999931e+01 5.628029999999999688e+01 2.232034999999999854e+03
1.300000000000000114e-02 1.972194999999999920e-01 1.587025000000000041e+01 5.536159999999999570e+01 2.231724999999999909e+03
1.400000000000000203e-02 1.971780000000000199e-01 1.604964999999999975e+01 5.456879999999999598e+01 2.231474999999999909e+03
1.499999999999999944e-02 1.971439999999999859e-01 1.609465000000000146e+01 5.388060000000000116e+01 2.231269999999999982e+03
1.600000000000000033e-02 1.971235000000000070e-01 1.615350000000000108e+01 5.354769999999999897e+01 2.231154999999999745e+03
1.700000000000000122e-02 1.971269999999999967e-01 1.639325000000000188e+01 5.398479999999999990e+01 2.231185000000000400e+03
1.800000000000000211e-02 1.971640000000000059e-01 1.690330000000000155e+01 5.548819999999999908e+01 2.231420000000000073e+03
1.900000000000000300e-02 1.972339999999999927e-01 1.764164999999999850e+01 5.800065000000000026e+01 2.231875000000000000e+03
2.000000000000000042e-02 1.973270000000000024e-01 1.845390000000000086e+01 6.107999999999999829e+01 2.232480000000000018e+03
2.100000000000000130e-02 1.974250000000000171e-01 1.914424999999999955e+01 6.406820000000000448e+01 2.233135000000000218e+03
2.200000000000000219e-02 1.975104999999999777e-01 1.955579999999999785e+01 6.634935000000000116e+01 2.233715000000000146e+03
2.299999999999999961e-02 1.975689999999999946e-01 1.962380000000000280e+01 6.756600000000000250e+01 2.234125000000000000e+03
2.400000000000000050e-02 1.975970000000000226e-01 1.938504999999999967e+01 6.770865000000000578e+01 2.234340000000000146e+03
2.500000000000000139e-02 1.975989999999999969e-01 1.894664999999999822e+01 6.706319999999999482e+01 2.234375000000000000e+03
2.600000000000000228e-02 1.975835000000000230e-01 1.843370000000000175e+01 6.605545000000000755e+01 2.234289999999999964e+03
2.700000000000000316e-02 1.975625000000000020e-01 1.793829999999999814e+01 6.506985000000000241e+01 2.234150000000000091e+03
2.800000000000000058e-02 1.975415000000000088e-01 1.749065000000000225e+01 6.431340000000000146e+01 2.234010000000000218e+03
2.900000000000000147e-02 1.975239999999999774e-01 1.705744999999999933e+01 6.376930000000000121e+01 2.233889999999999873e+03
3.000000000000000236e-02 1.975060000000000149e-01 1.656609999999999872e+01 6.324209999999999354e+01 2.233765000000000327e+03
3.099999999999999978e-02 1.974809999999999899e-01 1.594195000000000029e+01 6.246739999999999782e+01 2.233610000000000127e+03
3.200000000000000067e-02 1.974434999999999940e-01 1.514519999999999911e+01 6.124175000000000324e+01 2.233369999999999891e+03
3.300000000000000155e-02 1.973914999999999975e-01 1.419594999999999985e+01 5.952714999999999890e+01 2.233034999999999854e+03
3.400000000000000244e-02 1.973270000000000024e-01 1.317735000000000056e+01 5.749365000000000236e+01 2.232619999999999891e+03
3.500000000000000333e-02 1.972599999999999909e-01 1.221565499999999993e+01 5.548409999999999798e+01 2.232179999999999836e+03
3.600000000000000422e-02 1.972015000000000018e-01 1.144470499999999902e+01 5.391455000000000553e+01 2.231784999999999854e+03
3.700000000000000511e-02 1.971634999999999915e-01 1.096779000000000082e+01 5.314750000000000085e+01 2.231519999999999982e+03
3.799999999999999906e-02 1.971535000000000093e-01 1.082959999999999923e+01 5.338384999999999536e+01 2.231434999999999945e+03
3.899999999999999994e-02 1.971749999999999892e-01 1.100665000000000049e+01 5.460730000000000217e+01 2.231545000000000073e+03
4.000000000000000083e-02 1.972230000000000094e-01 1.141639999999999944e+01 5.659275000000000233e+01 2.231845000000000255e+03
4.100000000000000172e-02 1.972895000000000065e-01 1.193909999999999982e+01 5.896730000000000160e+01 2.232269999999999982e+03
4.200000000000000261e-02 1.973624999999999963e-01 1.244534999999999947e+01 6.130039999999999623e+01 2.232750000000000000e+03
4.300000000000000350e-02 1.974290000000000211e-01 1.282055000000000078e+01 6.319435000000000002e+01 2.233194999999999709e+03
4.400000000000000439e-02 1.974790000000000156e-01 1.298290000000000077e+01 6.435490000000000066e+01 2.233534999999999854e+03
4.499999999999999833e-02 1.975044999999999995e-01 1.289024999999999999e+01 6.462770000000000437e+01 2.233715000000000146e+03
4.599999999999999922e-02 1.975029999999999841e-01 1.253794999999999860e+01 6.399960000000000093e+01 2.233720000000000255e+03
4.700000000000000011e-02 1.974734999999999963e-01 1.194969999999999999e+01 6.256959999999999411e+01 2.233539999999999964e+03
4.800000000000000100e-02 1.974204999999999988e-01 1.116514000000000095e+01 6.050424999999999898e+01 2.233199999999999818e+03
4.900000000000000189e-02 1.973484999999999823e-01 1.022797500000000070e+01 5.799020000000000152e+01 2.232730000000000018e+03
5.000000000000000278e-02 1.972619999999999929e-01 9.178079999999999572e+00 5.519695000000000107e+01 2.232170000000000073e+03
5.100000000000000366e-02 1.971660000000000079e-01 8.047644999999999271e+00 5.225629999999999598e+01 2.231539999999999964e+03
5.200000000000000455e-02 1.970644999999999758e-01 6.862160000000000259e+00 4.925900000000000034e+01 2.230869999999999891e+03
5.300000000000000544e-02 1.969599999999999962e-01 5.644115000000000215e+00 4.626555000000000462e+01 2.230175000000000182e+03
5.399999999999999939e-02 1.968544999999999878e-01 4.417234999999999800e+00 4.332339999999999947e+01 2.229474999999999909e+03
5.500000000000000028e-02 1.967504999999999948e-01 3.210637000000000185e+00 4.048470000000000368e+01 2.228784999999999854e+03
5.600000000000000117e-02 1.966499999999999915e-01 2.060715000000000074e+00 3.781940000000000168e+01 2.228114999999999782e+03
5.700000000000000205e-02 1.965569999999999817e-01 1.010864999999999903e+00 3.541949999999999932e+01 2.227494999999999891e+03
5.800000000000000294e-02 1.964744999999999964e-01 1.089349999999998930e-01 3.339624999999999488e+01 2.226940000000000055e+03
5.900000000000000383e-02 1.964069999999999983e-01 -5.967989999999998574e-01 3.186955000000000027e+01 2.226480000000000018e+03
6.000000000000000472e-02 1.963575000000000181e-01 -1.062389599999999934e+00 3.095385000000000275e+01 2.226135000000000218e+03
6.099999999999999867e-02 1.963310000000000055e-01 -1.252540999999999904e+00 3.074425000000000097e+01 2.225944999999999709e+03
6.199999999999999956e-02 1.963294999999999901e-01 -1.144018999999999897e+00 3.130404999999999660e+01 2.225909999999999854e+03
6.300000000000000044e-02 1.963544999999999874e-01 -7.275129999999999653e-01 3.265784999999999627e+01 2.226055000000000291e+03
6.400000000000000133e-02 1.964064999999999839e-01 -8.105000000000028848e-03 3.478929999999999723e+01 2.226380000000000109e+03
6.500000000000000222e-02 1.964854999999999796e-01 9.956500000000000350e-01 3.764289999999999736e+01 2.226880000000000109e+03
6.600000000000000311e-02 1.965884999999999994e-01 2.253635999999999751e+00 4.113065000000000282e+01 2.227539999999999964e+03
6.700000000000000400e-02 1.967125000000000123e-01 3.726720999999999950e+00 4.514005000000000223e+01 2.228349999999999909e+03
6.800000000000000488e-02 1.968540000000000012e-01 5.369799999999999685e+00 4.954399999999999693e+01 2.229275000000000091e+03
6.900000000000000577e-02 1.970085000000000031e-01 7.134990000000000165e+00 5.421065000000000111e+01 2.230295000000000073e+03
7.000000000000000666e-02 1.971729999999999872e-01 8.974824999999999164e+00 5.901344999999999885e+01 2.231375000000000000e+03
7.100000000000000755e-02 1.973415000000000030e-01 1.084515999999999991e+01 6.383955000000000268e+01 2.232494999999999891e+03
7.200000000000000844e-02 1.975109999999999921e-01 1.270795999999999992e+01 6.859704999999999586e+01 2.233625000000000000e+03
7.300000000000000933e-02 1.976795000000000080e-01 1.453265000000000029e+01 7.321969999999998890e+01 2.234750000000000000e+03
7.399999999999999634e-02 1.978440000000000198e-01 1.629749999999999943e+01 7.766884999999999195e+01 2.235855000000000018e+03
7.499999999999999722e-02 1.980040000000000133e-01 1.798920000000000030e+01 8.193199999999998795e+01 2.236930000000000291e+03
7.599999999999999811e-02 1.981585000000000152e-01 1.960210000000000008e+01 8.601904999999999291e+01 2.237975000000000364e+03
7.699999999999999900e-02 1.983084999999999987e-01 2.113660000000000139e+01 8.995574999999999477e+01 2.238984999999999673e+03
7.799999999999999989e-02 1.984539999999999915e-01 2.259700000000000131e+01 9.377700000000000102e+01 2.239965000000000146e+03
7.900000000000000078e-02 1.985959999999999948e-01 2.398960000000000292e+01 9.751869999999999550e+01 2.240925000000000182e+03
8.000000000000000167e-02 1.987364999999999826e-01 2.532099999999999795e+01 1.012131499999999988e+02 2.241880000000000109e+03
8.100000000000000255e-02 1.988749999999999962e-01 2.659669999999999845e+01 1.048824000000000041e+02 2.242814999999999600e+03
8.200000000000000344e-02 1.990124999999999811e-01 2.782039999999999935e+01 1.085399999999999920e+02 2.243755000000000109e+03
8.300000000000000433e-02 1.991499999999999937e-01 2.899374999999999858e+01 1.121864999999999952e+02 2.244679999999999836e+03
8.400000000000000522e-02 1.992865000000000053e-01 3.011674999999999969e+01 1.158145000000000095e+02 2.245605000000000018e+03
8.500000000000000611e-02 1.994219999999999882e-01 3.118730000000000047e+01 1.194089999999999918e+02 2.246524999999999636e+03
8.600000000000000699e-02 1.995560000000000112e-01 3.220220000000000482e+01 1.229499999999999886e+02 2.247429999999999836e+03
8.700000000000000788e-02 1.996870000000000034e-01 3.315694999999999482e+01 1.264124999999999943e+02 2.248329999999999927e+03
8.800000000000000877e-02 1.998159999999999936e-01 3.404625000000000057e+01 1.297729999999999961e+02 2.249199999999999818e+03
8.899999999999999578e-02 1.999404999999999932e-01 3.486379999999999768e+01 1.330049999999999955e+02 2.250050000000000182e+03
8.999999999999999667e-02 2.000600000000000156e-01 3.560240000000000293e+01 1.360805000000000007e+02 2.250864999999999782e+03
9.099999999999999756e-02 2.001735000000000042e-01 3.625424999999999898e+01 1.389710000000000036e+02 2.251640000000000327e+03
9.199999999999999845e-02 2.002805000000000002e-01 3.681114999999999782e+01 1.416505000000000223e+02 2.252369999999999891e+03
9.299999999999999933e-02 2.003790000000000016e-01 3.726494999999999891e+01 1.440910000000000082e+02 2.253050000000000182e+03
9.400000000000000022e-02 2.004694999999999949e-01 3.760829999999999984e+01 1.462680000000000007e+02 2.253664999999999964e+03
9.500000000000000111e-02 2.005494999999999917e-01 3.783500000000000085e+01 1.481614999999999895e+02 2.254220000000000255e+03
9.600000000000000200e-02 2.006195000000000062e-01 3.794100000000000250e+01 1.497564999999999884e+02 2.254704999999999927e+03
9.700000000000000289e-02 2.006789999999999963e-01 3.792504999999999882e+01 1.510459999999999923e+02 2.255114999999999782e+03
9.800000000000000377e-02 2.007275000000000031e-01 3.778889999999999816e+01 1.520310000000000059e+02 2.255454999999999927e+03
9.900000000000000466e-02 2.007649999999999990e-01 3.753754999999999598e+01 1.527235000000000014e+02 2.255720000000000255e+03
1.000000000000000056e-01 2.007924999999999849e-01 3.717914999999999992e+01 1.531430000000000007e+02 2.255914999999999964e+03
1.010000000000000064e-01 2.008099999999999885e-01 3.672485000000000355e+01 1.533170000000000073e+02 2.256045000000000073e+03
1.020000000000000073e-01 2.008189999999999975e-01 3.618775000000000119e+01 1.532789999999999964e+02 2.256114999999999782e+03
1.030000000000000082e-01 2.008209999999999995e-01 3.558275000000000432e+01 1.530670000000000073e+02 2.256135000000000218e+03
1.040000000000000091e-01 2.008169999999999955e-01 3.492534999999999457e+01 1.527210000000000036e+02 2.256109999999999673e+03
1.050000000000000100e-01 2.008074999999999999e-01 3.423130000000000450e+01 1.522780000000000200e+02 2.256055000000000291e+03
1.059999999999999970e-01 2.007950000000000013e-01 3.351569999999999538e+01 1.517749999999999773e+02 2.255974999999999909e+03
1.069999999999999979e-01 2.007800000000000140e-01 3.279245000000000232e+01 1.512445000000000164e+02 2.255875000000000000e+03
1.079999999999999988e-01 2.007634999999999836e-01 3.207374999999999687e+01 1.507135000000000105e+02 2.255765000000000327e+03
1.089999999999999997e-01 2.007475000000000231e-01 3.136979999999999791e+01 1.502040000000000077e+02 2.255654999999999745e+03
1.100000000000000006e-01 2.007309999999999928e-01 3.068844999999999601e+01 1.497309999999999945e+02 2.255539999999999964e+03
1.110000000000000014e-01 2.007154999999999911e-01 3.003480000000000061e+01 1.493015000000000043e+02 2.255439999999999600e+03
1.120000000000000023e-01 2.007014999999999771e-01 2.941144999999999854e+01 1.489184999999999945e+02 2.255340000000000146e+03
1.130000000000000032e-01 2.006884999999999919e-01 2.881814999999999927e+01 1.485765000000000100e+02 2.255250000000000000e+03
1.140000000000000041e-01 2.006765000000000077e-01 2.825234999999999985e+01 1.482644999999999982e+02 2.255164999999999964e+03
1.150000000000000050e-01 2.006649999999999823e-01 2.770915000000000106e+01 1.479669999999999845e+02 2.255085000000000036e+03
1.160000000000000059e-01 2.006539999999999990e-01 2.718189999999999884e+01 1.476630000000000109e+02 2.255005000000000109e+03
1.170000000000000068e-01 2.006415000000000004e-01 2.666260000000000119e+01 1.473299999999999841e+02 2.254925000000000182e+03
1.180000000000000077e-01 2.006280000000000008e-01 2.614245000000000019e+01 1.469445000000000050e+02 2.254835000000000036e+03
1.190000000000000085e-01 2.006129999999999858e-01 2.561270000000000024e+01 1.464834999999999923e+02 2.254724999999999909e+03
1.200000000000000094e-01 2.005939999999999945e-01 2.506494999999999962e+01 1.459259999999999877e+02 2.254599999999999909e+03
1.209999999999999964e-01 2.005724999999999869e-01 2.449190000000000111e+01 1.452529999999999859e+02 2.254449999999999818e+03
1.219999999999999973e-01 2.005460000000000020e-01 2.388785000000000025e+01 1.444534999999999911e+02 2.254275000000000091e+03
1.229999999999999982e-01 2.005155000000000132e-01 2.324909999999999854e+01 1.435199999999999818e+02 2.254074999999999818e+03
1.239999999999999991e-01 2.004805000000000059e-01 2.257434999999999903e+01 1.424524999999999864e+02 2.253835000000000036e+03
1.250000000000000000e-01 2.004404999999999937e-01 2.186464999999999748e+01 1.412570000000000050e+02 2.253569999999999709e+03
1.260000000000000009e-01 2.003965000000000052e-01 2.112375000000000114e+01 1.399474999999999909e+02 2.253269999999999982e+03
1.270000000000000018e-01 2.003484999999999849e-01 2.035779999999999745e+01 1.385424999999999898e+02 2.252949999999999818e+03
1.280000000000000027e-01 2.002975000000000172e-01 1.957489999999999952e+01 1.370674999999999955e+02 2.252600000000000364e+03
1.290000000000000036e-01 2.002440000000000053e-01 1.878495000000000203e+01 1.355520000000000209e+02 2.252244999999999891e+03
1.300000000000000044e-01 2.001894999999999925e-01 1.799909999999999854e+01 1.340275000000000034e+02 2.251875000000000000e+03
1.310000000000000053e-01 2.001354999999999940e-01 1.722895000000000110e+01 1.325255000000000223e+02 2.251510000000000218e+03
1.320000000000000062e-01 2.000814999999999955e-01 1.648610000000000042e+01 1.310775000000000148e+02 2.251144999999999982e+03
1.330000000000000071e-01 2.000299999999999856e-01 1.578140000000000143e+01 1.297135000000000105e+02 2.250795000000000073e+03
1.340000000000000080e-01 1.999815000000000065e-01 1.512434999999999974e+01 1.284565000000000055e+02 2.250465000000000146e+03
1.350000000000000089e-01 1.999364999999999892e-01 1.452299999999999969e+01 1.273274999999999864e+02 2.250159999999999854e+03
1.360000000000000098e-01 1.998965000000000047e-01 1.398329999999999984e+01 1.263389999999999986e+02 2.249880000000000109e+03
1.370000000000000107e-01 1.998610000000000109e-01 1.350895000000000046e+01 1.254994999999999976e+02 2.249635000000000218e+03
1.380000000000000115e-01 1.998305000000000220e-01 1.310170000000000101e+01 1.248110000000000070e+02 2.249425000000000182e+03
1.390000000000000124e-01 1.998054999999999970e-01 1.276115000000000066e+01 1.242699999999999960e+02 2.249250000000000000e+03
1.400000000000000133e-01 1.997849999999999904e-01 1.248505000000000109e+01 1.238684999999999974e+02 2.249105000000000018e+03
1.410000000000000142e-01 1.997694999999999887e-01 1.226954999999999885e+01 1.235939999999999941e+02 2.248994999999999891e+03
1.420000000000000151e-01 1.997590000000000199e-01 1.210964999999999847e+01 1.234339999999999975e+02 2.248920000000000073e+03
1.430000000000000160e-01 1.997514999999999985e-01 1.199920000000000009e+01 1.233714999999999975e+02 2.248864999999999782e+03
1.440000000000000169e-01 1.997480000000000089e-01 1.193149999999999977e+01 1.233900000000000006e+02 2.248835000000000036e+03
1.450000000000000178e-01 1.997470000000000079e-01 1.189939999999999998e+01 1.234724999999999966e+02 2.248829999999999927e+03
1.459999999999999909e-01 1.997484999999999955e-01 1.189555000000000007e+01 1.236014999999999873e+02 2.248835000000000036e+03
1.469999999999999918e-01 1.997514999999999985e-01 1.191295000000000037e+01 1.237620000000000005e+02 2.248849999999999909e+03
1.479999999999999927e-01 1.997559999999999891e-01 1.194470000000000098e+01 1.239394999999999953e+02 2.248880000000000109e+03
1.489999999999999936e-01 1.997609999999999941e-01 1.198455000000000048e+01 1.241204999999999927e+02 2.248909999999999854e+03
1.499999999999999944e-01 1.997659999999999991e-01 1.202684999999999960e+01 1.242944999999999993e+02 2.248944999999999709e+03
1.509999999999999953e-01 1.997714999999999907e-01 1.206690000000000040e+01 1.244525000000000006e+02 2.248980000000000018e+03
1.519999999999999962e-01 1.997764999999999957e-01 1.210089999999999932e+01 1.245875000000000057e+02 2.249014999999999873e+03
1.529999999999999971e-01 1.997804999999999997e-01 1.212594999999999956e+01 1.246949999999999932e+02 2.249034999999999854e+03
1.539999999999999980e-01 1.997835000000000027e-01 1.214015000000000022e+01 1.247740000000000009e+02 2.249059999999999945e+03
1.549999999999999989e-01 1.997859999999999914e-01 1.214284999999999926e+01 1.248239999999999981e+02 2.249079999999999927e+03
1.559999999999999998e-01 1.997875000000000068e-01 1.213390000000000057e+01 1.248474999999999966e+02 2.249090000000000146e+03
1.570000000000000007e-01 1.997879999999999934e-01 1.211434999999999995e+01 1.248489999999999895e+02 2.249094999999999800e+03
1.580000000000000016e-01 1.997884999999999800e-01 1.208565000000000111e+01 1.248329999999999984e+02 2.249095000000000255e+03
1.590000000000000024e-01 1.997879999999999934e-01 1.204974999999999952e+01 1.248050000000000068e+02 2.249094999999999800e+03
