# t [s], A [cm^2], U [cm/s], P [cPa], c [cm/s]
1.000000000000000021e-03 1.631449999999999845e-01 2.921154999999999724e-01 8.733684999999999832e+01 1.751170000000000073e+03
2.000000000000000042e-03 1.631150000000000100e-01 1.732442999999999955e+00 8.466044999999999732e+01 1.750900000000000091e+03
3.000000000000000062e-03 1.630059999999999842e-01 3.485926000000000080e+00 8.114085000000000036e+01 1.749994999999999891e+03
4.000000000000000083e-03 1.628445000000000031e-01 5.422385999999999484e+00 7.722660000000000480e+01 1.748670000000000073e+03
5.000000000000000104e-03 1.626595000000000124e-01 7.497920000000000584e+00 7.357044999999999391e+01 1.747160000000000082e+03
6.000000000000000125e-03 1.624720000000000053e-01 9.613094999999999501e+00 7.050600000000000023e+01 1.745644999999999982e+03
7.000000000000000146e-03 1.622929999999999928e-01 1.161413999999999902e+01 6.798499999999999943e+01 1.744220000000000027e+03
8.000000000000000167e-03 1.621245000000000047e-01 1.338045999999999935e+01 6.579240000000000066e+01 1.742894999999999982e+03
9.000000000000001055e-03 1.619700000000000029e-01 1.489064499999999924e+01 6.382585000000000264e+01 1.741700000000000045e+03
1.000000000000000194e-02 1.618319999999999759e-01 1.617755000000000010e+01 6.212420000000000186e+01 1.740644999999999982e+03
1.099999999999999936e-02 1.617129999999999956e-01 1.726439999999999841e+01 6.072029999999999461e+01 1.739750000000000000e+03
1.200000000000000025e-02 1.616130000000000067e-01 1.816185000000000116e+01 5.959100000000000108e+01 1.738994999999999891e+03
1.300000000000000114e-02 1.615305000000000213e-01 1.888220000000000098e+01 5.869745000000000346e+01 1.738384999999999991e+03
1.400000000000000203e-02 1.614630000000000232e-01 1.943634999999999735e+01 5.799699999999999989e+01 1.737894999999999982e+03
1.499999999999999944e-02 1.614089999999999969e-01 1.983109999999999928e+01 5.743189999999999884e+01 1.737505000000000109e+03
1.600000000000000033e-02 1.613640000000000074e-01 2.008559999999999945e+01 5.695730000000000359e+01 1.737190000000000055e+03
1.700000000000000122e-02 1.613284999999999858e-01 2.025245000000000317e+01 5.660099999999999909e+01 1.736945000000000164e+03
1.800000000000000211e-02 1.613049999999999762e-01 2.041819999999999879e+01 5.649294999999999334e+01 1.736795000000000073e+03
1.900000000000000300e-02 1.612985000000000113e-01 2.067569999999999908e+01 5.682054999999999723e+01 1.736764999999999873e+03
2.000000000000000042e-02 1.613155000000000006e-01 2.108474999999999966e+01 5.773199999999999932e+01 1.736900000000000091e+03
2.100000000000000130e-02 1.613585000000000158e-01 2.164540000000000219e+01 5.924609999999999843e+01 1.737230000000000018e+03
2.200000000000000219e-02 1.614240000000000119e-01 2.229435000000000144e+01 6.121544999999999703e+01 1.737735000000000127e+03
2.299999999999999961e-02 1.615059999999999829e-01 2.292600000000000193e+01 6.335764999999999958e+01 1.738360000000000127e+03
2.400000000000000050e-02 1.615925000000000000e-01 2.342504999999999882e+01 6.533440000000000225e+01 1.739025000000000091e+03
2.500000000000000139e-02 1.616719999999999824e-01 2.369975000000000165e+01 6.684489999999999554e+01 1.739644999999999982e+03
2.600000000000000228e-02 1.617345000000000033e-01 2.370404999999999873e+01 6.770230000000000814e+01 1.740140000000000100e+03
2.700000000000000316e-02 1.617744999999999878e-01 2.344534999999999769e+01 6.787109999999999843e+01 1.740470000000000027e+03
2.800000000000000058e-02 1.617910000000000181e-01 2.297565000000000168e+01 6.745900000000000318e+01 1.740619999999999891e+03
2.900000000000000147e-02 1.617875000000000008e-01 2.237245000000000061e+01 6.667034999999999911e+01 1.740610000000000127e+03
3.000000000000000236e-02 1.617709999999999981e-01 2.171490000000000009e+01 6.574004999999999654e+01 1.740500000000000000e+03
3.099999999999999978e-02 1.617474999999999885e-01 2.106445000000000078e+01 6.486924999999999386e+01 1.740329999999999927e+03
3.200000000000000067e-02 1.617230000000000056e-01 2.045320000000000249e+01 6.418104999999999905e+01 1.740154999999999973e+03
3.300000000000000155e-02 1.617024999999999990e-01 1.988299999999999912e+01 6.370525000000000659e+01 1.739994999999999891e+03
3.400000000000000244e-02 1.616859999999999964e-01 1.933245000000000147e+01 6.339085000000000036e+01 1.739864999999999782e+03
3.500000000000000333e-02 1.616719999999999824e-01 1.876954999999999885e+01 6.313794999999999646e+01 1.739759999999999991e+03
3.600000000000000422e-02 1.616580000000000239e-01 1.816534999999999656e+01 6.283790000000000475e+01 1.739654999999999973e+03
3.700000000000000511e-02 1.616410000000000069e-01 1.750509999999999877e+01 6.241055000000000064e+01 1.739535000000000082e+03
3.799999999999999906e-02 1.616190000000000127e-01 1.679550000000000054e+01 6.183084999999999809e+01 1.739369999999999891e+03
3.899999999999999994e-02 1.615925000000000000e-01 1.606535000000000224e+01 6.113819999999999766e+01 1.739170000000000073e+03
4.000000000000000083e-02 1.615630000000000122e-01 1.536100000000000065e+01 6.042945000000000277e+01 1.738949999999999818e+03
4.100000000000000172e-02 1.615344999999999975e-01 1.473680000000000057e+01 5.983619999999999806e+01 1.738730000000000018e+03
4.200000000000000261e-02 1.615119999999999889e-01 1.424370000000000047e+01 5.949455000000000382e+01 1.738559999999999945e+03
4.300000000000000350e-02 1.615000000000000047e-01 1.391844999999999999e+01 5.951250000000000284e+01 1.738465000000000146e+03
4.400000000000000439e-02 1.615024999999999933e-01 1.377575000000000038e+01 5.994485000000000241e+01 1.738474999999999909e+03
4.499999999999999833e-02 1.615210000000000257e-01 1.380450000000000088e+01 6.077955000000000041e+01 1.738599999999999909e+03
4.599999999999999922e-02 1.615544999999999898e-01 1.396979999999999933e+01 6.193775000000000119e+01 1.738845000000000027e+03
4.700000000000000011e-02 1.616009999999999946e-01 1.421770000000000067e+01 6.328575000000000017e+01 1.739184999999999945e+03
4.800000000000000100e-02 1.616539999999999921e-01 1.448349999999999937e+01 6.465694999999999482e+01 1.739579999999999927e+03
4.900000000000000189e-02 1.617079999999999906e-01 1.470040000000000013e+01 6.587610000000000809e+01 1.739990000000000009e+03
5.000000000000000278e-02 1.617569999999999841e-01 1.480764999999999887e+01 6.678329999999999700e+01 1.740355000000000018e+03
5.100000000000000366e-02 1.617935000000000068e-01 1.475645000000000095e+01 6.725329999999999586e+01 1.740639999999999873e+03
5.200000000000000455e-02 1.618140000000000134e-01 1.451419999999999888e+01 6.720690000000000452e+01 1.740800000000000182e+03
5.300000000000000544e-02 1.618134999999999990e-01 1.406550000000000011e+01 6.661485000000000412e+01 1.740804999999999836e+03
5.399999999999999939e-02 1.617919999999999914e-01 1.341120000000000090e+01 6.549479999999999791e+01 1.740650000000000091e+03
5.500000000000000028e-02 1.617480000000000029e-01 1.256574999999999953e+01 6.390269999999999584e+01 1.740324999999999818e+03
5.600000000000000117e-02 1.616845000000000088e-01 1.155411000000000143e+01 6.192105000000000103e+01 1.739849999999999909e+03
5.700000000000000205e-02 1.616029999999999966e-01 1.040779000000000032e+01 5.964710000000000178e+01 1.739234999999999900e+03
5.800000000000000294e-02 1.615070000000000117e-01 9.162115000000000009e+00 5.718250000000000455e+01 1.738514999999999873e+03
5.900000000000000383e-02 1.614015000000000033e-01 7.853965000000000529e+00 5.462539999999999907e+01 1.737715000000000146e+03
6.000000000000000472e-02 1.612890000000000157e-01 6.520200000000000884e+00 5.206595000000000084e+01 1.736869999999999891e+03
6.099999999999999867e-02 1.611750000000000127e-01 5.196950000000000180e+00 4.958485000000000298e+01 1.736000000000000000e+03
6.199999999999999956e-02 1.610619999999999830e-01 3.919544000000000139e+00 4.725379999999999825e+01 1.735140000000000100e+03
6.300000000000000044e-02 1.609530000000000127e-01 2.722385499999999681e+00 4.513710000000000377e+01 1.734309999999999945e+03
6.400000000000000133e-02 1.608519999999999950e-01 1.638984999999999914e+00 4.329375000000000284e+01 1.733539999999999964e+03
6.500000000000000222e-02 1.607620000000000160e-01 7.016900000000000359e-01 4.177855000000000274e+01 1.732849999999999909e+03
6.600000000000000311e-02 1.606854999999999811e-01 -5.886500000000005617e-02 4.064254999999999995e+01 1.732255000000000109e+03
6.700000000000000400e-02 1.606249999999999900e-01 -6.146765000000000700e-01 3.993240000000000123e+01 1.731795000000000073e+03
6.800000000000000488e-02 1.605830000000000035e-01 -9.414573499999999706e-01 3.968840000000000146e+01 1.731460000000000036e+03
6.900000000000000577e-02 1.605619999999999825e-01 -1.019881499999999885e+00 3.994214999999999804e+01 1.731279999999999973e+03
7.000000000000000666e-02 1.605630000000000113e-01 -8.366999999999999993e-01 4.071394999999999698e+01 1.731269999999999982e+03
7.100000000000000755e-02 1.605870000000000075e-01 -3.856950000000000101e-01 4.201054999999999495e+01 1.731440000000000055e+03
7.200000000000000844e-02 1.606350000000000000e-01 3.318149999999999711e-01 4.382385000000000019e+01 1.731779999999999973e+03
7.300000000000000933e-02 1.607069999999999887e-01 1.306831000000000076e+00 4.613004999999999711e+01 1.732309999999999945e+03
7.399999999999999634e-02 1.608020000000000005e-01 2.523085999999999718e+00 4.889074999999999704e+01 1.733009999999999991e+03
7.499999999999999722e-02 1.609185000000000199e-01 3.957771500000000220e+00 5.205460000000000065e+01 1.733875000000000000e+03
7.599999999999999811e-02 1.610540000000000027e-01 5.582675000000000054e+00 5.555974999999999397e+01 1.734894999999999982e+03
7.699999999999999900e-02 1.612075000000000036e-01 7.365474999999999994e+00 5.933739999999999526e+01 1.736045000000000073e+03
7.799999999999999989e-02 1.613745000000000041e-01 9.271255000000000024e+00 6.331495000000000317e+01 1.737309999999999945e+03
7.900000000000000078e-02 1.615530000000000022e-01 1.126382000000000083e+01 6.741944999999999766e+01 1.738659999999999854e+03
8.000000000000000167e-02 1.617394999999999805e-01 1.330712499999999920e+01 7.158089999999999975e+01 1.740079999999999927e+03
8.100000000000000255e-02 1.619309999999999916e-01 1.536649999999999849e+01 7.573464999999998781e+01 1.741539999999999964e+03
8.200000000000000344e-02 1.621239999999999903e-01 1.740970000000000084e+01 7.982354999999999734e+01 1.743019999999999982e+03
8.300000000000000433e-02 1.623169999999999891e-01 1.940804999999999936e+01 8.379985000000000639e+01 1.744500000000000000e+03
8.400000000000000522e-02 1.625070000000000126e-01 2.133680000000000021e+01 8.762610000000000809e+01 1.745965000000000146e+03
8.500000000000000611e-02 1.626920000000000033e-01 2.317614999999999981e+01 9.127590000000000714e+01 1.747394999999999982e+03
8.600000000000000699e-02 1.628705000000000014e-01 2.491130000000000067e+01 9.473414999999999964e+01 1.748779999999999973e+03
8.700000000000000788e-02 1.630419999999999925e-01 2.653265000000000029e+01 9.799625000000000341e+01 1.750115000000000009e+03
8.800000000000000877e-02 1.632055000000000033e-01 2.803580000000000183e+01 1.010686000000000035e+02 1.751394999999999982e+03
8.899999999999999578e-02 1.633614999999999928e-01 2.942110000000000269e+01 1.039658500000000032e+02 1.752619999999999891e+03
8.999999999999999667e-02 1.635105000000000031e-01 3.069314999999999927e+01 1.067100000000000080e+02 1.753789999999999964e+03
9.099999999999999756e-02 1.636524999999999785e-01 3.185994999999999777e+01 1.093280000000000030e+02 1.754904999999999973e+03
9.199999999999999845e-02 1.637889999999999902e-01 3.293209999999999837e+01 1.118499999999999943e+02 1.755985000000000127e+03
9.299999999999999933e-02 1.639209999999999834e-01 3.392179999999999751e+01 1.143075000000000045e+02 1.757025000000000091e+03
9.400000000000000022e-02 1.640500000000000014e-01 3.484190000000000254e+01 1.167289999999999992e+02 1.758039999999999964e+03
9.500000000000000111e-02 1.641759999999999886e-01 3.570480000000000587e+01 1.191409999999999911e+02 1.759039999999999964e+03
9.600000000000000200e-02 1.643014999999999892e-01 3.652169999999999561e+01 1.215645000000000095e+02 1.760035000000000082e+03
9.700000000000000289e-02 1.644275000000000042e-01 3.730199999999999960e+01 1.240134999999999934e+02 1.761025000000000091e+03
9.800000000000000377e-02 1.645530000000000048e-01 3.805259999999999820e+01 1.264960000000000093e+02 1.762025000000000091e+03
9.900000000000000466e-02 1.646795000000000064e-01 3.877750000000000341e+01 1.290109999999999957e+02 1.763019999999999982e+03
1.000000000000000056e-01 1.648074999999999957e-01 3.947799999999999443e+01 1.315520000000000209e+02 1.764034999999999854e+03
1.010000000000000064e-01 1.649359999999999993e-01 4.015240000000000009e+01 1.341045000000000016e+02 1.765045000000000073e+03
1.020000000000000073e-01 1.650639999999999885e-01 4.079639999999999844e+01 1.366494999999999891e+02 1.766065000000000055e+03
1.030000000000000082e-01 1.651920000000000055e-01 4.140335000000000321e+01 1.391625000000000227e+02 1.767079999999999927e+03
1.040000000000000091e-01 1.653180000000000205e-01 4.196505000000000507e+01 1.416164999999999736e+02 1.768079999999999927e+03
1.050000000000000100e-01 1.654414999999999913e-01 4.247169999999999845e+01 1.439825000000000159e+02 1.769059999999999945e+03
1.059999999999999970e-01 1.655610000000000137e-01 4.291304999999999836e+01 1.462319999999999993e+02 1.770005000000000109e+03
1.069999999999999979e-01 1.656755000000000033e-01 4.327864999999999895e+01 1.483369999999999891e+02 1.770914999999999964e+03
1.079999999999999988e-01 1.657830000000000137e-01 4.355839999999999890e+01 1.502719999999999914e+02 1.771775000000000091e+03
1.089999999999999997e-01 1.658835000000000170e-01 4.374325000000000330e+01 1.520140000000000100e+02 1.772579999999999927e+03
1.100000000000000006e-01 1.659750000000000114e-01 4.382529999999999859e+01 1.535455000000000041e+02 1.773315000000000055e+03
1.110000000000000014e-01 1.660574999999999968e-01 4.379849999999999710e+01 1.548514999999999873e+02 1.773980000000000018e+03
1.120000000000000023e-01 1.661289999999999989e-01 4.365865000000000151e+01 1.559240000000000066e+02 1.774555000000000064e+03
1.130000000000000032e-01 1.661905000000000188e-01 4.340390000000000015e+01 1.567584999999999980e+02 1.775049999999999955e+03
1.140000000000000041e-01 1.662409999999999999e-01 4.303439999999999799e+01 1.573559999999999945e+02 1.775465000000000146e+03
1.150000000000000050e-01 1.662800000000000111e-01 4.255284999999999940e+01 1.577230000000000132e+02 1.775789999999999964e+03
1.160000000000000059e-01 1.663084999999999980e-01 4.196410000000000196e+01 1.578694999999999879e+02 1.776025000000000091e+03
1.170000000000000068e-01 1.663264999999999882e-01 4.127514999999999645e+01 1.578114999999999952e+02 1.776175000000000182e+03
1.180000000000000077e-01 1.663344999999999962e-01 4.049479999999999791e+01 1.575654999999999859e+02 1.776255000000000109e+03
1.190000000000000085e-01 1.663334999999999952e-01 3.963365000000000293e+01 1.571535000000000082e+02 1.776255000000000109e+03
1.200000000000000094e-01 1.663239999999999996e-01 3.870360000000000156e+01 1.565989999999999895e+02 1.776190000000000055e+03
1.209999999999999964e-01 1.663069999999999826e-01 3.771734999999999616e+01 1.559275000000000091e+02 1.776059999999999945e+03
1.219999999999999973e-01 1.662839999999999874e-01 3.668840000000000146e+01 1.551630000000000109e+02 1.775884999999999991e+03
1.229999999999999982e-01 1.662555000000000005e-01 3.563020000000000209e+01 1.543315000000000055e+02 1.775670000000000073e+03
1.239999999999999991e-01 1.662230000000000096e-01 3.455615000000000236e+01 1.534565000000000055e+02 1.775414999999999964e+03
1.250000000000000000e-01 1.661874999999999880e-01 3.347905000000000086e+01 1.525625000000000000e+02 1.775139999999999873e+03
1.260000000000000009e-01 1.661500000000000199e-01 3.241055000000000064e+01 1.516680000000000064e+02 1.774845000000000027e+03
1.270000000000000018e-01 1.661119999999999819e-01 3.136139999999999972e+01 1.507914999999999850e+02 1.774539999999999964e+03
1.280000000000000027e-01 1.660729999999999984e-01 3.034060000000000201e+01 1.499480000000000075e+02 1.774235000000000127e+03
1.290000000000000036e-01 1.660355000000000025e-01 2.935555000000000092e+01 1.491485000000000127e+02 1.773934999999999945e+03
1.300000000000000044e-01 1.659990000000000077e-01 2.841189999999999927e+01 1.483990000000000009e+02 1.773644999999999982e+03
1.310000000000000053e-01 1.659634999999999860e-01 2.751335000000000264e+01 1.477050000000000125e+02 1.773360000000000127e+03
1.320000000000000062e-01 1.659305000000000085e-01 2.666169999999999973e+01 1.470660000000000025e+02 1.773094999999999800e+03
1.330000000000000071e-01 1.658990000000000187e-01 2.585699999999999932e+01 1.464784999999999968e+02 1.772840000000000146e+03
1.340000000000000080e-01 1.658695000000000030e-01 2.509750000000000014e+01 1.459370000000000118e+02 1.772605000000000018e+03
1.350000000000000089e-01 1.658419999999999894e-01 2.437989999999999924e+01 1.454320000000000164e+02 1.772380000000000109e+03
1.360000000000000098e-01 1.658159999999999912e-01 2.369960000000000022e+01 1.449524999999999864e+02 1.772170000000000073e+03
1.370000000000000107e-01 1.657910000000000217e-01 2.305095000000000027e+01 1.444864999999999782e+02 1.771965000000000146e+03
1.380000000000000115e-01 1.657665000000000111e-01 2.242730000000000246e+01 1.440199999999999818e+02 1.771765000000000100e+03
1.390000000000000124e-01 1.657414999999999861e-01 2.182164999999999822e+01 1.435374999999999943e+02 1.771570000000000164e+03
1.400000000000000133e-01 1.657164999999999888e-01 2.122670000000000101e+01 1.430264999999999986e+02 1.771359999999999900e+03
1.410000000000000142e-01 1.656900000000000039e-01 2.063530000000000086e+01 1.424724999999999966e+02 1.771154999999999973e+03
1.420000000000000151e-01 1.656624999999999903e-01 2.004059999999999775e+01 1.418639999999999759e+02 1.770924999999999955e+03
1.430000000000000160e-01 1.656320000000000014e-01 1.943649999999999878e+01 1.411895000000000095e+02 1.770679999999999836e+03
1.440000000000000169e-01 1.655984999999999818e-01 1.881759999999999877e+01 1.404414999999999907e+02 1.770420000000000073e+03
1.450000000000000178e-01 1.655625000000000013e-01 1.817989999999999995e+01 1.396150000000000091e+02 1.770130000000000109e+03
1.459999999999999909e-01 1.655230000000000035e-01 1.752040000000000219e+01 1.387055000000000007e+02 1.769815000000000055e+03
1.469999999999999918e-01 1.654795000000000016e-01 1.683774999999999977e+01 1.377144999999999868e+02 1.769474999999999909e+03
1.479999999999999927e-01 1.654319999999999957e-01 1.613190000000000168e+01 1.366444999999999936e+02 1.769099999999999909e+03
1.489999999999999936e-01 1.653820000000000012e-01 1.540429999999999922e+01 1.355020000000000095e+02 1.768699999999999818e+03
1.499999999999999944e-01 1.653275000000000161e-01 1.465794999999999959e+01 1.342955000000000041e+02 1.768280000000000200e+03
1.509999999999999953e-01 1.652704999999999869e-01 1.389714999999999989e+01 1.330369999999999777e+02 1.767829999999999927e+03
1.519999999999999962e-01 1.652109999999999967e-01 1.312730000000000175e+01 1.317400000000000091e+02 1.767360000000000127e+03
1.529999999999999971e-01 1.651495000000000046e-01 1.235491500000000009e+01 1.304194999999999993e+02 1.766880000000000109e+03
1.539999999999999980e-01 1.650869999999999838e-01 1.158714999999999939e+01 1.290925000000000011e+02 1.766384999999999991e+03
1.549999999999999989e-01 1.650234999999999896e-01 1.083168000000000042e+01 1.277754999999999939e+02 1.765880000000000109e+03
1.559999999999999998e-01 1.649599999999999955e-01 1.009642999999999979e+01 1.264859999999999900e+02 1.765384999999999991e+03
1.570000000000000007e-01 1.648979999999999890e-01 9.389120000000000132e+00 1.252404999999999973e+02 1.764889999999999873e+03
1.580000000000000016e-01 1.648370000000000113e-01 8.717264999999999375e+00 1.240529999999999973e+02 1.764414999999999964e+03
1.590000000000000024e-01 1.647784999999999944e-01 8.087590000000000501e+00 1.229380000000000024e+02 1.763949999999999818e+03
