# t [s], A [cm^2], U [cm/s], P [cPa], c [cm/s]
1.000000000000000021e-03 1.898255000000000081e-01 2.473680000000000045e-01 9.221405000000000030e+01 2.059010000000000218e+03
2.000000000000000042e-03 1.897844999999999949e-01 1.612397999999999998e+00 8.930185000000000173e+01 2.058664999999999964e+03
3.000000000000000062e-03 1.896634999999999849e-01 3.314206500000000055e+00 8.526005000000000678e+01 2.057689999999999600e+03
4.000000000000000083e-03 1.894929999999999948e-01 5.229497499999999910e+00 8.076205000000000211e+01 2.056340000000000146e+03
5.000000000000000104e-03 1.893060000000000020e-01 7.300075000000000536e+00 7.662980000000000302e+01 2.054864999999999782e+03
6.000000000000000125e-03 1.891234999999999999e-01 9.382915000000000560e+00 7.321250000000000568e+01 2.053444999999999709e+03
7.000000000000000146e-03 1.889514999999999945e-01 1.127862499999999990e+01 7.034475000000000477e+01 2.052135000000000218e+03
8.000000000000000167e-03 1.887929999999999886e-01 1.288249500000000047e+01 6.778010000000000446e+01 2.050944999999999709e+03
9.000000000000001055e-03 1.886514999999999997e-01 1.421519500000000136e+01 6.552439999999999998e+01 2.049904999999999745e+03
1.000000000000000194e-02 1.885315000000000185e-01 1.531489999999999974e+01 6.366504999999999370e+01 2.049025000000000091e+03
1.099999999999999936e-02 1.884325000000000028e-01 1.619885000000000019e+01 6.220465000000000089e+01 2.048309999999999945e+03
1.200000000000000025e-02 1.883535000000000070e-01 1.687899999999999778e+01 6.109179999999999922e+01 2.047750000000000000e+03
1.300000000000000114e-02 1.882915000000000005e-01 1.735960000000000036e+01 6.023935000000000173e+01 2.047315000000000055e+03
1.400000000000000203e-02 1.882420000000000204e-01 1.764294999999999902e+01 5.953005000000000280e+01 2.046980000000000018e+03
1.499999999999999944e-02 1.882010000000000072e-01 1.776754999999999995e+01 5.890994999999999493e+01 2.046700000000000045e+03
1.600000000000000033e-02 1.881705000000000183e-01 1.783530000000000015e+01 5.850379999999999825e+01 2.046505000000000109e+03
1.700000000000000122e-02 1.881585000000000063e-01 1.798525000000000063e+01 5.860379999999999967e+01 2.046434999999999945e+03
1.800000000000000211e-02 1.881734999999999935e-01 1.832784999999999798e+01 5.950799999999999557e+01 2.046554999999999836e+03
1.900000000000000300e-02 1.882205000000000128e-01 1.888725000000000165e+01 6.132319999999999993e+01 2.046900000000000091e+03
2.000000000000000042e-02 1.882965000000000055e-01 1.958739999999999881e+01 6.386374999999999602e+01 2.047454999999999927e+03
2.100000000000000130e-02 1.883914999999999895e-01 2.028385000000000105e+01 6.669544999999999391e+01 2.048159999999999854e+03
2.200000000000000219e-02 1.884895000000000043e-01 2.082059999999999889e+01 6.928739999999999100e+01 2.048890000000000327e+03
2.299999999999999961e-02 1.885749999999999926e-01 2.108380000000000010e+01 7.119079999999999586e+01 2.049539999999999964e+03
2.400000000000000050e-02 1.886375000000000135e-01 2.103370000000000317e+01 7.217175000000000296e+01 2.050019999999999982e+03
2.500000000000000139e-02 1.886709999999999776e-01 2.070570000000000022e+01 7.225430000000000064e+01 2.050300000000000182e+03
2.600000000000000228e-02 1.886800000000000144e-01 2.018634999999999735e+01 7.167140000000000555e+01 2.050385000000000218e+03
2.700000000000000316e-02 1.886700000000000044e-01 1.957574999999999932e+01 7.075425000000001319e+01 2.050329999999999927e+03
2.800000000000000058e-02 1.886510000000000131e-01 1.895270000000000010e+01 6.980780000000000030e+01 2.050199999999999818e+03
2.900000000000000147e-02 1.886304999999999787e-01 1.835379999999999967e+01 6.901855000000000473e+01 2.050045000000000073e+03
3.000000000000000236e-02 1.886105000000000143e-01 1.777094999999999914e+01 6.841934999999999434e+01 2.049900000000000091e+03
3.099999999999999978e-02 1.885914999999999953e-01 1.716544999999999987e+01 6.791344999999999743e+01 2.049764999999999873e+03
3.200000000000000067e-02 1.885709999999999886e-01 1.649080000000000013e+01 6.733969999999999345e+01 2.049610000000000127e+03
3.300000000000000155e-02 1.885439999999999894e-01 1.571625000000000050e+01 6.655145000000000266e+01 2.049414999999999964e+03
3.400000000000000244e-02 1.885089999999999821e-01 1.484409999999999918e+01 6.548510000000000275e+01 2.049170000000000073e+03
3.500000000000000333e-02 1.884655000000000080e-01 1.391585000000000072e+01 6.419615000000000293e+01 2.048849999999999909e+03
3.600000000000000422e-02 1.884175000000000155e-01 1.300505000000000067e+01 6.285515000000000185e+01 2.048500000000000000e+03
3.700000000000000511e-02 1.883710000000000107e-01 1.220035000000000025e+01 6.170499999999999829e+01 2.048159999999999854e+03
3.799999999999999906e-02 1.883350000000000024e-01 1.158314999999999984e+01 6.099439999999999884e+01 2.047889999999999873e+03
3.899999999999999994e-02 1.883159999999999834e-01 1.120739999999999981e+01 6.090919999999999845e+01 2.047739999999999782e+03
4.000000000000000083e-02 1.883195000000000008e-01 1.108664999999999878e+01 6.152185000000000059e+01 2.047744999999999891e+03
4.100000000000000172e-02 1.883454999999999990e-01 1.119125000000000014e+01 6.277125000000000199e+01 2.047924999999999955e+03
4.200000000000000261e-02 1.883925000000000183e-01 1.145564999999999856e+01 6.447575000000000500e+01 2.048250000000000000e+03
4.300000000000000350e-02 1.884514999999999940e-01 1.179159999999999897e+01 6.637194999999999823e+01 2.048675000000000182e+03
4.400000000000000439e-02 1.885155000000000025e-01 1.210464999999999947e+01 6.816614999999998759e+01 2.049135000000000218e+03
4.499999999999999833e-02 1.885740000000000194e-01 1.230855000000000032e+01 6.958635000000001014e+01 2.049570000000000164e+03
4.599999999999999922e-02 1.886194999999999955e-01 1.233680000000000021e+01 7.042244999999999777e+01 2.049905000000000200e+03
4.700000000000000011e-02 1.886440000000000061e-01 1.214815000000000111e+01 7.054954999999999643e+01 2.050100000000000364e+03
4.800000000000000100e-02 1.886444999999999927e-01 1.172705000000000020e+01 6.993289999999998940e+01 2.050114999999999782e+03
4.900000000000000189e-02 1.886189999999999811e-01 1.108019499999999979e+01 6.861570000000000391e+01 2.049934999999999945e+03
5.000000000000000278e-02 1.885700000000000154e-01 1.023030500000000131e+01 6.669750000000000512e+01 2.049579999999999927e+03
5.100000000000000366e-02 1.884985000000000133e-01 9.209710000000001173e+00 6.430870000000000175e+01 2.049070000000000164e+03
5.200000000000000455e-02 1.884099999999999941e-01 8.054945000000000022e+00 6.158719999999999573e+01 2.048425000000000182e+03
5.300000000000000544e-02 1.883080000000000032e-01 6.802609999999999602e+00 5.866199999999999903e+01 2.047680000000000064e+03
5.399999999999999939e-02 1.881980000000000042e-01 5.488129999999999953e+00 5.564509999999999934e+01 2.046870000000000118e+03
5.500000000000000028e-02 1.880819999999999992e-01 4.145404000000000089e+00 5.263004999999999711e+01 2.046014999999999873e+03
5.600000000000000117e-02 1.879649999999999932e-01 2.807949000000000250e+00 4.969639999999999702e+01 2.045155000000000200e+03
5.700000000000000205e-02 1.878500000000000170e-01 1.510019999999999918e+00 4.691615000000000180e+01 2.044305000000000064e+03
5.800000000000000294e-02 1.877400000000000180e-01 2.873900000000000343e-01 4.435970000000000368e+01 2.043490000000000009e+03
5.900000000000000383e-02 1.876379999999999992e-01 -8.226650000000000906e-01 4.209940000000000282e+01 2.042730000000000018e+03
6.000000000000000472e-02 1.875470000000000192e-01 -1.782344499999999776e+00 4.021025000000000205e+01 2.042055000000000064e+03
6.099999999999999867e-02 1.874709999999999988e-01 -2.555080999999999936e+00 3.876709999999999923e+01 2.041485000000000127e+03
6.199999999999999956e-02 1.874115000000000086e-01 -3.107859999999999623e+00 3.783929999999999438e+01 2.041035000000000082e+03
6.300000000000000044e-02 1.873724999999999974e-01 -3.413594999999999935e+00 3.748444999999999538e+01 2.040724999999999909e+03
6.400000000000000133e-02 1.873559999999999948e-01 -3.453319999999999723e+00 3.774210000000000065e+01 2.040585000000000036e+03
6.500000000000000222e-02 1.873624999999999874e-01 -3.217684999999999906e+00 3.862905000000000655e+01 2.040615000000000236e+03
6.600000000000000311e-02 1.873940000000000050e-01 -2.707770000000000010e+00 4.013670000000000471e+01 2.040819999999999936e+03
6.700000000000000400e-02 1.874484999999999901e-01 -1.934995000000000021e+00 4.223080000000000211e+01 2.041205000000000155e+03
6.800000000000000488e-02 1.875259999999999982e-01 -9.203050000000000397e-01 4.485365000000000180e+01 2.041755000000000109e+03
6.900000000000000577e-02 1.876240000000000130e-01 3.072600000000000886e-01 4.792834999999999468e+01 2.042464999999999918e+03
7.000000000000000666e-02 1.877405000000000046e-01 1.712469999999999937e+00 5.136414999999999509e+01 2.043300000000000182e+03
7.100000000000000755e-02 1.878704999999999958e-01 3.256015499999999729e+00 5.506275000000000119e+01 2.044250000000000000e+03
7.200000000000000844e-02 1.880124999999999991e-01 4.896774999999999878e+00 5.892419999999999902e+01 2.045289999999999964e+03
7.300000000000000933e-02 1.881615000000000093e-01 6.594004999999999228e+00 6.285340000000000060e+01 2.046380000000000109e+03
7.399999999999999634e-02 1.883139999999999814e-01 8.309274999999999523e+00 6.676510000000000389e+01 2.047509999999999991e+03
7.499999999999999722e-02 1.884680000000000244e-01 1.000849000000000011e+01 7.058814999999999884e+01 2.048644999999999982e+03
7.599999999999999811e-02 1.886194999999999955e-01 1.166296999999999962e+01 7.426869999999999550e+01 2.049769999999999982e+03
7.699999999999999900e-02 1.887665000000000037e-01 1.325045000000000073e+01 7.777150000000000318e+01 2.050864999999999782e+03
7.799999999999999989e-02 1.889089999999999936e-01 1.475554999999999950e+01 8.108025000000000659e+01 2.051934999999999945e+03
7.900000000000000078e-02 1.890445000000000042e-01 1.616955000000000098e+01 8.419610000000000127e+01 2.052949999999999818e+03
8.000000000000000167e-02 1.891740000000000088e-01 1.748975000000000080e+01 8.713464999999999350e+01 2.053925000000000182e+03
8.100000000000000255e-02 1.892975000000000074e-01 1.871839999999999904e+01 8.992275000000000773e+01 2.054860000000000127e+03
8.200000000000000344e-02 1.894164999999999877e-01 1.986169999999999902e+01 9.259385000000000332e+01 2.055755000000000109e+03
8.300000000000000433e-02 1.895310000000000050e-01 2.092830000000000013e+01 9.518369999999998754e+01 2.056619999999999891e+03
8.400000000000000522e-02 1.896420000000000050e-01 2.192770000000000152e+01 9.772700000000000387e+01 2.057465000000000146e+03
8.500000000000000611e-02 1.897524999999999906e-01 2.286939999999999884e+01 1.002527999999999935e+02 2.058295000000000073e+03
8.600000000000000699e-02 1.898610000000000020e-01 2.376184999999999903e+01 1.027832999999999970e+02 2.059125000000000000e+03
8.700000000000000788e-02 1.899700000000000000e-01 2.461149999999999949e+01 1.053319999999999936e+02 2.059949999999999818e+03
8.800000000000000877e-02 1.900789999999999980e-01 2.542244999999999777e+01 1.079035000000000082e+02 2.060775000000000091e+03
8.899999999999999578e-02 1.901889999999999969e-01 2.619644999999999868e+01 1.104919999999999902e+02 2.061605000000000018e+03
8.999999999999999667e-02 1.902989999999999959e-01 2.693254999999999910e+01 1.130850000000000080e+02 2.062444999999999709e+03
9.099999999999999756e-02 1.904089999999999949e-01 2.762740000000000151e+01 1.156634999999999991e+02 2.063275000000000091e+03
9.199999999999999845e-02 1.905180000000000207e-01 2.827575000000000216e+01 1.182009999999999934e+02 2.064099999999999909e+03
9.299999999999999933e-02 1.906255000000000033e-01 2.887059999999999960e+01 1.206705000000000041e+02 2.064914999999999964e+03
9.400000000000000022e-02 1.907294999999999963e-01 2.940364999999999895e+01 1.230405000000000086e+02 2.065710000000000036e+03
9.500000000000000111e-02 1.908294999999999852e-01 2.986605000000000132e+01 1.252804999999999893e+02 2.066470000000000255e+03
9.600000000000000200e-02 1.909240000000000104e-01 3.024864999999999782e+01 1.273610000000000042e+02 2.067194999999999709e+03
9.700000000000000289e-02 1.910125000000000017e-01 3.054250000000000043e+01 1.292529999999999859e+02 2.067869999999999891e+03
9.800000000000000377e-02 1.910939999999999861e-01 3.073969999999999914e+01 1.309334999999999809e+02 2.068489999999999782e+03
9.900000000000000466e-02 1.911660000000000026e-01 3.083340000000000103e+01 1.323804999999999836e+02 2.069050000000000182e+03
1.000000000000000056e-01 1.912294999999999967e-01 3.081844999999999857e+01 1.335805000000000007e+02 2.069534999999999854e+03
1.010000000000000064e-01 1.912834999999999952e-01 3.069194999999999851e+01 1.345240000000000009e+02 2.069949999999999818e+03
1.020000000000000073e-01 1.913269999999999971e-01 3.045329999999999870e+01 1.352079999999999984e+02 2.070289999999999964e+03
1.030000000000000082e-01 1.913600000000000023e-01 3.010464999999999947e+01 1.356365000000000123e+02 2.070550000000000182e+03
1.040000000000000091e-01 1.913829999999999976e-01 2.965055000000000263e+01 1.358209999999999980e+02 2.070734999999999673e+03
1.050000000000000100e-01 1.913960000000000106e-01 2.909834999999999994e+01 1.357775000000000034e+02 2.070845000000000255e+03
1.059999999999999970e-01 1.914000000000000146e-01 2.845759999999999934e+01 1.355280000000000200e+02 2.070885000000000218e+03
1.069999999999999979e-01 1.913960000000000106e-01 2.773995000000000033e+01 1.351005000000000109e+02 2.070864999999999782e+03
1.079999999999999988e-01 1.913845000000000129e-01 2.695850000000000080e+01 1.345244999999999891e+02 2.070784999999999854e+03
1.089999999999999997e-01 1.913664999999999949e-01 2.612740000000000151e+01 1.338310000000000173e+02 2.070654999999999745e+03
1.100000000000000006e-01 1.913440000000000141e-01 2.526125000000000043e+01 1.330545000000000186e+02 2.070489999999999782e+03
1.110000000000000014e-01 1.913170000000000148e-01 2.437454999999999927e+01 1.322239999999999895e+02 2.070295000000000073e+03
1.120000000000000023e-01 1.912880000000000136e-01 2.348114999999999952e+01 1.313700000000000045e+02 2.070074999999999818e+03
1.130000000000000032e-01 1.912564999999999960e-01 2.259365000000000023e+01 1.305174999999999841e+02 2.069845000000000255e+03
1.140000000000000041e-01 1.912254999999999927e-01 2.172334999999999994e+01 1.296879999999999882e+02 2.069610000000000127e+03
1.150000000000000050e-01 1.911944999999999895e-01 2.087944999999999851e+01 1.288990000000000009e+02 2.069375000000000000e+03
1.160000000000000059e-01 1.911645000000000150e-01 2.006915000000000049e+01 1.281605000000000132e+02 2.069144999999999982e+03
1.170000000000000068e-01 1.911355000000000137e-01 1.929729999999999990e+01 1.274795000000000016e+02 2.068925000000000182e+03
1.180000000000000077e-01 1.911089999999999733e-01 1.856649999999999778e+01 1.268564999999999969e+02 2.068720000000000255e+03
1.190000000000000085e-01 1.910835000000000172e-01 1.787695000000000078e+01 1.262864999999999895e+02 2.068525000000000091e+03
1.200000000000000094e-01 1.910600000000000076e-01 1.722684999999999889e+01 1.257620000000000005e+02 2.068345000000000255e+03
1.209999999999999964e-01 1.910380000000000134e-01 1.661234999999999928e+01 1.252690000000000055e+02 2.068170000000000073e+03
1.219999999999999973e-01 1.910169999999999924e-01 1.602809999999999846e+01 1.247925000000000040e+02 2.068010000000000218e+03
1.229999999999999982e-01 1.909959999999999991e-01 1.546744999999999948e+01 1.243145000000000095e+02 2.067849999999999909e+03
1.239999999999999991e-01 1.909750000000000059e-01 1.492295000000000016e+01 1.238155000000000001e+02 2.067684999999999945e+03
1.250000000000000000e-01 1.909529999999999839e-01 1.438684999999999903e+01 1.232775000000000034e+02 2.067515000000000327e+03
1.260000000000000009e-01 1.909295000000000020e-01 1.385129999999999839e+01 1.226819999999999879e+02 2.067335000000000036e+03
1.270000000000000018e-01 1.909035000000000037e-01 1.330920000000000059e+01 1.220134999999999934e+02 2.067139999999999873e+03
1.280000000000000027e-01 1.908750000000000169e-01 1.275420000000000087e+01 1.212600000000000051e+02 2.066925000000000182e+03
1.290000000000000036e-01 1.908434999999999993e-01 1.218144999999999989e+01 1.204114999999999895e+02 2.066679999999999836e+03
1.300000000000000044e-01 1.908079999999999776e-01 1.158765499999999982e+01 1.194645000000000010e+02 2.066414999999999964e+03
1.310000000000000053e-01 1.907690000000000219e-01 1.097134499999999946e+01 1.184189999999999969e+02 2.066114999999999782e+03
1.320000000000000062e-01 1.907254999999999923e-01 1.033299500000000037e+01 1.172805000000000035e+02 2.065795000000000073e+03
1.330000000000000071e-01 1.906789999999999874e-01 9.675219999999999487e+00 1.160594999999999999e+02 2.065444999999999709e+03
1.340000000000000080e-01 1.906295000000000073e-01 9.002439999999999998e+00 1.147699999999999960e+02 2.065070000000000164e+03
1.350000000000000089e-01 1.905769999999999964e-01 8.320764999999999745e+00 1.134314999999999998e+02 2.064680000000000291e+03
1.360000000000000098e-01 1.905229999999999979e-01 7.637824999999999420e+00 1.120649999999999977e+02 2.064269999999999982e+03
1.370000000000000107e-01 1.904679999999999984e-01 6.962239999999999540e+00 1.106945000000000050e+02 2.063855000000000018e+03
1.380000000000000115e-01 1.904124999999999845e-01 6.303319999999999368e+00 1.093439999999999941e+02 2.063434999999999945e+03
1.390000000000000124e-01 1.903575000000000128e-01 5.670584999999999987e+00 1.080395000000000039e+02 2.063019999999999982e+03
1.400000000000000133e-01 1.903040000000000009e-01 5.073294999999999888e+00 1.068019999999999925e+02 2.062614999999999782e+03
1.410000000000000142e-01 1.902535000000000198e-01 4.520035000000000025e+00 1.056535000000000082e+02 2.062234999999999673e+03
1.420000000000000151e-01 1.902059999999999862e-01 4.018349999999999866e+00 1.046110000000000042e+02 2.061875000000000000e+03
1.430000000000000160e-01 1.901625000000000121e-01 3.574419999999999931e+00 1.036885000000000048e+02 2.061545000000000073e+03
1.440000000000000169e-01 1.901235000000000008e-01 3.192854999999999777e+00 1.028954999999999984e+02 2.061250000000000000e+03
1.450000000000000178e-01 1.900899999999999812e-01 2.876535000000000064e+00 1.022369999999999948e+02 2.060989999999999782e+03
1.459999999999999909e-01 1.900610000000000077e-01 2.626570000000000071e+00 1.017125000000000057e+02 2.060764999999999873e+03
1.469999999999999918e-01 1.900374999999999981e-01 2.442325000000000301e+00 1.013205000000000098e+02 2.060579999999999927e+03
1.479999999999999927e-01 1.900189999999999935e-01 2.321549999999999780e+00 1.010524999999999949e+02 2.060434999999999945e+03
1.489999999999999936e-01 1.900054999999999938e-01 2.260519999999999641e+00 1.008984999999999985e+02 2.060324999999999818e+03
1.499999999999999944e-01 1.899959999999999982e-01 2.254259999999999931e+00 1.008464999999999918e+02 2.060250000000000000e+03
1.509999999999999953e-01 1.899910000000000210e-01 2.296800000000000175e+00 1.008804999999999978e+02 2.060204999999999927e+03
1.519999999999999962e-01 1.899894999999999778e-01 2.381404999999999994e+00 1.009865000000000066e+02 2.060190000000000055e+03
1.529999999999999971e-01 1.899909999999999932e-01 2.500879999999999992e+00 1.011479999999999961e+02 2.060195000000000164e+03
1.539999999999999980e-01 1.899945000000000106e-01 2.647800000000000153e+00 1.013495000000000061e+02 2.060220000000000255e+03
1.549999999999999989e-01 1.900005000000000166e-01 2.814765000000000406e+00 1.015750000000000028e+02 2.060255000000000109e+03
1.559999999999999998e-01 1.900070000000000092e-01 2.994629999999999903e+00 1.018105000000000047e+02 2.060305000000000291e+03
1.570000000000000007e-01 1.900144999999999751e-01 3.180674999999999919e+00 1.020444999999999993e+02 2.060355000000000018e+03
1.580000000000000016e-01 1.900219999999999965e-01 3.366810000000000080e+00 1.022650000000000006e+02 2.060409999999999854e+03
1.590000000000000024e-01 1.900295000000000178e-01 3.547695000000000043e+00 1.024635000000000105e+02 2.060465000000000146e+03
