# t [s], A [cm^2], U [cm/s], P [cPa], c [cm/s]
1.000000000000000021e-03 6.531175000000000175e-01 7.254949999999996124e-03 9.919304999999999950e+01 1.825360000000000127e+03
2.000000000000000042e-03 6.531065000000000342e-01 -3.295789999999999831e-03 9.915680000000000405e+01 1.825355000000000018e+03
3.000000000000000062e-03 6.531599999999999628e-01 1.009195999999999982e-01 9.928624999999999545e+01 1.825384999999999991e+03
4.000000000000000083e-03 6.532014999999999905e-01 1.985057550000000059e-01 9.941929999999999268e+01 1.825414999999999964e+03
5.000000000000000104e-03 6.531639999999999668e-01 1.540737999999999830e-01 9.931449999999999534e+01 1.825394999999999982e+03
6.000000000000000125e-03 6.531004999999999727e-01 5.515300000000000757e-02 9.904824999999999591e+01 1.825335000000000036e+03
7.000000000000000146e-03 6.530489999999999906e-01 -3.105049999999998089e-02 9.873654999999999404e+01 1.825264999999999873e+03
8.000000000000000167e-03 6.529564999999999397e-01 -2.111199999999999743e-01 9.825074999999999648e+01 1.825154999999999973e+03
9.000000000000001055e-03 6.528055000000000385e-01 -5.274399999999999089e-01 9.749925000000000352e+01 1.824990000000000009e+03
1.000000000000000194e-02 6.525840000000000529e-01 -9.986499999999999266e-01 9.641214999999999691e+01 1.824750000000000000e+03
1.099999999999999936e-02 6.522685000000000288e-01 -1.658924999999999983e+00 9.488839999999999009e+01 1.824409999999999854e+03
1.200000000000000025e-02 6.518755000000000521e-01 -2.460259999999999891e+00 9.293564999999999543e+01 1.823965000000000146e+03
1.300000000000000114e-02 6.514710000000000223e-01 -3.240555000000000074e+00 9.075245000000001028e+01 1.823454999999999927e+03
1.400000000000000203e-02 6.511284999999999989e-01 -3.816301000000000165e+00 8.862460000000000093e+01 1.822934999999999945e+03
1.499999999999999944e-02 6.508789999999999853e-01 -4.084436000000000178e+00 8.676249999999998863e+01 1.822454999999999927e+03
1.600000000000000033e-02 6.507050000000000889e-01 -4.051999999999999602e+00 8.521860000000000923e+01 1.822025000000000091e+03
1.700000000000000122e-02 6.505600000000000271e-01 -3.803240000000000176e+00 8.390430000000000632e+01 1.821639999999999873e+03
1.800000000000000211e-02 6.503955000000000153e-01 -3.444074999999999775e+00 8.266169999999999618e+01 1.821269999999999982e+03
1.900000000000000300e-02 6.501814999999999678e-01 -3.054259500000000127e+00 8.134434999999999150e+01 1.820890000000000100e+03
2.000000000000000042e-02 6.499144999999999506e-01 -2.662308999999999592e+00 7.987534999999999741e+01 1.820469999999999800e+03
2.100000000000000130e-02 6.496135000000000659e-01 -2.247345000000000148e+00 7.826500000000000057e+01 1.820025000000000091e+03
2.200000000000000219e-02 6.493065000000000087e-01 -1.762699999999999934e+00 7.658834999999999127e+01 1.819559999999999945e+03
2.299999999999999961e-02 6.490164999999999962e-01 -1.168394999999999850e+00 7.493764999999999077e+01 1.819095000000000027e+03
2.400000000000000050e-02 6.487519999999999953e-01 -4.576549999999999230e-01 7.337309999999999377e+01 1.818644999999999982e+03
2.500000000000000139e-02 6.485024999999999817e-01 3.318749999999999201e-01 7.189175000000000182e+01 1.818215000000000146e+03
2.600000000000000228e-02 6.482404999999999973e-01 1.123764999999999903e+00 7.042179999999999040e+01 1.817784999999999854e+03
2.700000000000000316e-02 6.479334999999999400e-01 1.821274999999999977e+00 6.884180000000000632e+01 1.817335000000000036e+03
2.800000000000000058e-02 6.475530000000000452e-01 2.332754999999999690e+00 6.701720000000000255e+01 1.816835000000000036e+03
2.900000000000000147e-02 6.470839999999999925e-01 2.596715000000000106e+00 6.484389999999999077e+01 1.816264999999999873e+03
3.000000000000000236e-02 6.465300000000000491e-01 2.598809999999999842e+00 6.228485000000000582e+01 1.815615000000000009e+03
3.099999999999999978e-02 6.459150000000000169e-01 2.374385000000000190e+00 5.938745000000000118e+01 1.814884999999999991e+03
3.200000000000000067e-02 6.452755000000000019e-01 1.996150000000000535e+00 5.627469999999999573e+01 1.814105000000000018e+03
3.300000000000000155e-02 6.446520000000000028e-01 1.553120000000000278e+00 5.311670000000000158e+01 1.813299999999999955e+03
3.400000000000000244e-02 6.440794999999999160e-01 1.129645000000000454e+00 5.009489999999999554e+01 1.812525000000000091e+03
3.500000000000000333e-02 6.435859999999999914e-01 7.908650000000001512e-01 4.737069999999999936e+01 1.811805000000000064e+03
3.600000000000000422e-02 6.431839999999999780e-01 5.773850000000000371e-01 4.506629999999999825e+01 1.811174999999999955e+03
3.700000000000000511e-02 6.428810000000000358e-01 5.074199999999997601e-01 4.325815000000000055e+01 1.810659999999999854e+03
3.799999999999999906e-02 6.426739999999999675e-01 5.838000000000000966e-01 4.198154999999999859e+01 1.810269999999999982e+03
3.899999999999999994e-02 6.425604999999999789e-01 8.027100000000000346e-01 4.124195000000000277e+01 1.810014999999999873e+03
4.000000000000000083e-02 6.425370000000000248e-01 1.161421000000000037e+00 4.102890000000000015e+01 1.809894999999999982e+03
4.100000000000000172e-02 6.426015000000000477e-01 1.663073500000000093e+00 4.132829999999999870e+01 1.809904999999999973e+03
4.200000000000000261e-02 6.427544999999998954e-01 2.317521999999999860e+00 4.212945000000000562e+01 1.810049999999999955e+03
4.300000000000000350e-02 6.429989999999999872e-01 3.138509350000000087e+00 4.342685000000000173e+01 1.810320000000000164e+03
4.400000000000000439e-02 6.433345000000000313e-01 4.138689499999999910e+00 4.521599999999999397e+01 1.810720000000000027e+03
4.499999999999999833e-02 6.437610000000000277e-01 5.324347350000000034e+00 4.748675000000000068e+01 1.811244999999999891e+03
4.599999999999999922e-02 6.442715000000001080e-01 6.691587499999999800e+00 5.021720000000000539e+01 1.811890000000000100e+03
4.700000000000000011e-02 6.448585000000000012e-01 8.224759999999999849e+00 5.336910000000000309e+01 1.812650000000000091e+03
4.800000000000000100e-02 6.455085000000000406e-01 9.897310000000000940e+00 5.688754999999999740e+01 1.813509999999999991e+03
4.900000000000000189e-02 6.462069999999999759e-01 1.167495500000000064e+01 6.070359999999999445e+01 1.814454999999999927e+03
5.000000000000000278e-02 6.469380000000000130e-01 1.351933999999999969e+01 6.473945000000000505e+01 1.815460000000000036e+03
5.100000000000000366e-02 6.476855000000000251e-01 1.539215000000000089e+01 6.891594999999999516e+01 1.816525000000000091e+03
5.200000000000000455e-02 6.484385000000000288e-01 1.725894500000000065e+01 7.315864999999999441e+01 1.817610000000000127e+03
5.300000000000000544e-02 6.491860000000000408e-01 1.909145000000000181e+01 7.740415000000000134e+01 1.818715000000000146e+03
5.399999999999999939e-02 6.499219999999999997e-01 2.086854999999999905e+01 8.160339999999999350e+01 1.819815000000000055e+03
5.500000000000000028e-02 6.506425000000000125e-01 2.257665000000000077e+01 8.572360000000000468e+01 1.820909999999999854e+03
5.600000000000000117e-02 6.513459999999999805e-01 2.420840000000000103e+01 8.974655000000001337e+01 1.821980000000000018e+03
5.700000000000000205e-02 6.520345000000000724e-01 2.576135000000000019e+01 9.366835000000000377e+01 1.823039999999999964e+03
5.800000000000000294e-02 6.527100000000000124e-01 2.723675000000000068e+01 9.749484999999999957e+01 1.824075000000000045e+03
5.900000000000000383e-02 6.533744999999999692e-01 2.863759999999999906e+01 1.012386500000000069e+02 1.825090000000000146e+03
6.000000000000000472e-02 6.540325000000000166e-01 2.996764999999999901e+01 1.049151499999999970e+02 1.826095000000000027e+03
6.099999999999999867e-02 6.546845000000000026e-01 3.123005000000000209e+01 1.085400499999999937e+02 1.827085000000000036e+03
6.199999999999999956e-02 6.553325000000000955e-01 3.242669999999999675e+01 1.121255000000000024e+02 1.828065000000000055e+03
6.300000000000000044e-02 6.559779999999999500e-01 3.355765000000000242e+01 1.156779999999999973e+02 1.829034999999999854e+03
6.400000000000000133e-02 6.566184999999999938e-01 3.462069999999999936e+01 1.191980000000000075e+02 1.830000000000000000e+03
6.500000000000000222e-02 6.572519999999999474e-01 3.561155000000000115e+01 1.226779999999999973e+02 1.830954999999999927e+03
6.600000000000000311e-02 6.578755000000000575e-01 3.652410000000000423e+01 1.261045000000000016e+02 1.831894999999999982e+03
6.700000000000000400e-02 6.584845000000000281e-01 3.735134999999999650e+01 1.294574999999999818e+02 1.832819999999999936e+03
6.800000000000000488e-02 6.590745000000000076e-01 3.808599999999999852e+01 1.327135000000000105e+02 1.833720000000000027e+03
6.900000000000000577e-02 6.596414999999999917e-01 3.872129999999999939e+01 1.358494999999999777e+02 1.834595000000000027e+03
7.000000000000000666e-02 6.601810000000000178e-01 3.925150000000000006e+01 1.388400000000000034e+02 1.835430000000000064e+03
7.100000000000000755e-02 6.606895000000000406e-01 3.967249999999999943e+01 1.416639999999999873e+02 1.836224999999999909e+03
7.200000000000000844e-02 6.611640000000000850e-01 3.998174999999999812e+01 1.443029999999999973e+02 1.836980000000000018e+03
7.300000000000000933e-02 6.616029999999999411e-01 4.017855000000000132e+01 1.467420000000000186e+02 1.837674999999999955e+03
7.399999999999999634e-02 6.620044999999999957e-01 4.026354999999999507e+01 1.489714999999999918e+02 1.838325000000000045e+03
7.499999999999999722e-02 6.623674999999999979e-01 4.023864999999999981e+01 1.509850000000000136e+02 1.838909999999999854e+03
7.599999999999999811e-02 6.626924999999999066e-01 4.010720000000000596e+01 1.527800000000000011e+02 1.839440000000000055e+03
7.699999999999999900e-02 6.629789999999999850e-01 3.987354999999999450e+01 1.543569999999999993e+02 1.839910000000000082e+03
7.799999999999999989e-02 6.632284999999999986e-01 3.954350000000000165e+01 1.557210000000000036e+02 1.840329999999999927e+03
7.900000000000000078e-02 6.634419999999999762e-01 3.912404999999999688e+01 1.568804999999999836e+02 1.840684999999999945e+03
8.000000000000000167e-02 6.636220000000000452e-01 3.862404999999999688e+01 1.578475000000000250e+02 1.840994999999999891e+03
8.100000000000000255e-02 6.637720000000000287e-01 3.805334999999999468e+01 1.586359999999999957e+02 1.841250000000000000e+03
8.200000000000000344e-02 6.638939999999999841e-01 3.742345000000000255e+01 1.592644999999999982e+02 1.841460000000000036e+03
8.300000000000000433e-02 6.639930000000000554e-01 3.674654999999999916e+01 1.597539999999999907e+02 1.841634999999999991e+03
8.400000000000000522e-02 6.640719999999999956e-01 3.603544999999999732e+01 1.601259999999999764e+02 1.841769999999999982e+03
8.500000000000000611e-02 6.641360000000000596e-01 3.530270000000000152e+01 1.604029999999999916e+02 1.841869999999999891e+03
8.600000000000000699e-02 6.641880000000000006e-01 3.456009999999999849e+01 1.606065000000000111e+02 1.841954999999999927e+03
8.700000000000000788e-02 6.642319999999999336e-01 3.381789999999999452e+01 1.607574999999999932e+02 1.842014999999999873e+03
8.800000000000000877e-02 6.642695000000000682e-01 3.308464999999999634e+01 1.608715000000000259e+02 1.842059999999999945e+03
8.899999999999999578e-02 6.643034999999999357e-01 3.236634999999999707e+01 1.609615000000000009e+02 1.842099999999999909e+03
8.999999999999999667e-02 6.643334999999999102e-01 3.166689999999999827e+01 1.610360000000000014e+02 1.842130000000000109e+03
9.099999999999999756e-02 6.643609999999999793e-01 3.098765000000000214e+01 1.610980000000000132e+02 1.842154999999999973e+03
9.199999999999999845e-02 6.643844999999999335e-01 3.032784999999999798e+01 1.611479999999999961e+02 1.842174999999999955e+03
9.299999999999999933e-02 6.644029999999999658e-01 2.968520000000000181e+01 1.611795000000000186e+02 1.842184999999999945e+03
9.400000000000000022e-02 6.644149999999999778e-01 2.905579999999999785e+01 1.611870000000000118e+02 1.842190000000000055e+03
9.500000000000000111e-02 6.644185000000000230e-01 2.843505000000000393e+01 1.611614999999999895e+02 1.842184999999999945e+03
9.600000000000000200e-02 6.644125000000000725e-01 2.781750000000000256e+01 1.610910000000000082e+02 1.842170000000000073e+03
9.700000000000000289e-02 6.643935000000000812e-01 2.719794999999999874e+01 1.609664999999999964e+02 1.842139999999999873e+03
9.800000000000000377e-02 6.643620000000000081e-01 2.657130000000000081e+01 1.607775000000000034e+02 1.842090000000000146e+03
9.900000000000000466e-02 6.643149999999999888e-01 2.593299999999999983e+01 1.605160000000000196e+02 1.842030000000000200e+03
1.000000000000000056e-01 6.642529999999999824e-01 2.527939999999999898e+01 1.601759999999999877e+02 1.841944999999999936e+03
1.010000000000000064e-01 6.641749999999999599e-01 2.460804999999999865e+01 1.597535000000000025e+02 1.841835000000000036e+03
1.020000000000000073e-01 6.640810000000000324e-01 2.391779999999999973e+01 1.592479999999999905e+02 1.841710000000000036e+03
1.030000000000000082e-01 6.639724999999999655e-01 2.320889999999999986e+01 1.586625000000000227e+02 1.841565000000000055e+03
1.040000000000000091e-01 6.638509999999999689e-01 2.248339999999999961e+01 1.580029999999999859e+02 1.841400000000000091e+03
1.050000000000000100e-01 6.637174999999999603e-01 2.174455000000000027e+01 1.572779999999999916e+02 1.841214999999999918e+03
1.059999999999999970e-01 6.635750000000000259e-01 2.099729999999999919e+01 1.564995000000000118e+02 1.841014999999999873e+03
1.069999999999999979e-01 6.634275000000000588e-01 2.024770000000000181e+01 1.556829999999999927e+02 1.840804999999999836e+03
1.079999999999999988e-01 6.632765000000000466e-01 1.950269999999999726e+01 1.548445000000000107e+02 1.840585000000000036e+03
1.089999999999999997e-01 6.631259999999999932e-01 1.876995000000000147e+01 1.540014999999999930e+02 1.840360000000000127e+03
1.100000000000000006e-01 6.629800000000000137e-01 1.805734999999999957e+01 1.531725000000000136e+02 1.840139999999999873e+03
1.110000000000000014e-01 6.628410000000000135e-01 1.737250000000000227e+01 1.523745000000000118e+02 1.839924999999999955e+03
1.120000000000000023e-01 6.627115000000000089e-01 1.672254999999999825e+01 1.516250000000000000e+02 1.839720000000000027e+03
1.130000000000000032e-01 6.625944999999999752e-01 1.611380000000000123e+01 1.509364999999999952e+02 1.839529999999999973e+03
1.140000000000000041e-01 6.624915000000000109e-01 1.555129999999999946e+01 1.503220000000000027e+02 1.839355000000000018e+03
1.150000000000000050e-01 6.624034999999999229e-01 1.503865000000000052e+01 1.497884999999999991e+02 1.839204999999999927e+03
1.160000000000000059e-01 6.623314999999999619e-01 1.457815000000000083e+01 1.493430000000000177e+02 1.839069999999999936e+03
1.170000000000000068e-01 6.622749999999999471e-01 1.417014999999999958e+01 1.489844999999999970e+02 1.838960000000000036e+03
1.180000000000000077e-01 6.622339999999999893e-01 1.381385000000000041e+01 1.487130000000000223e+02 1.838869999999999891e+03
1.190000000000000085e-01 6.622065000000000312e-01 1.350690000000000168e+01 1.485219999999999914e+02 1.838805000000000064e+03
1.200000000000000094e-01 6.621909999999999741e-01 1.324579999999999913e+01 1.484055000000000177e+02 1.838755000000000109e+03
1.209999999999999964e-01 6.621865000000000112e-01 1.302629999999999910e+01 1.483520000000000039e+02 1.838724999999999909e+03
1.219999999999999973e-01 6.621900000000000563e-01 1.284345000000000070e+01 1.483519999999999754e+02 1.838710000000000036e+03
1.229999999999999982e-01 6.621999999999998998e-01 1.269209999999999994e+01 1.483944999999999936e+02 1.838710000000000036e+03
1.239999999999999991e-01 6.622139999999999693e-01 1.256694999999999851e+01 1.484675000000000011e+02 1.838714999999999918e+03
1.250000000000000000e-01 6.622315000000000840e-01 1.246310000000000073e+01 1.485614999999999952e+02 1.838730000000000018e+03
1.260000000000000009e-01 6.622494999999999354e-01 1.237589999999999968e+01 1.486670000000000016e+02 1.838750000000000000e+03
1.270000000000000018e-01 6.622685000000000377e-01 1.230114999999999981e+01 1.487760000000000105e+02 1.838769999999999982e+03
1.280000000000000027e-01 6.622854999999999714e-01 1.223509999999999920e+01 1.488820000000000050e+02 1.838789999999999964e+03
1.290000000000000036e-01 6.623014999999999874e-01 1.217469999999999963e+01 1.489805000000000064e+02 1.838815000000000055e+03
1.300000000000000044e-01 6.623149999999999871e-01 1.211730000000000018e+01 1.490685000000000002e+02 1.838835000000000036e+03
1.310000000000000053e-01 6.623259999999999703e-01 1.206090000000000018e+01 1.491430000000000007e+02 1.838855000000000018e+03
1.320000000000000062e-01 6.623350000000000071e-01 1.200389999999999979e+01 1.492040000000000077e+02 1.838869999999999891e+03
1.330000000000000071e-01 6.623415000000000274e-01 1.194519999999999982e+01 1.492510000000000048e+02 1.838880000000000109e+03
1.340000000000000080e-01 6.623460000000001013e-01 1.188419999999999987e+01 1.492855000000000132e+02 1.838889999999999873e+03
1.350000000000000089e-01 6.623490000000000766e-01 1.182059500000000085e+01 1.493089999999999975e+02 1.838900000000000091e+03
1.360000000000000098e-01 6.623499999999999943e-01 1.175461499999999937e+01 1.493230000000000075e+02 1.838904999999999973e+03
1.370000000000000107e-01 6.623505000000000642e-01 1.168672499999999914e+01 1.493310000000000173e+02 1.838909999999999854e+03
1.380000000000000115e-01 6.623510000000000231e-01 1.161772000000000027e+01 1.493350000000000080e+02 1.838909999999999854e+03
1.390000000000000124e-01 6.623509999999999120e-01 1.154839499999999930e+01 1.493389999999999986e+02 1.838909999999999854e+03
1.400000000000000133e-01 6.623520000000000518e-01 1.147980499999999893e+01 1.493439999999999941e+02 1.838909999999999854e+03
1.410000000000000142e-01 6.623544999999999572e-01 1.141286500000000004e+01 1.493539999999999850e+02 1.838914999999999964e+03
1.420000000000000151e-01 6.623574999999999324e-01 1.134848500000000016e+01 1.493700000000000045e+02 1.838920000000000073e+03
1.430000000000000160e-01 6.623630000000000351e-01 1.128725999999999985e+01 1.493940000000000055e+02 1.838924999999999955e+03
1.440000000000000169e-01 6.623704999999999732e-01 1.122968499999999992e+01 1.494265000000000043e+02 1.838934999999999945e+03
1.450000000000000178e-01 6.623784999999999812e-01 1.117588999999999899e+01 1.494680000000000177e+02 1.838945000000000164e+03
1.459999999999999909e-01 6.623885000000000467e-01 1.112574000000000041e+01 1.495175000000000125e+02 1.838960000000000036e+03
1.469999999999999918e-01 6.624000000000000998e-01 1.107887000000000022e+01 1.495735000000000241e+02 1.838970000000000027e+03
1.479999999999999927e-01 6.624115000000000419e-01 1.103476999999999997e+01 1.496349999999999909e+02 1.838990000000000009e+03
1.489999999999999936e-01 6.624240000000000128e-01 1.099277499999999996e+01 1.496995000000000005e+02 1.839005000000000109e+03
1.499999999999999944e-01 6.624364999999999837e-01 1.095212000000000074e+01 1.497649999999999864e+02 1.839019999999999982e+03
1.509999999999999953e-01 6.624484999999999957e-01 1.091225499999999826e+01 1.498290000000000077e+02 1.839039999999999964e+03
1.519999999999999962e-01 6.624594999999999789e-01 1.087247499999999967e+01 1.498890000000000100e+02 1.839054999999999836e+03
1.529999999999999971e-01 6.624689999999999745e-01 1.083252500000000040e+01 1.499449999999999932e+02 1.839069999999999936e+03
1.539999999999999980e-01 6.624784999999999702e-01 1.079220000000000113e+01 1.499950000000000045e+02 1.839085000000000036e+03
1.549999999999999989e-01 6.624860000000000193e-01 1.075154999999999994e+01 1.500400000000000205e+02 1.839099999999999909e+03
1.559999999999999998e-01 6.624935000000000684e-01 1.071090500000000034e+01 1.500780000000000030e+02 1.839105000000000018e+03
1.570000000000000007e-01 6.625000000000000888e-01 1.067076000000000136e+01 1.501125000000000114e+02 1.839115000000000009e+03
1.580000000000000016e-01 6.625054999999999694e-01 1.063181000000000154e+01 1.501440000000000055e+02 1.839130000000000109e+03
1.590000000000000024e-01 6.625114999999999199e-01 1.059485000000000099e+01 1.501744999999999948e+02 1.839134999999999991e+03
