# t [s], A [cm^2], U [cm/s], P [cPa], c [cm/s]
1.000000000000000021e-03 1.212710000000000038e-01 2.241380000000000039e-01 1.039525000000000006e+02 2.024950000000000045e+03
2.000000000000000042e-03 1.212519999999999987e-01 1.623559999999999892e+00 1.009930999999999983e+02 2.024654999999999973e+03
3.000000000000000062e-03 1.211824999999999986e-01 3.383089000000000013e+00 9.701724999999999000e+01 2.023619999999999891e+03
4.000000000000000083e-03 1.210770000000000041e-01 5.357814849999999574e+00 9.247665000000000646e+01 2.022095000000000027e+03
5.000000000000000104e-03 1.209550000000000070e-01 7.491925000000000168e+00 8.809950000000000614e+01 2.020339999999999918e+03
6.000000000000000125e-03 1.208309999999999940e-01 9.682639999999999247e+00 8.429959999999999809e+01 2.018559999999999945e+03
7.000000000000000146e-03 1.207100000000000117e-01 1.177265500000000031e+01 8.107330000000000325e+01 2.016865000000000009e+03
8.000000000000000167e-03 1.205954999999999944e-01 1.363748000000000005e+01 7.821819999999999595e+01 2.015279999999999973e+03
9.000000000000001055e-03 1.204894999999999994e-01 1.525120000000000076e+01 7.564664999999999395e+01 2.013839999999999918e+03
1.000000000000000194e-02 1.203950000000000020e-01 1.663899999999999935e+01 7.340694999999999482e+01 2.012565000000000055e+03
1.099999999999999936e-02 1.203130000000000033e-01 1.782110000000000127e+01 7.153645000000000209e+01 2.011474999999999909e+03
1.200000000000000025e-02 1.202440000000000037e-01 1.880720000000000169e+01 7.001555000000000462e+01 2.010554999999999836e+03
1.300000000000000114e-02 1.201865000000000017e-01 1.960105000000000075e+01 6.878655000000000541e+01 2.009804999999999836e+03
1.400000000000000203e-02 1.201385000000000092e-01 2.020134999999999792e+01 6.776080000000000325e+01 2.009190000000000055e+03
1.499999999999999944e-02 1.200980000000000103e-01 2.061704999999999899e+01 6.685179999999999723e+01 2.008674999999999955e+03
1.600000000000000033e-02 1.200630000000000031e-01 2.089170000000000016e+01 6.604990000000000805e+01 2.008244999999999891e+03
1.700000000000000122e-02 1.200360000000000038e-01 2.111005000000000109e+01 6.547399999999998954e+01 2.007914999999999964e+03
1.800000000000000211e-02 1.200190000000000007e-01 2.137245000000000061e+01 6.533554999999999779e+01 2.007720000000000027e+03
1.900000000000000300e-02 1.200174999999999992e-01 2.175435000000000230e+01 6.583034999999999570e+01 2.007704999999999927e+03
2.000000000000000042e-02 1.200319999999999998e-01 2.227519999999999811e+01 6.702635000000000787e+01 2.007909999999999854e+03
2.100000000000000130e-02 1.200620000000000021e-01 2.289300000000000068e+01 6.881184999999999263e+01 2.008309999999999945e+03
2.200000000000000219e-02 1.201039999999999885e-01 2.352339999999999876e+01 7.092265000000000441e+01 2.008875000000000000e+03
2.299999999999999961e-02 1.201519999999999949e-01 2.407114999999999938e+01 7.302549999999999386e+01 2.009525000000000091e+03
2.400000000000000050e-02 1.201984999999999998e-01 2.445985000000000298e+01 7.481669999999999732e+01 2.010170000000000073e+03
2.500000000000000139e-02 1.202389999999999987e-01 2.465115000000000123e+01 7.609950000000000614e+01 2.010730000000000018e+03
2.600000000000000228e-02 1.202699999999999880e-01 2.464884999999999948e+01 7.681770000000000209e+01 2.011170000000000073e+03
2.700000000000000316e-02 1.202904999999999947e-01 2.448945000000000149e+01 7.704290000000000305e+01 2.011474999999999909e+03
2.800000000000000058e-02 1.203024999999999928e-01 2.422444999999999737e+01 7.692705000000000837e+01 2.011655000000000200e+03
2.900000000000000147e-02 1.203079999999999983e-01 2.390220000000000056e+01 7.664029999999999632e+01 2.011744999999999891e+03
3.000000000000000236e-02 1.203094999999999998e-01 2.355379999999999896e+01 7.631610000000000582e+01 2.011769999999999982e+03
3.099999999999999978e-02 1.203084999999999988e-01 2.318789999999999907e+01 7.601885000000000048e+01 2.011765000000000100e+03
3.200000000000000067e-02 1.203059999999999963e-01 2.279314999999999714e+01 7.573994999999999322e+01 2.011735000000000127e+03
3.300000000000000155e-02 1.203020000000000062e-01 2.234779999999999944e+01 7.541830000000000211e+01 2.011690000000000055e+03
3.400000000000000244e-02 1.202944999999999987e-01 2.183129999999999882e+01 7.497525000000000261e+01 2.011595000000000027e+03
3.500000000000000333e-02 1.202835000000000015e-01 2.123519999999999897e+01 7.435269999999999868e+01 2.011450000000000045e+03
3.600000000000000422e-02 1.202679999999999999e-01 2.057005000000000194e+01 7.354194999999999993e+01 2.011250000000000000e+03
3.700000000000000511e-02 1.202485000000000082e-01 1.986645000000000039e+01 7.259669999999999845e+01 2.011000000000000000e+03
3.799999999999999906e-02 1.202265000000000000e-01 1.917069999999999652e+01 7.162680000000000291e+01 2.010710000000000036e+03
3.899999999999999994e-02 1.202050000000000063e-01 1.853535000000000110e+01 7.077519999999999811e+01 2.010420000000000073e+03
4.000000000000000083e-02 1.201870000000000022e-01 1.800844999999999985e+01 7.018479999999999563e+01 2.010174999999999955e+03
4.100000000000000172e-02 1.201750000000000040e-01 1.762349999999999994e+01 6.996559999999999491e+01 2.010014999999999873e+03
4.200000000000000261e-02 1.201715000000000005e-01 1.739305000000000234e+01 7.016980000000000928e+01 2.009950000000000045e+03
4.300000000000000350e-02 1.201764999999999917e-01 1.730744999999999933e+01 7.078090000000000259e+01 2.010014999999999873e+03
4.400000000000000439e-02 1.201909999999999923e-01 1.733709999999999951e+01 7.171825000000001182e+01 2.010190000000000055e+03
4.499999999999999833e-02 1.202114999999999989e-01 1.743914999999999793e+01 7.285360000000000014e+01 2.010460000000000036e+03
4.599999999999999922e-02 1.202364999999999962e-01 1.756484999999999985e+01 7.403549999999999898e+01 2.010779999999999973e+03
4.700000000000000011e-02 1.202619999999999939e-01 1.766709999999999781e+01 7.511384999999999934e+01 2.011119999999999891e+03
4.800000000000000100e-02 1.202854999999999897e-01 1.770604999999999762e+01 7.596139999999999759e+01 2.011440000000000055e+03
4.900000000000000189e-02 1.203039999999999943e-01 1.765274999999999750e+01 7.648714999999999975e+01 2.011690000000000055e+03
5.000000000000000278e-02 1.203164999999999929e-01 1.748995000000000033e+01 7.664199999999999591e+01 2.011855000000000018e+03
5.100000000000000366e-02 1.203204999999999969e-01 1.721130000000000138e+01 7.641604999999999848e+01 2.011914999999999964e+03
5.200000000000000455e-02 1.203160000000000063e-01 1.681889999999999930e+01 7.583044999999999902e+01 2.011865000000000009e+03
5.300000000000000544e-02 1.203030000000000072e-01 1.632045000000000101e+01 7.492714999999999748e+01 2.011695000000000164e+03
5.399999999999999939e-02 1.202830000000000010e-01 1.572705000000000020e+01 7.375799999999999557e+01 2.011429999999999836e+03
5.500000000000000028e-02 1.202555000000000013e-01 1.505130000000000123e+01 7.237669999999999959e+01 2.011070000000000164e+03
5.600000000000000117e-02 1.202229999999999965e-01 1.430625000000000213e+01 7.083410000000000650e+01 2.010639999999999873e+03
5.700000000000000205e-02 1.201849999999999863e-01 1.350584999999999880e+01 6.917624999999999602e+01 2.010134999999999991e+03
5.800000000000000294e-02 1.201444999999999874e-01 1.266525000000000034e+01 6.744625000000000625e+01 2.009589999999999918e+03
5.900000000000000383e-02 1.201009999999999994e-01 1.180160500000000035e+01 6.568704999999999927e+01 2.009009999999999991e+03
6.000000000000000472e-02 1.200559999999999961e-01 1.093502499999999955e+01 6.394460000000000122e+01 2.008409999999999854e+03
6.099999999999999867e-02 1.200110000000000066e-01 1.008860999999999919e+01 6.227045000000000385e+01 2.007809999999999945e+03
6.199999999999999956e-02 1.199675000000000047e-01 9.288499999999999091e+00 6.072289999999999566e+01 2.007224999999999909e+03
6.300000000000000044e-02 1.199269999999999919e-01 8.562924999999999898e+00 5.936580000000000013e+01 2.006675000000000182e+03
6.400000000000000133e-02 1.198909999999999976e-01 7.941010000000000346e+00 5.826635000000000275e+01 2.006190000000000055e+03
6.500000000000000222e-02 1.198615000000000097e-01 7.451319999999999055e+00 5.749119999999999919e+01 2.005785000000000082e+03
6.600000000000000311e-02 1.198400000000000021e-01 7.120045000000000179e+00 5.710184999999999889e+01 2.005485000000000127e+03
6.700000000000000400e-02 1.198275000000000035e-01 6.969464999999999577e+00 5.715055000000000263e+01 2.005305000000000064e+03
6.800000000000000488e-02 1.198260000000000020e-01 7.016645000000000465e+00 5.767614999999999981e+01 2.005275000000000091e+03
6.900000000000000577e-02 1.198365000000000125e-01 7.272450000000000081e+00 5.870170000000000243e+01 2.005405000000000200e+03
7.000000000000000666e-02 1.198594999999999938e-01 7.741115000000000634e+00 6.023274999999999579e+01 2.005690000000000055e+03
7.100000000000000755e-02 1.198960000000000026e-01 8.420220000000000482e+00 6.225775000000000148e+01 2.006155000000000200e+03
7.200000000000000844e-02 1.199440000000000089e-01 9.301079999999998904e+00 6.474925000000000352e+01 2.006784999999999854e+03
7.300000000000000933e-02 1.200044999999999862e-01 1.036966499999999947e+01 6.766644999999999754e+01 2.007585000000000036e+03
7.399999999999999634e-02 1.200765000000000027e-01 1.160739000000000054e+01 7.095834999999999582e+01 2.008530000000000200e+03
7.499999999999999722e-02 1.201580000000000009e-01 1.299268999999999963e+01 7.456735000000000468e+01 2.009610000000000127e+03
7.599999999999999811e-02 1.202485000000000082e-01 1.450199999999999889e+01 7.843334999999999013e+01 2.010820000000000164e+03
7.699999999999999900e-02 1.203465000000000090e-01 1.611124999999999829e+01 8.249694999999999823e+01 2.012130000000000109e+03
7.799999999999999989e-02 1.204505000000000020e-01 1.779690000000000083e+01 8.670300000000000296e+01 2.013525000000000091e+03
7.900000000000000078e-02 1.205589999999999995e-01 1.953689999999999927e+01 9.100280000000000769e+01 2.014990000000000009e+03
8.000000000000000167e-02 1.206715000000000149e-01 2.131139999999999901e+01 9.535554999999999382e+01 2.016500000000000000e+03
8.100000000000000255e-02 1.207855000000000040e-01 2.310320000000000107e+01 9.973035000000000139e+01 2.018050000000000182e+03
8.200000000000000344e-02 1.209019999999999956e-01 2.489774999999999849e+01 1.041038499999999942e+02 2.019625000000000000e+03
8.300000000000000433e-02 1.210185000000000011e-01 2.668319999999999936e+01 1.084604999999999961e+02 2.021215000000000146e+03
8.400000000000000522e-02 1.211359999999999937e-01 2.844999999999999574e+01 1.127920000000000016e+02 2.022820000000000164e+03
8.500000000000000611e-02 1.212529999999999997e-01 3.019030000000000058e+01 1.170930000000000035e+02 2.024424999999999955e+03
8.600000000000000699e-02 1.213700000000000057e-01 3.189764999999999873e+01 1.213619999999999948e+02 2.026034999999999854e+03
8.700000000000000788e-02 1.214869999999999839e-01 3.356640000000000157e+01 1.255965000000000060e+02 2.027640000000000100e+03
8.800000000000000877e-02 1.216035000000000033e-01 3.519129999999999825e+01 1.297934999999999945e+02 2.029244999999999891e+03
8.899999999999999578e-02 1.217189999999999939e-01 3.676729999999999876e+01 1.339479999999999791e+02 2.030845000000000027e+03
8.999999999999999667e-02 1.218335000000000112e-01 3.828894999999999982e+01 1.380519999999999925e+02 2.032429999999999836e+03
9.099999999999999756e-02 1.219469999999999998e-01 3.975109999999999388e+01 1.420960000000000036e+02 2.034000000000000000e+03
9.199999999999999845e-02 1.220590000000000008e-01 4.114799999999999613e+01 1.460660000000000025e+02 2.035559999999999945e+03
9.299999999999999933e-02 1.221694999999999864e-01 4.247409999999999997e+01 1.499479999999999791e+02 2.037099999999999909e+03
9.400000000000000022e-02 1.222774999999999973e-01 4.372384999999999877e+01 1.537255000000000109e+02 2.038605000000000018e+03
9.500000000000000111e-02 1.223830000000000057e-01 4.489175000000000182e+01 1.573834999999999980e+02 2.040079999999999927e+03
9.600000000000000200e-02 1.224850000000000105e-01 4.597274999999999778e+01 1.609045000000000130e+02 2.041515000000000100e+03
9.700000000000000289e-02 1.225844999999999851e-01 4.696184999999999832e+01 1.642735000000000127e+02 2.042900000000000091e+03
9.800000000000000377e-02 1.226794999999999969e-01 4.785465000000000657e+01 1.674745000000000061e+02 2.044239999999999782e+03
9.900000000000000466e-02 1.227699999999999902e-01 4.864695000000000391e+01 1.704950000000000045e+02 2.045519999999999982e+03
1.000000000000000056e-01 1.228565000000000074e-01 4.933509999999999707e+01 1.733199999999999932e+02 2.046740000000000009e+03
1.010000000000000064e-01 1.229374999999999912e-01 4.991594999999999516e+01 1.759384999999999764e+02 2.047884999999999991e+03
1.020000000000000073e-01 1.230134999999999978e-01 5.038684999999999548e+01 1.783404999999999916e+02 2.048960000000000036e+03
1.030000000000000082e-01 1.230835000000000123e-01 5.074585000000000434e+01 1.805155000000000030e+02 2.049954999999999927e+03
1.040000000000000091e-01 1.231475000000000070e-01 5.099184999999999945e+01 1.824585000000000150e+02 2.050865000000000236e+03
1.050000000000000100e-01 1.232054999999999956e-01 5.112489999999999668e+01 1.841624999999999943e+02 2.051694999999999709e+03
1.059999999999999970e-01 1.232570000000000054e-01 5.114605000000000246e+01 1.856279999999999859e+02 2.052434999999999945e+03
1.069999999999999979e-01 1.233025000000000093e-01 5.105774999999999864e+01 1.868545000000000016e+02 2.053090000000000146e+03
1.079999999999999988e-01 1.233414999999999928e-01 5.086374999999999602e+01 1.878485000000000014e+02 2.053650000000000091e+03
1.089999999999999997e-01 1.233744999999999981e-01 5.056935000000000002e+01 1.886179999999999950e+02 2.054125000000000000e+03
1.100000000000000006e-01 1.234009999999999968e-01 5.018115000000000236e+01 1.891750000000000114e+02 2.054514999999999873e+03
1.110000000000000014e-01 1.234220000000000039e-01 4.970694999999999908e+01 1.895360000000000014e+02 2.054820000000000164e+03
1.120000000000000023e-01 1.234375000000000056e-01 4.915570000000000306e+01 1.897179999999999893e+02 2.055054999999999836e+03
1.130000000000000032e-01 1.234485000000000027e-01 4.853694999999999737e+01 1.897409999999999854e+02 2.055215000000000146e+03
1.140000000000000041e-01 1.234544999999999948e-01 4.786074999999999591e+01 1.896265000000000214e+02 2.055309999999999945e+03
1.150000000000000050e-01 1.234564999999999968e-01 4.713734999999999786e+01 1.893954999999999984e+02 2.055355000000000018e+03
1.160000000000000059e-01 1.234554999999999958e-01 4.637675000000000125e+01 1.890690000000000168e+02 2.055340000000000146e+03
1.170000000000000068e-01 1.234510000000000052e-01 4.558844999999999459e+01 1.886670000000000016e+02 2.055284999999999854e+03
1.180000000000000077e-01 1.234444999999999987e-01 4.478130000000000166e+01 1.882055000000000007e+02 2.055199999999999818e+03
1.190000000000000085e-01 1.234355000000000036e-01 4.396314999999999884e+01 1.877005000000000052e+02 2.055085000000000036e+03
1.200000000000000094e-01 1.234250000000000069e-01 4.314074999999999704e+01 1.871645000000000039e+02 2.054940000000000055e+03
1.209999999999999964e-01 1.234139999999999959e-01 4.231954999999999956e+01 1.866059999999999945e+02 2.054780000000000200e+03
1.219999999999999973e-01 1.234009999999999968e-01 4.150400000000000489e+01 1.860319999999999823e+02 2.054599999999999909e+03
1.229999999999999982e-01 1.233875000000000111e-01 4.069700000000000273e+01 1.854454999999999814e+02 2.054409999999999854e+03
1.239999999999999991e-01 1.233734999999999971e-01 3.990030000000000143e+01 1.848485000000000014e+02 2.054210000000000036e+03
1.250000000000000000e-01 1.233585000000000098e-01 3.911464999999999748e+01 1.842379999999999995e+02 2.054005000000000109e+03
1.260000000000000009e-01 1.233429999999999943e-01 3.833955000000000268e+01 1.836119999999999948e+02 2.053779999999999745e+03
1.270000000000000018e-01 1.233269999999999922e-01 3.757379999999999853e+01 1.829644999999999868e+02 2.053550000000000182e+03
1.280000000000000027e-01 1.233100000000000029e-01 3.681539999999999679e+01 1.822884999999999991e+02 2.053315000000000055e+03
1.290000000000000036e-01 1.232924999999999993e-01 3.606185000000000684e+01 1.815780000000000030e+02 2.053065000000000055e+03
1.300000000000000044e-01 1.232735000000000081e-01 3.531029999999999802e+01 1.808260000000000218e+02 2.052795000000000073e+03
1.310000000000000053e-01 1.232535000000000158e-01 3.455780000000000030e+01 1.800240000000000009e+02 2.052514999999999873e+03
1.320000000000000062e-01 1.232319999999999943e-01 3.380134999999999934e+01 1.791664999999999850e+02 2.052215000000000146e+03
1.330000000000000071e-01 1.232089999999999991e-01 3.303820000000000334e+01 1.782470000000000141e+02 2.051890000000000327e+03
1.340000000000000080e-01 1.231845000000000023e-01 3.226615000000000322e+01 1.772620000000000005e+02 2.051545000000000073e+03
1.350000000000000089e-01 1.231579999999999897e-01 3.148340000000000316e+01 1.762085000000000150e+02 2.051175000000000182e+03
1.360000000000000098e-01 1.231299999999999895e-01 3.068889999999999674e+01 1.750854999999999961e+02 2.050780000000000200e+03
1.370000000000000107e-01 1.231005000000000016e-01 2.988250000000000028e+01 1.738944999999999936e+02 2.050364999999999782e+03
1.380000000000000115e-01 1.230690000000000117e-01 2.906470000000000198e+01 1.726399999999999864e+02 2.049920000000000073e+03
1.390000000000000124e-01 1.230354999999999921e-01 2.823704999999999998e+01 1.713265000000000100e+02 2.049449999999999818e+03
1.400000000000000133e-01 1.230004999999999987e-01 2.740204999999999913e+01 1.699619999999999891e+02 2.048960000000000036e+03
1.410000000000000142e-01 1.229645000000000044e-01 2.656285000000000096e+01 1.685564999999999998e+02 2.048460000000000036e+03
1.420000000000000151e-01 1.229264999999999941e-01 2.572344999999999970e+01 1.671225000000000023e+02 2.047934999999999945e+03
1.430000000000000160e-01 1.228885000000000116e-01 2.488844999999999885e+01 1.656709999999999923e+02 2.047400000000000091e+03
1.440000000000000169e-01 1.228500000000000009e-01 2.406289999999999907e+01 1.642170000000000130e+02 2.046855000000000018e+03
1.450000000000000178e-01 1.228110000000000035e-01 2.325215000000000032e+01 1.627735000000000127e+02 2.046309999999999945e+03
1.459999999999999909e-01 1.227719999999999922e-01 2.246144999999999925e+01 1.613559999999999945e+02 2.045764999999999873e+03
1.469999999999999918e-01 1.227334999999999954e-01 2.169610000000000127e+01 1.599755000000000109e+02 2.045230000000000018e+03
1.479999999999999927e-01 1.226959999999999995e-01 2.096099999999999852e+01 1.586460000000000150e+02 2.044704999999999927e+03
1.489999999999999936e-01 1.226595000000000046e-01 2.026050000000000040e+01 1.573774999999999977e+02 2.044194999999999936e+03
1.499999999999999944e-01 1.226249999999999840e-01 1.959830000000000183e+01 1.561784999999999854e+02 2.043699999999999818e+03
1.509999999999999953e-01 1.225915000000000060e-01 1.897739999999999938e+01 1.550550000000000068e+02 2.043234999999999900e+03
1.519999999999999962e-01 1.225600000000000023e-01 1.840005000000000024e+01 1.540135000000000218e+02 2.042785000000000082e+03
1.529999999999999971e-01 1.225305000000000144e-01 1.786749999999999972e+01 1.530554999999999950e+02 2.042369999999999891e+03
1.539999999999999980e-01 1.225030000000000008e-01 1.738034999999999997e+01 1.521814999999999998e+02 2.041984999999999900e+03
1.549999999999999989e-01 1.224774999999999892e-01 1.693844999999999956e+01 1.513905000000000030e+02 2.041625000000000000e+03
1.559999999999999998e-01 1.224540000000000073e-01 1.654070000000000107e+01 1.506794999999999902e+02 2.041295000000000073e+03
1.570000000000000007e-01 1.224335000000000007e-01 1.618590000000000018e+01 1.500455000000000041e+02 2.041000000000000000e+03
1.580000000000000016e-01 1.224139999999999950e-01 1.587180000000000035e+01 1.494825000000000159e+02 2.040724999999999909e+03
1.590000000000000024e-01 1.223970000000000058e-01 1.559630000000000116e+01 1.489864999999999782e+02 2.040480000000000018e+03
