# t [s], A [cm^2], U [cm/s], P [cPa], c [cm/s]
1.000000000000000021e-03 4.824905000000000443e-01 4.101599999999996915e-03 9.873725000000000307e+01 1.542585000000000036e+03
2.000000000000000042e-03 4.824829999999999952e-01 -1.345603500000000074e-03 9.871540000000000248e+01 1.542579999999999927e+03
3.000000000000000062e-03 4.825180000000000025e-01 7.421334999999999738e-02 9.879064999999999941e+01 1.542599999999999909e+03
4.000000000000000083e-03 4.825585000000000013e-01 1.667257999999999796e-01 9.890425000000000466e+01 1.542625000000000000e+03
5.000000000000000104e-03 4.825519999999999810e-01 1.657660000000000244e-01 9.889494999999999436e+01 1.542630000000000109e+03
6.000000000000000125e-03 4.825105000000000088e-01 8.542099999999999693e-02 9.873904999999999177e+01 1.542594999999999800e+03
7.000000000000000146e-03 4.824700000000000100e-01 2.699999999999980194e-03 9.851839999999999975e+01 1.542545000000000073e+03
8.000000000000000167e-03 4.824195000000000011e-01 -1.110764999999999669e-01 9.821580000000000155e+01 1.542474999999999909e+03
9.000000000000001055e-03 4.823314999999999686e-01 -3.181249999999999911e-01 9.775055000000000405e+01 1.542365000000000009e+03
1.000000000000000194e-02 4.822000000000000175e-01 -6.308400000000000674e-01 9.707800000000000296e+01 1.542200000000000045e+03
1.099999999999999936e-02 4.820185000000000164e-01 -1.057644999999999946e+00 9.615645000000000664e+01 1.541980000000000018e+03
1.200000000000000025e-02 4.817744999999999944e-01 -1.613215000000000288e+00 9.493399999999999750e+01 1.541680000000000064e+03
1.300000000000000114e-02 4.814720000000000111e-01 -2.272250000000000103e+00 9.340360000000001151e+01 1.541299999999999955e+03
1.400000000000000203e-02 4.811405000000000265e-01 -2.945580000000000087e+00 9.164789999999999281e+01 1.540849999999999909e+03
1.499999999999999944e-02 4.808220000000000272e-01 -3.511010000000000186e+00 8.981870000000000687e+01 1.540365000000000009e+03
1.600000000000000033e-02 4.805490000000000039e-01 -3.866491499999999970e+00 8.807394999999999641e+01 1.539875000000000000e+03
1.700000000000000122e-02 4.803330000000000100e-01 -3.965284899999999890e+00 8.651959999999999695e+01 1.539414999999999964e+03
1.800000000000000211e-02 4.801640000000000352e-01 -3.820615500000000164e+00 8.518475000000000819e+01 1.538994999999999891e+03
1.900000000000000300e-02 4.800185000000000146e-01 -3.488605499999999804e+00 8.402879999999998972e+01 1.538615000000000009e+03
2.000000000000000042e-02 4.798700000000000188e-01 -3.042418500000000137e+00 8.296815000000000850e+01 1.538250000000000000e+03
2.100000000000000130e-02 4.796970000000000400e-01 -2.547331499999999860e+00 8.191065000000000396e+01 1.537889999999999873e+03
2.200000000000000219e-02 4.794910000000000005e-01 -2.043315000000000214e+00 8.078604999999998881e+01 1.537514999999999873e+03
2.299999999999999961e-02 4.792540000000000133e-01 -1.539209999999999745e+00 7.956434999999999036e+01 1.537115000000000009e+03
2.400000000000000050e-02 4.789980000000000349e-01 -1.019405000000000117e+00 7.825704999999999245e+01 1.536700000000000045e+03
2.500000000000000139e-02 4.787365000000000093e-01 -4.590450000000001474e-01 7.690260000000000673e+01 1.536269999999999982e+03
2.600000000000000228e-02 4.784804999999999753e-01 1.589400000000003033e-01 7.554404999999999859e+01 1.535839999999999918e+03
2.700000000000000316e-02 4.782325000000000048e-01 8.314550000000000551e-01 7.420810000000000173e+01 1.535404999999999973e+03
2.800000000000000058e-02 4.779869999999999397e-01 1.530744999999999800e+00 7.289164999999999850e+01 1.534980000000000018e+03
2.900000000000000147e-02 4.777305000000000579e-01 2.207699999999999996e+00 7.155920000000000414e+01 1.534545000000000073e+03
3.000000000000000236e-02 4.774464999999999959e-01 2.801124999999999865e+00 7.014974999999999739e+01 1.534090000000000146e+03
3.099999999999999978e-02 4.771189999999999598e-01 3.250185000000000102e+00 6.859120000000000061e+01 1.533610000000000127e+03
3.200000000000000067e-02 4.767350000000000199e-01 3.507115000000000204e+00 6.681855000000000189e+01 1.533079999999999927e+03
3.300000000000000155e-02 4.762925000000000075e-01 3.547470000000000123e+00 6.479110000000000014e+01 1.532485000000000127e+03
3.400000000000000244e-02 4.757974999999999843e-01 3.375029999999999752e+00 6.250560000000000116e+01 1.531835000000000036e+03
3.500000000000000333e-02 4.752635000000000054e-01 3.020944999999999769e+00 6.000015000000000498e+01 1.531125000000000000e+03
3.600000000000000422e-02 4.747124999999999817e-01 2.536944999999999784e+00 5.735049999999999670e+01 1.530375000000000000e+03
3.700000000000000511e-02 4.741680000000000339e-01 1.985599999999999810e+00 5.465845000000000198e+01 1.529610000000000127e+03
3.799999999999999906e-02 4.736524999999999763e-01 1.429829999999999934e+00 5.203705000000000069e+01 1.528849999999999909e+03
3.899999999999999994e-02 4.731865000000000654e-01 9.250150000000001427e-01 4.959629999999999939e+01 1.528130000000000109e+03
4.000000000000000083e-02 4.727840000000000376e-01 5.140399999999996083e-01 4.743144999999999811e+01 1.527474999999999909e+03
4.100000000000000172e-02 4.724544999999999995e-01 2.256549999999997169e-01 4.561599999999999966e+01 1.526909999999999854e+03
4.200000000000000261e-02 4.722034999999999982e-01 7.580999999999971095e-02 4.419875000000000398e+01 1.526440000000000055e+03
4.300000000000000350e-02 4.720309999999999784e-01 7.065499999999991232e-02 4.320520000000000493e+01 1.526085000000000036e+03
4.400000000000000439e-02 4.719364999999999810e-01 2.103000000000001535e-01 4.264159999999999684e+01 1.525845000000000027e+03
4.499999999999999833e-02 4.719169999999999754e-01 4.923149999999999471e-01 4.250024999999999409e+01 1.525724999999999909e+03
4.599999999999999922e-02 4.719700000000000006e-01 9.142660000000000231e-01 4.276510000000000389e+01 1.525724999999999909e+03
4.700000000000000011e-02 4.720914999999999973e-01 1.474839500000000081e+00 4.341595000000000226e+01 1.525835000000000036e+03
4.800000000000000100e-02 4.722790000000000044e-01 2.173589499999999841e+00 4.443120000000000402e+01 1.526055000000000064e+03
4.900000000000000189e-02 4.725300000000000056e-01 3.009619999999999962e+00 4.578824999999999790e+01 1.526375000000000000e+03
5.000000000000000278e-02 4.728404999999999969e-01 3.979760000000000186e+00 4.746314999999999884e+01 1.526789999999999964e+03
5.100000000000000366e-02 4.732049999999999867e-01 5.076921999999999713e+00 4.942860000000000298e+01 1.527300000000000182e+03
5.200000000000000455e-02 4.736175000000000246e-01 6.288992999999999611e+00 5.165314999999999657e+01 1.527884999999999991e+03
5.300000000000000544e-02 4.740699999999999914e-01 7.598592999999999265e+00 5.409985000000000355e+01 1.528539999999999964e+03
5.399999999999999939e-02 4.745550000000000046e-01 8.983819999999999695e+00 5.672664999999999935e+01 1.529259999999999991e+03
5.500000000000000028e-02 4.750614999999999699e-01 1.041958499999999965e+01 5.948769999999999669e+01 1.530025000000000091e+03
5.600000000000000117e-02 4.755814999999999904e-01 1.187911000000000072e+01 6.233514999999999873e+01 1.530824999999999818e+03
5.700000000000000205e-02 4.761055000000000148e-01 1.333632499999999865e+01 6.522159999999999513e+01 1.531644999999999982e+03
5.800000000000000294e-02 4.766259999999999941e-01 1.476706499999999878e+01 6.810329999999999018e+01 1.532480000000000018e+03
5.900000000000000383e-02 4.771364999999999634e-01 1.615083500000000072e+01 7.094180000000000064e+01 1.533309999999999945e+03
6.000000000000000472e-02 4.776314999999999866e-01 1.747145000000000081e+01 7.370619999999999550e+01 1.534130000000000109e+03
6.099999999999999867e-02 4.781085000000000473e-01 1.871750000000000114e+01 7.637424999999998931e+01 1.534924999999999955e+03
6.199999999999999956e-02 4.785665000000000058e-01 1.988220000000000098e+01 7.893269999999999698e+01 1.535704999999999927e+03
6.300000000000000044e-02 4.790050000000000141e-01 2.096305000000000263e+01 8.137659999999999627e+01 1.536460000000000036e+03
6.400000000000000133e-02 4.794255000000000044e-01 2.196105000000000018e+01 8.370869999999999322e+01 1.537180000000000064e+03
6.500000000000000222e-02 4.798304999999999376e-01 2.288004999999999711e+01 8.593800000000000239e+01 1.537880000000000109e+03
6.600000000000000311e-02 4.802220000000000377e-01 2.372585000000000122e+01 8.807779999999999632e+01 1.538549999999999955e+03
6.700000000000000400e-02 4.806034999999999613e-01 2.450534999999999997e+01 9.014464999999999861e+01 1.539200000000000045e+03
6.800000000000000488e-02 4.809790000000000454e-01 2.522605000000000075e+01 9.215594999999999004e+01 1.539839999999999918e+03
6.900000000000000577e-02 4.813494999999999857e-01 2.589529999999999887e+01 9.412870000000000914e+01 1.540460000000000036e+03
7.000000000000000666e-02 4.817190000000000083e-01 2.651960000000000051e+01 9.607820000000000960e+01 1.541075000000000045e+03
7.100000000000000755e-02 4.820884999999999754e-01 2.710444999999999993e+01 9.801649999999999352e+01 1.541684999999999945e+03
7.200000000000000844e-02 4.824589999999999712e-01 2.765359999999999729e+01 9.995179999999999154e+01 1.542289999999999964e+03
7.300000000000000933e-02 4.828304999999999958e-01 2.816895000000000238e+01 1.018871000000000038e+02 1.542894999999999982e+03
7.399999999999999634e-02 4.832020000000000204e-01 2.865080000000000027e+01 1.038215000000000003e+02 1.543500000000000000e+03
7.499999999999999722e-02 4.835720000000000018e-01 2.909709999999999752e+01 1.057485000000000070e+02 1.544099999999999909e+03
7.599999999999999811e-02 4.839379999999999793e-01 2.950464999999999804e+01 1.076570000000000107e+02 1.544699999999999818e+03
7.699999999999999900e-02 4.842975000000000474e-01 2.986869999999999692e+01 1.095329999999999870e+02 1.545289999999999964e+03
7.799999999999999989e-02 4.846460000000000212e-01 3.018365000000000009e+01 1.113605000000000018e+02 1.545865000000000009e+03
7.900000000000000078e-02 4.849814999999999543e-01 3.044350000000000023e+01 1.131189999999999998e+02 1.546420000000000073e+03
8.000000000000000167e-02 4.852990000000000359e-01 3.064235000000000042e+01 1.147899999999999920e+02 1.546954999999999927e+03
8.100000000000000255e-02 4.855960000000000276e-01 3.077465000000000117e+01 1.163559999999999945e+02 1.547454999999999927e+03
8.200000000000000344e-02 4.858699999999999686e-01 3.083570000000000277e+01 1.177990000000000066e+02 1.547930000000000064e+03
8.300000000000000433e-02 4.861174999999999802e-01 3.082184999999999775e+01 1.191055000000000064e+02 1.548360000000000127e+03
8.400000000000000522e-02 4.863374999999999782e-01 3.073075000000000045e+01 1.202630000000000052e+02 1.548750000000000000e+03
8.500000000000000611e-02 4.865280000000000160e-01 3.056139999999999901e+01 1.212644999999999982e+02 1.549095000000000027e+03
8.600000000000000699e-02 4.866884999999999684e-01 3.031434999999999746e+01 1.221039999999999992e+02 1.549394999999999982e+03
8.700000000000000788e-02 4.868194999999999606e-01 2.999155000000000015e+01 1.227804999999999893e+02 1.549650000000000091e+03
8.800000000000000877e-02 4.869215000000000071e-01 2.959640000000000271e+01 1.232974999999999994e+02 1.549849999999999909e+03
8.899999999999999578e-02 4.869955000000000256e-01 2.913385000000000247e+01 1.236599999999999966e+02 1.550005000000000109e+03
8.999999999999999667e-02 4.870430000000000037e-01 2.860989999999999966e+01 1.238774999999999977e+02 1.550119999999999891e+03
9.099999999999999756e-02 4.870670000000000277e-01 2.803180000000000049e+01 1.239609999999999985e+02 1.550190000000000055e+03
9.199999999999999845e-02 4.870685000000000153e-01 2.740775000000000006e+01 1.239239999999999924e+02 1.550219999999999800e+03
9.299999999999999933e-02 4.870524999999999993e-01 2.674664999999999893e+01 1.237824999999999989e+02 1.550215000000000146e+03
9.400000000000000022e-02 4.870204999999999673e-01 2.605780000000000030e+01 1.235529999999999973e+02 1.550184999999999945e+03
9.500000000000000111e-02 4.869759999999999645e-01 2.535065000000000168e+01 1.232524999999999977e+02 1.550125000000000000e+03
9.600000000000000200e-02 4.869224999999999803e-01 2.463475000000000037e+01 1.228990000000000009e+02 1.550045000000000073e+03
9.700000000000000289e-02 4.868620000000000170e-01 2.391879999999999740e+01 1.225079999999999956e+02 1.549950000000000045e+03
9.800000000000000377e-02 4.867985000000000229e-01 2.321099999999999852e+01 1.220969999999999942e+02 1.549845000000000027e+03
9.900000000000000466e-02 4.867334999999999856e-01 2.251849999999999952e+01 1.216779999999999973e+02 1.549734999999999900e+03
1.000000000000000056e-01 4.866694999999999771e-01 2.184705000000000297e+01 1.212639999999999958e+02 1.549619999999999891e+03
1.010000000000000064e-01 4.866070000000000118e-01 2.120090000000000074e+01 1.208640000000000043e+02 1.549500000000000000e+03
1.020000000000000073e-01 4.865479999999999805e-01 2.058279999999999887e+01 1.204840000000000089e+02 1.549389999999999873e+03
1.030000000000000082e-01 4.864919999999999800e-01 1.999394999999999811e+01 1.201280000000000001e+02 1.549279999999999973e+03
1.040000000000000091e-01 4.864399999999999835e-01 1.943374999999999986e+01 1.197965000000000089e+02 1.549174999999999955e+03
1.050000000000000100e-01 4.863909999999999623e-01 1.890044999999999931e+01 1.194879999999999995e+02 1.549079999999999927e+03
1.059999999999999970e-01 4.863435000000000397e-01 1.839100000000000179e+01 1.191984999999999957e+02 1.548985000000000127e+03
1.069999999999999979e-01 4.862970000000000348e-01 1.790125000000000099e+01 1.189209999999999923e+02 1.548894999999999982e+03
1.079999999999999988e-01 4.862495000000000012e-01 1.742650000000000077e+01 1.186485000000000127e+02 1.548805000000000064e+03
1.089999999999999997e-01 4.861999999999999655e-01 1.696139999999999759e+01 1.183725000000000023e+02 1.548715000000000146e+03
1.100000000000000006e-01 4.861459999999999670e-01 1.650065000000000026e+01 1.180840000000000032e+02 1.548619999999999891e+03
1.110000000000000014e-01 4.860870000000000468e-01 1.603889999999999816e+01 1.177740000000000009e+02 1.548525000000000091e+03
1.120000000000000023e-01 4.860220000000000096e-01 1.557120000000000104e+01 1.174354999999999905e+02 1.548425000000000182e+03
1.130000000000000032e-01 4.859490000000000198e-01 1.509335000000000093e+01 1.170604999999999905e+02 1.548309999999999945e+03
1.140000000000000041e-01 4.858675000000000077e-01 1.460174999999999912e+01 1.166449999999999960e+02 1.548184999999999945e+03
1.150000000000000050e-01 4.857765000000000555e-01 1.409384999999999977e+01 1.161835000000000093e+02 1.548049999999999955e+03
1.160000000000000059e-01 4.856769999999999698e-01 1.356829500000000088e+01 1.156749999999999972e+02 1.547900000000000091e+03
1.170000000000000068e-01 4.855685000000000140e-01 1.302462500000000034e+01 1.151210000000000093e+02 1.547740000000000009e+03
1.180000000000000077e-01 4.854519999999999946e-01 1.246386499999999842e+01 1.145229999999999961e+02 1.547565000000000055e+03
1.190000000000000085e-01 4.853290000000000104e-01 1.188807999999999865e+01 1.138859999999999957e+02 1.547380000000000109e+03
1.200000000000000094e-01 4.851999999999999647e-01 1.130042500000000061e+01 1.132164999999999964e+02 1.547190000000000055e+03
1.209999999999999964e-01 4.850674999999999848e-01 1.070506500000000116e+01 1.125234999999999985e+02 1.546984999999999900e+03
1.219999999999999973e-01 4.849330000000000029e-01 1.010712499999999991e+01 1.118164999999999907e+02 1.546779999999999973e+03
1.229999999999999982e-01 4.847995000000000498e-01 9.512204999999999799e+00 1.111074999999999875e+02 1.546565000000000055e+03
1.239999999999999991e-01 4.846679999999999877e-01 8.926515000000000200e+00 1.104064999999999941e+02 1.546360000000000127e+03
1.250000000000000000e-01 4.845420000000000282e-01 8.356429999999999580e+00 1.097270000000000039e+02 1.546150000000000091e+03
1.260000000000000009e-01 4.844230000000000480e-01 7.808275000000000077e+00 1.090805000000000007e+02 1.545960000000000036e+03
1.270000000000000018e-01 4.843125000000000346e-01 7.288100000000000023e+00 1.084784999999999968e+02 1.545769999999999982e+03
1.280000000000000027e-01 4.842134999999999634e-01 6.801435000000000564e+00 1.079300000000000068e+02 1.545594999999999800e+03
1.290000000000000036e-01 4.841269999999999740e-01 6.353170000000000428e+00 1.074459999999999980e+02 1.545440000000000055e+03
1.300000000000000044e-01 4.840539999999999843e-01 5.947255000000000180e+00 1.070320000000000107e+02 1.545304999999999836e+03
1.310000000000000053e-01 4.839950000000000641e-01 5.586619999999999919e+00 1.066930000000000121e+02 1.545184999999999945e+03
1.320000000000000062e-01 4.839510000000000201e-01 5.273099999999999454e+00 1.064325000000000045e+02 1.545089999999999918e+03
1.330000000000000071e-01 4.839215000000000044e-01 5.007365000000000066e+00 1.062514999999999930e+02 1.545019999999999982e+03
1.340000000000000080e-01 4.839065000000000172e-01 4.788960000000000328e+00 1.061479999999999961e+02 1.544965000000000146e+03
1.350000000000000089e-01 4.839045000000000152e-01 4.616349999999999731e+00 1.061189999999999998e+02 1.544940000000000055e+03
1.360000000000000098e-01 4.839149999999999840e-01 4.487035000000000551e+00 1.061589999999999918e+02 1.544930000000000064e+03
1.370000000000000107e-01 4.839364999999999917e-01 4.397695000000000576e+00 1.062614999999999981e+02 1.544940000000000055e+03
1.380000000000000115e-01 4.839674999999999949e-01 4.344350000000000378e+00 1.064190000000000111e+02 1.544970000000000027e+03
1.390000000000000124e-01 4.840060000000000473e-01 4.322544999999999860e+00 1.066214999999999975e+02 1.545009999999999991e+03
1.400000000000000133e-01 4.840510000000000090e-01 4.327515000000000001e+00 1.068610000000000042e+02 1.545070000000000164e+03
1.410000000000000142e-01 4.841000000000000303e-01 4.354395000000000238e+00 1.071274999999999977e+02 1.545134999999999991e+03
1.420000000000000151e-01 4.841520000000000268e-01 4.398365000000000080e+00 1.074114999999999895e+02 1.545204999999999927e+03
1.430000000000000160e-01 4.842054999999999554e-01 4.454795000000000726e+00 1.077065000000000055e+02 1.545279999999999973e+03
1.440000000000000169e-01 4.842584999999999806e-01 4.519355000000000011e+00 1.080030000000000001e+02 1.545360000000000127e+03
1.450000000000000178e-01 4.843105000000000326e-01 4.588129999999999598e+00 1.082955000000000041e+02 1.545445000000000164e+03
1.459999999999999909e-01 4.843604999999999716e-01 4.657664999999999722e+00 1.085769999999999982e+02 1.545525000000000091e+03
1.469999999999999918e-01 4.844080000000000052e-01 4.725039999999999907e+00 1.088449999999999989e+02 1.545605000000000018e+03
1.479999999999999927e-01 4.844519999999999937e-01 4.787834999999999397e+00 1.090944999999999965e+02 1.545675000000000182e+03
1.489999999999999936e-01 4.844924999999999926e-01 4.844205000000000538e+00 1.093245000000000005e+02 1.545750000000000000e+03
1.499999999999999944e-01 4.845289999999999875e-01 4.892809999999999881e+00 1.095330000000000013e+02 1.545809999999999945e+03
1.509999999999999953e-01 4.845619999999999927e-01 4.932805000000000106e+00 1.097199999999999989e+02 1.545869999999999891e+03
1.519999999999999962e-01 4.845915000000000639e-01 4.963815000000000310e+00 1.098859999999999957e+02 1.545924999999999955e+03
1.529999999999999971e-01 4.846174999999999788e-01 4.985870000000000246e+00 1.100330000000000013e+02 1.545969999999999800e+03
1.539999999999999980e-01 4.846409999999999885e-01 4.999360000000000248e+00 1.101610000000000014e+02 1.546014999999999873e+03
1.549999999999999989e-01 4.846615000000000228e-01 5.004974999999999952e+00 1.102735000000000127e+02 1.546049999999999955e+03
1.559999999999999998e-01 4.846799999999999997e-01 5.003619999999999735e+00 1.103729999999999905e+02 1.546090000000000146e+03
1.570000000000000007e-01 4.846964999999999746e-01 4.996375000000000455e+00 1.104609999999999985e+02 1.546119999999999891e+03
1.580000000000000016e-01 4.847124999999999906e-01 4.984404999999999752e+00 1.105409999999999968e+02 1.546150000000000091e+03
1.590000000000000024e-01 4.847270000000000190e-01 4.968899999999999650e+00 1.106140000000000043e+02 1.546175000000000182e+03
