# t [s], A [cm^2], U [cm/s], P [cPa], c [cm/s]
1.000000000000000021e-03 1.365609999999999880e-01 3.062989999999999879e-01 9.476300000000000523e+01 1.947965000000000146e+03
2.000000000000000042e-03 1.365369999999999917e-01 1.741489000000000065e+00 9.177000000000001023e+01 1.947690000000000055e+03
3.000000000000000062e-03 1.364540000000000197e-01 3.492208499999999827e+00 8.783689999999999998e+01 1.946795000000000073e+03
4.000000000000000083e-03 1.363324999999999954e-01 5.436145499999999409e+00 8.352430000000001087e+01 1.945500000000000000e+03
5.000000000000000104e-03 1.361944999999999961e-01 7.520244999999999180e+00 7.954634999999998968e+01 1.944039999999999964e+03
6.000000000000000125e-03 1.360560000000000103e-01 9.628144999999999953e+00 7.621995000000001141e+01 1.942585000000000036e+03
7.000000000000000146e-03 1.359219999999999873e-01 1.159806000000000026e+01 7.343680000000000518e+01 1.941204999999999927e+03
8.000000000000000167e-03 1.357964999999999867e-01 1.332751500000000000e+01 7.097110000000000696e+01 1.939929999999999836e+03
9.000000000000001055e-03 1.356809999999999961e-01 1.481509999999999927e+01 6.876820000000000732e+01 1.938769999999999982e+03
1.000000000000000194e-02 1.355784999999999907e-01 1.609145000000000181e+01 6.688485000000000014e+01 1.937755000000000109e+03
1.099999999999999936e-02 1.354905000000000137e-01 1.717145000000000010e+01 6.533360000000000412e+01 1.936889999999999873e+03
1.200000000000000025e-02 1.354159999999999808e-01 1.806074999999999875e+01 6.407124999999999204e+01 1.936164999999999964e+03
1.300000000000000114e-02 1.353540000000000021e-01 1.876319999999999766e+01 6.303315000000000623e+01 1.935569999999999936e+03
1.400000000000000203e-02 1.353020000000000056e-01 1.928154999999999930e+01 6.214029999999999632e+01 1.935075000000000045e+03
1.499999999999999944e-02 1.352570000000000161e-01 1.963360000000000127e+01 6.133365000000000578e+01 1.934659999999999854e+03
1.600000000000000033e-02 1.352194999999999925e-01 1.987450000000000117e+01 6.064424999999999955e+01 1.934315000000000055e+03
1.700000000000000122e-02 1.351904999999999912e-01 2.009615000000000151e+01 6.022650000000000148e+01 1.934055000000000064e+03
1.800000000000000211e-02 1.351755000000000040e-01 2.039679999999999893e+01 6.030245000000000033e+01 1.933924999999999955e+03
1.900000000000000300e-02 1.351785000000000070e-01 2.083960000000000079e+01 6.104455000000000098e+01 1.933965000000000146e+03
2.000000000000000042e-02 1.352005000000000012e-01 2.142500000000000071e+01 6.247185000000000343e+01 1.934184999999999945e+03
2.100000000000000130e-02 1.352415000000000145e-01 2.209179999999999922e+01 6.441594999999999516e+01 1.934590000000000146e+03
2.200000000000000219e-02 1.352939999999999976e-01 2.274030000000000129e+01 6.656714999999999804e+01 1.935115000000000009e+03
2.299999999999999961e-02 1.353515000000000135e-01 2.326689999999999969e+01 6.857005000000000905e+01 1.935684999999999945e+03
2.400000000000000050e-02 1.354045000000000110e-01 2.359494999999999720e+01 7.012614999999999554e+01 1.936230000000000018e+03
2.500000000000000139e-02 1.354480000000000128e-01 2.369229999999999947e+01 7.106754999999999711e+01 1.936674999999999955e+03
2.600000000000000228e-02 1.354779999999999873e-01 2.357290000000000063e+01 7.138124999999999432e+01 1.936994999999999891e+03
2.700000000000000316e-02 1.354940000000000033e-01 2.328439999999999799e+01 7.118479999999999563e+01 1.937170000000000073e+03
2.800000000000000058e-02 1.354980000000000073e-01 2.288750000000000284e+01 7.066740000000000066e+01 1.937230000000000018e+03
2.900000000000000147e-02 1.354940000000000033e-01 2.243614999999999782e+01 7.002105000000000246e+01 1.937204999999999927e+03
3.000000000000000236e-02 1.354855000000000087e-01 2.196365000000000123e+01 6.938474999999999682e+01 1.937125000000000000e+03
3.099999999999999978e-02 1.354754999999999987e-01 2.147820000000000107e+01 6.881659999999999400e+01 1.937029999999999973e+03
3.200000000000000067e-02 1.354635000000000145e-01 2.096840000000000259e+01 6.829755000000000109e+01 1.936920000000000073e+03
3.300000000000000155e-02 1.354505000000000015e-01 2.041360000000000241e+01 6.775929999999999609e+01 1.936795000000000073e+03
3.400000000000000244e-02 1.354349999999999998e-01 1.979684999999999917e+01 6.712435000000000684e+01 1.936644999999999982e+03
3.500000000000000333e-02 1.354155000000000220e-01 1.911554999999999893e+01 6.634470000000000312e+01 1.936454999999999927e+03
3.600000000000000422e-02 1.353914999999999980e-01 1.838729999999999976e+01 6.542820000000000391e+01 1.936230000000000018e+03
3.700000000000000511e-02 1.353650000000000131e-01 1.764930000000000021e+01 6.444585000000000719e+01 1.935969999999999800e+03
3.799999999999999906e-02 1.353370000000000128e-01 1.695214999999999961e+01 6.351979999999999649e+01 1.935700000000000045e+03
3.899999999999999994e-02 1.353119999999999878e-01 1.634949999999999903e+01 6.279510000000000502e+01 1.935445000000000164e+03
4.000000000000000083e-02 1.352924999999999822e-01 1.588640000000000008e+01 6.240514999999999191e+01 1.935255000000000109e+03
4.100000000000000172e-02 1.352825000000000000e-01 1.558970000000000056e+01 6.243854999999999933e+01 1.935144999999999982e+03
4.200000000000000261e-02 1.352829999999999866e-01 1.546260000000000012e+01 6.291759999999999309e+01 1.935144999999999982e+03
4.300000000000000350e-02 1.352955000000000130e-01 1.548369999999999891e+01 6.379159999999999542e+01 1.935259999999999991e+03
4.400000000000000439e-02 1.353185000000000082e-01 1.561179999999999879e+01 6.494579999999999131e+01 1.935470000000000027e+03
4.499999999999999833e-02 1.353485000000000105e-01 1.579235000000000078e+01 6.622214999999999918e+01 1.935755000000000109e+03
4.599999999999999922e-02 1.353814999999999880e-01 1.596669999999999945e+01 6.744610000000000127e+01 1.936075000000000045e+03
4.700000000000000011e-02 1.354130000000000056e-01 1.607989999999999853e+01 6.845310000000000628e+01 1.936389999999999873e+03
4.800000000000000100e-02 1.354394999999999905e-01 1.608684999999999832e+01 6.911029999999999518e+01 1.936650000000000091e+03
4.900000000000000189e-02 1.354580000000000228e-01 1.595609999999999928e+01 6.932959999999999923e+01 1.936829999999999927e+03
5.000000000000000278e-02 1.354644999999999877e-01 1.567084999999999972e+01 6.907184999999999775e+01 1.936904999999999973e+03
5.100000000000000366e-02 1.354589999999999961e-01 1.522770000000000046e+01 6.834315000000000850e+01 1.936849999999999909e+03
5.200000000000000455e-02 1.354404999999999915e-01 1.463434999999999953e+01 6.718510000000000559e+01 1.936679999999999836e+03
5.300000000000000544e-02 1.354095000000000160e-01 1.390630000000000166e+01 6.566329999999999245e+01 1.936380000000000109e+03
5.399999999999999939e-02 1.353679999999999883e-01 1.306409999999999982e+01 6.385524999999999807e+01 1.935974999999999909e+03
5.500000000000000028e-02 1.353169999999999928e-01 1.213089500000000065e+01 6.184139999999999304e+01 1.935474999999999909e+03
5.600000000000000117e-02 1.352590000000000181e-01 1.113131999999999877e+01 5.969894999999999641e+01 1.934909999999999854e+03
5.700000000000000205e-02 1.351959999999999829e-01 1.009101000000000070e+01 5.749985000000000213e+01 1.934284999999999854e+03
5.800000000000000294e-02 1.351300000000000001e-01 9.036340000000000927e+00 5.531095000000000539e+01 1.933634999999999991e+03
5.900000000000000383e-02 1.350625000000000020e-01 7.995205000000000339e+00 5.319594999999999629e+01 1.932974999999999909e+03
6.000000000000000472e-02 1.349969999999999781e-01 6.996730000000000338e+00 5.121795000000000186e+01 1.932325000000000045e+03
6.099999999999999867e-02 1.349339999999999984e-01 6.071619999999999351e+00 4.944100000000000250e+01 1.931699999999999818e+03
6.199999999999999956e-02 1.348759999999999959e-01 5.251434999999999853e+00 4.793049999999999500e+01 1.931125000000000000e+03
6.300000000000000044e-02 1.348260000000000014e-01 4.567724999999999369e+00 4.675204999999999700e+01 1.930625000000000000e+03
6.400000000000000133e-02 1.347849999999999882e-01 4.050679999999999836e+00 4.596909999999999741e+01 1.930215000000000146e+03
6.500000000000000222e-02 1.347565000000000013e-01 3.727665000000000006e+00 4.563939999999999486e+01 1.929920000000000073e+03
6.600000000000000311e-02 1.347404999999999853e-01 3.621609999999999552e+00 4.581099999999999994e+01 1.929750000000000000e+03
6.700000000000000400e-02 1.347395000000000120e-01 3.749719999999999942e+00 4.651890000000000214e+01 1.929730000000000018e+03
6.800000000000000488e-02 1.347544999999999993e-01 4.122370000000000090e+00 4.778204999999999814e+01 1.929865000000000009e+03
6.900000000000000577e-02 1.347869999999999902e-01 4.742550000000000487e+00 4.960170000000000101e+01 1.930170000000000073e+03
7.000000000000000666e-02 1.348364999999999980e-01 5.605665000000000120e+00 5.196105000000000018e+01 1.930634999999999991e+03
7.100000000000000755e-02 1.349020000000000219e-01 6.699920000000000542e+00 5.482630000000000337e+01 1.931275000000000091e+03
7.200000000000000844e-02 1.349845000000000073e-01 8.007044999999999746e+00 5.814874999999999972e+01 1.932069999999999936e+03
7.300000000000000933e-02 1.350814999999999932e-01 9.503375000000000128e+00 6.186775000000000091e+01 1.933009999999999991e+03
7.399999999999999634e-02 1.351915000000000200e-01 1.116124999999999901e+01 6.591464999999999463e+01 1.934085000000000036e+03
7.499999999999999722e-02 1.353125000000000022e-01 1.295021500000000003e+01 7.021665000000000134e+01 1.935279999999999973e+03
7.599999999999999811e-02 1.354434999999999945e-01 1.483890000000000065e+01 7.470074999999999932e+01 1.936565000000000055e+03
7.699999999999999900e-02 1.355810000000000071e-01 1.679614999999999725e+01 7.929749999999999943e+01 1.937929999999999836e+03
7.799999999999999989e-02 1.357240000000000113e-01 1.879240000000000066e+01 8.394400000000000261e+01 1.939345000000000027e+03
7.900000000000000078e-02 1.358705000000000052e-01 2.080080000000000240e+01 8.858669999999999334e+01 1.940800000000000182e+03
8.000000000000000167e-02 1.360180000000000000e-01 2.279814999999999969e+01 9.318309999999999604e+01 1.942275000000000091e+03
8.100000000000000255e-02 1.361660000000000093e-01 2.476510000000000034e+01 9.770144999999999413e+01 1.943755000000000109e+03
8.200000000000000344e-02 1.363130000000000175e-01 2.668665000000000020e+01 1.021229999999999905e+02 1.945230000000000018e+03
8.300000000000000433e-02 1.364584999999999826e-01 2.855199999999999960e+01 1.064381999999999948e+02 1.946690000000000055e+03
8.400000000000000522e-02 1.366014999999999868e-01 3.035405000000000086e+01 1.106470000000000056e+02 1.948140000000000100e+03
8.500000000000000611e-02 1.367424999999999891e-01 3.208889999999999532e+01 1.147554999999999978e+02 1.949559999999999945e+03
8.600000000000000699e-02 1.368810000000000027e-01 3.375515000000000043e+01 1.187750000000000057e+02 1.950964999999999918e+03
8.700000000000000788e-02 1.370175000000000143e-01 3.535320000000000107e+01 1.227180000000000035e+02 1.952345000000000027e+03
8.800000000000000877e-02 1.371514999999999818e-01 3.688445000000000107e+01 1.265960000000000036e+02 1.953710000000000036e+03
8.899999999999999578e-02 1.372835000000000027e-01 3.835045000000000215e+01 1.304205000000000041e+02 1.955055000000000064e+03
8.999999999999999667e-02 1.374140000000000084e-01 3.975270000000000437e+01 1.341974999999999909e+02 1.956384999999999991e+03
9.099999999999999756e-02 1.375429999999999986e-01 4.109184999999999377e+01 1.379290000000000020e+02 1.957704999999999927e+03
9.199999999999999845e-02 1.376709999999999878e-01 4.236780000000000257e+01 1.416129999999999995e+02 1.959009999999999991e+03
9.299999999999999933e-02 1.377975000000000172e-01 4.357900000000000063e+01 1.452425000000000068e+02 1.960295000000000073e+03
9.400000000000000022e-02 1.379215000000000024e-01 4.472305000000000064e+01 1.488050000000000068e+02 1.961570000000000164e+03
9.500000000000000111e-02 1.380434999999999857e-01 4.579630000000000223e+01 1.522855000000000132e+02 1.962819999999999936e+03
9.600000000000000200e-02 1.381624999999999936e-01 4.679429999999999978e+01 1.556664999999999850e+02 1.964050000000000182e+03
9.700000000000000289e-02 1.382794999999999996e-01 4.771184999999999832e+01 1.589284999999999854e+02 1.965250000000000000e+03
9.800000000000000377e-02 1.383920000000000150e-01 4.854314999999999714e+01 1.620500000000000114e+02 1.966409999999999854e+03
9.900000000000000466e-02 1.385004999999999986e-01 4.928235000000000099e+01 1.650110000000000241e+02 1.967525000000000091e+03
1.000000000000000056e-01 1.386034999999999906e-01 4.992354999999999876e+01 1.677909999999999968e+02 1.968590000000000146e+03
1.010000000000000064e-01 1.387010000000000187e-01 5.046119999999999806e+01 1.703704999999999927e+02 1.969605000000000018e+03
1.020000000000000073e-01 1.387924999999999853e-01 5.089034999999999798e+01 1.727344999999999970e+02 1.970550000000000182e+03
1.030000000000000082e-01 1.388770000000000004e-01 5.120674999999999955e+01 1.748665000000000020e+02 1.971430000000000064e+03
1.040000000000000091e-01 1.389549999999999952e-01 5.140749999999999886e+01 1.767574999999999932e+02 1.972240000000000009e+03
1.050000000000000100e-01 1.390244999999999953e-01 5.149074999999999847e+01 1.783985000000000127e+02 1.972965000000000146e+03
1.059999999999999970e-01 1.390865000000000018e-01 5.145629999999999882e+01 1.797855000000000132e+02 1.973615000000000009e+03
1.069999999999999979e-01 1.391405000000000003e-01 5.130554999999999666e+01 1.809194999999999993e+02 1.974180000000000064e+03
1.079999999999999988e-01 1.391864999999999908e-01 5.104175000000000040e+01 1.818054999999999950e+02 1.974664999999999964e+03
1.089999999999999997e-01 1.392240000000000144e-01 5.066980000000000217e+01 1.824519999999999982e+02 1.975059999999999945e+03
1.100000000000000006e-01 1.392539999999999889e-01 5.019639999999999702e+01 1.828725000000000023e+02 1.975380000000000109e+03
1.110000000000000014e-01 1.392760000000000109e-01 4.962975000000000136e+01 1.830835000000000150e+02 1.975625000000000000e+03
1.120000000000000023e-01 1.392919999999999991e-01 4.897964999999999947e+01 1.831045000000000016e+02 1.975795000000000073e+03
1.130000000000000032e-01 1.393010000000000081e-01 4.825670000000000215e+01 1.829594999999999914e+02 1.975894999999999982e+03
1.140000000000000041e-01 1.393039999999999834e-01 4.747234999999999872e+01 1.826714999999999804e+02 1.975934999999999945e+03
1.150000000000000050e-01 1.393019999999999814e-01 4.663864999999999839e+01 1.822644999999999982e+02 1.975924999999999955e+03
1.160000000000000059e-01 1.392955000000000165e-01 4.576740000000000208e+01 1.817644999999999982e+02 1.975869999999999891e+03
1.170000000000000068e-01 1.392855000000000065e-01 4.487015000000000242e+01 1.811940000000000168e+02 1.975769999999999982e+03
1.180000000000000077e-01 1.392729999999999801e-01 4.395770000000000266e+01 1.805745000000000005e+02 1.975639999999999873e+03
1.190000000000000085e-01 1.392575000000000063e-01 4.303985000000000127e+01 1.799240000000000066e+02 1.975490000000000009e+03
1.200000000000000094e-01 1.392410000000000037e-01 4.212525000000000119e+01 1.792599999999999909e+02 1.975315000000000055e+03
1.209999999999999964e-01 1.392229999999999857e-01 4.122095000000000198e+01 1.785925000000000011e+02 1.975134999999999991e+03
1.219999999999999973e-01 1.392039999999999944e-01 4.033249999999999602e+01 1.779325000000000045e+02 1.974940000000000055e+03
1.229999999999999982e-01 1.391844999999999888e-01 3.946374999999999744e+01 1.772835000000000036e+02 1.974739999999999782e+03
1.239999999999999991e-01 1.391650000000000109e-01 3.861699999999999733e+01 1.766469999999999914e+02 1.974535000000000082e+03
1.250000000000000000e-01 1.391454999999999775e-01 3.779305000000000092e+01 1.760219999999999914e+02 1.974335000000000036e+03
1.260000000000000009e-01 1.391255000000000130e-01 3.699110000000000298e+01 1.754030000000000200e+02 1.974130000000000109e+03
1.270000000000000018e-01 1.391060000000000074e-01 3.620919999999999561e+01 1.747844999999999800e+02 1.973925000000000182e+03
1.280000000000000027e-01 1.390859999999999874e-01 3.544429999999999836e+01 1.741560000000000059e+02 1.973715000000000146e+03
1.290000000000000036e-01 1.390655000000000086e-01 3.469259999999999877e+01 1.735084999999999980e+02 1.973505000000000109e+03
1.300000000000000044e-01 1.390440000000000009e-01 3.394975000000000165e+01 1.728305000000000007e+02 1.973279999999999973e+03
1.310000000000000053e-01 1.390215000000000201e-01 3.321085000000000065e+01 1.721109999999999900e+02 1.973045000000000073e+03
1.320000000000000062e-01 1.389974999999999961e-01 3.247135000000000105e+01 1.713405000000000200e+02 1.972800000000000182e+03
1.330000000000000071e-01 1.389724999999999988e-01 3.172660000000000124e+01 1.705095000000000027e+02 1.972539999999999964e+03
1.340000000000000080e-01 1.389449999999999852e-01 3.097254999999999825e+01 1.696090000000000089e+02 1.972259999999999991e+03
1.350000000000000089e-01 1.389159999999999839e-01 3.020589999999999975e+01 1.686345000000000027e+02 1.971954999999999927e+03
1.360000000000000098e-01 1.388845000000000218e-01 2.942405000000000115e+01 1.675815000000000055e+02 1.971634999999999991e+03
1.370000000000000107e-01 1.388504999999999878e-01 2.862549999999999883e+01 1.664495000000000005e+02 1.971284999999999854e+03
1.380000000000000115e-01 1.388139999999999930e-01 2.780979999999999919e+01 1.652400000000000091e+02 1.970909999999999854e+03
1.390000000000000124e-01 1.387754999999999961e-01 2.697780000000000200e+01 1.639575000000000102e+02 1.970509999999999991e+03
1.400000000000000133e-01 1.387339999999999962e-01 2.613154999999999717e+01 1.626084999999999923e+02 1.970090000000000146e+03
1.410000000000000142e-01 1.386910000000000087e-01 2.527404999999999902e+01 1.612044999999999959e+02 1.969650000000000091e+03
1.420000000000000151e-01 1.386459999999999915e-01 2.440950000000000131e+01 1.597560000000000002e+02 1.969184999999999945e+03
1.430000000000000160e-01 1.385990000000000000e-01 2.354299999999999926e+01 1.582774999999999750e+02 1.968704999999999927e+03
1.440000000000000169e-01 1.385514999999999941e-01 2.268034999999999712e+01 1.567844999999999800e+02 1.968215000000000146e+03
1.450000000000000178e-01 1.385029999999999872e-01 2.182784999999999798e+01 1.552924999999999898e+02 1.967720000000000027e+03
1.459999999999999909e-01 1.384539999999999937e-01 2.099210000000000065e+01 1.538184999999999718e+02 1.967224999999999909e+03
1.469999999999999918e-01 1.384060000000000012e-01 2.017969999999999686e+01 1.523774999999999977e+02 1.966730000000000018e+03
1.479999999999999927e-01 1.383584999999999954e-01 1.939695000000000036e+01 1.509855000000000018e+02 1.966240000000000009e+03
1.489999999999999936e-01 1.383119999999999905e-01 1.864979999999999905e+01 1.496560000000000059e+02 1.965764999999999873e+03
1.499999999999999944e-01 1.382680000000000020e-01 1.794340000000000046e+01 1.484004999999999939e+02 1.965304999999999836e+03
1.509999999999999953e-01 1.382249999999999868e-01 1.728204999999999814e+01 1.472284999999999968e+02 1.964875000000000000e+03
1.519999999999999962e-01 1.381850000000000023e-01 1.666915000000000191e+01 1.461465000000000032e+02 1.964454999999999927e+03
1.529999999999999971e-01 1.381474999999999786e-01 1.610695000000000121e+01 1.451585000000000036e+02 1.964065000000000055e+03
1.539999999999999980e-01 1.381124999999999992e-01 1.559660000000000046e+01 1.442665000000000077e+02 1.963710000000000036e+03
1.549999999999999989e-01 1.380804999999999949e-01 1.513830000000000098e+01 1.434705000000000155e+02 1.963375000000000000e+03
1.559999999999999998e-01 1.380514999999999937e-01 1.473094999999999999e+01 1.427655000000000030e+02 1.963079999999999927e+03
1.570000000000000007e-01 1.380254999999999954e-01 1.437284999999999968e+01 1.421474999999999795e+02 1.962804999999999836e+03
1.580000000000000016e-01 1.380020000000000135e-01 1.406119999999999948e+01 1.416100000000000136e+02 1.962559999999999945e+03
1.590000000000000024e-01 1.379809999999999925e-01 1.379269999999999996e+01 1.411444999999999936e+02 1.962345000000000027e+03
