# t [s], A [cm^2], U [cm/s], P [cPa], c [cm/s]
1.000000000000000021e-03 1.801694999999999824e-01 3.093693499999999874e-01 8.827134999999999820e+01 2.286614999999999782e+03
2.000000000000000042e-03 1.801159999999999983e-01 1.715612499999999985e+00 8.480455000000000609e+01 2.286079999999999927e+03
3.000000000000000062e-03 1.799899999999999833e-01 3.468611999999999806e+00 7.993229999999999791e+01 2.284864999999999782e+03
4.000000000000000083e-03 1.798285000000000022e-01 5.474036500000000416e+00 7.485070000000000334e+01 2.283324999999999818e+03
5.000000000000000104e-03 1.796655000000000058e-01 7.631109999999999616e+00 7.056919999999999504e+01 2.281784999999999854e+03
6.000000000000000125e-03 1.795140000000000069e-01 9.672245000000000203e+00 6.714175000000000182e+01 2.280380000000000109e+03
7.000000000000000146e-03 1.793740000000000057e-01 1.136878500000000081e+01 6.408195000000000618e+01 2.279109999999999673e+03
8.000000000000000167e-03 1.792495000000000061e-01 1.273454500000000067e+01 6.133229999999999649e+01 2.278000000000000000e+03
9.000000000000001055e-03 1.791455000000000131e-01 1.383509999999999884e+01 5.907564999999999600e+01 2.277085000000000036e+03
1.000000000000000194e-02 1.790619999999999989e-01 1.469324999999999903e+01 5.732030000000000314e+01 2.276355000000000018e+03
1.099999999999999936e-02 1.789969999999999895e-01 1.533040000000000092e+01 5.599980000000000047e+01 2.275805000000000291e+03
1.200000000000000025e-02 1.789470000000000227e-01 1.574685000000000024e+01 5.497560000000000002e+01 2.275380000000000109e+03
1.300000000000000114e-02 1.789044999999999941e-01 1.594245000000000090e+01 5.404564999999999486e+01 2.275039999999999964e+03
1.400000000000000203e-02 1.788700000000000012e-01 1.601609999999999800e+01 5.323610000000000042e+01 2.274755000000000109e+03
1.499999999999999944e-02 1.788510000000000100e-01 1.618860000000000099e+01 5.301000000000000512e+01 2.274605000000000018e+03
1.600000000000000033e-02 1.788635000000000086e-01 1.667934999999999945e+01 5.401300000000000523e+01 2.274720000000000255e+03
1.700000000000000122e-02 1.789169999999999927e-01 1.754870000000000019e+01 5.654715000000000202e+01 2.275180000000000291e+03
1.800000000000000211e-02 1.790059999999999985e-01 1.864054999999999751e+01 6.023739999999999384e+01 2.275954999999999927e+03
1.900000000000000300e-02 1.791110000000000202e-01 1.965650000000000119e+01 6.413009999999999877e+01 2.276894999999999982e+03
2.000000000000000042e-02 1.792064999999999908e-01 2.029984999999999928e+01 6.712144999999999584e+01 2.277760000000000218e+03
2.100000000000000130e-02 1.792690000000000117e-01 2.040480000000000160e+01 6.844119999999999493e+01 2.278355000000000018e+03
2.200000000000000219e-02 1.792885000000000173e-01 1.999109999999999943e+01 6.794370000000000687e+01 2.278569999999999709e+03
2.299999999999999961e-02 1.792674999999999963e-01 1.922994999999999877e+01 6.609270000000000778e+01 2.278420000000000073e+03
2.400000000000000050e-02 1.792219999999999924e-01 1.835009999999999764e+01 6.368504999999999683e+01 2.278034999999999854e+03
2.500000000000000139e-02 1.791694999999999816e-01 1.753524999999999778e+01 6.147565000000000168e+01 2.277565000000000055e+03
2.600000000000000228e-02 1.791230000000000044e-01 1.686015000000000086e+01 5.988509999999999422e+01 2.277144999999999982e+03
2.700000000000000316e-02 1.790875000000000106e-01 1.628419999999999845e+01 5.889990000000000236e+01 2.276815000000000055e+03
2.800000000000000058e-02 1.790585000000000093e-01 1.569459999999999944e+01 5.816870000000000118e+01 2.276554999999999836e+03
2.900000000000000147e-02 1.790279999999999927e-01 1.497329999999999828e+01 5.722209999999999752e+01 2.276279999999999745e+03
3.000000000000000236e-02 1.789859999999999784e-01 1.406024999999999991e+01 5.571665000000000134e+01 2.275920000000000073e+03
3.099999999999999978e-02 1.789294999999999913e-01 1.299145000000000039e+01 5.360944999999999538e+01 2.275429999999999836e+03
3.200000000000000067e-02 1.788625000000000076e-01 1.189630000000000010e+01 5.120385000000000275e+01 2.274840000000000146e+03
3.300000000000000155e-02 1.787964999999999971e-01 1.095746499999999912e+01 4.905109999999999815e+01 2.274244999999999891e+03
3.400000000000000244e-02 1.787460000000000160e-01 1.034886499999999998e+01 4.775084999999999980e+01 2.273784999999999854e+03
3.500000000000000333e-02 1.787245000000000084e-01 1.017727000000000004e+01 4.773460000000000036e+01 2.273569999999999709e+03
3.600000000000000422e-02 1.787384999999999946e-01 1.044790000000000063e+01 4.911405000000000598e+01 2.273664999999999964e+03
3.700000000000000511e-02 1.787874999999999881e-01 1.106394999999999840e+01 5.164180000000000348e+01 2.274069999999999709e+03
3.799999999999999906e-02 1.788605000000000056e-01 1.185435000000000016e+01 5.478385000000000105e+01 2.274704999999999927e+03
3.899999999999999994e-02 1.789435000000000053e-01 1.261700000000000088e+01 5.786359999999999815e+01 2.275429999999999836e+03
4.000000000000000083e-02 1.790185000000000248e-01 1.316319999999999979e+01 6.022565000000000168e+01 2.276095000000000255e+03
4.100000000000000172e-02 1.790694999999999926e-01 1.335185000000000066e+01 6.137109999999999843e+01 2.276565000000000055e+03
4.200000000000000261e-02 1.790855000000000086e-01 1.310699999999999932e+01 6.103654999999999831e+01 2.276735000000000127e+03
4.300000000000000350e-02 1.790619999999999989e-01 1.241880000000000095e+01 5.920629999999999882e+01 2.276545000000000073e+03
4.400000000000000439e-02 1.789990000000000192e-01 1.133052999999999955e+01 5.606875000000000142e+01 2.276010000000000218e+03
4.499999999999999833e-02 1.789020000000000055e-01 9.919059999999999988e+00 5.193865000000000265e+01 2.275159999999999854e+03
4.599999999999999922e-02 1.787790000000000212e-01 8.274509999999999366e+00 4.717409999999999570e+01 2.274079999999999927e+03
4.700000000000000011e-02 1.786384999999999779e-01 6.485560000000000436e+00 4.210954999999999870e+01 2.272840000000000146e+03
4.800000000000000100e-02 1.784894999999999954e-01 4.631607999999999947e+00 3.701885000000000048e+01 2.271515000000000327e+03
4.900000000000000189e-02 1.783379999999999965e-01 2.781575000000000131e+00 3.210754999999999626e+01 2.270164999999999964e+03
5.000000000000000278e-02 1.781905000000000017e-01 9.970949999999998425e-01 2.752734999999999843e+01 2.268855000000000018e+03
5.100000000000000366e-02 1.780530000000000168e-01 -6.629950000000002230e-01 2.340015000000000001e+01 2.267614999999999782e+03
5.200000000000000455e-02 1.779275000000000162e-01 -2.139485999999999777e+00 1.983995000000000175e+01 2.266489999999999782e+03
5.300000000000000544e-02 1.778190000000000048e-01 -3.372234000000000176e+00 1.696549999999999869e+01 2.265519999999999982e+03
5.399999999999999939e-02 1.777325000000000155e-01 -4.302685000000000315e+00 1.490080000000000027e+01 2.264730000000000018e+03
5.500000000000000028e-02 1.776714999999999822e-01 -4.878650000000000375e+00 1.376435000000000031e+01 2.264159999999999854e+03
5.600000000000000117e-02 1.776389999999999914e-01 -5.060014999999999930e+00 1.365189999999999948e+01 2.263845000000000255e+03
5.700000000000000205e-02 1.776375000000000037e-01 -4.823875000000000135e+00 1.461929999999999907e+01 2.263810000000000400e+03
5.800000000000000294e-02 1.776690000000000214e-01 -4.167785000000000295e+00 1.666904999999999859e+01 2.264055000000000291e+03
5.900000000000000383e-02 1.777334999999999887e-01 -3.110680999999999585e+00 1.974494999999999933e+01 2.264590000000000146e+03
6.000000000000000472e-02 1.778274999999999995e-01 -1.691254999999999953e+00 2.373510000000000275e+01 2.265399999999999636e+03
6.099999999999999867e-02 1.779485000000000094e-01 3.543999999999991601e-02 2.848215000000000430e+01 2.266449999999999818e+03
6.199999999999999956e-02 1.780920000000000003e-01 2.002514999999999823e+00 3.379710000000000036e+01 2.267704999999999927e+03
6.300000000000000044e-02 1.782519999999999938e-01 4.136220799999999365e+00 3.947565000000000168e+01 2.269114999999999782e+03
6.400000000000000133e-02 1.784229999999999983e-01 6.360845000000000304e+00 4.531324999999999648e+01 2.270635000000000218e+03
6.500000000000000222e-02 1.785990000000000077e-01 8.603275000000000006e+00 5.111894999999999811e+01 2.272199999999999818e+03
6.600000000000000311e-02 1.787750000000000172e-01 1.079738500000000023e+01 5.672720000000000340e+01 2.273774999999999636e+03
6.700000000000000400e-02 1.789454999999999796e-01 1.288750999999999891e+01 6.200730000000000075e+01 2.275309999999999945e+03
6.800000000000000488e-02 1.791074999999999751e-01 1.483164999999999978e+01 6.687045000000000528e+01 2.276769999999999982e+03
6.900000000000000577e-02 1.792580000000000007e-01 1.660314999999999941e+01 7.127349999999999852e+01 2.278140000000000327e+03
7.000000000000000666e-02 1.793965000000000143e-01 1.819154999999999944e+01 7.521895000000000664e+01 2.279394999999999982e+03
7.100000000000000755e-02 1.795220000000000149e-01 1.960150000000000148e+01 7.875090000000000146e+01 2.280555000000000291e+03
7.200000000000000844e-02 1.796379999999999921e-01 2.085069999999999979e+01 8.194650000000000034e+01 2.281605000000000018e+03
7.300000000000000933e-02 1.797440000000000149e-01 2.196654999999999802e+01 8.490545000000000186e+01 2.282585000000000036e+03
7.399999999999999634e-02 1.798445000000000182e-01 2.298209999999999908e+01 8.773644999999999072e+01 2.283505000000000109e+03
7.499999999999999722e-02 1.799415000000000042e-01 2.393209999999999837e+01 9.054534999999999911e+01 2.284394999999999982e+03
7.599999999999999811e-02 1.800379999999999758e-01 2.484909999999999997e+01 9.342345000000000255e+01 2.285284999999999854e+03
7.699999999999999900e-02 1.801369999999999916e-01 2.576030000000000086e+01 9.643930000000000291e+01 2.286184999999999945e+03
7.799999999999999989e-02 1.802394999999999969e-01 2.668544999999999945e+01 9.963434999999999775e+01 2.287119999999999891e+03
7.900000000000000078e-02 1.803464999999999929e-01 2.763564999999999827e+01 1.030191499999999962e+02 2.288095000000000255e+03
8.000000000000000167e-02 1.804590000000000083e-01 2.861265000000000214e+01 1.065765000000000100e+02 2.289114999999999782e+03
8.100000000000000255e-02 1.805749999999999855e-01 2.960994999999999777e+01 1.102650000000000006e+02 2.290175000000000182e+03
8.200000000000000344e-02 1.806945000000000079e-01 3.061339999999999861e+01 1.140219999999999914e+02 2.291260000000000218e+03
8.300000000000000433e-02 1.808144999999999891e-01 3.160300000000000153e+01 1.177734999999999985e+02 2.292360000000000127e+03
8.400000000000000522e-02 1.809340000000000115e-01 3.255465000000000231e+01 1.214355000000000047e+02 2.293449999999999818e+03
8.500000000000000611e-02 1.810505000000000031e-01 3.344219999999999970e+01 1.249234999999999900e+02 2.294510000000000218e+03
8.600000000000000699e-02 1.811605000000000021e-01 3.423924999999999841e+01 1.281585000000000036e+02 2.295519999999999982e+03
8.700000000000000788e-02 1.812624999999999931e-01 3.492105000000000103e+01 1.310679999999999836e+02 2.296454999999999927e+03
8.800000000000000877e-02 1.813539999999999874e-01 3.546609999999999729e+01 1.335935000000000059e+02 2.297305000000000291e+03
8.899999999999999578e-02 1.814339999999999842e-01 3.585760000000000502e+01 1.356924999999999955e+02 2.298050000000000182e+03
8.999999999999999667e-02 1.815009999999999957e-01 3.608440000000000225e+01 1.373394999999999868e+02 2.298670000000000073e+03
9.099999999999999756e-02 1.815545000000000075e-01 3.614180000000000348e+01 1.385275000000000034e+02 2.299175000000000182e+03
9.199999999999999845e-02 1.815935000000000188e-01 3.603175000000000239e+01 1.392674999999999841e+02 2.299550000000000182e+03
9.299999999999999933e-02 1.816194999999999893e-01 3.576274999999999693e+01 1.395894999999999868e+02 2.299800000000000182e+03
9.400000000000000022e-02 1.816335000000000033e-01 3.534905000000000541e+01 1.395369999999999777e+02 2.299935000000000400e+03
9.500000000000000111e-02 1.816349999999999909e-01 3.481000000000000227e+01 1.391664999999999850e+02 2.299965000000000146e+03
9.600000000000000200e-02 1.816274999999999973e-01 3.416870000000000118e+01 1.385414999999999850e+02 2.299909999999999854e+03
9.700000000000000289e-02 1.816125000000000100e-01 3.345040000000000191e+01 1.377305000000000064e+02 2.299779999999999745e+03
9.800000000000000377e-02 1.815915000000000168e-01 3.268160000000000309e+01 1.368015000000000043e+02 2.299595000000000255e+03
9.900000000000000466e-02 1.815669999999999784e-01 3.188830000000000098e+01 1.358209999999999980e+02 2.299380000000000109e+03
1.000000000000000056e-01 1.815404999999999935e-01 3.109479999999999933e+01 1.348480000000000132e+02 2.299140000000000327e+03
1.010000000000000064e-01 1.815134999999999943e-01 3.032294999999999874e+01 1.339334999999999809e+02 2.298894999999999982e+03
1.020000000000000073e-01 1.814880000000000104e-01 2.959065000000000012e+01 1.331175000000000068e+02 2.298664999999999964e+03
1.030000000000000082e-01 1.814649999999999874e-01 2.891174999999999784e+01 1.324289999999999736e+02 2.298449999999999818e+03
1.040000000000000091e-01 1.814454999999999818e-01 2.829480000000000217e+01 1.318829999999999814e+02 2.298269999999999982e+03
1.050000000000000100e-01 1.814295000000000213e-01 2.774349999999999739e+01 1.314809999999999945e+02 2.298119999999999891e+03
1.059999999999999970e-01 1.814175000000000093e-01 2.725605000000000189e+01 1.312115000000000009e+02 2.298005000000000109e+03
1.069999999999999979e-01 1.814089999999999869e-01 2.682590000000000074e+01 1.310515000000000043e+02 2.297920000000000073e+03
1.079999999999999988e-01 1.814030000000000087e-01 2.644214999999999804e+01 1.309664999999999964e+02 2.297859999999999673e+03
1.089999999999999997e-01 1.813990000000000047e-01 2.609009999999999962e+01 1.309139999999999873e+02 2.297819999999999709e+03
1.100000000000000006e-01 1.813954999999999873e-01 2.575309999999999988e+01 1.308464999999999918e+02 2.297779999999999745e+03
1.110000000000000014e-01 1.813915000000000111e-01 2.541279999999999717e+01 1.307150000000000034e+02 2.297739999999999782e+03
1.120000000000000023e-01 1.813845000000000041e-01 2.505129999999999768e+01 1.304710000000000036e+02 2.297675000000000182e+03
1.130000000000000032e-01 1.813739999999999797e-01 2.465194999999999936e+01 1.300740000000000123e+02 2.297585000000000036e+03
1.140000000000000041e-01 1.813595000000000068e-01 2.420069999999999766e+01 1.294879999999999995e+02 2.297449999999999818e+03
1.150000000000000050e-01 1.813385000000000136e-01 2.368710000000000093e+01 1.286910000000000025e+02 2.297264999999999873e+03
1.160000000000000059e-01 1.813120000000000009e-01 2.310510000000000019e+01 1.276724999999999994e+02 2.297019999999999982e+03
1.170000000000000068e-01 1.812785000000000091e-01 2.245360000000000156e+01 1.264354999999999905e+02 2.296720000000000255e+03
1.180000000000000077e-01 1.812384999999999968e-01 2.173629999999999995e+01 1.249964999999999975e+02 2.296360000000000127e+03
1.190000000000000085e-01 1.811935000000000073e-01 2.096180000000000021e+01 1.233855000000000075e+02 2.295949999999999818e+03
1.200000000000000094e-01 1.811429999999999985e-01 2.014280000000000115e+01 1.216430000000000007e+02 2.295494999999999891e+03
1.209999999999999964e-01 1.810884999999999856e-01 1.929529999999999745e+01 1.198170000000000073e+02 2.295005000000000109e+03
1.219999999999999973e-01 1.810324999999999851e-01 1.843789999999999907e+01 1.179604999999999961e+02 2.294494999999999891e+03
1.229999999999999982e-01 1.809749999999999970e-01 1.758995000000000175e+01 1.161285000000000025e+02 2.293970000000000255e+03
1.239999999999999991e-01 1.809185000000000099e-01 1.677125000000000199e+01 1.143745000000000118e+02 2.293460000000000036e+03
1.250000000000000000e-01 1.808649999999999980e-01 1.599994999999999834e+01 1.127464999999999975e+02 2.292970000000000255e+03
1.260000000000000009e-01 1.808150000000000035e-01 1.529220000000000113e+01 1.112860000000000014e+02 2.292510000000000218e+03
1.270000000000000018e-01 1.807699999999999863e-01 1.466135000000000055e+01 1.100244999999999891e+02 2.292094999999999800e+03
1.280000000000000027e-01 1.807310000000000028e-01 1.411700000000000088e+01 1.089830000000000041e+02 2.291734999999999673e+03
1.290000000000000036e-01 1.806984999999999841e-01 1.366495000000000104e+01 1.081734999999999900e+02 2.291430000000000291e+03
1.300000000000000044e-01 1.806725000000000136e-01 1.330724999999999980e+01 1.075955000000000013e+02 2.291190000000000055e+03
1.310000000000000053e-01 1.806530000000000080e-01 1.304224999999999923e+01 1.072400000000000091e+02 2.291005000000000109e+03
1.320000000000000062e-01 1.806409999999999960e-01 1.286495000000000033e+01 1.070895000000000010e+02 2.290880000000000109e+03
1.330000000000000071e-01 1.806345000000000034e-01 1.276754999999999995e+01 1.071219999999999999e+02 2.290820000000000164e+03
1.340000000000000080e-01 1.806335000000000024e-01 1.274009999999999998e+01 1.073075000000000045e+02 2.290805000000000291e+03
1.350000000000000089e-01 1.806375000000000064e-01 1.277100000000000080e+01 1.076159999999999997e+02 2.290835000000000036e+03
1.360000000000000098e-01 1.806450000000000000e-01 1.284759999999999991e+01 1.080144999999999982e+02 2.290894999999999982e+03
1.370000000000000107e-01 1.806554999999999966e-01 1.295710000000000051e+01 1.084714999999999918e+02 2.290984999999999673e+03
1.380000000000000115e-01 1.806674999999999809e-01 1.308660000000000068e+01 1.089565000000000055e+02 2.291095000000000255e+03
1.390000000000000124e-01 1.806805000000000216e-01 1.322414999999999985e+01 1.094405000000000001e+02 2.291210000000000036e+03
1.400000000000000133e-01 1.806939999999999935e-01 1.335875000000000057e+01 1.099004999999999939e+02 2.291329999999999927e+03
1.410000000000000142e-01 1.807070000000000065e-01 1.348104999999999976e+01 1.103145000000000095e+02 2.291445000000000164e+03
1.420000000000000151e-01 1.807189999999999908e-01 1.358344999999999914e+01 1.106689999999999969e+02 2.291550000000000182e+03
1.430000000000000160e-01 1.807285000000000141e-01 1.366049999999999898e+01 1.109530000000000030e+02 2.291640000000000327e+03
1.440000000000000169e-01 1.807370000000000088e-01 1.370880000000000010e+01 1.111620000000000061e+02 2.291720000000000255e+03
1.450000000000000178e-01 1.807435000000000014e-01 1.372714999999999996e+01 1.112974999999999994e+02 2.291775000000000091e+03
1.459999999999999909e-01 1.807475000000000054e-01 1.371649999999999991e+01 1.113644999999999925e+02 2.291815000000000055e+03
1.469999999999999918e-01 1.807495000000000074e-01 1.367950000000000088e+01 1.113730000000000047e+02 2.291845000000000255e+03
1.479999999999999927e-01 1.807505000000000084e-01 1.362044999999999995e+01 1.113359999999999985e+02 2.291849999999999909e+03
1.489999999999999936e-01 1.807495000000000074e-01 1.354445000000000121e+01 1.112684999999999889e+02 2.291850000000000364e+03
1.499999999999999944e-01 1.807485000000000064e-01 1.345745000000000147e+01 1.111869999999999976e+02 2.291835000000000036e+03
1.509999999999999953e-01 1.807469999999999910e-01 1.336555000000000071e+01 1.111075000000000017e+02 2.291819999999999709e+03
1.519999999999999962e-01 1.807455000000000034e-01 1.327435000000000009e+01 1.110434999999999945e+02 2.291809999999999945e+03
1.529999999999999971e-01 1.807440000000000158e-01 1.318894999999999840e+01 1.110074999999999932e+02 2.291800000000000182e+03
1.539999999999999980e-01 1.807435000000000014e-01 1.311349999999999838e+01 1.110070000000000050e+02 2.291800000000000182e+03
1.549999999999999989e-01 1.807440000000000158e-01 1.305085000000000051e+01 1.110485000000000042e+02 2.291804999999999836e+03
1.559999999999999998e-01 1.807460000000000178e-01 1.300280000000000058e+01 1.111324999999999932e+02 2.291814999999999600e+03
1.570000000000000007e-01 1.807489999999999930e-01 1.296964999999999968e+01 1.112579999999999956e+02 2.291845000000000255e+03
1.580000000000000016e-01 1.807535000000000114e-01 1.295084999999999908e+01 1.114194999999999993e+02 2.291880000000000109e+03
1.590000000000000024e-01 1.807584999999999886e-01 1.294474999999999909e+01 1.116110000000000042e+02 2.291929999999999836e+03
