# t [s], A [cm^2], U [cm/s], P [cPa], c [cm/s]
1.000000000000000021e-03 1.538899999999999990e-01 1.718065000000000009e-01 9.936730000000000018e+01 1.959009999999999991e+03
2.000000000000000042e-03 1.538625000000000131e-01 1.538311500000000054e+00 9.664594999999999914e+01 1.958704999999999927e+03
3.000000000000000062e-03 1.537660000000000138e-01 3.287261500000000058e+00 9.286269999999998959e+01 1.957699999999999818e+03
4.000000000000000083e-03 1.536219999999999808e-01 5.262532000000000210e+00 8.844239999999999213e+01 1.956220000000000027e+03
5.000000000000000104e-03 1.534559999999999813e-01 7.408195000000000086e+00 8.412225000000000819e+01 1.954534999999999854e+03
6.000000000000000125e-03 1.532879999999999798e-01 9.622019999999999129e+00 8.035714999999999009e+01 1.952849999999999909e+03
7.000000000000000146e-03 1.531279999999999863e-01 1.173605500000000035e+01 7.718125000000000568e+01 1.951269999999999982e+03
8.000000000000000167e-03 1.529774999999999885e-01 1.360427999999999926e+01 7.439064999999999372e+01 1.949805000000000064e+03
9.000000000000001055e-03 1.528400000000000036e-01 1.519083999999999968e+01 7.188230000000000075e+01 1.948485000000000127e+03
1.000000000000000194e-02 1.527189999999999936e-01 1.652584999999999837e+01 6.970959999999999468e+01 1.947345000000000027e+03
1.099999999999999936e-02 1.526155000000000150e-01 1.763569999999999993e+01 6.792154999999999632e+01 1.946375000000000000e+03
1.200000000000000025e-02 1.525305000000000133e-01 1.853729999999999833e+01 6.650884999999999536e+01 1.945595000000000027e+03
1.300000000000000114e-02 1.524619999999999864e-01 1.924479999999999791e+01 6.543134999999999479e+01 1.944970000000000027e+03
1.400000000000000203e-02 1.524085000000000023e-01 1.976324999999999932e+01 6.461594999999999800e+01 1.944489999999999782e+03
1.499999999999999944e-02 1.523654999999999871e-01 2.009600000000000009e+01 6.396354999999999791e+01 1.944115000000000009e+03
1.600000000000000033e-02 1.523315000000000086e-01 2.027445000000000164e+01 6.342029999999999745e+01 1.943824999999999818e+03
1.700000000000000122e-02 1.523059999999999969e-01 2.037814999999999799e+01 6.305870000000000175e+01 1.943615000000000009e+03
1.800000000000000211e-02 1.522939999999999849e-01 2.051845000000000141e+01 6.307890000000000441e+01 1.943529999999999973e+03
1.900000000000000300e-02 1.523015000000000063e-01 2.079344999999999999e+01 6.370864999999999867e+01 1.943610000000000127e+03
2.000000000000000042e-02 1.523320000000000229e-01 2.124320000000000164e+01 6.506929999999999836e+01 1.943900000000000091e+03
2.100000000000000130e-02 1.523855000000000071e-01 2.183200000000000074e+01 6.708750000000000568e+01 1.944404999999999973e+03
2.200000000000000219e-02 1.524554999999999938e-01 2.246325000000000216e+01 6.949705000000000155e+01 1.945069999999999936e+03
2.299999999999999961e-02 1.525330000000000019e-01 2.301539999999999964e+01 7.191955000000000098e+01 1.945809999999999945e+03
2.400000000000000050e-02 1.526080000000000214e-01 2.338239999999999696e+01 7.398175000000000523e+01 1.946534999999999854e+03
2.500000000000000139e-02 1.526704999999999868e-01 2.350440000000000040e+01 7.542154999999999632e+01 1.947144999999999982e+03
2.600000000000000228e-02 1.527149999999999896e-01 2.337875000000000014e+01 7.614734999999998877e+01 1.947595000000000027e+03
2.700000000000000316e-02 1.527410000000000156e-01 2.305259999999999820e+01 7.623969999999999914e+01 1.947865000000000009e+03
2.800000000000000058e-02 1.527509999999999979e-01 2.260070000000000334e+01 7.590029999999998722e+01 1.947985000000000127e+03
2.900000000000000147e-02 1.527505000000000113e-01 2.209915000000000163e+01 7.537340000000000373e+01 1.947994999999999891e+03
3.000000000000000236e-02 1.527449999999999919e-01 2.160245000000000104e+01 7.486664999999999281e+01 1.947949999999999818e+03
3.099999999999999978e-02 1.527390000000000136e-01 2.113154999999999717e+01 7.449725000000000819e+01 1.947894999999999982e+03
3.200000000000000067e-02 1.527340000000000086e-01 2.067419999999999902e+01 7.427355000000000018e+01 1.947849999999999909e+03
3.300000000000000155e-02 1.527304999999999913e-01 2.019514999999999816e+01 7.411310000000000286e+01 1.947809999999999945e+03
3.400000000000000244e-02 1.527244999999999853e-01 1.965245000000000175e+01 7.388559999999999661e+01 1.947759999999999991e+03
3.500000000000000333e-02 1.527135000000000020e-01 1.901504999999999868e+01 7.346659999999999968e+01 1.947659999999999854e+03
3.600000000000000422e-02 1.526954999999999840e-01 1.827609999999999957e+01 7.278570000000000562e+01 1.947500000000000000e+03
3.700000000000000511e-02 1.526695000000000135e-01 1.745935000000000059e+01 7.185734999999999673e+01 1.947265000000000100e+03
3.799999999999999906e-02 1.526385000000000103e-01 1.661710000000000065e+01 7.078600000000000136e+01 1.946974999999999909e+03
3.899999999999999994e-02 1.526044999999999763e-01 1.581929999999999836e+01 6.974510000000000787e+01 1.946659999999999854e+03
4.000000000000000083e-02 1.525749999999999884e-01 1.513854999999999862e+01 6.893590000000000373e+01 1.946375000000000000e+03
4.100000000000000172e-02 1.525539999999999952e-01 1.463370000000000104e+01 6.853890000000001237e+01 1.946170000000000073e+03
4.200000000000000261e-02 1.525465000000000015e-01 1.433735000000000070e+01 6.867079999999999984e+01 1.946085000000000036e+03
4.300000000000000350e-02 1.525559999999999972e-01 1.424974999999999881e+01 6.935779999999999745e+01 1.946154999999999973e+03
4.400000000000000439e-02 1.525810000000000222e-01 1.433980000000000032e+01 7.053104999999999336e+01 1.946380000000000109e+03
4.499999999999999833e-02 1.526194999999999913e-01 1.455184999999999995e+01 7.204130000000000678e+01 1.946730000000000018e+03
4.599999999999999922e-02 1.526669999999999972e-01 1.481634999999999991e+01 7.368860000000000809e+01 1.947170000000000073e+03
4.700000000000000011e-02 1.527175000000000060e-01 1.506125000000000114e+01 7.525780000000000314e+01 1.947644999999999982e+03
4.800000000000000100e-02 1.527649999999999841e-01 1.522245000000000026e+01 7.655259999999999820e+01 1.948089999999999918e+03
4.900000000000000189e-02 1.528030000000000221e-01 1.525069999999999837e+01 7.742159999999999798e+01 1.948454999999999927e+03
5.000000000000000278e-02 1.528285000000000060e-01 1.511550000000000082e+01 7.777315000000000111e+01 1.948704999999999927e+03
5.100000000000000366e-02 1.528380000000000016e-01 1.480509999999999948e+01 7.757824999999999704e+01 1.948804999999999836e+03
5.200000000000000455e-02 1.528304999999999803e-01 1.432399999999999984e+01 7.686289999999999623e+01 1.948750000000000000e+03
5.300000000000000544e-02 1.528075000000000128e-01 1.368800000000000061e+01 7.569339999999999691e+01 1.948539999999999964e+03
5.399999999999999939e-02 1.527695000000000025e-01 1.291999999999999993e+01 7.415909999999999513e+01 1.948195000000000164e+03
5.500000000000000028e-02 1.527199999999999946e-01 1.204574999999999996e+01 7.235640000000000782e+01 1.947724999999999909e+03
5.600000000000000117e-02 1.526609999999999912e-01 1.109058999999999884e+01 7.037610000000000809e+01 1.947170000000000073e+03
5.700000000000000205e-02 1.525944999999999940e-01 1.007861499999999921e+01 6.829734999999999445e+01 1.946549999999999955e+03
5.800000000000000294e-02 1.525239999999999929e-01 9.032484999999999431e+00 6.618559999999999377e+01 1.945884999999999991e+03
5.900000000000000383e-02 1.524514999999999898e-01 7.974370000000000402e+00 6.409550000000000125e+01 1.945199999999999818e+03
6.000000000000000472e-02 1.523780000000000134e-01 6.927435000000000009e+00 6.207580000000000098e+01 1.944505000000000109e+03
6.099999999999999867e-02 1.523074999999999846e-01 5.916630000000000500e+00 6.017470000000000141e+01 1.943829999999999927e+03
6.199999999999999956e-02 1.522399999999999864e-01 4.969545000000000101e+00 5.844395000000000095e+01 1.943184999999999945e+03
6.300000000000000044e-02 1.521779999999999800e-01 4.116144999999999499e+00 5.694100000000000250e+01 1.942599999999999909e+03
6.400000000000000133e-02 1.521239999999999815e-01 3.387935000000000141e+00 5.572840000000000060e+01 1.942079999999999927e+03
6.500000000000000222e-02 1.520805000000000073e-01 2.816350000000000353e+00 5.487115000000000009e+01 1.941654999999999973e+03
6.600000000000000311e-02 1.520495000000000041e-01 2.430925000000000225e+00 5.443215000000000003e+01 1.941345000000000027e+03
6.700000000000000400e-02 1.520330000000000015e-01 2.257220000000000226e+00 5.446715000000000373e+01 1.941175000000000182e+03
6.800000000000000488e-02 1.520330000000000015e-01 2.315069999999999961e+00 5.501954999999999529e+01 1.941155000000000200e+03
6.900000000000000577e-02 1.520509999999999917e-01 2.617175000000000029e+00 5.611650000000000205e+01 1.941309999999999945e+03
7.000000000000000666e-02 1.520874999999999866e-01 3.168255000000000265e+00 5.776595000000000368e+01 1.941639999999999873e+03
7.100000000000000755e-02 1.521440000000000015e-01 3.964860000000000273e+00 5.995629999999999882e+01 1.942150000000000091e+03
7.200000000000000844e-02 1.522185000000000066e-01 4.995684999999999931e+00 6.265684999999999150e+01 1.942835000000000036e+03
7.300000000000000933e-02 1.523114999999999886e-01 6.242370000000000196e+00 6.582019999999999982e+01 1.943695000000000164e+03
7.399999999999999634e-02 1.524205000000000143e-01 7.680744999999999933e+00 6.938554999999999495e+01 1.944715000000000146e+03
7.499999999999999722e-02 1.525434999999999985e-01 9.282180000000000319e+00 7.328294999999999959e+01 1.945869999999999891e+03
7.599999999999999811e-02 1.526790000000000092e-01 1.101522500000000093e+01 7.743729999999999336e+01 1.947144999999999982e+03
7.699999999999999900e-02 1.528245000000000020e-01 1.284708499999999987e+01 8.177289999999999281e+01 1.948519999999999982e+03
7.799999999999999989e-02 1.529770000000000019e-01 1.474520000000000053e+01 8.621739999999999782e+01 1.949965000000000146e+03
7.900000000000000078e-02 1.531339999999999923e-01 1.667875000000000085e+01 9.070515000000000327e+01 1.951465000000000146e+03
8.000000000000000167e-02 1.532939999999999858e-01 1.861974999999999980e+01 9.518014999999999759e+01 1.952994999999999891e+03
8.100000000000000255e-02 1.534544999999999937e-01 2.054384999999999906e+01 9.959854999999998881e+01 1.954530000000000200e+03
8.200000000000000344e-02 1.536144999999999872e-01 2.243120000000000047e+01 1.039279999999999973e+02 1.956070000000000164e+03
8.300000000000000433e-02 1.537720000000000198e-01 2.426644999999999897e+01 1.081496500000000083e+02 1.957595000000000027e+03
8.400000000000000522e-02 1.539269999999999805e-01 2.603875000000000028e+01 1.122554999999999978e+02 1.959095000000000027e+03
8.500000000000000611e-02 1.540789999999999937e-01 2.774119999999999919e+01 1.162475000000000023e+02 1.960565000000000055e+03
8.600000000000000699e-02 1.542280000000000040e-01 2.937034999999999840e+01 1.201349999999999909e+02 1.962014999999999873e+03
8.700000000000000788e-02 1.543730000000000102e-01 3.092519999999999669e+01 1.239304999999999950e+02 1.963434999999999945e+03
8.800000000000000877e-02 1.545159999999999867e-01 3.240654999999999575e+01 1.276494999999999891e+02 1.964835000000000036e+03
8.899999999999999578e-02 1.546569999999999889e-01 3.381589999999999918e+01 1.313069999999999879e+02 1.966210000000000036e+03
8.999999999999999667e-02 1.547955000000000025e-01 3.515484999999999616e+01 1.349120000000000061e+02 1.967569999999999936e+03
9.099999999999999756e-02 1.549320000000000142e-01 3.642459999999999809e+01 1.384730000000000132e+02 1.968909999999999854e+03
9.199999999999999845e-02 1.550670000000000104e-01 3.762545000000000073e+01 1.419904999999999973e+02 1.970240000000000009e+03
9.299999999999999933e-02 1.552000000000000046e-01 3.875669999999999504e+01 1.454610000000000127e+02 1.971550000000000182e+03
9.400000000000000022e-02 1.553315000000000112e-01 3.981654999999999944e+01 1.488745000000000118e+02 1.972849999999999909e+03
9.500000000000000111e-02 1.554610000000000158e-01 4.080199999999999960e+01 1.522185000000000059e+02 1.974125000000000000e+03
9.600000000000000200e-02 1.555874999999999897e-01 4.170929999999999893e+01 1.554759999999999991e+02 1.975380000000000109e+03
9.700000000000000289e-02 1.557109999999999883e-01 4.253385000000000105e+01 1.586285000000000025e+02 1.976599999999999909e+03
9.800000000000000377e-02 1.558304999999999829e-01 4.327070000000000505e+01 1.616544999999999845e+02 1.977784999999999854e+03
9.900000000000000466e-02 1.559455000000000147e-01 4.391445000000000221e+01 1.645339999999999918e+02 1.978929999999999836e+03
1.000000000000000056e-01 1.560549999999999993e-01 4.445989999999999753e+01 1.672475000000000023e+02 1.980019999999999982e+03
1.010000000000000064e-01 1.561589999999999923e-01 4.490184999999999604e+01 1.697749999999999773e+02 1.981054999999999836e+03
1.020000000000000073e-01 1.562560000000000060e-01 4.523574999999999591e+01 1.720989999999999895e+02 1.982019999999999982e+03
1.030000000000000082e-01 1.563459999999999850e-01 4.545749999999999602e+01 1.742040000000000077e+02 1.982920000000000073e+03
1.040000000000000091e-01 1.564274999999999971e-01 4.556395000000000550e+01 1.760780000000000030e+02 1.983740000000000009e+03
1.050000000000000100e-01 1.565015000000000156e-01 4.555315000000000225e+01 1.777110000000000127e+02 1.984485000000000127e+03
1.059999999999999970e-01 1.565659999999999830e-01 4.542445000000000022e+01 1.790969999999999800e+02 1.985139999999999873e+03
1.069999999999999979e-01 1.566219999999999835e-01 4.517870000000000630e+01 1.802339999999999804e+02 1.985710000000000036e+03
1.079999999999999988e-01 1.566695000000000171e-01 4.481860000000000355e+01 1.811235000000000070e+02 1.986190000000000055e+03
1.089999999999999997e-01 1.567080000000000140e-01 4.434870000000000090e+01 1.817735000000000127e+02 1.986585000000000036e+03
1.100000000000000006e-01 1.567375000000000018e-01 4.377514999999999645e+01 1.821939999999999884e+02 1.986890000000000100e+03
1.110000000000000014e-01 1.567589999999999817e-01 4.310609999999999786e+01 1.823999999999999773e+02 1.987115000000000009e+03
1.120000000000000023e-01 1.567719999999999947e-01 4.235134999999999650e+01 1.824114999999999895e+02 1.987259999999999991e+03
1.130000000000000032e-01 1.567784999999999873e-01 4.152185000000000059e+01 1.822504999999999882e+02 1.987335000000000036e+03
1.140000000000000041e-01 1.567784999999999873e-01 4.062959999999999638e+01 1.819415000000000191e+02 1.987345000000000027e+03
1.150000000000000050e-01 1.567729999999999957e-01 3.968725000000000591e+01 1.815099999999999909e+02 1.987295000000000073e+03
1.160000000000000059e-01 1.567624999999999991e-01 3.870765000000000100e+01 1.809820000000000277e+02 1.987200000000000045e+03
1.170000000000000068e-01 1.567479999999999984e-01 3.770345000000000368e+01 1.803834999999999980e+02 1.987065000000000055e+03
1.180000000000000077e-01 1.567310000000000092e-01 3.668645000000000067e+01 1.797369999999999948e+02 1.986900000000000091e+03
1.190000000000000085e-01 1.567115000000000036e-01 3.566785000000000139e+01 1.790645000000000095e+02 1.986710000000000036e+03
1.200000000000000094e-01 1.566905000000000103e-01 3.465739999999999554e+01 1.783829999999999814e+02 1.986505000000000109e+03
1.209999999999999964e-01 1.566690000000000027e-01 3.366320000000000334e+01 1.777079999999999984e+02 1.986295000000000073e+03
1.219999999999999973e-01 1.566469999999999807e-01 3.269205000000000183e+01 1.770489999999999782e+02 1.986074999999999818e+03
1.229999999999999982e-01 1.566250000000000142e-01 3.174865000000000137e+01 1.764130000000000109e+02 1.985849999999999909e+03
1.239999999999999991e-01 1.566029999999999922e-01 3.083620000000000161e+01 1.758029999999999973e+02 1.985639999999999873e+03
1.250000000000000000e-01 1.565814999999999846e-01 2.995589999999999975e+01 1.752180000000000177e+02 1.985424999999999955e+03
1.260000000000000009e-01 1.565610000000000057e-01 2.910764999999999958e+01 1.746539999999999964e+02 1.985214999999999918e+03
1.270000000000000018e-01 1.565404999999999991e-01 2.828940000000000055e+01 1.741034999999999968e+02 1.985009999999999991e+03
1.280000000000000027e-01 1.565205000000000068e-01 2.749820000000000064e+01 1.735579999999999927e+02 1.984804999999999836e+03
1.290000000000000036e-01 1.565000000000000002e-01 2.672984999999999900e+01 1.730049999999999955e+02 1.984599999999999909e+03
1.300000000000000044e-01 1.564794999999999936e-01 2.597939999999999827e+01 1.724334999999999809e+02 1.984389999999999873e+03
1.310000000000000053e-01 1.564579999999999860e-01 2.524145000000000039e+01 1.718294999999999959e+02 1.984174999999999955e+03
1.320000000000000062e-01 1.564349999999999907e-01 2.451040000000000063e+01 1.711814999999999998e+02 1.983949999999999818e+03
1.330000000000000071e-01 1.564110000000000222e-01 2.378059999999999974e+01 1.704770000000000039e+02 1.983704999999999927e+03
1.340000000000000080e-01 1.563845000000000096e-01 2.304700000000000060e+01 1.697055000000000007e+02 1.983440000000000055e+03
1.350000000000000089e-01 1.563559999999999950e-01 2.230514999999999759e+01 1.688590000000000089e+02 1.983155000000000200e+03
1.360000000000000098e-01 1.563240000000000185e-01 2.155130000000000123e+01 1.679325000000000045e+02 1.982844999999999800e+03
1.370000000000000107e-01 1.562899999999999845e-01 2.078310000000000102e+01 1.669214999999999804e+02 1.982505000000000109e+03
1.380000000000000115e-01 1.562530000000000030e-01 1.999904999999999688e+01 1.658269999999999982e+02 1.982140000000000100e+03
1.390000000000000124e-01 1.562129999999999908e-01 1.919935000000000258e+01 1.646510000000000105e+02 1.981744999999999891e+03
1.400000000000000133e-01 1.561700000000000033e-01 1.838524999999999920e+01 1.634004999999999939e+02 1.981319999999999936e+03
1.410000000000000142e-01 1.561244999999999994e-01 1.755959999999999965e+01 1.620840000000000032e+02 1.980875000000000000e+03
1.420000000000000151e-01 1.560765000000000069e-01 1.672609999999999886e+01 1.607144999999999868e+02 1.980405000000000200e+03
1.430000000000000160e-01 1.560269999999999990e-01 1.589010000000000034e+01 1.593054999999999950e+02 1.979914999999999964e+03
1.440000000000000169e-01 1.559760000000000035e-01 1.505739999999999945e+01 1.578725000000000023e+02 1.979414999999999964e+03
1.450000000000000178e-01 1.559245000000000214e-01 1.423475000000000179e+01 1.564345000000000141e+02 1.978905000000000200e+03
1.459999999999999909e-01 1.558720000000000105e-01 1.342910000000000004e+01 1.550074999999999932e+02 1.978385000000000218e+03
1.469999999999999918e-01 1.558200000000000141e-01 1.264785000000000004e+01 1.536100000000000136e+02 1.977875000000000000e+03
1.479999999999999927e-01 1.557689999999999908e-01 1.189784500000000023e+01 1.522595000000000027e+02 1.977369999999999891e+03
1.489999999999999936e-01 1.557195000000000107e-01 1.118570000000000064e+01 1.509699999999999989e+02 1.976880000000000109e+03
1.499999999999999944e-01 1.556720000000000048e-01 1.051723499999999945e+01 1.497560000000000002e+02 1.976414999999999964e+03
1.509999999999999953e-01 1.556269999999999876e-01 9.897359999999999047e+00 1.486264999999999930e+02 1.975965000000000146e+03
1.519999999999999962e-01 1.555850000000000011e-01 9.329885000000000872e+00 1.475919999999999845e+02 1.975545000000000073e+03
1.529999999999999971e-01 1.555455000000000032e-01 8.817505000000000592e+00 1.466560000000000059e+02 1.975159999999999854e+03
1.539999999999999980e-01 1.555104999999999960e-01 8.361570000000000391e+00 1.458204999999999814e+02 1.974805000000000064e+03
1.549999999999999989e-01 1.554780000000000051e-01 7.962315000000000254e+00 1.450855000000000246e+02 1.974480000000000018e+03
1.559999999999999998e-01 1.554490000000000038e-01 7.618755000000000166e+00 1.444474999999999909e+02 1.974190000000000055e+03
1.570000000000000007e-01 1.554234999999999922e-01 7.328900000000000858e+00 1.439014999999999986e+02 1.973934999999999945e+03
1.580000000000000016e-01 1.554014999999999980e-01 7.089850000000000207e+00 1.434395000000000095e+02 1.973710000000000036e+03
1.590000000000000024e-01 1.553820000000000201e-01 6.897959999999999425e+00 1.430529999999999973e+02 1.973514999999999873e+03
