# t [s], A [cm^2], U [cm/s], P [cPa], c [cm/s]
1.000000000000000021e-03 1.845900000000000041e-01 4.930579999999999963e-01 1.036724999999999994e+02 2.179855000000000018e+03
2.000000000000000042e-03 1.845169999999999866e-01 2.352333499999999855e+00 9.931215000000000259e+01 2.179270000000000437e+03
3.000000000000000062e-03 1.843480000000000119e-01 4.601152500000000423e+00 9.342859999999998877e+01 2.177954999999999927e+03
4.000000000000000083e-03 1.841345000000000065e-01 7.127549999999999386e+00 8.754080000000000439e+01 2.176315000000000055e+03
5.000000000000000104e-03 1.839210000000000012e-01 9.777205000000000368e+00 8.272159999999999513e+01 2.174684999999999945e+03
6.000000000000000125e-03 1.837215000000000098e-01 1.222527000000000186e+01 7.887845000000000084e+01 2.173194999999999709e+03
7.000000000000000146e-03 1.835390000000000077e-01 1.425066499999999792e+01 7.547464999999999691e+01 2.171859999999999673e+03
8.000000000000000167e-03 1.833790000000000142e-01 1.589155000000000051e+01 7.249049999999999727e+01 2.170704999999999927e+03
9.000000000000001055e-03 1.832455000000000056e-01 1.721689999999999898e+01 7.009174999999999045e+01 2.169755000000000109e+03
1.000000000000000194e-02 1.831389999999999962e-01 1.825090000000000146e+01 6.824604999999999677e+01 2.169010000000000218e+03
1.099999999999999936e-02 1.830569999999999975e-01 1.902445000000000164e+01 6.687215000000000487e+01 2.168435000000000400e+03
1.200000000000000025e-02 1.829939999999999900e-01 1.955234999999999701e+01 6.584475000000000477e+01 2.168014999999999873e+03
1.300000000000000114e-02 1.829445000000000099e-01 1.985020000000000095e+01 6.499039999999999395e+01 2.167684999999999945e+03
1.400000000000000203e-02 1.829064999999999996e-01 2.002710000000000079e+01 6.435204999999999131e+01 2.167439999999999600e+03
1.499999999999999944e-02 1.828894999999999826e-01 2.030395000000000039e+01 6.437395000000000778e+01 2.167335000000000036e+03
1.600000000000000033e-02 1.829069999999999863e-01 2.089195000000000135e+01 6.564900000000000091e+01 2.167470000000000255e+03
1.700000000000000122e-02 1.829705000000000081e-01 2.184065000000000012e+01 6.841785000000000139e+01 2.167920000000000073e+03
1.800000000000000211e-02 1.830724999999999991e-01 2.298434999999999917e+01 7.226104999999999734e+01 2.168650000000000091e+03
1.900000000000000300e-02 1.831929999999999947e-01 2.401644999999999897e+01 7.620775000000000432e+01 2.169524999999999636e+03
2.000000000000000042e-02 1.833029999999999937e-01 2.463285000000000124e+01 7.915614999999999668e+01 2.170324999999999818e+03
2.100000000000000130e-02 1.833754999999999968e-01 2.466230000000000189e+01 8.034685000000000343e+01 2.170875000000000000e+03
2.200000000000000219e-02 1.833980000000000055e-01 2.412545000000000073e+01 7.965240000000000009e+01 2.171069999999999709e+03
2.299999999999999961e-02 1.833739999999999815e-01 2.320364999999999966e+01 7.756504999999999939e+01 2.170925000000000182e+03
2.400000000000000050e-02 1.833195000000000241e-01 2.214290000000000092e+01 7.491920000000000357e+01 2.170555000000000291e+03
2.500000000000000139e-02 1.832550000000000012e-01 2.114699999999999847e+01 7.250860000000000127e+01 2.170105000000000018e+03
2.600000000000000228e-02 1.831979999999999997e-01 2.030835000000000079e+01 7.078600000000000136e+01 2.169685000000000400e+03
2.700000000000000316e-02 1.831544999999999979e-01 1.959935000000000116e+01 6.976124999999998977e+01 2.169364999999999782e+03
2.800000000000000058e-02 1.831220000000000070e-01 1.891515000000000057e+01 6.909889999999998622e+01 2.169125000000000000e+03
2.900000000000000147e-02 1.830915000000000181e-01 1.814014999999999844e+01 6.833785000000000309e+01 2.168904999999999745e+03
3.000000000000000236e-02 1.830530000000000213e-01 1.721130000000000138e+01 6.712944999999999141e+01 2.168630000000000109e+03
3.099999999999999978e-02 1.830010000000000248e-01 1.615480000000000160e+01 6.540534999999999854e+01 2.168269999999999982e+03
3.200000000000000067e-02 1.829394999999999771e-01 1.508694999999999808e+01 6.342280000000000229e+01 2.167835000000000036e+03
3.300000000000000155e-02 1.828790000000000138e-01 1.417730000000000068e+01 6.167685000000000173e+01 2.167394999999999982e+03
3.400000000000000244e-02 1.828334999999999821e-01 1.359140000000000015e+01 6.071829999999999927e+01 2.167055000000000291e+03
3.500000000000000333e-02 1.828164999999999929e-01 1.343345000000000056e+01 6.095035000000000025e+01 2.166914999999999964e+03
3.600000000000000422e-02 1.828365000000000129e-01 1.371089999999999876e+01 6.248064999999999714e+01 2.167034999999999854e+03
3.700000000000000511e-02 1.828914999999999846e-01 1.432955000000000112e+01 6.507550000000000523e+01 2.167414999999999964e+03
3.799999999999999906e-02 1.829739999999999978e-01 1.511765000000000114e+01 6.822034999999999627e+01 2.167985000000000127e+03
3.899999999999999994e-02 1.830660000000000065e-01 1.586739999999999995e+01 7.125194999999999368e+01 2.168640000000000327e+03
4.000000000000000083e-02 1.831490000000000062e-01 1.637855000000000061e+01 7.351519999999999300e+01 2.169239999999999782e+03
4.100000000000000172e-02 1.832054999999999934e-01 1.649484999999999957e+01 7.449715000000000487e+01 2.169650000000000091e+03
4.200000000000000261e-02 1.832210000000000227e-01 1.612450000000000117e+01 7.390940000000000509e+01 2.169784999999999854e+03
4.300000000000000350e-02 1.831899999999999917e-01 1.524465000000000003e+01 7.170889999999999986e+01 2.169574999999999818e+03
4.400000000000000439e-02 1.831099999999999950e-01 1.389195000000000135e+01 6.806405000000000882e+01 2.169025000000000091e+03
4.499999999999999833e-02 1.829875000000000251e-01 1.214535000000000053e+01 6.328695000000000448e+01 2.168154999999999745e+03
4.599999999999999922e-02 1.828299999999999925e-01 1.010647999999999946e+01 5.775489999999999213e+01 2.167039999999999964e+03
4.700000000000000011e-02 1.826490000000000058e-01 7.883855000000000501e+00 5.184400000000000119e+01 2.165744999999999891e+03
4.800000000000000100e-02 1.824549999999999783e-01 5.582501999999999853e+00 4.588694999999999879e+01 2.164355000000000018e+03
4.900000000000000189e-02 1.822575000000000167e-01 3.299714999999999954e+00 4.015724999999999767e+01 2.162934999999999945e+03
5.000000000000000278e-02 1.820654999999999912e-01 1.125305000000000000e+00 3.487465000000000259e+01 2.161554999999999836e+03
5.100000000000000366e-02 1.818869999999999931e-01 -8.564799999999999081e-01 3.022090000000000032e+01 2.160264999999999873e+03
5.200000000000000455e-02 1.817285000000000150e-01 -2.565405000000000157e+00 2.635660000000000025e+01 2.159114999999999782e+03
5.300000000000000544e-02 1.815955000000000208e-01 -3.925705000000000222e+00 2.343055000000000021e+01 2.158144999999999982e+03
5.399999999999999939e-02 1.814945000000000030e-01 -4.868985000000000340e+00 2.157985000000000042e+01 2.157399999999999636e+03
5.500000000000000028e-02 1.814300000000000079e-01 -5.338974999999999582e+00 2.092024999999999935e+01 2.156909999999999854e+03
5.600000000000000117e-02 1.814054999999999973e-01 -5.297055000000000291e+00 2.153085000000000093e+01 2.156704999999999927e+03
5.700000000000000205e-02 1.814240000000000019e-01 -4.727055000000000007e+00 2.343914999999999793e+01 2.156810000000000400e+03
5.800000000000000294e-02 1.814860000000000084e-01 -3.637974999999999959e+00 2.661059999999999803e+01 2.157224999999999909e+03
5.900000000000000383e-02 1.815904999999999880e-01 -2.064074999999999882e+00 3.094539999999999935e+01 2.157944999999999709e+03
6.000000000000000472e-02 1.817334999999999923e-01 -6.218000000000012406e-02 3.628540000000000276e+01 2.158944999999999709e+03
6.099999999999999867e-02 1.819109999999999894e-01 2.293039999999999967e+00 4.242699999999999960e+01 2.160194999999999709e+03
6.199999999999999956e-02 1.821149999999999991e-01 4.914993500000000459e+00 4.913929999999999865e+01 2.161644999999999982e+03
6.300000000000000044e-02 1.823394999999999877e-01 7.711240000000000094e+00 5.618234999999999957e+01 2.163250000000000000e+03
6.400000000000000133e-02 1.825765000000000027e-01 1.058905999999999992e+01 6.332365000000000066e+01 2.164944999999999709e+03
6.500000000000000222e-02 1.828180000000000083e-01 1.346023500000000084e+01 7.035155000000000314e+01 2.166690000000000055e+03
6.600000000000000311e-02 1.830574999999999841e-01 1.624510000000000076e+01 7.708480000000000132e+01 2.168425000000000182e+03
6.700000000000000400e-02 1.832884999999999931e-01 1.887575000000000003e+01 8.337969999999999970e+01 2.170100000000000364e+03
6.800000000000000488e-02 1.835074999999999901e-01 2.129925000000000068e+01 8.913495000000000346e+01 2.171704999999999927e+03
6.900000000000000577e-02 1.837104999999999988e-01 2.347955000000000325e+01 9.429500000000000171e+01 2.173185000000000400e+03
7.000000000000000666e-02 1.838944999999999885e-01 2.539880000000000138e+01 9.885130000000000905e+01 2.174545000000000073e+03
7.100000000000000755e-02 1.840605000000000158e-01 2.705760000000000076e+01 1.028409499999999923e+02 2.175775000000000091e+03
7.200000000000000844e-02 1.842090000000000116e-01 2.847359999999999758e+01 1.063404999999999916e+02 2.176869999999999891e+03
7.300000000000000933e-02 1.843424999999999925e-01 2.967889999999999873e+01 1.094594999999999914e+02 2.177864999999999782e+03
7.399999999999999634e-02 1.844635000000000025e-01 3.071625000000000227e+01 1.123280000000000030e+02 2.178774999999999636e+03
7.499999999999999722e-02 1.845775000000000055e-01 3.163434999999999775e+01 1.150835000000000008e+02 2.179619999999999891e+03
7.599999999999999811e-02 1.846880000000000188e-01 3.248315000000000197e+01 1.178584999999999923e+02 2.180444999999999709e+03
7.699999999999999900e-02 1.847980000000000178e-01 3.330899999999999750e+01 1.207665000000000077e+02 2.181264999999999873e+03
7.799999999999999989e-02 1.849125000000000074e-01 3.415080000000000382e+01 1.238944999999999936e+02 2.182109999999999673e+03
7.900000000000000078e-02 1.850340000000000040e-01 3.503700000000000614e+01 1.272949999999999875e+02 2.183000000000000000e+03
8.000000000000000167e-02 1.851625000000000076e-01 3.598375000000000057e+01 1.309825000000000159e+02 2.183949999999999818e+03
8.100000000000000255e-02 1.852999999999999925e-01 3.699414999999999765e+01 1.349364999999999952e+02 2.184960000000000036e+03
8.200000000000000344e-02 1.854454999999999854e-01 3.805910000000000082e+01 1.391024999999999920e+02 2.186024999999999636e+03
8.300000000000000433e-02 1.855964999999999976e-01 3.915825000000000244e+01 1.434000000000000057e+02 2.187135000000000218e+03
8.400000000000000522e-02 1.857504999999999851e-01 4.026265000000000072e+01 1.477275000000000205e+02 2.188264999999999873e+03
8.500000000000000611e-02 1.859049999999999869e-01 4.133724999999999739e+01 1.519735000000000014e+02 2.189405000000000200e+03
8.600000000000000699e-02 1.860559999999999992e-01 4.234359999999999502e+01 1.560244999999999891e+02 2.190514999999999873e+03
8.700000000000000788e-02 1.862000000000000044e-01 4.324295000000000044e+01 1.597704999999999984e+02 2.191579999999999927e+03
8.800000000000000877e-02 1.863329999999999986e-01 4.399904999999999688e+01 1.631144999999999925e+02 2.192569999999999709e+03
8.899999999999999578e-02 1.864525000000000210e-01 4.458015000000000327e+01 1.659770000000000039e+02 2.193460000000000036e+03
8.999999999999999667e-02 1.865559999999999996e-01 4.496124999999999972e+01 1.682984999999999900e+02 2.194234999999999673e+03
9.099999999999999756e-02 1.866404999999999870e-01 4.512565000000000026e+01 1.700450000000000159e+02 2.194869999999999891e+03
9.199999999999999845e-02 1.867064999999999975e-01 4.506530000000000058e+01 1.712049999999999841e+02 2.195369999999999891e+03
9.299999999999999933e-02 1.867524999999999880e-01 4.478154999999999575e+01 1.717939999999999827e+02 2.195730000000000018e+03
9.400000000000000022e-02 1.867794999999999872e-01 4.428475000000000250e+01 1.718464999999999918e+02 2.195940000000000055e+03
9.500000000000000111e-02 1.867880000000000096e-01 4.359309999999999974e+01 1.714180000000000064e+02 2.196019999999999982e+03
9.600000000000000200e-02 1.867800000000000016e-01 4.273185000000000144e+01 1.705784999999999911e+02 2.195974999999999909e+03
9.700000000000000289e-02 1.867579999999999796e-01 4.173135000000000616e+01 1.694080000000000155e+02 2.195824999999999818e+03
9.800000000000000377e-02 1.867245000000000155e-01 4.062570000000000192e+01 1.679929999999999950e+02 2.195585000000000036e+03
9.900000000000000466e-02 1.866820000000000146e-01 3.945050000000000523e+01 1.664209999999999923e+02 2.195284999999999854e+03
1.000000000000000056e-01 1.866335000000000077e-01 3.824124999999999375e+01 1.647764999999999986e+02 2.194934999999999945e+03
1.010000000000000064e-01 1.865815000000000112e-01 3.703190000000000026e+01 1.631374999999999886e+02 2.194554999999999836e+03
1.020000000000000073e-01 1.865300000000000014e-01 3.585285000000000366e+01 1.615710000000000264e+02 2.194170000000000073e+03
1.030000000000000082e-01 1.864784999999999915e-01 3.473010000000000019e+01 1.601324999999999932e+02 2.193795000000000073e+03
1.040000000000000091e-01 1.864315000000000000e-01 3.368415000000000248e+01 1.588629999999999995e+02 2.193445000000000164e+03
1.050000000000000100e-01 1.863889999999999991e-01 3.272910000000000252e+01 1.577870000000000061e+02 2.193130000000000109e+03
1.059999999999999970e-01 1.863519999999999899e-01 3.187245000000000061e+01 1.569125000000000227e+02 2.192855000000000018e+03
1.069999999999999979e-01 1.863215000000000010e-01 3.111504999999999654e+01 1.562345000000000255e+02 2.192619999999999891e+03
1.079999999999999988e-01 1.862965000000000038e-01 3.045120000000000005e+01 1.557290000000000134e+02 2.192430000000000291e+03
1.089999999999999997e-01 1.862769999999999981e-01 2.986945000000000050e+01 1.553619999999999948e+02 2.192280000000000200e+03
1.100000000000000006e-01 1.862614999999999965e-01 2.935354999999999848e+01 1.550869999999999891e+02 2.192154999999999745e+03
1.110000000000000014e-01 1.862485000000000113e-01 2.888349999999999795e+01 1.548505000000000109e+02 2.192055000000000291e+03
1.120000000000000023e-01 1.862364999999999993e-01 2.843694999999999951e+01 1.545964999999999918e+02 2.191960000000000036e+03
1.130000000000000032e-01 1.862240000000000006e-01 2.799074999999999847e+01 1.542660000000000196e+02 2.191860000000000127e+03
1.140000000000000041e-01 1.862084999999999990e-01 2.752240000000000109e+01 1.538054999999999950e+02 2.191750000000000000e+03
1.150000000000000050e-01 1.861889999999999934e-01 2.701144999999999996e+01 1.531684999999999945e+02 2.191599999999999909e+03
1.160000000000000059e-01 1.861629999999999951e-01 2.644075000000000131e+01 1.523170000000000073e+02 2.191414999999999964e+03
1.170000000000000068e-01 1.861305000000000043e-01 2.579789999999999850e+01 1.512264999999999873e+02 2.191175000000000182e+03
1.180000000000000077e-01 1.860899999999999777e-01 2.507545000000000002e+01 1.498874999999999886e+02 2.190880000000000109e+03
1.190000000000000085e-01 1.860419999999999852e-01 2.427189999999999870e+01 1.483034999999999854e+02 2.190529999999999745e+03
1.200000000000000094e-01 1.859850000000000114e-01 2.339150000000000063e+01 1.464939999999999998e+02 2.190114999999999782e+03
1.209999999999999964e-01 1.859215000000000173e-01 2.244420000000000215e+01 1.444929999999999950e+02 2.189649999999999636e+03
1.219999999999999973e-01 1.858515000000000028e-01 2.144480000000000075e+01 1.423449999999999989e+02 2.189135000000000218e+03
1.229999999999999982e-01 1.857765000000000111e-01 2.041225000000000023e+01 1.401034999999999968e+02 2.188590000000000146e+03
1.239999999999999991e-01 1.856990000000000030e-01 1.936850000000000094e+01 1.378290000000000077e+02 2.188019999999999982e+03
1.250000000000000000e-01 1.856200000000000072e-01 1.833704999999999785e+01 1.355840000000000032e+02 2.187440000000000055e+03
1.260000000000000009e-01 1.855414999999999981e-01 1.734175000000000111e+01 1.334295000000000186e+02 2.186864999999999782e+03
1.270000000000000018e-01 1.854669999999999930e-01 1.640534999999999854e+01 1.314225000000000136e+02 2.186310000000000400e+03
1.280000000000000027e-01 1.853970000000000062e-01 1.554834999999999923e+01 1.296125000000000114e+02 2.185795000000000073e+03
1.290000000000000036e-01 1.853329999999999977e-01 1.478805000000000014e+01 1.280395000000000039e+02 2.185320000000000164e+03
1.300000000000000044e-01 1.852770000000000250e-01 1.413744999999999941e+01 1.267314999999999969e+02 2.184905000000000200e+03
1.310000000000000053e-01 1.852294999999999914e-01 1.360515000000000008e+01 1.257055000000000007e+02 2.184550000000000182e+03
1.320000000000000062e-01 1.851915000000000089e-01 1.319500000000000028e+01 1.249645000000000010e+02 2.184265000000000327e+03
1.330000000000000071e-01 1.851630000000000220e-01 1.290575000000000117e+01 1.245010000000000048e+02 2.184045000000000073e+03
1.340000000000000080e-01 1.851440000000000030e-01 1.273189999999999955e+01 1.242965000000000089e+02 2.183899999999999636e+03
1.350000000000000089e-01 1.851335000000000064e-01 1.266394999999999982e+01 1.243224999999999909e+02 2.183809999999999945e+03
1.360000000000000098e-01 1.851304999999999756e-01 1.268885000000000041e+01 1.245450000000000017e+02 2.183779999999999745e+03
1.370000000000000107e-01 1.851345000000000074e-01 1.279129999999999967e+01 1.249244999999999948e+02 2.183805000000000291e+03
1.380000000000000115e-01 1.851440000000000030e-01 1.295420000000000016e+01 1.254170000000000016e+02 2.183864999999999782e+03
1.390000000000000124e-01 1.851575000000000026e-01 1.315964999999999918e+01 1.259805000000000064e+02 2.183960000000000036e+03
1.400000000000000133e-01 1.851734999999999909e-01 1.338980000000000103e+01 1.265734999999999957e+02 2.184074999999999818e+03
1.410000000000000142e-01 1.851915000000000089e-01 1.362749999999999950e+01 1.271564999999999941e+02 2.184204999999999927e+03
1.420000000000000151e-01 1.852090000000000125e-01 1.385719999999999885e+01 1.276970000000000027e+02 2.184329999999999927e+03
1.430000000000000160e-01 1.852254999999999874e-01 1.406530000000000058e+01 1.281659999999999968e+02 2.184449999999999818e+03
1.440000000000000169e-01 1.852405000000000024e-01 1.424070000000000036e+01 1.285414999999999850e+02 2.184554999999999836e+03
1.450000000000000178e-01 1.852520000000000000e-01 1.437504999999999988e+01 1.288095000000000141e+02 2.184644999999999982e+03
1.459999999999999909e-01 1.852604999999999946e-01 1.446304999999999907e+01 1.289619999999999891e+02 2.184710000000000036e+03
1.469999999999999918e-01 1.852654999999999996e-01 1.450225000000000009e+01 1.289990000000000236e+02 2.184750000000000000e+03
1.479999999999999927e-01 1.852665000000000006e-01 1.449319999999999986e+01 1.289259999999999877e+02 2.184760000000000218e+03
1.489999999999999936e-01 1.852650000000000130e-01 1.443890000000000029e+01 1.287545000000000073e+02 2.184750000000000000e+03
1.499999999999999944e-01 1.852594999999999936e-01 1.434479999999999933e+01 1.285014999999999930e+02 2.184715000000000146e+03
1.509999999999999953e-01 1.852515000000000134e-01 1.421790000000000020e+01 1.281854999999999905e+02 2.184654999999999745e+03
1.519999999999999962e-01 1.852419999999999900e-01 1.406670000000000087e+01 1.278294999999999959e+02 2.184590000000000146e+03
1.529999999999999971e-01 1.852305000000000201e-01 1.390005000000000024e+01 1.274555000000000007e+02 2.184510000000000218e+03
1.539999999999999980e-01 1.852185000000000081e-01 1.372714999999999996e+01 1.270845000000000056e+02 2.184425000000000182e+03
1.549999999999999989e-01 1.852070000000000105e-01 1.355644999999999989e+01 1.267369999999999948e+02 2.184340000000000146e+03
1.559999999999999998e-01 1.851955000000000129e-01 1.339570000000000149e+01 1.264284999999999997e+02 2.184255000000000109e+03
1.570000000000000007e-01 1.851855000000000029e-01 1.325120000000000076e+01 1.261719999999999970e+02 2.184184999999999945e+03
1.580000000000000016e-01 1.851774999999999949e-01 1.312764999999999915e+01 1.259755000000000109e+02 2.184119999999999891e+03
1.590000000000000024e-01 1.851704999999999879e-01 1.302795000000000059e+01 1.258425000000000011e+02 2.184070000000000164e+03
