# t [s], A [cm^2], U [cm/s], P [cPa], c [cm/s]
1.000000000000000021e-03 1.332904999999999784e-01 4.262519999999999643e-01 1.032584999999999980e+02 2.056855000000000018e+03
2.000000000000000042e-03 1.332524999999999959e-01 2.149758499999999906e+00 9.948635000000000161e+01 2.056414999999999964e+03
3.000000000000000062e-03 1.331475000000000020e-01 4.231132500000000185e+00 9.445474999999999000e+01 2.055260000000000218e+03
4.000000000000000083e-03 1.330044999999999977e-01 6.547907499999999992e+00 8.918240000000000123e+01 2.053704999999999927e+03
5.000000000000000104e-03 1.328519999999999979e-01 9.008554999999999424e+00 8.460474999999999568e+01 2.052059999999999945e+03
6.000000000000000125e-03 1.327050000000000174e-01 1.140493000000000023e+01 8.091460000000000719e+01 2.050489999999999782e+03
7.000000000000000146e-03 1.325669999999999904e-01 1.351993500000000026e+01 7.776855000000000473e+01 2.049045000000000073e+03
8.000000000000000167e-03 1.324410000000000032e-01 1.529759999999999920e+01 7.494719999999999516e+01 2.047740000000000236e+03
9.000000000000001055e-03 1.323300000000000032e-01 1.678800000000000026e+01 7.253074999999999761e+01 2.046610000000000127e+03
1.000000000000000194e-02 1.322365000000000068e-01 1.802284999999999826e+01 7.057515000000000782e+01 2.045670000000000073e+03
1.099999999999999936e-02 1.321589999999999987e-01 1.901585000000000036e+01 6.903085000000000093e+01 2.044900000000000091e+03
1.200000000000000025e-02 1.320965000000000056e-01 1.978099999999999881e+01 6.782059999999999889e+01 2.044289999999999964e+03
1.300000000000000114e-02 1.320465000000000111e-01 2.032460000000000022e+01 6.683695000000000164e+01 2.043809999999999945e+03
1.400000000000000203e-02 1.320049999999999835e-01 2.066874999999999929e+01 6.598144999999999527e+01 2.043414999999999964e+03
1.499999999999999944e-02 1.319720000000000060e-01 2.089669999999999916e+01 6.530545000000000755e+01 2.043110000000000127e+03
1.600000000000000033e-02 1.319510000000000127e-01 2.115384999999999849e+01 6.508195000000000618e+01 2.042914999999999964e+03
1.700000000000000122e-02 1.319484999999999963e-01 2.158429999999999893e+01 6.567570000000000618e+01 2.042904999999999745e+03
1.800000000000000211e-02 1.319704999999999906e-01 2.225025000000000119e+01 6.729534999999999911e+01 2.043139999999999873e+03
1.900000000000000300e-02 1.320169999999999955e-01 2.309420000000000073e+01 6.981444999999999368e+01 2.043615000000000009e+03
2.000000000000000042e-02 1.320820000000000050e-01 2.396164999999999878e+01 7.277260000000001128e+01 2.044269999999999982e+03
2.100000000000000130e-02 1.321519999999999917e-01 2.466550000000000153e+01 7.553990000000000293e+01 2.044984999999999900e+03
2.200000000000000219e-02 1.322154999999999858e-01 2.505679999999999907e+01 7.754660000000001219e+01 2.045650000000000091e+03
2.299999999999999961e-02 1.322609999999999897e-01 2.507284999999999897e+01 7.847155000000000769e+01 2.046130000000000109e+03
2.400000000000000050e-02 1.322834999999999983e-01 2.474674999999999869e+01 7.831974999999999909e+01 2.046390000000000100e+03
2.500000000000000139e-02 1.322850000000000137e-01 2.418180000000000263e+01 7.737364999999999782e+01 2.046430000000000064e+03
2.600000000000000228e-02 1.322720000000000007e-01 2.350394999999999968e+01 7.605189999999998918e+01 2.046315000000000055e+03
2.700000000000000316e-02 1.322504999999999931e-01 2.281584999999999752e+01 7.474394999999999811e+01 2.046110000000000127e+03
2.800000000000000058e-02 1.322284999999999988e-01 2.216779999999999973e+01 7.368510000000000559e+01 2.045890000000000100e+03
2.900000000000000147e-02 1.322089999999999932e-01 2.155384999999999707e+01 7.291150000000000375e+01 2.045684999999999945e+03
3.000000000000000236e-02 1.321910000000000029e-01 2.092974999999999852e+01 7.229519999999999413e+01 2.045505000000000109e+03
3.099999999999999978e-02 1.321729999999999849e-01 2.024164999999999992e+01 7.163280000000000314e+01 2.045329999999999927e+03
3.200000000000000067e-02 1.321515000000000051e-01 1.945589999999999975e+01 7.074860000000001037e+01 2.045110000000000127e+03
3.300000000000000155e-02 1.321244999999999781e-01 1.857880000000000109e+01 6.957784999999999798e+01 2.044840000000000146e+03
3.400000000000000244e-02 1.320915000000000006e-01 1.766259999999999764e+01 6.820504999999999995e+01 2.044515000000000100e+03
3.500000000000000333e-02 1.320560000000000067e-01 1.679455000000000098e+01 6.684794999999999732e+01 2.044160000000000082e+03
3.600000000000000422e-02 1.320240000000000025e-01 1.607444999999999879e+01 6.579534999999999911e+01 2.043830000000000155e+03
3.700000000000000511e-02 1.320010000000000072e-01 1.558705000000000140e+01 6.531999999999999318e+01 2.043595000000000027e+03
3.799999999999999906e-02 1.319925000000000126e-01 1.537894999999999968e+01 6.559595000000000198e+01 2.043500000000000000e+03
3.899999999999999994e-02 1.320024999999999948e-01 1.544560000000000066e+01 6.664555000000000007e+01 2.043579999999999927e+03
4.000000000000000083e-02 1.320290000000000075e-01 1.573205000000000098e+01 6.832855000000000700e+01 2.043835000000000036e+03
4.100000000000000172e-02 1.320695000000000063e-01 1.614499999999999957e+01 7.037295000000000300e+01 2.044230000000000018e+03
4.200000000000000261e-02 1.321170000000000122e-01 1.657144999999999868e+01 7.243360000000001264e+01 2.044704999999999927e+03
4.300000000000000350e-02 1.321645000000000181e-01 1.689939999999999998e+01 7.416055000000000064e+01 2.045175000000000182e+03
4.400000000000000439e-02 1.322025000000000006e-01 1.703494999999999848e+01 7.526030000000000086e+01 2.045575000000000045e+03
4.499999999999999833e-02 1.322264999999999968e-01 1.691355000000000075e+01 7.553755000000001019e+01 2.045820000000000164e+03
4.599999999999999922e-02 1.322310000000000152e-01 1.650424999999999898e+01 7.491210000000000946e+01 2.045875000000000000e+03
4.700000000000000011e-02 1.322145000000000126e-01 1.580764999999999887e+01 7.341225000000000023e+01 2.045719999999999800e+03
4.800000000000000100e-02 1.321765000000000023e-01 1.484955000000000069e+01 7.115115000000000123e+01 2.045344999999999800e+03
4.900000000000000189e-02 1.321200000000000152e-01 1.367239999999999966e+01 6.829454999999998677e+01 2.044780000000000200e+03
5.000000000000000278e-02 1.320479999999999987e-01 1.232801500000000061e+01 6.502925000000000466e+01 2.044059999999999945e+03
5.100000000000000366e-02 1.319644999999999846e-01 1.087104000000000070e+01 6.153855000000000075e+01 2.043219999999999800e+03
5.200000000000000455e-02 1.318734999999999769e-01 9.355784999999999130e+00 5.798749999999999716e+01 2.042299999999999955e+03
5.300000000000000544e-02 1.317794999999999939e-01 7.834909999999999819e+00 5.451914999999999623e+01 2.041349999999999909e+03
5.399999999999999939e-02 1.316859999999999975e-01 6.359840000000000160e+00 5.125704999999999956e+01 2.040404999999999973e+03
5.500000000000000028e-02 1.315969999999999918e-01 4.981505000000000294e+00 4.831199999999999761e+01 2.039494999999999891e+03
5.600000000000000117e-02 1.315149999999999930e-01 3.750880500000000062e+00 4.578860000000000241e+01 2.038659999999999854e+03
5.700000000000000205e-02 1.314434999999999909e-01 2.718682000000000265e+00 4.378910000000000480e+01 2.037930000000000064e+03
5.800000000000000294e-02 1.313854999999999884e-01 1.933903200000000044e+00 4.241325000000000500e+01 2.037335000000000036e+03
5.900000000000000383e-02 1.313440000000000163e-01 1.441436500000000009e+00 4.175419999999999732e+01 2.036894999999999982e+03
6.000000000000000472e-02 1.313215000000000077e-01 1.279202500000000020e+00 4.189159999999999684e+01 2.036654999999999973e+03
6.099999999999999867e-02 1.313209999999999933e-01 1.475214999999999943e+00 4.288400000000000034e+01 2.036625000000000000e+03
6.199999999999999956e-02 1.313429999999999875e-01 2.045246000000000119e+00 4.476130000000000564e+01 2.036829999999999927e+03
6.300000000000000044e-02 1.313884999999999914e-01 2.991330000000000044e+00 4.752049999999999841e+01 2.037269999999999982e+03
6.400000000000000133e-02 1.314589999999999925e-01 4.301439999999999486e+00 5.112394999999999357e+01 2.037960000000000036e+03
6.500000000000000222e-02 1.315515000000000156e-01 5.950245000000000672e+00 5.550109999999999388e+01 2.038875000000000000e+03
6.600000000000000311e-02 1.316660000000000053e-01 7.900830000000000020e+00 6.055339999999999634e+01 2.040019999999999982e+03
6.700000000000000400e-02 1.317995000000000139e-01 1.010707500000000003e+01 6.616159999999999286e+01 2.041355000000000018e+03
6.800000000000000488e-02 1.319494999999999973e-01 1.251649499999999904e+01 7.219325000000000614e+01 2.042864999999999782e+03
6.900000000000000577e-02 1.321114999999999928e-01 1.507306499999999971e+01 7.851134999999999309e+01 2.044505000000000109e+03
7.000000000000000666e-02 1.322829999999999839e-01 1.772015000000000029e+01 8.498199999999999932e+01 2.046244999999999891e+03
7.100000000000000755e-02 1.324609999999999954e-01 2.040324999999999989e+01 9.148144999999999527e+01 2.048054999999999836e+03
7.200000000000000844e-02 1.326410000000000089e-01 2.307240000000000180e+01 9.790240000000000009e+01 2.049899999999999636e+03
7.300000000000000933e-02 1.328209999999999946e-01 2.568414999999999893e+01 1.041580000000000013e+02 2.051744999999999891e+03
7.399999999999999634e-02 1.329980000000000051e-01 2.820354999999999990e+01 1.101844999999999999e+02 2.053569999999999709e+03
7.499999999999999722e-02 1.331710000000000116e-01 3.060459999999999781e+01 1.159435000000000002e+02 2.055355000000000018e+03
7.599999999999999811e-02 1.333380000000000121e-01 3.287085000000000434e+01 1.214219999999999970e+02 2.057085000000000036e+03
7.699999999999999900e-02 1.334989999999999788e-01 3.499510000000000076e+01 1.266285000000000025e+02 2.058755000000000109e+03
7.799999999999999989e-02 1.336535000000000084e-01 3.697820000000000107e+01 1.315894999999999868e+02 2.060364999999999782e+03
7.900000000000000078e-02 1.338015000000000176e-01 3.882770000000000010e+01 1.363469999999999800e+02 2.061914999999999964e+03
8.000000000000000167e-02 1.339454999999999951e-01 4.055550000000000210e+01 1.409470000000000027e+02 2.063420000000000073e+03
8.100000000000000255e-02 1.340850000000000097e-01 4.217645000000000266e+01 1.454395000000000095e+02 2.064880000000000109e+03
8.200000000000000344e-02 1.342214999999999936e-01 4.370574999999999477e+01 1.498675000000000068e+02 2.066314999999999600e+03
8.300000000000000433e-02 1.343564999999999898e-01 4.515739999999999554e+01 1.542685000000000173e+02 2.067730000000000018e+03
8.400000000000000522e-02 1.344899999999999984e-01 4.654285000000000139e+01 1.586649999999999920e+02 2.069130000000000109e+03
8.500000000000000611e-02 1.346229999999999927e-01 4.786974999999999625e+01 1.630670000000000073e+02 2.070529999999999745e+03
8.600000000000000699e-02 1.347555000000000003e-01 4.914159999999999684e+01 1.674699999999999989e+02 2.071925000000000182e+03
8.700000000000000788e-02 1.348874999999999935e-01 5.035750000000000171e+01 1.718559999999999945e+02 2.073315000000000055e+03
8.800000000000000877e-02 1.350190000000000001e-01 5.151245000000000118e+01 1.761959999999999980e+02 2.074694999999999709e+03
8.899999999999999578e-02 1.351485000000000047e-01 5.259774999999999778e+01 1.804515000000000100e+02 2.076055000000000291e+03
8.999999999999999667e-02 1.352754999999999930e-01 5.360195000000000221e+01 1.845769999999999982e+02 2.077394999999999982e+03
9.099999999999999756e-02 1.353980000000000183e-01 5.451170000000000471e+01 1.885254999999999939e+02 2.078699999999999818e+03
9.199999999999999845e-02 1.355164999999999842e-01 5.531255000000000166e+01 1.922484999999999786e+02 2.079949999999999818e+03
9.299999999999999933e-02 1.356284999999999852e-01 5.599000000000000199e+01 1.956999999999999886e+02 2.081130000000000109e+03
9.400000000000000022e-02 1.357325000000000059e-01 5.653059999999999974e+01 1.988385000000000105e+02 2.082235000000000127e+03
9.500000000000000111e-02 1.358280000000000043e-01 5.692239999999999611e+01 2.016290000000000191e+02 2.083255000000000109e+03
9.600000000000000200e-02 1.359144999999999937e-01 5.715590000000000259e+01 2.040444999999999993e+02 2.084175000000000182e+03
9.700000000000000289e-02 1.359899999999999998e-01 5.722475000000000023e+01 2.060670000000000073e+02 2.084984999999999673e+03
9.800000000000000377e-02 1.360549999999999815e-01 5.712604999999999933e+01 2.076870000000000118e+02 2.085684999999999945e+03
9.900000000000000466e-02 1.361090000000000078e-01 5.686064999999999969e+01 2.089070000000000107e+02 2.086264999999999873e+03
1.000000000000000056e-01 1.361515000000000086e-01 5.643349999999999511e+01 2.097375000000000114e+02 2.086734999999999673e+03
1.010000000000000064e-01 1.361829999999999985e-01 5.585309999999999775e+01 2.102005000000000052e+02 2.087085000000000036e+03
1.020000000000000073e-01 1.362045000000000061e-01 5.513195000000000334e+01 2.103245000000000005e+02 2.087319999999999709e+03
1.030000000000000082e-01 1.362165000000000181e-01 5.428529999999999944e+01 2.101460000000000150e+02 2.087454999999999927e+03
1.040000000000000091e-01 1.362189999999999790e-01 5.333135000000000048e+01 2.097074999999999818e+02 2.087494999999999891e+03
1.050000000000000100e-01 1.362140000000000017e-01 5.228979999999999961e+01 2.090550000000000068e+02 2.087454999999999927e+03
1.059999999999999970e-01 1.362030000000000185e-01 5.118155000000000143e+01 2.082350000000000136e+02 2.087344999999999800e+03
1.069999999999999979e-01 1.361860000000000015e-01 5.002765000000000128e+01 2.072949999999999875e+02 2.087180000000000291e+03
1.079999999999999988e-01 1.361654999999999949e-01 4.884844999999999970e+01 2.062795000000000130e+02 2.086965000000000146e+03
1.089999999999999997e-01 1.361414999999999986e-01 4.766304999999999836e+01 2.052300000000000182e+02 2.086715000000000146e+03
1.100000000000000006e-01 1.361160000000000148e-01 4.648834999999999695e+01 2.041795000000000186e+02 2.086449999999999818e+03
1.110000000000000014e-01 1.360895000000000021e-01 4.533875000000000455e+01 2.031575000000000273e+02 2.086175000000000182e+03
1.120000000000000023e-01 1.360635000000000039e-01 4.422554999999999836e+01 2.021854999999999905e+02 2.085894999999999982e+03
1.130000000000000032e-01 1.360379999999999923e-01 4.315694999999999482e+01 2.012760000000000105e+02 2.085625000000000000e+03
1.140000000000000041e-01 1.360129999999999950e-01 4.213759999999999906e+01 2.004339999999999975e+02 2.085364999999999782e+03
1.150000000000000050e-01 1.359894999999999854e-01 4.116889999999999361e+01 1.996580000000000155e+02 2.085110000000000127e+03
1.160000000000000059e-01 1.359674999999999911e-01 4.024920000000000186e+01 1.989390000000000214e+02 2.084875000000000000e+03
1.170000000000000068e-01 1.359464999999999979e-01 3.937399999999999523e+01 1.982624999999999886e+02 2.084650000000000091e+03
1.180000000000000077e-01 1.359259999999999913e-01 3.853629999999999711e+01 1.976080000000000041e+02 2.084425000000000182e+03
1.190000000000000085e-01 1.359064999999999857e-01 3.772735000000000127e+01 1.969544999999999959e+02 2.084215000000000146e+03
1.200000000000000094e-01 1.358865000000000212e-01 3.693719999999999715e+01 1.962755000000000223e+02 2.084000000000000000e+03
1.209999999999999964e-01 1.358659999999999868e-01 3.615505000000000280e+01 1.955455000000000041e+02 2.083775000000000091e+03
1.219999999999999973e-01 1.358435000000000059e-01 3.537030000000000030e+01 1.947409999999999854e+02 2.083539999999999964e+03
1.229999999999999982e-01 1.358189999999999953e-01 3.457274999999999920e+01 1.938394999999999868e+02 2.083284999999999854e+03
1.239999999999999991e-01 1.357924999999999827e-01 3.375345000000000084e+01 1.928220000000000027e+02 2.083000000000000000e+03
1.250000000000000000e-01 1.357625000000000082e-01 3.290514999999999901e+01 1.916770000000000209e+02 2.082684999999999945e+03
1.260000000000000009e-01 1.357289999999999885e-01 3.202264999999999873e+01 1.903940000000000055e+02 2.082335000000000036e+03
1.270000000000000018e-01 1.356924999999999937e-01 3.110300000000000153e+01 1.889710000000000036e+02 2.081944999999999709e+03
1.280000000000000027e-01 1.356519999999999948e-01 3.014605000000000246e+01 1.874139999999999873e+02 2.081519999999999982e+03
1.290000000000000036e-01 1.356080000000000063e-01 2.915399999999999636e+01 1.857319999999999993e+02 2.081059999999999945e+03
1.300000000000000044e-01 1.355605000000000004e-01 2.813190000000000168e+01 1.839420000000000073e+02 2.080559999999999945e+03
1.310000000000000053e-01 1.355095000000000049e-01 2.708684999999999832e+01 1.820660000000000025e+02 2.080030000000000200e+03
1.320000000000000062e-01 1.354564999999999797e-01 2.602824999999999989e+01 1.801295000000000073e+02 2.079474999999999909e+03
1.330000000000000071e-01 1.354020000000000223e-01 2.496685000000000088e+01 1.781630000000000109e+02 2.078899999999999636e+03
1.340000000000000080e-01 1.353465000000000085e-01 2.391460000000000008e+01 1.761965000000000146e+02 2.078319999999999709e+03
1.350000000000000089e-01 1.352909999999999946e-01 2.288394999999999868e+01 1.742620000000000005e+02 2.077730000000000018e+03
1.360000000000000098e-01 1.352355000000000085e-01 2.188739999999999952e+01 1.723905000000000030e+02 2.077154999999999745e+03
1.370000000000000107e-01 1.351819999999999966e-01 2.093654999999999688e+01 1.706100000000000136e+02 2.076590000000000146e+03
1.380000000000000115e-01 1.351300000000000001e-01 2.004214999999999947e+01 1.689459999999999980e+02 2.076045000000000073e+03
1.390000000000000124e-01 1.350815000000000210e-01 1.921310000000000073e+01 1.674180000000000064e+02 2.075529999999999745e+03
1.400000000000000133e-01 1.350365000000000038e-01 1.845645000000000024e+01 1.660414999999999850e+02 2.075054999999999836e+03
1.410000000000000142e-01 1.349954999999999905e-01 1.777700000000000102e+01 1.648254999999999768e+02 2.074614999999999782e+03
1.420000000000000151e-01 1.349585000000000090e-01 1.717729999999999890e+01 1.637735000000000127e+02 2.074225000000000364e+03
1.430000000000000160e-01 1.349255000000000038e-01 1.665745000000000076e+01 1.628840000000000146e+02 2.073875000000000000e+03
1.440000000000000169e-01 1.348969999999999891e-01 1.621549999999999869e+01 1.621490000000000009e+02 2.073569999999999709e+03
1.450000000000000178e-01 1.348729999999999929e-01 1.584740000000000038e+01 1.615579999999999927e+02 2.073310000000000400e+03
1.459999999999999909e-01 1.348524999999999863e-01 1.554745000000000132e+01 1.610949999999999989e+02 2.073095000000000255e+03
1.469999999999999918e-01 1.348360000000000114e-01 1.530865000000000009e+01 1.607435000000000116e+02 2.072909999999999854e+03
1.479999999999999927e-01 1.348229999999999984e-01 1.512290000000000134e+01 1.604830000000000041e+02 2.072764999999999873e+03
1.489999999999999936e-01 1.348119999999999874e-01 1.498165000000000191e+01 1.602950000000000159e+02 2.072650000000000091e+03
1.499999999999999944e-01 1.348035000000000205e-01 1.487599999999999945e+01 1.601589999999999918e+02 2.072554999999999836e+03
1.509999999999999953e-01 1.347964999999999858e-01 1.479734999999999978e+01 1.600570000000000164e+02 2.072480000000000018e+03
1.519999999999999962e-01 1.347915000000000085e-01 1.473730000000000118e+01 1.599725000000000250e+02 2.072414999999999964e+03
1.529999999999999971e-01 1.347865000000000035e-01 1.468850000000000122e+01 1.598899999999999864e+02 2.072364999999999782e+03
1.539999999999999980e-01 1.347820000000000129e-01 1.464419999999999966e+01 1.597980000000000018e+02 2.072315000000000055e+03
1.549999999999999989e-01 1.347774999999999945e-01 1.459880000000000067e+01 1.596870000000000118e+02 2.072269999999999982e+03
1.559999999999999998e-01 1.347734999999999905e-01 1.454790000000000028e+01 1.595509999999999877e+02 2.072220000000000255e+03
1.570000000000000007e-01 1.347679999999999989e-01 1.448829999999999885e+01 1.593845000000000027e+02 2.072164999999999964e+03
1.580000000000000016e-01 1.347625000000000073e-01 1.441795000000000115e+01 1.591875000000000000e+02 2.072109999999999673e+03
1.590000000000000024e-01 1.347559999999999869e-01 1.433595000000000041e+01 1.589610000000000127e+02 2.072039999999999964e+03
