# t [s], A [cm^2], U [cm/s], P [cPa], c [cm/s]
1.000000000000000021e-03 5.077705000000000135e-01 2.812849999999998685e-03 9.724430000000000973e+01 1.423324999999999818e+03
2.000000000000000042e-03 5.077639999999999931e-01 4.548499999999999158e-04 9.723144999999999527e+01 1.423325000000000045e+03
3.000000000000000062e-03 5.077855000000000008e-01 3.887804999999999733e-02 9.726429999999999154e+01 1.423329999999999927e+03
4.000000000000000083e-03 5.078285000000000160e-01 1.164940000000000142e-01 9.735415000000000418e+01 1.423360000000000127e+03
5.000000000000000104e-03 5.078439999999999621e-01 1.477885000000000171e-01 9.739719999999999800e+01 1.423380000000000109e+03
6.000000000000000125e-03 5.078240000000000531e-01 1.132394500000000054e-01 9.734520000000000550e+01 1.423369999999999891e+03
7.000000000000000146e-03 5.077920000000000211e-01 5.408650000000000957e-02 9.722549999999999670e+01 1.423339999999999918e+03
8.000000000000000167e-03 5.077614999999999768e-01 -4.159999999999997033e-03 9.706870000000000687e+01 1.423304999999999836e+03
9.000000000000001055e-03 5.077175000000000438e-01 -9.357700000000002127e-02 9.684635000000000105e+01 1.423244999999999891e+03
1.000000000000000194e-02 5.076429999999999554e-01 -2.472300000000000053e-01 9.651394999999999413e+01 1.423159999999999854e+03
1.099999999999999936e-02 5.075330000000000119e-01 -4.753849999999999465e-01 9.604149999999999920e+01 1.423035000000000082e+03
1.200000000000000025e-02 5.073799999999999422e-01 -7.861150000000001192e-01 9.539924999999999500e+01 1.422865000000000009e+03
1.300000000000000114e-02 5.071759999999999602e-01 -1.186765000000000070e+00 9.455629999999999313e+01 1.422639999999999873e+03
1.400000000000000203e-02 5.069230000000000125e-01 -1.663374999999999826e+00 9.350405000000000655e+01 1.422345000000000027e+03
1.499999999999999944e-02 5.066365000000000451e-01 -2.169104999999999617e+00 9.227570000000000050e+01 1.422000000000000000e+03
1.600000000000000033e-02 5.063429999999999875e-01 -2.635364999999999736e+00 9.094194999999999141e+01 1.421605000000000018e+03
1.700000000000000122e-02 5.060670000000000446e-01 -2.995360000000000245e+00 8.958740000000000236e+01 1.421199999999999818e+03
1.800000000000000211e-02 5.058224999999999527e-01 -3.203889999999999905e+00 8.828425000000000011e+01 1.420784999999999854e+03
1.900000000000000300e-02 5.056119999999999504e-01 -3.245515500000000220e+00 8.707525000000001114e+01 1.420389999999999873e+03
2.000000000000000042e-02 5.054269999999999596e-01 -3.131802500000000045e+00 8.596944999999999482e+01 1.420005000000000109e+03
2.100000000000000130e-02 5.052539999999999809e-01 -2.892213499999999993e+00 8.494790000000000418e+01 1.419639999999999873e+03
2.200000000000000219e-02 5.050780000000000269e-01 -2.562962000000000184e+00 8.397460000000000946e+01 1.419275000000000091e+03
2.299999999999999961e-02 5.048880000000000035e-01 -2.177035000000000053e+00 8.300960000000000605e+01 1.418914999999999964e+03
2.400000000000000050e-02 5.046764999999999723e-01 -1.757245000000000168e+00 8.201999999999999602e+01 1.418545000000000073e+03
2.500000000000000139e-02 5.044440000000000035e-01 -1.313469999999999915e+00 8.098734999999999218e+01 1.418164999999999964e+03
2.600000000000000228e-02 5.041955000000000187e-01 -8.443650000000000322e-01 7.990970000000000084e+01 1.417769999999999982e+03
2.700000000000000316e-02 5.039369999999999683e-01 -3.424200000000001687e-01 7.879765000000000441e+01 1.417365000000000009e+03
2.800000000000000058e-02 5.036750000000000949e-01 1.995450000000000834e-01 7.766779999999999973e+01 1.416954999999999927e+03
2.900000000000000147e-02 5.034140000000000281e-01 7.825849999999996420e-01 7.653489999999999327e+01 1.416534999999999854e+03
3.000000000000000236e-02 5.031529999999999614e-01 1.398159999999999847e+00 7.540545000000000186e+01 1.416119999999999891e+03
3.099999999999999978e-02 5.028885000000000716e-01 2.027470000000000105e+00 7.427395000000001346e+01 1.415700000000000045e+03
3.200000000000000067e-02 5.026129999999999765e-01 2.643485000000000085e+00 7.312344999999999118e+01 1.415275000000000091e+03
3.300000000000000155e-02 5.023174999999999724e-01 3.214925000000000033e+00 7.192799999999999727e+01 1.414840000000000146e+03
3.400000000000000244e-02 5.019940000000000513e-01 3.711174999999999891e+00 7.065819999999999368e+01 1.414384999999999991e+03
3.500000000000000333e-02 5.016369999999999996e-01 4.107130000000000614e+00 6.928740000000000521e+01 1.413904999999999973e+03
3.600000000000000422e-02 5.012444999999999817e-01 4.387340000000000018e+00 6.779819999999999425e+01 1.413394999999999982e+03
3.700000000000000511e-02 5.008185000000000553e-01 4.548154999999999504e+00 6.618649999999999523e+01 1.412849999999999909e+03
3.799999999999999906e-02 5.003655000000000186e-01 4.598250000000000171e+00 6.446455000000000268e+01 1.412275000000000091e+03
3.899999999999999994e-02 4.998964999999999659e-01 4.556430000000000646e+00 6.266030000000000655e+01 1.411674999999999955e+03
4.000000000000000083e-02 4.994245000000000489e-01 4.449114999999999931e+00 6.081470000000000198e+01 1.411069999999999936e+03
4.100000000000000172e-02 4.989635000000000042e-01 4.305925000000000225e+00 5.897729999999999961e+01 1.410454999999999927e+03
4.200000000000000261e-02 4.985244999999999815e-01 4.156394999999999840e+00 5.720099999999999341e+01 1.409860000000000127e+03
4.300000000000000350e-02 4.981209999999999805e-01 4.027129999999999654e+00 5.553719999999999857e+01 1.409295000000000073e+03
4.400000000000000439e-02 4.977610000000000090e-01 3.939939999999999554e+00 5.403204999999999814e+01 1.408769999999999982e+03
4.499999999999999833e-02 4.974525000000000197e-01 3.911245000000000083e+00 5.272370000000000090e+01 1.408305000000000064e+03
4.599999999999999922e-02 4.971990000000000021e-01 3.952650000000000219e+00 5.164145000000000607e+01 1.407905000000000200e+03
4.700000000000000011e-02 4.970029999999999726e-01 4.071655999999999942e+00 5.080570000000000164e+01 1.407574999999999818e+03
4.800000000000000100e-02 4.968670000000000586e-01 4.273107500000000059e+00 5.022905000000000086e+01 1.407324999999999818e+03
4.900000000000000189e-02 4.967920000000000114e-01 4.560375000000000512e+00 4.991774999999999807e+01 1.407159999999999854e+03
5.000000000000000278e-02 4.967759999999999954e-01 4.936294999999999433e+00 4.987349999999999994e+01 1.407079999999999927e+03
5.100000000000000366e-02 4.968209999999999571e-01 5.403679999999999595e+00 5.009475000000000477e+01 1.407085000000000036e+03
5.200000000000000455e-02 4.969249999999999501e-01 5.965350000000000819e+00 5.057775000000000176e+01 1.407179999999999836e+03
5.300000000000000544e-02 4.970884999999999887e-01 6.623759999999999870e+00 5.131705000000000183e+01 1.407355000000000018e+03
5.399999999999999939e-02 4.973095000000000154e-01 7.380359999999999587e+00 5.230539999999999878e+01 1.407619999999999891e+03
5.500000000000000028e-02 4.975864999999999871e-01 8.234835000000000349e+00 5.353324999999999534e+01 1.407960000000000036e+03
5.600000000000000117e-02 4.979159999999999697e-01 9.184599999999999653e+00 5.498860000000000525e+01 1.408375000000000000e+03
5.700000000000000205e-02 4.982940000000000147e-01 1.022425499999999943e+01 5.665635000000000332e+01 1.408865000000000009e+03
5.800000000000000294e-02 4.987170000000000214e-01 1.134568499999999958e+01 5.851800000000000068e+01 1.409424999999999955e+03
5.900000000000000383e-02 4.991789999999999838e-01 1.253809499999999844e+01 6.055210000000000292e+01 1.410045000000000073e+03
6.000000000000000472e-02 4.996730000000000338e-01 1.378861500000000007e+01 6.273434999999999206e+01 1.410724999999999909e+03
6.099999999999999867e-02 5.001940000000000275e-01 1.508302000000000120e+01 6.503870000000000573e+01 1.411450000000000045e+03
6.199999999999999956e-02 5.007350000000000412e-01 1.640633499999999856e+01 6.743819999999999482e+01 1.412210000000000036e+03
6.300000000000000044e-02 5.012900000000000134e-01 1.774384999999999835e+01 6.990595000000000425e+01 1.413000000000000000e+03
6.400000000000000133e-02 5.018529999999999935e-01 1.908164999999999978e+01 7.241649999999999920e+01 1.413815000000000055e+03
6.500000000000000222e-02 5.024195000000000189e-01 2.040719999999999956e+01 7.494674999999999443e+01 1.414644999999999982e+03
6.600000000000000311e-02 5.029844999999999455e-01 2.170994999999999919e+01 7.747655000000000314e+01 1.415484999999999900e+03
6.700000000000000400e-02 5.035465000000000080e-01 2.298120000000000118e+01 7.998940000000000339e+01 1.416329999999999927e+03
6.800000000000000488e-02 5.041014999999999802e-01 2.421430000000000149e+01 8.247265000000000157e+01 1.417170000000000073e+03
6.900000000000000577e-02 5.046494999999999731e-01 2.540469999999999828e+01 8.491765000000000896e+01 1.418000000000000000e+03
7.000000000000000666e-02 5.051889999999999992e-01 2.654950000000000188e+01 8.731909999999999172e+01 1.418829999999999927e+03
7.100000000000000755e-02 5.057205000000000172e-01 2.764719999999999800e+01 8.967510000000000048e+01 1.419640000000000100e+03
7.200000000000000844e-02 5.062439999999999163e-01 2.869749999999999801e+01 9.198599999999999000e+01 1.420445000000000164e+03
7.300000000000000933e-02 5.067599999999999882e-01 2.970074999999999932e+01 9.425504999999999711e+01 1.421240000000000009e+03
7.399999999999999634e-02 5.072699999999999987e-01 3.065784999999999982e+01 9.648439999999999372e+01 1.422025000000000091e+03
7.499999999999999722e-02 5.077745000000000175e-01 3.156974999999999909e+01 9.867955000000000609e+01 1.422795000000000073e+03
7.599999999999999811e-02 5.082735000000000447e-01 3.243739999999999668e+01 1.008435499999999934e+02 1.423559999999999945e+03
7.699999999999999900e-02 5.087690000000000268e-01 3.326135000000000019e+01 1.029802999999999997e+02 1.424315000000000055e+03
7.799999999999999989e-02 5.092594999999999761e-01 3.404175000000000040e+01 1.050913500000000056e+02 1.425069999999999936e+03
7.900000000000000078e-02 5.097454999999999625e-01 3.477805000000000035e+01 1.071775000000000091e+02 1.425809999999999945e+03
8.000000000000000167e-02 5.102269999999999861e-01 3.546940000000000026e+01 1.092374999999999972e+02 1.426545000000000073e+03
8.100000000000000255e-02 5.107019999999999893e-01 3.611395000000000266e+01 1.112685000000000031e+02 1.427269999999999982e+03
8.200000000000000344e-02 5.111695000000000544e-01 3.670980000000000132e+01 1.132655000000000030e+02 1.427980000000000018e+03
8.300000000000000433e-02 5.116279999999999717e-01 3.725435000000000230e+01 1.152235000000000014e+02 1.428684999999999945e+03
8.400000000000000522e-02 5.120755000000000168e-01 3.774484999999999957e+01 1.171334999999999980e+02 1.429375000000000000e+03
8.500000000000000611e-02 5.125100000000000211e-01 3.817849999999999966e+01 1.189890000000000043e+02 1.430045000000000073e+03
8.600000000000000699e-02 5.129295000000000382e-01 3.855240000000000578e+01 1.207800000000000011e+02 1.430695000000000164e+03
8.700000000000000788e-02 5.133320000000000105e-01 3.886405000000000598e+01 1.224975000000000023e+02 1.431324999999999818e+03
8.800000000000000877e-02 5.137154999999999916e-01 3.911119999999999663e+01 1.241340000000000003e+02 1.431929999999999836e+03
8.899999999999999578e-02 5.140784999999999938e-01 3.929209999999999781e+01 1.256804999999999950e+02 1.432505000000000109e+03
8.999999999999999667e-02 5.144195000000000295e-01 3.940545000000000186e+01 1.271305000000000121e+02 1.433050000000000182e+03
9.099999999999999756e-02 5.147375000000000700e-01 3.945059999999999434e+01 1.284780000000000086e+02 1.433559999999999945e+03
9.199999999999999845e-02 5.150304999999999467e-01 3.942754999999999654e+01 1.297169999999999845e+02 1.434039999999999964e+03
9.299999999999999933e-02 5.152984999999999927e-01 3.933705000000000496e+01 1.308460000000000036e+02 1.434474999999999909e+03
9.400000000000000022e-02 5.155410000000000270e-01 3.918010000000000304e+01 1.318619999999999948e+02 1.434880000000000109e+03
9.500000000000000111e-02 5.157579999999999387e-01 3.895889999999999986e+01 1.327640000000000100e+02 1.435240000000000009e+03
9.600000000000000200e-02 5.159499999999999087e-01 3.867589999999999861e+01 1.335545000000000186e+02 1.435565000000000055e+03
9.700000000000000289e-02 5.161175000000000068e-01 3.833429999999999893e+01 1.342344999999999970e+02 1.435849999999999909e+03
9.800000000000000377e-02 5.162609999999999699e-01 3.793779999999999575e+01 1.348070000000000164e+02 1.436099999999999909e+03
9.900000000000000466e-02 5.163809999999999789e-01 3.749065000000000225e+01 1.352779999999999916e+02 1.436315000000000055e+03
1.000000000000000056e-01 5.164800000000000502e-01 3.699774999999999636e+01 1.356525000000000034e+02 1.436494999999999891e+03
1.010000000000000064e-01 5.165589999999999904e-01 3.646419999999999817e+01 1.359375000000000000e+02 1.436639999999999873e+03
1.020000000000000073e-01 5.166195000000000093e-01 3.589560000000000173e+01 1.361399999999999864e+02 1.436755000000000109e+03
1.030000000000000082e-01 5.166634999999999422e-01 3.529760000000000275e+01 1.362690000000000055e+02 1.436839999999999918e+03
1.040000000000000091e-01 5.166934999999999167e-01 3.467620000000000147e+01 1.363324999999999818e+02 1.436900000000000091e+03
1.050000000000000100e-01 5.167100000000000026e-01 3.403714999999999691e+01 1.363394999999999868e+02 1.436940000000000055e+03
1.059999999999999970e-01 5.167165000000000230e-01 3.338624999999999687e+01 1.362984999999999900e+02 1.436954999999999927e+03
1.069999999999999979e-01 5.167135000000000478e-01 3.272885000000000133e+01 1.362175000000000011e+02 1.436960000000000036e+03
1.079999999999999988e-01 5.167034999999999823e-01 3.206994999999999862e+01 1.361055000000000064e+02 1.436945000000000164e+03
1.089999999999999997e-01 5.166874999999999662e-01 3.141394999999999982e+01 1.359689999999999941e+02 1.436920000000000073e+03
1.100000000000000006e-01 5.166669999999999874e-01 3.076465000000000316e+01 1.358140000000000214e+02 1.436884999999999991e+03
1.110000000000000014e-01 5.166435000000000333e-01 3.012494999999999834e+01 1.356460000000000150e+02 1.436840000000000146e+03
1.120000000000000023e-01 5.166169999999999929e-01 2.949704999999999799e+01 1.354694999999999823e+02 1.436789999999999964e+03
1.130000000000000032e-01 5.165885000000000060e-01 2.888224999999999909e+01 1.352864999999999895e+02 1.436740000000000009e+03
1.140000000000000041e-01 5.165575000000000028e-01 2.828109999999999857e+01 1.350980000000000132e+02 1.436680000000000064e+03
1.150000000000000050e-01 5.165245000000000530e-01 2.769344999999999857e+01 1.349050000000000011e+02 1.436619999999999891e+03
1.160000000000000059e-01 5.164889999999999759e-01 2.711824999999999974e+01 1.347065000000000055e+02 1.436555000000000064e+03
1.170000000000000068e-01 5.164509999999999934e-01 2.655400000000000205e+01 1.345004999999999882e+02 1.436485000000000127e+03
1.180000000000000077e-01 5.164085000000000480e-01 2.599885000000000090e+01 1.342835000000000036e+02 1.436414999999999964e+03
1.190000000000000085e-01 5.163615000000000288e-01 2.545045000000000002e+01 1.340534999999999854e+02 1.436339999999999918e+03
1.200000000000000094e-01 5.163100000000000467e-01 2.490634999999999977e+01 1.338059999999999832e+02 1.436255000000000109e+03
1.209999999999999964e-01 5.162514999999999743e-01 2.436390000000000100e+01 1.335380000000000109e+02 1.436159999999999854e+03
1.219999999999999973e-01 5.161869999999999514e-01 2.382079999999999842e+01 1.332450000000000045e+02 1.436059999999999945e+03
1.229999999999999982e-01 5.161145000000000316e-01 2.327465000000000117e+01 1.329239999999999782e+02 1.435954999999999927e+03
1.239999999999999991e-01 5.160344999999999516e-01 2.272339999999999804e+01 1.325729999999999791e+02 1.435840000000000146e+03
1.250000000000000000e-01 5.159460000000000157e-01 2.216544999999999987e+01 1.321890000000000214e+02 1.435710000000000036e+03
1.260000000000000009e-01 5.158494999999999608e-01 2.159949999999999903e+01 1.317710000000000150e+02 1.435569999999999936e+03
1.270000000000000018e-01 5.157439999999999802e-01 2.102495000000000047e+01 1.313185000000000002e+02 1.435414999999999964e+03
1.280000000000000027e-01 5.156304999999999916e-01 2.044144999999999968e+01 1.308329999999999984e+02 1.435255000000000109e+03
1.290000000000000036e-01 5.155100000000000238e-01 1.984939999999999927e+01 1.303139999999999930e+02 1.435085000000000036e+03
1.300000000000000044e-01 5.153814999999999369e-01 1.924960000000000093e+01 1.297655000000000030e+02 1.434904999999999973e+03
1.310000000000000053e-01 5.152474999999999694e-01 1.864349999999999952e+01 1.291895000000000095e+02 1.434714999999999918e+03
1.320000000000000062e-01 5.151084999999999692e-01 1.803300000000000125e+01 1.285910000000000082e+02 1.434510000000000218e+03
1.330000000000000071e-01 5.149654999999999649e-01 1.742040000000000077e+01 1.279745000000000061e+02 1.434300000000000182e+03
1.340000000000000080e-01 5.148200000000000554e-01 1.680839999999999890e+01 1.273460000000000036e+02 1.434095000000000027e+03
1.350000000000000089e-01 5.146739999999999648e-01 1.620009999999999906e+01 1.267104999999999961e+02 1.433875000000000000e+03
1.360000000000000098e-01 5.145275000000000265e-01 1.559864999999999924e+01 1.260739999999999981e+02 1.433659999999999854e+03
1.370000000000000107e-01 5.143830000000000346e-01 1.500764999999999993e+01 1.254435000000000002e+02 1.433444999999999936e+03
1.380000000000000115e-01 5.142419999999999769e-01 1.443041499999999999e+01 1.248255000000000052e+02 1.433230000000000018e+03
1.390000000000000124e-01 5.141054999999999930e-01 1.387042500000000089e+01 1.242255000000000109e+02 1.433019999999999982e+03
1.400000000000000133e-01 5.139745000000000008e-01 1.333094499999999982e+01 1.236505000000000081e+02 1.432819999999999936e+03
1.410000000000000142e-01 5.138510000000000577e-01 1.281498500000000007e+01 1.231045000000000016e+02 1.432625000000000000e+03
1.420000000000000151e-01 5.137365000000000403e-01 1.232520500000000041e+01 1.225930000000000035e+02 1.432440000000000055e+03
1.430000000000000160e-01 5.136300000000000310e-01 1.186400499999999880e+01 1.221195000000000022e+02 1.432264999999999873e+03
1.440000000000000169e-01 5.135340000000000460e-01 1.143320499999999917e+01 1.216875000000000000e+02 1.432105000000000018e+03
1.450000000000000178e-01 5.134475000000000566e-01 1.103407999999999944e+01 1.213000000000000114e+02 1.431960000000000036e+03
1.459999999999999909e-01 5.133710000000000218e-01 1.066751499999999986e+01 1.209565000000000055e+02 1.431824999999999818e+03
1.469999999999999918e-01 5.133054999999999701e-01 1.033384999999999998e+01 1.206585000000000036e+02 1.431704999999999927e+03
1.479999999999999927e-01 5.132499999999999840e-01 1.003270000000000017e+01 1.204044999999999987e+02 1.431605000000000018e+03
1.489999999999999936e-01 5.132029999999999648e-01 9.763494999999998925e+00 1.201945000000000050e+02 1.431519999999999982e+03
1.499999999999999944e-01 5.131660000000000110e-01 9.524985000000000923e+00 1.200250000000000057e+02 1.431440000000000055e+03
1.509999999999999953e-01 5.131369999999999543e-01 9.315575000000000827e+00 1.198934999999999889e+02 1.431375000000000000e+03
1.519999999999999962e-01 5.131155000000000577e-01 9.133440000000000225e+00 1.197969999999999970e+02 1.431329999999999927e+03
1.529999999999999971e-01 5.131010000000000293e-01 8.976435000000000386e+00 1.197305000000000064e+02 1.431284999999999854e+03
1.539999999999999980e-01 5.130919999999999925e-01 8.842285000000000394e+00 1.196899999999999977e+02 1.431259999999999991e+03
1.549999999999999989e-01 5.130869999999999598e-01 8.728609999999999758e+00 1.196730000000000018e+02 1.431239999999999782e+03
1.559999999999999998e-01 5.130865000000000009e-01 8.632964999999998668e+00 1.196735000000000042e+02 1.431224999999999909e+03
1.570000000000000007e-01 5.130885000000000584e-01 8.553050000000000708e+00 1.196885000000000048e+02 1.431215000000000146e+03
1.580000000000000016e-01 5.130924999999999514e-01 8.486589999999999634e+00 1.197134999999999962e+02 1.431215000000000146e+03
1.590000000000000024e-01 5.130980000000000540e-01 8.431480000000000530e+00 1.197464999999999975e+02 1.431215000000000146e+03
