# t [s], A [cm^2], U [cm/s], P [cPa], c [cm/s]
1.000000000000000021e-03 4.988839999999999941e-01 2.765700000000002878e-03 9.308214999999999861e+01 1.546259999999999991e+03
2.000000000000000042e-03 4.988779999999999881e-01 9.940299999999999137e-04 9.306324999999999648e+01 1.546250000000000000e+03
3.000000000000000062e-03 4.989175000000000137e-01 8.498785000000000367e-02 9.314660000000000650e+01 1.546275000000000091e+03
4.000000000000000083e-03 4.989560000000000106e-01 1.716701500000000213e-01 9.325454999999999472e+01 1.546304999999999836e+03
5.000000000000000104e-03 4.989460000000000006e-01 1.601356499999999905e-01 9.323319999999999652e+01 1.546304999999999836e+03
6.000000000000000125e-03 4.989064999999999750e-01 8.103949999999998655e-02 9.307679999999999154e+01 1.546269999999999982e+03
7.000000000000000146e-03 4.988669999999999494e-01 -3.062500000000023537e-03 9.285290000000000532e+01 1.546215000000000146e+03
8.000000000000000167e-03 4.988110000000000044e-01 -1.305869999999999531e-01 9.252879999999998972e+01 1.546139999999999873e+03
9.000000000000001055e-03 4.987139999999999906e-01 -3.564150000000000373e-01 9.202639999999999532e+01 1.546014999999999873e+03
1.000000000000000194e-02 4.985694999999999988e-01 -6.927700000000001079e-01 9.129914999999999736e+01 1.545835000000000036e+03
1.099999999999999936e-02 4.983689999999999509e-01 -1.151015000000000121e+00 9.030100000000000193e+01 1.545585000000000036e+03
1.200000000000000025e-02 4.981010000000000160e-01 -1.739395000000000024e+00 8.898724999999998886e+01 1.545244999999999891e+03
1.300000000000000114e-02 4.977774999999999839e-01 -2.419830000000000148e+00 8.736929999999999552e+01 1.544820000000000164e+03
1.400000000000000203e-02 4.974294999999999689e-01 -3.096070000000000100e+00 8.554650000000000887e+01 1.544324999999999818e+03
1.499999999999999944e-02 4.971005000000000007e-01 -3.649920000000000275e+00 8.367609999999999104e+01 1.543799999999999955e+03
1.600000000000000033e-02 4.968194999999999695e-01 -3.990161499999999695e+00 8.191124999999999545e+01 1.543279999999999973e+03
1.700000000000000122e-02 4.965954999999999675e-01 -4.080709199999999370e+00 8.034959999999999525e+01 1.542795000000000073e+03
1.800000000000000211e-02 4.964179999999999704e-01 -3.940979500000000080e+00 7.901380000000000337e+01 1.542349999999999909e+03
1.900000000000000300e-02 4.962620000000000364e-01 -3.627792499999999976e+00 7.786100000000000421e+01 1.541950000000000045e+03
2.000000000000000042e-02 4.961050000000000182e-01 -3.210585000000000022e+00 7.680975000000000819e+01 1.541565000000000055e+03
2.100000000000000130e-02 4.959270000000000067e-01 -2.748667499999999819e+00 7.577230000000000132e+01 1.541190000000000055e+03
2.200000000000000219e-02 4.957194999999999796e-01 -2.276526000000000050e+00 7.468314999999999770e+01 1.540804999999999836e+03
2.299999999999999961e-02 4.954855000000000231e-01 -1.800475000000000048e+00 7.351364999999999839e+01 1.540400000000000091e+03
2.400000000000000050e-02 4.952354999999999952e-01 -1.306489999999999929e+00 7.227160000000000650e+01 1.539980000000000018e+03
2.500000000000000139e-02 4.949810000000000043e-01 -7.747100000000000097e-01 7.098675000000000068e+01 1.539545000000000073e+03
2.600000000000000228e-02 4.947285000000000155e-01 -1.943049999999999500e-01 6.969075000000000841e+01 1.539110000000000127e+03
2.700000000000000316e-02 4.944800000000000306e-01 4.267199999999999882e-01 6.839910000000000423e+01 1.538670000000000073e+03
2.800000000000000058e-02 4.942270000000000274e-01 1.058974999999999778e+00 6.710125000000000739e+01 1.538224999999999909e+03
2.900000000000000147e-02 4.939574999999999938e-01 1.656069999999999931e+00 6.575950000000000273e+01 1.537769999999999982e+03
3.000000000000000236e-02 4.936565000000000536e-01 2.163814999999999600e+00 6.431714999999999804e+01 1.537295000000000073e+03
3.099999999999999978e-02 4.933100000000000263e-01 2.531629999999999825e+00 6.271245000000000402e+01 1.536769999999999982e+03
3.200000000000000067e-02 4.929100000000000148e-01 2.723419999999999508e+00 6.089470000000000027e+01 1.536199999999999818e+03
3.300000000000000155e-02 4.924555000000000460e-01 2.725439999999999863e+00 5.883920000000000528e+01 1.535570000000000164e+03
3.400000000000000244e-02 4.919560000000000599e-01 2.549234999999999918e+00 5.655644999999999811e+01 1.534880000000000109e+03
3.500000000000000333e-02 4.914260000000000295e-01 2.229580000000000339e+00 5.409449999999999648e+01 1.534144999999999982e+03
3.600000000000000422e-02 4.908865000000000034e-01 1.817580000000000418e+00 5.153334999999999866e+01 1.533375000000000000e+03
3.700000000000000511e-02 4.903604999999999769e-01 1.372005000000000141e+00 4.897435000000000116e+01 1.532599999999999909e+03
3.799999999999999906e-02 4.898700000000000276e-01 9.508200000000002206e-01 4.652689999999999770e+01 1.531849999999999909e+03
3.899999999999999994e-02 4.894334999999999658e-01 6.042399999999998883e-01 4.429545000000000243e+01 1.531150000000000091e+03
4.000000000000000083e-02 4.890660000000000007e-01 3.712450000000000472e-01 4.237049999999999983e+01 1.530519999999999982e+03
4.100000000000000172e-02 4.887765000000000026e-01 2.784499999999998643e-01 4.082184999999999775e+01 1.529990000000000009e+03
4.200000000000000261e-02 4.885705000000000187e-01 3.415050000000001695e-01 3.969700000000000273e+01 1.529579999999999927e+03
4.300000000000000350e-02 4.884494999999999809e-01 5.676749999999999297e-01 3.902240000000000464e+01 1.529289999999999964e+03
4.400000000000000439e-02 4.884144999999999737e-01 9.589885000000000215e-01 3.880695000000000050e+01 1.529130000000000109e+03
4.499999999999999833e-02 4.884629999999999805e-01 1.514895000000000103e+00 3.904659999999999798e+01 1.529110000000000127e+03
4.599999999999999922e-02 4.885935000000000139e-01 2.234045500000000128e+00 3.972860000000000014e+01 1.529220000000000027e+03
4.700000000000000011e-02 4.888029999999999875e-01 3.114858799999999928e+00 4.083500000000000085e+01 1.529465000000000146e+03
4.800000000000000100e-02 4.890875000000000083e-01 4.155019499999999866e+00 4.234435000000000571e+01 1.529835000000000036e+03
4.900000000000000189e-02 4.894435000000000313e-01 5.350322144999999807e+00 4.423219999999999885e+01 1.530315000000000055e+03
5.000000000000000278e-02 4.898664999999999825e-01 6.693211999999999939e+00 4.647055000000000291e+01 1.530920000000000073e+03
5.100000000000000366e-02 4.903499999999999526e-01 8.171910000000000451e+00 4.902689999999999770e+01 1.531619999999999891e+03
5.200000000000000455e-02 4.908859999999999890e-01 9.769845000000000113e+00 5.186384999999999934e+01 1.532414999999999964e+03
5.300000000000000544e-02 4.914660000000000140e-01 1.146583500000000022e+01 5.493880000000000052e+01 1.533289999999999964e+03
5.399999999999999939e-02 4.920809999999999906e-01 1.323525500000000044e+01 5.820510000000000161e+01 1.534240000000000009e+03
5.500000000000000028e-02 4.927205000000000057e-01 1.505142999999999986e+01 6.161360000000000525e+01 1.535240000000000009e+03
5.600000000000000117e-02 4.933750000000000080e-01 1.688730500000000134e+01 6.511490000000000578e+01 1.536279999999999973e+03
5.700000000000000205e-02 4.940360000000000307e-01 1.871705000000000041e+01 6.866169999999999618e+01 1.537345000000000027e+03
5.800000000000000294e-02 4.946955000000000102e-01 2.051760000000000161e+01 7.221155000000000257e+01 1.538430000000000064e+03
5.900000000000000383e-02 4.953475000000000517e-01 2.226954999999999885e+01 7.572825000000000273e+01 1.539514999999999873e+03
6.000000000000000472e-02 4.959879999999999844e-01 2.395805000000000007e+01 7.918389999999999418e+01 1.540595000000000027e+03
6.099999999999999867e-02 4.966144999999999587e-01 2.557269999999999754e+01 8.255895000000001005e+01 1.541664999999999964e+03
6.199999999999999956e-02 4.972254999999999869e-01 2.710725000000000051e+01 8.584279999999999688e+01 1.542710000000000036e+03
6.300000000000000044e-02 4.978209999999999580e-01 2.855949999999999989e+01 8.903260000000000218e+01 1.543735000000000127e+03
6.400000000000000133e-02 4.984030000000000404e-01 2.993035000000000068e+01 9.213264999999999816e+01 1.544744999999999891e+03
6.500000000000000222e-02 4.989724999999999855e-01 3.122299999999999898e+01 9.515205000000000268e+01 1.545730000000000018e+03
6.600000000000000311e-02 4.995339999999999780e-01 3.244234999999999758e+01 9.810419999999999163e+01 1.546694999999999936e+03
6.700000000000000400e-02 5.000890000000000057e-01 3.359414999999999907e+01 1.010043000000000006e+02 1.547650000000000091e+03
6.800000000000000488e-02 5.006399999999999739e-01 3.468430000000000035e+01 1.038670999999999935e+02 1.548590000000000146e+03
6.900000000000000577e-02 5.011900000000000244e-01 3.571829999999999927e+01 1.067070999999999970e+02 1.549525000000000091e+03
7.000000000000000666e-02 5.017395000000000049e-01 3.670054999999999978e+01 1.095349999999999966e+02 1.550460000000000036e+03
7.100000000000000755e-02 5.022904999999999731e-01 3.763405000000000200e+01 1.123584999999999923e+02 1.551389999999999873e+03
7.200000000000000844e-02 5.028430000000000399e-01 3.852024999999999721e+01 1.151804999999999950e+02 1.552320000000000164e+03
7.300000000000000933e-02 5.033944999999999670e-01 3.935859999999999559e+01 1.179989999999999952e+02 1.553240000000000009e+03
7.399999999999999634e-02 5.039445000000000174e-01 4.014685000000000059e+01 1.208064999999999998e+02 1.554170000000000073e+03
7.499999999999999722e-02 5.044904999999999529e-01 4.088110000000000355e+01 1.235919999999999987e+02 1.555085000000000036e+03
7.599999999999999811e-02 5.050280000000000324e-01 4.155624999999999858e+01 1.263389999999999986e+02 1.555994999999999891e+03
7.699999999999999900e-02 5.055545000000000178e-01 4.216610000000000014e+01 1.290300000000000011e+02 1.556884999999999991e+03
7.799999999999999989e-02 5.060655000000000570e-01 4.270409999999999684e+01 1.316440000000000055e+02 1.557759999999999991e+03
7.900000000000000078e-02 5.065564999999999651e-01 4.316365000000000407e+01 1.341594999999999800e+02 1.558610000000000127e+03
8.000000000000000167e-02 5.070244999999999891e-01 4.353860000000000241e+01 1.365560000000000116e+02 1.559414999999999964e+03
8.100000000000000255e-02 5.074655000000000138e-01 4.382345000000000113e+01 1.388140000000000214e+02 1.560190000000000055e+03
8.200000000000000344e-02 5.078765000000000640e-01 4.401399999999999579e+01 1.409164999999999850e+02 1.560914999999999964e+03
8.300000000000000433e-02 5.082545000000000535e-01 4.410725000000000051e+01 1.428489999999999895e+02 1.561590000000000146e+03
8.400000000000000522e-02 5.085984999999999534e-01 4.410174999999999557e+01 1.446009999999999991e+02 1.562215000000000146e+03
8.500000000000000611e-02 5.089079999999999160e-01 4.399779999999999802e+01 1.461659999999999968e+02 1.562779999999999973e+03
8.600000000000000699e-02 5.091809999999999947e-01 4.379720000000000368e+01 1.475409999999999968e+02 1.563284999999999854e+03
8.700000000000000788e-02 5.094189999999999552e-01 4.350345000000000084e+01 1.487270000000000039e+02 1.563735000000000127e+03
8.800000000000000877e-02 5.096224999999999783e-01 4.312180000000000035e+01 1.497300000000000182e+02 1.564125000000000000e+03
8.899999999999999578e-02 5.097945000000000393e-01 4.265869999999999607e+01 1.505570000000000164e+02 1.564454999999999927e+03
8.999999999999999667e-02 5.099350000000000271e-01 4.212210000000000321e+01 1.512205000000000155e+02 1.564735000000000127e+03
9.099999999999999756e-02 5.100485000000000158e-01 4.152094999999999914e+01 1.517340000000000089e+02 1.564960000000000036e+03
9.199999999999999845e-02 5.101369999999999516e-01 4.086514999999999986e+01 1.521134999999999877e+02 1.565139999999999873e+03
9.299999999999999933e-02 5.102044999999999497e-01 4.016499999999999915e+01 1.523770000000000095e+02 1.565279999999999973e+03
9.400000000000000022e-02 5.102535000000000265e-01 3.943125000000000568e+01 1.525430000000000064e+02 1.565384999999999991e+03
9.500000000000000111e-02 5.102880000000000749e-01 3.867445000000000022e+01 1.526290000000000191e+02 1.565460000000000036e+03
9.600000000000000200e-02 5.103115000000000290e-01 3.790465000000000373e+01 1.526539999999999964e+02 1.565505000000000109e+03
9.700000000000000289e-02 5.103265000000000162e-01 3.713134999999999764e+01 1.526345000000000027e+02 1.565534999999999854e+03
9.800000000000000377e-02 5.103355000000000530e-01 3.636289999999999623e+01 1.525855000000000246e+02 1.565545000000000073e+03
9.900000000000000466e-02 5.103410000000000446e-01 3.560629999999999740e+01 1.525204999999999984e+02 1.565549999999999955e+03
1.000000000000000056e-01 5.103450000000000486e-01 3.486695000000000277e+01 1.524490000000000123e+02 1.565545000000000073e+03
1.010000000000000064e-01 5.103480000000000238e-01 3.414880000000000138e+01 1.523790000000000191e+02 1.565534999999999854e+03
1.020000000000000073e-01 5.103515000000000690e-01 3.345405000000000229e+01 1.523139999999999930e+02 1.565525000000000091e+03
1.030000000000000082e-01 5.103550000000000031e-01 3.278310000000000457e+01 1.522565000000000168e+02 1.565509999999999991e+03
1.040000000000000091e-01 5.103575000000000195e-01 3.213499999999999801e+01 1.522034999999999911e+02 1.565494999999999891e+03
1.050000000000000100e-01 5.103590000000000071e-01 3.150734999999999886e+01 1.521525000000000034e+02 1.565480000000000018e+03
1.059999999999999970e-01 5.103579999999999783e-01 3.089670000000000272e+01 1.520964999999999918e+02 1.565465000000000146e+03
1.069999999999999979e-01 5.103530000000000566e-01 3.029875000000000185e+01 1.520285000000000082e+02 1.565444999999999936e+03
1.079999999999999988e-01 5.103419999999999623e-01 2.970880000000000365e+01 1.519395000000000095e+02 1.565414999999999964e+03
1.089999999999999997e-01 5.103239999999999998e-01 2.912160000000000082e+01 1.518209999999999980e+02 1.565380000000000109e+03
1.100000000000000006e-01 5.102970000000000006e-01 2.853229999999999933e+01 1.516634999999999991e+02 1.565329999999999927e+03
1.110000000000000014e-01 5.102600000000000469e-01 2.793629999999999924e+01 1.514594999999999914e+02 1.565269999999999982e+03
1.120000000000000023e-01 5.102115000000000400e-01 2.732945000000000135e+01 1.512015000000000100e+02 1.565194999999999936e+03
1.130000000000000032e-01 5.101510000000000211e-01 2.670844999999999914e+01 1.508849999999999909e+02 1.565099999999999909e+03
1.140000000000000041e-01 5.100774999999999615e-01 2.607090000000000174e+01 1.505055000000000121e+02 1.564990000000000009e+03
1.150000000000000050e-01 5.099920000000000009e-01 2.541544999999999987e+01 1.500625000000000000e+02 1.564860000000000127e+03
1.160000000000000059e-01 5.098934999999999995e-01 2.474190000000000111e+01 1.495554999999999950e+02 1.564704999999999927e+03
1.170000000000000068e-01 5.097840000000000149e-01 2.405114999999999981e+01 1.489884999999999877e+02 1.564539999999999964e+03
1.180000000000000077e-01 5.096640000000000059e-01 2.334515000000000029e+01 1.483659999999999854e+02 1.564349999999999909e+03
1.190000000000000085e-01 5.095345000000000013e-01 2.262709999999999866e+01 1.476949999999999932e+02 1.564150000000000091e+03
1.200000000000000094e-01 5.093984999999999763e-01 2.190090000000000003e+01 1.469834999999999923e+02 1.563934999999999945e+03
1.209999999999999964e-01 5.092569999999999597e-01 2.117130000000000223e+01 1.462429999999999950e+02 1.563704999999999927e+03
1.219999999999999973e-01 5.091125000000000789e-01 2.044385000000000119e+01 1.454825000000000159e+02 1.563470000000000027e+03
1.229999999999999982e-01 5.089675000000000171e-01 1.972429999999999950e+01 1.447150000000000034e+02 1.563230000000000018e+03
1.239999999999999991e-01 5.088240000000000540e-01 1.901865000000000094e+01 1.439524999999999864e+02 1.562990000000000009e+03
1.250000000000000000e-01 5.086840000000000250e-01 1.833295000000000030e+01 1.432065000000000055e+02 1.562755000000000109e+03
1.260000000000000009e-01 5.085500000000000576e-01 1.767314999999999969e+01 1.424884999999999877e+02 1.562525000000000091e+03
1.270000000000000018e-01 5.084239999999999871e-01 1.704435000000000144e+01 1.418079999999999927e+02 1.562300000000000182e+03
1.280000000000000027e-01 5.083070000000000643e-01 1.645149999999999935e+01 1.411750000000000114e+02 1.562089999999999918e+03
1.290000000000000036e-01 5.082010000000000138e-01 1.589845000000000041e+01 1.405955000000000155e+02 1.561894999999999982e+03
1.300000000000000044e-01 5.081059999999999466e-01 1.538820000000000121e+01 1.400765000000000100e+02 1.561720000000000027e+03
1.310000000000000053e-01 5.080234999999999612e-01 1.492295000000000016e+01 1.396204999999999927e+02 1.561555000000000064e+03
1.320000000000000062e-01 5.079529999999999879e-01 1.450359999999999872e+01 1.392305000000000064e+02 1.561414999999999964e+03
1.330000000000000071e-01 5.078940000000000676e-01 1.413020000000000209e+01 1.389044999999999845e+02 1.561289999999999964e+03
1.340000000000000080e-01 5.078475000000000072e-01 1.380175000000000018e+01 1.386415000000000077e+02 1.561184999999999945e+03
1.350000000000000089e-01 5.078110000000000124e-01 1.351645000000000074e+01 1.384375000000000000e+02 1.561105000000000018e+03
1.360000000000000098e-01 5.077844999999999720e-01 1.327159999999999940e+01 1.382874999999999943e+02 1.561029999999999973e+03
1.370000000000000107e-01 5.077665000000000095e-01 1.306400000000000006e+01 1.381845000000000141e+02 1.560984999999999900e+03
1.380000000000000115e-01 5.077549999999999564e-01 1.288990000000000080e+01 1.381225000000000023e+02 1.560940000000000055e+03
1.390000000000000124e-01 5.077500000000000346e-01 1.274540000000000006e+01 1.380935000000000059e+02 1.560914999999999964e+03
1.400000000000000133e-01 5.077480000000000881e-01 1.262624999999999886e+01 1.380900000000000034e+02 1.560894999999999982e+03
1.410000000000000142e-01 5.077500000000000346e-01 1.252840000000000131e+01 1.381049999999999898e+02 1.560884999999999991e+03
1.420000000000000151e-01 5.077534999999999688e-01 1.244780000000000086e+01 1.381315000000000168e+02 1.560880000000000109e+03
1.430000000000000160e-01 5.077580000000000426e-01 1.238080000000000069e+01 1.381634999999999991e+02 1.560880000000000109e+03
1.440000000000000169e-01 5.077614999999999768e-01 1.232394999999999996e+01 1.381960000000000264e+02 1.560880000000000109e+03
1.450000000000000178e-01 5.077644999999999520e-01 1.227425000000000033e+01 1.382239999999999895e+02 1.560880000000000109e+03
1.459999999999999909e-01 5.077654999999999808e-01 1.222919999999999874e+01 1.382445000000000164e+02 1.560884999999999991e+03
1.469999999999999918e-01 5.077650000000000219e-01 1.218665000000000020e+01 1.382554999999999836e+02 1.560880000000000109e+03
1.479999999999999927e-01 5.077629999999999644e-01 1.214489999999999981e+01 1.382554999999999836e+02 1.560875000000000000e+03
1.489999999999999936e-01 5.077579999999999316e-01 1.210280000000000022e+01 1.382439999999999998e+02 1.560869999999999891e+03
1.499999999999999944e-01 5.077514999999999112e-01 1.205949999999999989e+01 1.382214999999999918e+02 1.560860000000000127e+03
1.509999999999999953e-01 5.077435000000000143e-01 1.201448999999999856e+01 1.381890000000000214e+02 1.560849999999999909e+03
1.519999999999999962e-01 5.077340000000000186e-01 1.196766500000000022e+01 1.381475000000000080e+02 1.560835000000000036e+03
1.529999999999999971e-01 5.077234999999999943e-01 1.191918499999999881e+01 1.380985000000000014e+02 1.560825000000000045e+03
1.539999999999999980e-01 5.077120000000000521e-01 1.186929500000000104e+01 1.380450000000000159e+02 1.560804999999999836e+03
1.549999999999999989e-01 5.077000000000000401e-01 1.181859999999999999e+01 1.379879999999999995e+02 1.560789999999999964e+03
1.559999999999999998e-01 5.076884999999999870e-01 1.176766500000000093e+01 1.379309999999999832e+02 1.560769999999999982e+03
1.570000000000000007e-01 5.076775000000000038e-01 1.171720499999999987e+01 1.378745000000000118e+02 1.560750000000000000e+03
1.580000000000000016e-01 5.076669999999999794e-01 1.166783999999999999e+01 1.378215000000000146e+02 1.560735000000000127e+03
1.590000000000000024e-01 5.076574999999999838e-01 1.162030500000000011e+01 1.377725000000000080e+02 1.560720000000000027e+03
