# t [s], A [cm^2], U [cm/s], P [cPa], c [cm/s]
1.000000000000000021e-03 6.910530000000000284e-01 5.714999999999997859e-03 1.023444999999999965e+02 1.660059999999999945e+03
2.000000000000000042e-03 6.910415000000000862e-01 -1.830773499999999903e-03 1.023144999999999953e+02 1.660055000000000064e+03
3.000000000000000062e-03 6.911009999999999653e-01 9.679290000000000116e-02 1.024244999999999948e+02 1.660085000000000036e+03
4.000000000000000083e-03 6.911519999999999886e-01 1.926269399999999965e-01 1.025469999999999970e+02 1.660110000000000127e+03
5.000000000000000104e-03 6.911194999999999977e-01 1.620732400000000073e-01 1.024780000000000086e+02 1.660095000000000027e+03
6.000000000000000125e-03 6.910475000000000367e-01 6.142200000000003213e-02 1.022434999999999974e+02 1.660049999999999955e+03
7.000000000000000146e-03 6.909849999999999604e-01 -3.170950000000000157e-02 1.019519999999999982e+02 1.659985000000000127e+03
8.000000000000000167e-03 6.908849999999999714e-01 -2.006199999999999095e-01 1.015159999999999911e+02 1.659889999999999873e+03
9.000000000000001055e-03 6.907179999999999431e-01 -4.989899999999999336e-01 1.008437500000000000e+02 1.659744999999999891e+03
1.000000000000000194e-02 6.904794999999999128e-01 -9.303699999999999193e-01 9.988849999999999341e+01 1.659539999999999964e+03
1.099999999999999936e-02 6.901479999999999837e-01 -1.518549999999999844e+00 9.857749999999998636e+01 1.659255000000000109e+03
1.200000000000000025e-02 6.897155000000000369e-01 -2.259390000000000231e+00 9.686500000000000909e+01 1.658869999999999891e+03
1.300000000000000114e-02 6.892240000000000588e-01 -3.056315000000000115e+00 9.483289999999999509e+01 1.658409999999999854e+03
1.400000000000000203e-02 6.887499999999999734e-01 -3.746134999999999771e+00 9.268889999999998963e+01 1.657909999999999854e+03
1.499999999999999944e-02 6.883569999999999967e-01 -4.183380999999999794e+00 9.066284999999999172e+01 1.657405000000000200e+03
1.600000000000000033e-02 6.880645000000000788e-01 -4.302462499999999856e+00 8.890534999999999854e+01 1.656949999999999818e+03
1.700000000000000122e-02 6.878504999999999203e-01 -4.126660000000000217e+00 8.744339999999999691e+01 1.656534999999999854e+03
1.800000000000000211e-02 6.876659999999999995e-01 -3.739370000000000083e+00 8.619759999999999422e+01 1.656170000000000073e+03
1.900000000000000300e-02 6.874620000000000175e-01 -3.241840499999999903e+00 8.503284999999999627e+01 1.655815000000000055e+03
2.000000000000000042e-02 6.872059999999999835e-01 -2.714882650000000286e+00 8.381754999999999711e+01 1.655460000000000036e+03
2.100000000000000130e-02 6.868874999999999842e-01 -2.195454999999999934e+00 8.247119999999999607e+01 1.655069999999999936e+03
2.200000000000000219e-02 6.865239999999999121e-01 -1.674544999999999950e+00 8.098499999999999943e+01 1.654654999999999973e+03
2.299999999999999961e-02 6.861435000000000173e-01 -1.115050000000000097e+00 7.940995000000000914e+01 1.654220000000000027e+03
2.400000000000000050e-02 6.857725000000000071e-01 -4.798350000000000115e-01 7.782129999999999370e+01 1.653775000000000091e+03
2.500000000000000139e-02 6.854234999999999634e-01 2.433350000000000790e-01 7.627854999999999563e+01 1.653340000000000146e+03
2.600000000000000228e-02 6.850905000000000467e-01 1.028965000000000130e+00 7.479550000000000409e+01 1.652914999999999964e+03
2.700000000000000316e-02 6.847509999999999986e-01 1.815320000000000267e+00 7.333015000000000327e+01 1.652494999999999891e+03
2.800000000000000058e-02 6.843730000000000091e-01 2.517459999999999809e+00 7.179345000000000709e+01 1.652059999999999945e+03
2.900000000000000147e-02 6.839224999999999888e-01 3.047219999999999818e+00 7.007310000000001082e+01 1.651585000000000036e+03
3.000000000000000236e-02 6.833765000000000533e-01 3.334794999999999732e+00 6.806600000000000250e+01 1.651059999999999945e+03
3.099999999999999978e-02 6.827290000000000303e-01 3.346540000000000514e+00 6.570990000000000464e+01 1.650460000000000036e+03
3.200000000000000067e-02 6.819934999999999192e-01 3.093220000000000081e+00 6.300600000000000023e+01 1.649784999999999854e+03
3.300000000000000155e-02 6.812020000000000852e-01 2.627234999999999765e+00 6.002469999999999573e+01 1.649049999999999955e+03
3.400000000000000244e-02 6.803974999999999884e-01 2.029390000000000249e+00 5.689430000000000121e+01 1.648265000000000100e+03
3.500000000000000333e-02 6.796250000000000346e-01 1.391025000000000400e+00 5.377725000000000222e+01 1.647480000000000018e+03
3.600000000000000422e-02 6.789255000000000706e-01 7.977300000000000502e-01 5.084309999999999974e+01 1.646730000000000018e+03
3.700000000000000511e-02 6.783295000000000297e-01 3.179399999999996673e-01 4.824434999999999718e+01 1.646045000000000073e+03
3.799999999999999906e-02 6.778569999999999318e-01 -1.979999999999648708e-03 4.610085000000000122e+01 1.645460000000000036e+03
3.899999999999999994e-02 6.775180000000000646e-01 -1.368450000000001054e-01 4.449240000000000350e+01 1.644994999999999891e+03
4.000000000000000083e-02 6.773134999999999017e-01 -7.803000000000004377e-02 4.346020000000000039e+01 1.644659999999999854e+03
4.100000000000000172e-02 6.772400000000000642e-01 1.730700000000000571e-01 4.301340000000000430e+01 1.644480000000000018e+03
4.200000000000000261e-02 6.772920000000000051e-01 6.114399999999999835e-01 4.313970000000000482e+01 1.644430000000000064e+03
4.300000000000000350e-02 6.774639999999999551e-01 1.233089500000000172e+00 4.381475000000000364e+01 1.644519999999999982e+03
4.400000000000000439e-02 6.777509999999999923e-01 2.037074999999999747e+00 4.501075000000000159e+01 1.644755000000000109e+03
4.499999999999999833e-02 6.781490000000000018e-01 3.024774999999999991e+00 4.669980000000000331e+01 1.645110000000000127e+03
4.599999999999999922e-02 6.786535000000000206e-01 4.197115000000000151e+00 4.885439999999999827e+01 1.645590000000000146e+03
4.700000000000000011e-02 6.792590000000000572e-01 5.551020000000000287e+00 5.144454999999999956e+01 1.646184999999999945e+03
4.800000000000000100e-02 6.799574999999999925e-01 7.076410999999999341e+00 5.443430000000000035e+01 1.646889999999999873e+03
4.900000000000000189e-02 6.807365000000000776e-01 8.754476500000000883e+00 5.777850000000000108e+01 1.647690000000000055e+03
5.000000000000000278e-02 6.815819999999999101e-01 1.055788000000000082e+01 6.142180000000000462e+01 1.648575000000000045e+03
5.100000000000000366e-02 6.824755000000000127e-01 1.245230499999999907e+01 6.529959999999999809e+01 1.649525000000000091e+03
5.200000000000000455e-02 6.834009999999999252e-01 1.439934500000000028e+01 6.934100000000000819e+01 1.650529999999999973e+03
5.300000000000000544e-02 6.843394999999999895e-01 1.635974500000000020e+01 7.347315000000000396e+01 1.651570000000000164e+03
5.399999999999999939e-02 6.852759999999999962e-01 1.829654500000000183e+01 7.762619999999999720e+01 1.652630000000000109e+03
5.500000000000000028e-02 6.861975000000000158e-01 2.017750000000000199e+01 8.173779999999999291e+01 1.653694999999999936e+03
5.600000000000000117e-02 6.870939999999999825e-01 2.197700000000000031e+01 8.575685000000000002e+01 1.654740000000000009e+03
5.700000000000000205e-02 6.879585000000000283e-01 2.367644999999999911e+01 8.964599999999998658e+01 1.655765000000000100e+03
5.800000000000000294e-02 6.887885000000000257e-01 2.526435000000000031e+01 9.338124999999999432e+01 1.656769999999999982e+03
5.900000000000000383e-02 6.895835000000000159e-01 2.673559999999999803e+01 9.695229999999999393e+01 1.657735000000000127e+03
6.000000000000000472e-02 6.903455000000000563e-01 2.809019999999999939e+01 1.003606499999999926e+02 1.658664999999999964e+03
6.099999999999999867e-02 6.910779999999999701e-01 2.933234999999999815e+01 1.036179500000000075e+02 1.659555000000000064e+03
6.199999999999999956e-02 6.917860000000000120e-01 3.046885000000000332e+01 1.067414500000000004e+02 1.660414999999999964e+03
6.300000000000000044e-02 6.924749999999999517e-01 3.150854999999999961e+01 1.097535000000000025e+02 1.661244999999999891e+03
6.400000000000000133e-02 6.931490000000000151e-01 3.246075000000000443e+01 1.126775000000000091e+02 1.662059999999999945e+03
6.500000000000000222e-02 6.938130000000000130e-01 3.333455000000000013e+01 1.155360000000000014e+02 1.662849999999999909e+03
6.600000000000000311e-02 6.944715000000000193e-01 3.413804999999999978e+01 1.183474999999999966e+02 1.663630000000000109e+03
6.700000000000000400e-02 6.951249999999999929e-01 3.487729999999999819e+01 1.211254999999999882e+02 1.664394999999999982e+03
6.800000000000000488e-02 6.957744999999999624e-01 3.555610000000000070e+01 1.238779999999999859e+02 1.665154999999999973e+03
6.900000000000000577e-02 6.964194999999999691e-01 3.617564999999999742e+01 1.266049999999999898e+02 1.665909999999999854e+03
7.000000000000000666e-02 6.970570000000000377e-01 3.673430000000000462e+01 1.292980000000000018e+02 1.666650000000000091e+03
7.100000000000000755e-02 6.976824999999999832e-01 3.722820000000000107e+01 1.319429999999999836e+02 1.667380000000000109e+03
7.200000000000000844e-02 6.982904999999999252e-01 3.765165000000000362e+01 1.345204999999999984e+02 1.668095000000000027e+03
7.300000000000000933e-02 6.988760000000000527e-01 3.799779999999999802e+01 1.370054999999999836e+02 1.668785000000000082e+03
7.399999999999999634e-02 6.994320000000000537e-01 3.825959999999999894e+01 1.393729999999999905e+02 1.669450000000000045e+03
7.499999999999999722e-02 6.999524999999999775e-01 3.843025000000000091e+01 1.415964999999999918e+02 1.670079999999999927e+03
7.599999999999999811e-02 7.004330000000000833e-01 3.850390000000000157e+01 1.436529999999999916e+02 1.670659999999999854e+03
7.699999999999999900e-02 7.008689999999999642e-01 3.847630000000000194e+01 1.455199999999999818e+02 1.671199999999999818e+03
7.799999999999999989e-02 7.012564999999999493e-01 3.834494999999999720e+01 1.471814999999999998e+02 1.671690000000000055e+03
7.900000000000000078e-02 7.015934999999999810e-01 3.810920000000000130e+01 1.486250000000000000e+02 1.672115000000000009e+03
8.000000000000000167e-02 7.018794999999999895e-01 3.777060000000000173e+01 1.498439999999999941e+02 1.672490000000000009e+03
8.100000000000000255e-02 7.021144999999999747e-01 3.733259999999999934e+01 1.508379999999999939e+02 1.672805000000000064e+03
8.200000000000000344e-02 7.022990000000000066e-01 3.680084999999999695e+01 1.516105000000000018e+02 1.673065000000000055e+03
8.300000000000000433e-02 7.024365000000000192e-01 3.618269999999999698e+01 1.521714999999999804e+02 1.673265000000000100e+03
8.400000000000000522e-02 7.025295000000000289e-01 3.548720000000000141e+01 1.525339999999999918e+02 1.673404999999999973e+03
8.500000000000000611e-02 7.025824999999999987e-01 3.472514999999999930e+01 1.527155000000000200e+02 1.673500000000000000e+03
8.600000000000000699e-02 7.026004999999999612e-01 3.390829999999999700e+01 1.527375000000000114e+02 1.673550000000000182e+03
8.700000000000000788e-02 7.025884999999999492e-01 3.304945000000000022e+01 1.526229999999999905e+02 1.673554999999999836e+03
8.800000000000000877e-02 7.025525000000000242e-01 3.216190000000000282e+01 1.523960000000000150e+02 1.673535000000000082e+03
8.899999999999999578e-02 7.024980000000000668e-01 3.125880000000000081e+01 1.520825000000000102e+02 1.673480000000000018e+03
8.999999999999999667e-02 7.024304999999999577e-01 3.035294999999999987e+01 1.517075000000000102e+02 1.673404999999999973e+03
9.099999999999999756e-02 7.023554999999999104e-01 2.945615000000000094e+01 1.512944999999999993e+02 1.673315000000000055e+03
9.199999999999999845e-02 7.022770000000000401e-01 2.857864999999999966e+01 1.508654999999999973e+02 1.673215000000000146e+03
9.299999999999999933e-02 7.021990000000000176e-01 2.772879999999999967e+01 1.504375000000000000e+02 1.673114999999999782e+03
9.400000000000000022e-02 7.021239999999999704e-01 2.691284999999999883e+01 1.500250000000000057e+02 1.673009999999999991e+03
9.500000000000000111e-02 7.020539999999999559e-01 2.613459999999999894e+01 1.496385000000000218e+02 1.672904999999999973e+03
9.600000000000000200e-02 7.019900000000000029e-01 2.539540000000000219e+01 1.492829999999999870e+02 1.672809999999999945e+03
9.700000000000000289e-02 7.019305000000000128e-01 2.469420000000000215e+01 1.489590000000000032e+02 1.672720000000000027e+03
9.800000000000000377e-02 7.018759999999999444e-01 2.402815000000000012e+01 1.486634999999999991e+02 1.672634999999999991e+03
9.900000000000000466e-02 7.018234999999999335e-01 2.339225000000000065e+01 1.483899999999999864e+02 1.672555000000000064e+03
1.000000000000000056e-01 7.017709999999999226e-01 2.278045000000000186e+01 1.481279999999999859e+02 1.672480000000000018e+03
1.010000000000000064e-01 7.017160000000000064e-01 2.218544999999999945e+01 1.478669999999999902e+02 1.672400000000000091e+03
1.020000000000000073e-01 7.016554999999999875e-01 2.159965000000000046e+01 1.475939999999999941e+02 1.672325000000000045e+03
1.030000000000000082e-01 7.015860000000000429e-01 2.101529999999999987e+01 1.472955000000000041e+02 1.672240000000000009e+03
1.040000000000000091e-01 7.015055000000000041e-01 2.042499999999999716e+01 1.469590000000000032e+02 1.672144999999999982e+03
1.050000000000000100e-01 7.014114999999999656e-01 1.982215000000000060e+01 1.465729999999999791e+02 1.672045000000000073e+03
1.059999999999999970e-01 7.013024999999999398e-01 1.920110000000000028e+01 1.461290000000000191e+02 1.671929999999999836e+03
1.069999999999999979e-01 7.011775000000000091e-01 1.855760000000000076e+01 1.456194999999999879e+02 1.671795000000000073e+03
1.079999999999999988e-01 7.010354999999999226e-01 1.788889999999999958e+01 1.450420000000000016e+02 1.671650000000000091e+03
1.089999999999999997e-01 7.008775000000000421e-01 1.719399999999999906e+01 1.443944999999999936e+02 1.671485000000000127e+03
1.100000000000000006e-01 7.007039999999999935e-01 1.647370000000000090e+01 1.436800000000000068e+02 1.671305000000000064e+03
1.110000000000000014e-01 7.005170000000000563e-01 1.573045000000000115e+01 1.429055000000000177e+02 1.671109999999999900e+03
1.120000000000000023e-01 7.003200000000000536e-01 1.496849999999999881e+01 1.420799999999999841e+02 1.670894999999999982e+03
1.130000000000000032e-01 7.001144999999999730e-01 1.419351500000000144e+01 1.412144999999999868e+02 1.670674999999999955e+03
1.140000000000000041e-01 6.999054999999999582e-01 1.341247500000000059e+01 1.403234999999999957e+02 1.670444999999999936e+03
1.150000000000000050e-01 6.996949999999999559e-01 1.263325499999999835e+01 1.394230000000000018e+02 1.670210000000000036e+03
1.160000000000000059e-01 6.994890000000000274e-01 1.186429499999999848e+01 1.385305000000000177e+02 1.669980000000000018e+03
1.170000000000000068e-01 6.992899999999999672e-01 1.111434500000000014e+01 1.376610000000000014e+02 1.669750000000000000e+03
1.180000000000000077e-01 6.991024999999999601e-01 1.039191999999999894e+01 1.368335000000000150e+02 1.669525000000000091e+03
1.190000000000000085e-01 6.989294999999999813e-01 9.705104999999999649e+00 1.360614999999999952e+02 1.669319999999999936e+03
1.200000000000000094e-01 6.987744999999999651e-01 9.060939999999998662e+00 1.353589999999999804e+02 1.669125000000000000e+03
1.209999999999999964e-01 6.986390000000000100e-01 8.465465000000000018e+00 1.347369999999999948e+02 1.668950000000000045e+03
1.219999999999999973e-01 6.985244999999999926e-01 7.923194999999999766e+00 1.342034999999999911e+02 1.668795000000000073e+03
1.229999999999999982e-01 6.984315000000000939e-01 7.437094999999999345e+00 1.337640000000000100e+02 1.668664999999999964e+03
1.239999999999999991e-01 6.983610000000000095e-01 7.008504999999999541e+00 1.334194999999999993e+02 1.668555000000000064e+03
1.250000000000000000e-01 6.983114999999999739e-01 6.637114999999999654e+00 1.331680000000000064e+02 1.668474999999999909e+03
1.260000000000000009e-01 6.982820000000000693e-01 6.321030000000000371e+00 1.330049999999999955e+02 1.668409999999999854e+03
1.270000000000000018e-01 6.982699999999999463e-01 6.056985000000000063e+00 1.329234999999999900e+02 1.668369999999999891e+03
1.280000000000000027e-01 6.982734999999999914e-01 5.840524999999999523e+00 1.329130000000000109e+02 1.668349999999999909e+03
1.290000000000000036e-01 6.982895000000000074e-01 5.666274999999999729e+00 1.329615000000000009e+02 1.668344999999999800e+03
1.300000000000000044e-01 6.983139999999999903e-01 5.528209999999999624e+00 1.330584999999999809e+02 1.668355000000000018e+03
1.310000000000000053e-01 6.983460000000000223e-01 5.419940000000000424e+00 1.331879999999999882e+02 1.668375000000000000e+03
1.320000000000000062e-01 6.983810000000000295e-01 5.334979999999999833e+00 1.333394999999999868e+02 1.668405000000000200e+03
1.330000000000000071e-01 6.984164999999999957e-01 5.266994999999999649e+00 1.334990000000000236e+02 1.668434999999999945e+03
1.340000000000000080e-01 6.984509999999999330e-01 5.209999999999999964e+00 1.336560000000000059e+02 1.668465000000000146e+03
1.350000000000000089e-01 6.984814999999999774e-01 5.158529999999999838e+00 1.338004999999999995e+02 1.668500000000000000e+03
1.360000000000000098e-01 6.985065000000000301e-01 5.107760000000000744e+00 1.339234999999999900e+02 1.668529999999999973e+03
1.370000000000000107e-01 6.985244999999999926e-01 5.053600000000000314e+00 1.340194999999999936e+02 1.668549999999999955e+03
1.380000000000000115e-01 6.985350000000000170e-01 4.992750000000000021e+00 1.340824999999999818e+02 1.668565000000000055e+03
1.390000000000000124e-01 6.985375000000000334e-01 4.922679999999999723e+00 1.341105000000000018e+02 1.668574999999999818e+03
1.400000000000000133e-01 6.985315000000000829e-01 4.841680000000000206e+00 1.341014999999999873e+02 1.668579999999999927e+03
1.410000000000000142e-01 6.985174999999999024e-01 4.748789999999999623e+00 1.340554999999999950e+02 1.668570000000000164e+03
1.420000000000000151e-01 6.984949999999999770e-01 4.643750000000000711e+00 1.339739999999999895e+02 1.668555000000000064e+03
1.430000000000000160e-01 6.984664999999999901e-01 4.526959999999999873e+00 1.338594999999999970e+02 1.668525000000000091e+03
1.440000000000000169e-01 6.984310000000000240e-01 4.399345000000000283e+00 1.337150000000000034e+02 1.668494999999999891e+03
1.450000000000000178e-01 6.983900000000000663e-01 4.262330000000000396e+00 1.335450000000000159e+02 1.668454999999999927e+03
1.459999999999999909e-01 6.983449999999999935e-01 4.117670000000000385e+00 1.333534999999999968e+02 1.668410000000000082e+03
1.469999999999999918e-01 6.982969999999999455e-01 3.967375000000000096e+00 1.331454999999999984e+02 1.668359999999999900e+03
1.479999999999999927e-01 6.982470000000000621e-01 3.813579999999999970e+00 1.329254999999999995e+02 1.668304999999999836e+03
1.489999999999999936e-01 6.981950000000000101e-01 3.658440000000000136e+00 1.326974999999999909e+02 1.668244999999999891e+03
1.499999999999999944e-01 6.981429999999999580e-01 3.504014999999999880e+00 1.324660000000000082e+02 1.668190000000000055e+03
1.509999999999999953e-01 6.980915000000000870e-01 3.352189999999999781e+00 1.322334999999999923e+02 1.668125000000000000e+03
1.519999999999999962e-01 6.980405000000000637e-01 3.204595000000000304e+00 1.320035000000000025e+02 1.668069999999999936e+03
1.529999999999999971e-01 6.979910000000000281e-01 3.062540000000000262e+00 1.317769999999999868e+02 1.668005000000000109e+03
1.539999999999999980e-01 6.979424999999999102e-01 2.927010000000000112e+00 1.315554999999999950e+02 1.667950000000000045e+03
1.549999999999999989e-01 6.978949999999999321e-01 2.798640000000000239e+00 1.313394999999999868e+02 1.667889999999999873e+03
1.559999999999999998e-01 6.978485000000000937e-01 2.677760000000000140e+00 1.311285000000000025e+02 1.667835000000000036e+03
1.570000000000000007e-01 6.978029999999999511e-01 2.564424999999999955e+00 1.309215000000000089e+02 1.667780000000000200e+03
1.580000000000000016e-01 6.977575000000000305e-01 2.458479999999999777e+00 1.307170000000000130e+02 1.667724999999999909e+03
1.590000000000000024e-01 6.977124999999999577e-01 2.359630000000000116e+00 1.305144999999999982e+02 1.667670000000000073e+03
