# t [s], A [cm^2], U [cm/s], P [cPa], c [cm/s]
1.000000000000000021e-03 1.443765000000000187e-01 2.585220000000000296e-01 9.623859999999999104e+01 1.929704999999999927e+03
2.000000000000000042e-03 1.443474999999999897e-01 1.717095000000000038e+00 9.331419999999999959e+01 1.929375000000000000e+03
3.000000000000000062e-03 1.442510000000000181e-01 3.533094999999999875e+00 8.933089999999999975e+01 1.928340000000000146e+03
4.000000000000000083e-03 1.441100000000000159e-01 5.567360149999999841e+00 8.483914999999998940e+01 1.926859999999999900e+03
5.000000000000000104e-03 1.439504999999999812e-01 7.764655000000000307e+00 8.060559999999999548e+01 1.925204999999999927e+03
6.000000000000000125e-03 1.437910000000000021e-01 1.000485499999999917e+01 7.701689999999999259e+01 1.923555000000000064e+03
7.000000000000000146e-03 1.436385000000000023e-01 1.210741499999999959e+01 7.400235000000000696e+01 1.922010000000000218e+03
8.000000000000000167e-03 1.434960000000000124e-01 1.394504999999999839e+01 7.132150000000000034e+01 1.920590000000000146e+03
9.000000000000001055e-03 1.433665000000000078e-01 1.550985000000000014e+01 6.890800000000000125e+01 1.919304999999999836e+03
1.000000000000000194e-02 1.432519999999999905e-01 1.683919999999999817e+01 6.683299999999999841e+01 1.918199999999999818e+03
1.099999999999999936e-02 1.431545000000000178e-01 1.795455000000000112e+01 6.512579999999999814e+01 1.917255000000000109e+03
1.200000000000000025e-02 1.430730000000000057e-01 1.886915000000000120e+01 6.375719999999999743e+01 1.916485000000000127e+03
1.300000000000000114e-02 1.430064999999999809e-01 1.959465000000000146e+01 6.267650000000000432e+01 1.915865000000000009e+03
1.400000000000000203e-02 1.429535000000000111e-01 2.013445000000000107e+01 6.180464999999999520e+01 1.915365000000000009e+03
1.499999999999999944e-02 1.429090000000000082e-01 2.049804999999999922e+01 6.105395000000000039e+01 1.914965000000000146e+03
1.600000000000000033e-02 1.428719999999999990e-01 2.073304999999999865e+01 6.041374999999999318e+01 1.914630000000000109e+03
1.700000000000000122e-02 1.428449999999999998e-01 2.093684999999999974e+01 6.001869999999999550e+01 1.914394999999999982e+03
1.800000000000000211e-02 1.428329999999999878e-01 2.122630000000000194e+01 6.011129999999999995e+01 1.914295000000000073e+03
1.900000000000000300e-02 1.428409999999999958e-01 2.168545000000000300e+01 6.091029999999999944e+01 1.914389999999999873e+03
2.000000000000000042e-02 1.428730000000000000e-01 2.232475000000000165e+01 6.247199999999999420e+01 1.914700000000000045e+03
2.100000000000000130e-02 1.429265000000000119e-01 2.307434999999999903e+01 6.462754999999999939e+01 1.915220000000000027e+03
2.200000000000000219e-02 1.429934999999999956e-01 2.381085000000000207e+01 6.702179999999999893e+01 1.915875000000000000e+03
2.299999999999999961e-02 1.430644999999999833e-01 2.440095000000000169e+01 6.922634999999999650e+01 1.916570000000000164e+03
2.400000000000000050e-02 1.431275000000000186e-01 2.474439999999999884e+01 7.087125000000000341e+01 1.917204999999999927e+03
2.500000000000000139e-02 1.431744999999999823e-01 2.480049999999999955e+01 7.174764999999999304e+01 1.917684999999999945e+03
2.600000000000000228e-02 1.432019999999999960e-01 2.459230000000000160e+01 7.184819999999999141e+01 1.917974999999999909e+03
2.700000000000000316e-02 1.432100000000000040e-01 2.419069999999999965e+01 7.134099999999999397e+01 1.918085000000000036e+03
2.800000000000000058e-02 1.432034999999999836e-01 2.368609999999999971e+01 7.049349999999999739e+01 1.918034999999999854e+03
2.900000000000000147e-02 1.431890000000000107e-01 2.315854999999999819e+01 6.957810000000000628e+01 1.917904999999999973e+03
3.000000000000000236e-02 1.431719999999999937e-01 2.265670000000000073e+01 6.879160000000000252e+01 1.917744999999999891e+03
3.099999999999999978e-02 1.431554999999999911e-01 2.219055000000000177e+01 6.821260000000000900e+01 1.917590000000000146e+03
3.200000000000000067e-02 1.431425000000000058e-01 2.173659999999999926e+01 6.780214999999999748e+01 1.917460000000000036e+03
3.300000000000000155e-02 1.431295000000000206e-01 2.125404999999999944e+01 6.744055000000000177e+01 1.917335000000000036e+03
3.400000000000000244e-02 1.431155000000000066e-01 2.070309999999999917e+01 6.698375000000000057e+01 1.917200000000000045e+03
3.500000000000000333e-02 1.430965000000000154e-01 2.006250000000000000e+01 6.632124999999999204e+01 1.917019999999999982e+03
3.600000000000000422e-02 1.430715000000000181e-01 1.934055000000000035e+01 6.541949999999999932e+01 1.916784999999999854e+03
3.700000000000000511e-02 1.430405000000000149e-01 1.857675000000000054e+01 6.434069999999999823e+01 1.916489999999999782e+03
3.799999999999999906e-02 1.430064999999999809e-01 1.783500000000000085e+01 6.323199999999999932e+01 1.916159999999999854e+03
3.899999999999999994e-02 1.429735000000000034e-01 1.718945000000000078e+01 6.229025000000000034e+01 1.915839999999999918e+03
4.000000000000000083e-02 1.429469999999999907e-01 1.670674999999999955e+01 6.171235000000000070e+01 1.915585000000000036e+03
4.100000000000000172e-02 1.429330000000000045e-01 1.643134999999999835e+01 6.164525000000000432e+01 1.915434999999999945e+03
4.200000000000000261e-02 1.429340000000000055e-01 1.637545000000000073e+01 6.214979999999999905e+01 1.915429999999999836e+03
4.300000000000000350e-02 1.429515000000000091e-01 1.651624999999999943e+01 6.318534999999999968e+01 1.915579999999999927e+03
4.400000000000000439e-02 1.429834999999999856e-01 1.680114999999999981e+01 6.461764999999999759e+01 1.915880000000000109e+03
4.499999999999999833e-02 1.430254999999999999e-01 1.715760000000000218e+01 6.624530000000000030e+01 1.916275000000000091e+03
4.599999999999999922e-02 1.430724999999999913e-01 1.750509999999999877e+01 6.783599999999999852e+01 1.916724999999999909e+03
4.700000000000000011e-02 1.431180000000000230e-01 1.776764999999999972e+01 6.916535000000000366e+01 1.917164999999999964e+03
4.800000000000000100e-02 1.431554999999999911e-01 1.788284999999999769e+01 7.004885000000000161e+01 1.917529999999999973e+03
4.900000000000000189e-02 1.431795000000000151e-01 1.780810000000000315e+01 7.036320000000000618e+01 1.917775000000000091e+03
5.000000000000000278e-02 1.431875000000000231e-01 1.752255000000000251e+01 7.005469999999999686e+01 1.917860000000000127e+03
5.100000000000000366e-02 1.431775000000000131e-01 1.702550000000000097e+01 6.913495000000000346e+01 1.917775000000000091e+03
5.200000000000000455e-02 1.431494999999999851e-01 1.633224999999999838e+01 6.766835000000000377e+01 1.917509999999999991e+03
5.300000000000000544e-02 1.431040000000000090e-01 1.546944999999999837e+01 6.575350000000000250e+01 1.917079999999999927e+03
5.399999999999999939e-02 1.430445000000000189e-01 1.446964999999999968e+01 6.350499999999999545e+01 1.916514999999999873e+03
5.500000000000000028e-02 1.429739999999999900e-01 1.336755000000000138e+01 6.103799999999999670e+01 1.915829999999999927e+03
5.600000000000000117e-02 1.428955000000000086e-01 1.219716999999999985e+01 5.845759999999999934e+01 1.915069999999999936e+03
5.700000000000000205e-02 1.428115000000000079e-01 1.099124499999999927e+01 5.585464999999999947e+01 1.914265000000000100e+03
5.800000000000000294e-02 1.427255000000000051e-01 9.780709999999999127e+00 5.330549999999999500e+01 1.913425000000000182e+03
5.900000000000000383e-02 1.426399999999999890e-01 8.596054999999999779e+00 5.087604999999999933e+01 1.912595000000000027e+03
6.000000000000000472e-02 1.425575000000000037e-01 7.467645000000000088e+00 4.862609999999999388e+01 1.911789999999999964e+03
6.099999999999999867e-02 1.424799999999999955e-01 6.426655000000000229e+00 4.661360000000000525e+01 1.911030000000000200e+03
6.199999999999999956e-02 1.424094999999999944e-01 5.504925000000000068e+00 4.489759999999999707e+01 1.910340000000000146e+03
6.300000000000000044e-02 1.423480000000000023e-01 4.734234999999999971e+00 4.353820000000000334e+01 1.909740000000000009e+03
6.400000000000000133e-02 1.422984999999999944e-01 4.145044999999999646e+00 4.259499999999999886e+01 1.909250000000000000e+03
6.500000000000000222e-02 1.422630000000000006e-01 3.764784999999999826e+00 4.212295000000000300e+01 1.908890000000000100e+03
6.600000000000000311e-02 1.422430000000000083e-01 3.616020000000000234e+00 4.216835000000000377e+01 1.908680000000000064e+03
6.700000000000000400e-02 1.422400000000000053e-01 3.714844999999999953e+00 4.276375000000000171e+01 1.908634999999999991e+03
6.800000000000000488e-02 1.422554999999999792e-01 4.069585000000000008e+00 4.392475000000000307e+01 1.908759999999999991e+03
6.900000000000000577e-02 1.422895000000000132e-01 4.680180000000000007e+00 4.564719999999999800e+01 1.909074999999999818e+03
7.000000000000000666e-02 1.423429999999999973e-01 5.538075000000000081e+00 4.790739999999999554e+01 1.909569999999999936e+03
7.100000000000000755e-02 1.424144999999999994e-01 6.626815000000000566e+00 5.066275000000000261e+01 1.910244999999999891e+03
7.200000000000000844e-02 1.425029999999999908e-01 7.923054999999999737e+00 5.385479999999999734e+01 1.911085000000000036e+03
7.300000000000000933e-02 1.426064999999999972e-01 9.397990000000000066e+00 5.741304999999999836e+01 1.912079999999999927e+03
7.399999999999999634e-02 1.427229999999999888e-01 1.101884500000000067e+01 6.125910000000000366e+01 1.913194999999999936e+03
7.499999999999999722e-02 1.428495000000000181e-01 1.275074499999999844e+01 6.531129999999998859e+01 1.914424999999999955e+03
7.599999999999999811e-02 1.429850000000000010e-01 1.455819999999999936e+01 6.948914999999999509e+01 1.915735000000000127e+03
7.699999999999999900e-02 1.431255000000000166e-01 1.640670000000000073e+01 7.371729999999999450e+01 1.917099999999999909e+03
7.799999999999999989e-02 1.432694999999999941e-01 1.826445000000000007e+01 7.792869999999999209e+01 1.918509999999999991e+03
7.900000000000000078e-02 1.434145000000000003e-01 2.010309999999999775e+01 8.206755000000001132e+01 1.919924999999999955e+03
8.000000000000000167e-02 1.435575000000000045e-01 2.189920000000000044e+01 8.609125000000000227e+01 1.921339999999999918e+03
8.100000000000000255e-02 1.436985000000000068e-01 2.363435000000000130e+01 8.997110000000000696e+01 1.922735000000000127e+03
8.200000000000000344e-02 1.438360000000000194e-01 2.529589999999999961e+01 9.369245000000000800e+01 1.924095000000000027e+03
8.300000000000000433e-02 1.439695000000000003e-01 2.687665000000000148e+01 9.725464999999999804e+01 1.925420000000000073e+03
8.400000000000000522e-02 1.440985000000000182e-01 2.837434999999999974e+01 1.006677999999999997e+02 1.926704999999999927e+03
8.500000000000000611e-02 1.442235000000000045e-01 2.979104999999999848e+01 1.039502499999999969e+02 1.927950000000000045e+03
8.600000000000000699e-02 1.443444999999999867e-01 3.113224999999999909e+01 1.071285000000000025e+02 1.929159999999999854e+03
8.700000000000000788e-02 1.444624999999999937e-01 3.240545000000000186e+01 1.102300000000000040e+02 1.930339999999999918e+03
8.800000000000000877e-02 1.445779999999999843e-01 3.361939999999999884e+01 1.132829999999999870e+02 1.931494999999999891e+03
8.899999999999999578e-02 1.446919999999999873e-01 3.478279999999999461e+01 1.163119999999999976e+02 1.932639999999999873e+03
8.999999999999999667e-02 1.448050000000000170e-01 3.590350000000000108e+01 1.193370000000000033e+02 1.933775000000000091e+03
9.099999999999999756e-02 1.449175000000000046e-01 3.698765000000000214e+01 1.223704999999999927e+02 1.934900000000000091e+03
9.199999999999999845e-02 1.450299999999999923e-01 3.803934999999999889e+01 1.254184999999999945e+02 1.936029999999999973e+03
9.299999999999999933e-02 1.451425000000000076e-01 3.906019999999999470e+01 1.284784999999999968e+02 1.937164999999999964e+03
9.400000000000000022e-02 1.452550000000000230e-01 4.004930000000000234e+01 1.315395000000000039e+02 1.938300000000000182e+03
9.500000000000000111e-02 1.453674999999999828e-01 4.100325000000000131e+01 1.345854999999999961e+02 1.939430000000000064e+03
9.600000000000000200e-02 1.454789999999999972e-01 4.191660000000000252e+01 1.375945000000000107e+02 1.940554999999999836e+03
9.700000000000000289e-02 1.455889999999999962e-01 4.278204999999999814e+01 1.405400000000000205e+02 1.941664999999999964e+03
9.800000000000000377e-02 1.456969999999999932e-01 4.359100000000000108e+01 1.433940000000000055e+02 1.942750000000000000e+03
9.900000000000000466e-02 1.458015000000000005e-01 4.433395000000000152e+01 1.461270000000000095e+02 1.943809999999999945e+03
1.000000000000000056e-01 1.459020000000000039e-01 4.500105000000000643e+01 1.487085000000000150e+02 1.944829999999999927e+03
1.010000000000000064e-01 1.459969999999999879e-01 4.558259999999999934e+01 1.511125000000000114e+02 1.945789999999999964e+03
1.020000000000000073e-01 1.460859999999999936e-01 4.606950000000000500e+01 1.533120000000000118e+02 1.946704999999999927e+03
1.030000000000000082e-01 1.461685000000000068e-01 4.645369999999999777e+01 1.552864999999999895e+02 1.947539999999999964e+03
1.040000000000000091e-01 1.462434999999999985e-01 4.672860000000000014e+01 1.570180000000000007e+02 1.948305000000000064e+03
1.050000000000000100e-01 1.463099999999999956e-01 4.688930000000000575e+01 1.584950000000000045e+02 1.948985000000000127e+03
1.059999999999999970e-01 1.463675000000000115e-01 4.693304999999999438e+01 1.597085000000000150e+02 1.949579999999999927e+03
1.069999999999999979e-01 1.464165000000000050e-01 4.685920000000000130e+01 1.606585000000000036e+02 1.950085000000000036e+03
1.079999999999999988e-01 1.464560000000000028e-01 4.666980000000000217e+01 1.613489999999999895e+02 1.950500000000000000e+03
1.089999999999999997e-01 1.464874999999999927e-01 4.636889999999999645e+01 1.617889999999999873e+02 1.950825000000000045e+03
1.100000000000000006e-01 1.465090000000000003e-01 4.596320000000000050e+01 1.619934999999999832e+02 1.951059999999999945e+03
1.110000000000000014e-01 1.465230000000000143e-01 4.546139999999999759e+01 1.619830000000000041e+02 1.951214999999999918e+03
1.120000000000000023e-01 1.465299999999999936e-01 4.487395000000000067e+01 1.617805000000000177e+02 1.951289999999999964e+03
1.130000000000000032e-01 1.465290000000000203e-01 4.421294999999999931e+01 1.614124999999999943e+02 1.951295000000000073e+03
1.140000000000000041e-01 1.465225000000000000e-01 4.349129999999999541e+01 1.609080000000000155e+02 1.951240000000000009e+03
1.150000000000000050e-01 1.465110000000000023e-01 4.272265000000000157e+01 1.602959999999999923e+02 1.951125000000000000e+03
1.160000000000000059e-01 1.464944999999999997e-01 4.192050000000000409e+01 1.596050000000000182e+02 1.950970000000000027e+03
1.170000000000000068e-01 1.464749999999999941e-01 4.109799999999999898e+01 1.588629999999999995e+02 1.950784999999999854e+03
1.180000000000000077e-01 1.464540000000000008e-01 4.026749999999999829e+01 1.580939999999999941e+02 1.950565000000000055e+03
1.190000000000000085e-01 1.464304999999999912e-01 3.944010000000000105e+01 1.573204999999999814e+02 1.950335000000000036e+03
1.200000000000000094e-01 1.464064999999999950e-01 3.862530000000000285e+01 1.565595000000000141e+02 1.950095000000000027e+03
1.209999999999999964e-01 1.463824999999999987e-01 3.783070000000000022e+01 1.558249999999999886e+02 1.949849999999999909e+03
1.219999999999999973e-01 1.463579999999999881e-01 3.706215000000000259e+01 1.551259999999999764e+02 1.949605000000000018e+03
1.229999999999999982e-01 1.463349999999999929e-01 3.632334999999999781e+01 1.544675000000000011e+02 1.949365000000000009e+03
1.239999999999999991e-01 1.463125000000000120e-01 3.561599999999999966e+01 1.538489999999999895e+02 1.949134999999999991e+03
1.250000000000000000e-01 1.462910000000000044e-01 3.493980000000000530e+01 1.532669999999999959e+02 1.948920000000000073e+03
1.260000000000000009e-01 1.462700000000000111e-01 3.429269999999999641e+01 1.527129999999999939e+02 1.948704999999999927e+03
1.270000000000000018e-01 1.462499999999999911e-01 3.367095000000000482e+01 1.521779999999999973e+02 1.948500000000000000e+03
1.280000000000000027e-01 1.462304999999999855e-01 3.306960000000000122e+01 1.516475000000000080e+02 1.948295000000000073e+03
1.290000000000000036e-01 1.462104999999999932e-01 3.248264999999999958e+01 1.511069999999999993e+02 1.948095000000000027e+03
1.300000000000000044e-01 1.461905000000000010e-01 3.190334999999999965e+01 1.505405000000000086e+02 1.947889999999999873e+03
1.310000000000000053e-01 1.461695000000000078e-01 3.132469999999999999e+01 1.499325000000000045e+02 1.947675000000000182e+03
1.320000000000000062e-01 1.461469999999999991e-01 3.073980000000000246e+01 1.492680000000000007e+02 1.947445000000000164e+03
1.330000000000000071e-01 1.461230000000000029e-01 3.014209999999999923e+01 1.485335000000000036e+02 1.947200000000000045e+03
1.340000000000000080e-01 1.460960000000000036e-01 2.952575000000000216e+01 1.477169999999999845e+02 1.946930000000000064e+03
1.350000000000000089e-01 1.460664999999999880e-01 2.888604999999999734e+01 1.468104999999999905e+02 1.946630000000000109e+03
1.360000000000000098e-01 1.460339999999999971e-01 2.821955000000000169e+01 1.458085000000000093e+02 1.946304999999999836e+03
1.370000000000000107e-01 1.459989999999999899e-01 2.752434999999999832e+01 1.447090000000000032e+02 1.945950000000000045e+03
1.380000000000000115e-01 1.459599999999999786e-01 2.680015000000000214e+01 1.435144999999999982e+02 1.945565000000000055e+03
1.390000000000000124e-01 1.459185000000000065e-01 2.604820000000000135e+01 1.422305000000000064e+02 1.945144999999999982e+03
1.400000000000000133e-01 1.458740000000000037e-01 2.527165000000000106e+01 1.408679999999999950e+02 1.944695000000000164e+03
1.410000000000000142e-01 1.458260000000000112e-01 2.447509999999999764e+01 1.394389999999999930e+02 1.944220000000000027e+03
1.420000000000000151e-01 1.457760000000000167e-01 2.366454999999999842e+01 1.379610000000000127e+02 1.943720000000000027e+03
1.430000000000000160e-01 1.457245000000000068e-01 2.284740000000000038e+01 1.364509999999999934e+02 1.943204999999999927e+03
1.440000000000000169e-01 1.456719999999999959e-01 2.203160000000000096e+01 1.349309999999999832e+02 1.942674999999999955e+03
1.450000000000000178e-01 1.456184999999999841e-01 2.122594999999999743e+01 1.334219999999999970e+02 1.942139999999999873e+03
1.459999999999999909e-01 1.455660000000000009e-01 2.043934999999999746e+01 1.319445000000000050e+02 1.941605000000000018e+03
1.469999999999999918e-01 1.455140000000000045e-01 1.968055000000000021e+01 1.305194999999999936e+02 1.941079999999999927e+03
1.479999999999999927e-01 1.454634999999999956e-01 1.895795000000000030e+01 1.291655000000000086e+02 1.940575000000000045e+03
1.489999999999999936e-01 1.454150000000000165e-01 1.827904999999999802e+01 1.278995000000000033e+02 1.940079999999999927e+03
1.499999999999999944e-01 1.453689999999999982e-01 1.765019999999999811e+01 1.267350000000000136e+02 1.939625000000000000e+03
1.509999999999999953e-01 1.453264999999999973e-01 1.707670000000000243e+01 1.256825000000000045e+02 1.939190000000000055e+03
1.519999999999999962e-01 1.452875000000000139e-01 1.656220000000000070e+01 1.247494999999999976e+02 1.938800000000000182e+03
1.529999999999999971e-01 1.452525000000000066e-01 1.610899999999999821e+01 1.239395000000000095e+02 1.938440000000000055e+03
1.539999999999999980e-01 1.452215000000000034e-01 1.571774999999999878e+01 1.232514999999999930e+02 1.938125000000000000e+03
1.549999999999999989e-01 1.451945000000000041e-01 1.538775000000000048e+01 1.226839999999999975e+02 1.937849999999999909e+03
1.559999999999999998e-01 1.451715000000000089e-01 1.511690000000000111e+01 1.222289999999999992e+02 1.937615000000000009e+03
1.570000000000000007e-01 1.451530000000000042e-01 1.490200000000000102e+01 1.218790000000000049e+02 1.937414999999999964e+03
1.580000000000000016e-01 1.451369999999999882e-01 1.473874999999999957e+01 1.216239999999999952e+02 1.937255000000000109e+03
1.590000000000000024e-01 1.451250000000000040e-01 1.462219999999999942e+01 1.214519999999999982e+02 1.937125000000000000e+03
