# t [s], A [cm^2], U [cm/s], P [cPa], c [cm/s]
1.000000000000000021e-03 1.766050000000000120e-01 2.825245000000000117e-01 1.026860000000000070e+02 2.243234999999999673e+03
2.000000000000000042e-03 1.765585000000000071e-01 1.791617999999999933e+00 9.917510000000000048e+01 2.242840000000000146e+03
3.000000000000000062e-03 1.764350000000000085e-01 3.690703000000000067e+00 9.421694999999999709e+01 2.241815000000000055e+03
4.000000000000000083e-03 1.762674999999999936e-01 5.849860500000000130e+00 8.879275000000001228e+01 2.240454999999999927e+03
5.000000000000000104e-03 1.760884999999999811e-01 8.182515000000000427e+00 8.392199999999999704e+01 2.239015000000000327e+03
6.000000000000000125e-03 1.759175000000000044e-01 1.047953000000000046e+01 7.990625000000000000e+01 2.237659999999999854e+03
7.000000000000000146e-03 1.757575000000000109e-01 1.250204499999999896e+01 7.642680000000000007e+01 2.236414999999999964e+03
8.000000000000000167e-03 1.756110000000000171e-01 1.418484499999999926e+01 7.328094999999999004e+01 2.235295000000000073e+03
9.000000000000001055e-03 1.754844999999999877e-01 1.557740000000000080e+01 7.058254999999999768e+01 2.234340000000000146e+03
1.000000000000000194e-02 1.753790000000000071e-01 1.671290000000000120e+01 6.840730000000000643e+01 2.233555000000000291e+03
1.099999999999999936e-02 1.752940000000000054e-01 1.760790000000000077e+01 6.671625000000000227e+01 2.232930000000000291e+03
1.200000000000000025e-02 1.752270000000000216e-01 1.827040000000000219e+01 6.540934999999998922e+01 2.232439999999999600e+03
1.300000000000000114e-02 1.751730000000000231e-01 1.869794999999999874e+01 6.432404999999999973e+01 2.232059999999999945e+03
1.400000000000000203e-02 1.751280000000000059e-01 1.892620000000000147e+01 6.335249999999999204e+01 2.231744999999999891e+03
1.499999999999999944e-02 1.750929999999999986e-01 1.907800000000000296e+01 6.263779999999999859e+01 2.231505000000000109e+03
1.600000000000000033e-02 1.750774999999999970e-01 1.933310000000000173e+01 6.258299999999999841e+01 2.231400000000000091e+03
1.700000000000000122e-02 1.750899999999999956e-01 1.983115000000000094e+01 6.359969999999999857e+01 2.231500000000000000e+03
1.800000000000000211e-02 1.751360000000000139e-01 2.058809999999999718e+01 6.579689999999999372e+01 2.231845000000000255e+03
1.900000000000000300e-02 1.752095000000000180e-01 2.148414999999999964e+01 6.884444999999999482e+01 2.232394999999999982e+03
2.000000000000000042e-02 1.752969999999999806e-01 2.232169999999999987e+01 7.208320000000000505e+01 2.233060000000000400e+03
2.100000000000000130e-02 1.753819999999999824e-01 2.291185000000000116e+01 7.479064999999999941e+01 2.233715000000000146e+03
2.200000000000000219e-02 1.754469999999999918e-01 2.314589999999999748e+01 7.645224999999999227e+01 2.234230000000000018e+03
2.299999999999999961e-02 1.754855000000000165e-01 2.302374999999999972e+01 7.691894999999999527e+01 2.234550000000000182e+03
2.400000000000000050e-02 1.754975000000000007e-01 2.263479999999999848e+01 7.640134999999999366e+01 2.234659999999999854e+03
2.500000000000000139e-02 1.754884999999999917e-01 2.210739999999999839e+01 7.532635000000000502e+01 2.234609999999999673e+03
2.600000000000000228e-02 1.754684999999999995e-01 2.155214999999999748e+01 7.413514999999999588e+01 2.234470000000000255e+03
2.700000000000000316e-02 1.754465000000000052e-01 2.102270000000000039e+01 7.311339999999999861e+01 2.234304999999999836e+03
2.800000000000000058e-02 1.754255000000000120e-01 2.050769999999999982e+01 7.231495000000001028e+01 2.234144999999999982e+03
2.900000000000000147e-02 1.754040000000000044e-01 1.995049999999999812e+01 7.159199999999999875e+01 2.233984999999999673e+03
3.000000000000000236e-02 1.753790000000000071e-01 1.928529999999999944e+01 7.070300000000000296e+01 2.233795000000000073e+03
3.099999999999999978e-02 1.753454999999999875e-01 1.847484999999999999e+01 6.944769999999999754e+01 2.233545000000000073e+03
3.200000000000000067e-02 1.753009999999999846e-01 1.753594999999999970e+01 6.777819999999999823e+01 2.233220000000000255e+03
3.300000000000000155e-02 1.752475000000000005e-01 1.654410000000000025e+01 6.584604999999999109e+01 2.232820000000000164e+03
3.400000000000000244e-02 1.751920000000000144e-01 1.561599999999999966e+01 6.397194999999999965e+01 2.232400000000000091e+03
3.500000000000000333e-02 1.751429999999999931e-01 1.487614999999999910e+01 6.254874999999999829e+01 2.232025000000000091e+03
3.600000000000000422e-02 1.751110000000000166e-01 1.442040000000000077e+01 6.191745000000000232e+01 2.231769999999999982e+03
3.700000000000000511e-02 1.751024999999999943e-01 1.428894999999999982e+01 6.225995000000000346e+01 2.231690000000000055e+03
3.799999999999999906e-02 1.751199999999999979e-01 1.445629999999999882e+01 6.354404999999999859e+01 2.231805000000000291e+03
3.899999999999999994e-02 1.751599999999999824e-01 1.483994999999999997e+01 6.553234999999999388e+01 2.232090000000000146e+03
4.000000000000000083e-02 1.752160000000000106e-01 1.532119999999999926e+01 6.784489999999999554e+01 2.232500000000000000e+03
4.100000000000000172e-02 1.752765000000000017e-01 1.577205000000000013e+01 7.004919999999999902e+01 2.232954999999999927e+03
4.200000000000000261e-02 1.753315000000000012e-01 1.607929999999999993e+01 7.175154999999999461e+01 2.233364999999999782e+03
4.300000000000000350e-02 1.753704999999999847e-01 1.616154999999999831e+01 7.266530000000000200e+01 2.233675000000000182e+03
4.400000000000000439e-02 1.753879999999999884e-01 1.597605000000000075e+01 7.264535000000000764e+01 2.233820000000000164e+03
4.499999999999999833e-02 1.753804999999999947e-01 1.551675000000000004e+01 7.168619999999999948e+01 2.233775000000000091e+03
4.599999999999999922e-02 1.753480000000000039e-01 1.480594999999999928e+01 6.989289999999999736e+01 2.233545000000000073e+03
4.700000000000000011e-02 1.752929999999999766e-01 1.388279999999999959e+01 6.743670000000000186e+01 2.233135000000000218e+03
4.800000000000000100e-02 1.752199999999999869e-01 1.279293499999999995e+01 6.451049999999999329e+01 2.232585000000000036e+03
4.900000000000000189e-02 1.751329999999999831e-01 1.158150499999999994e+01 6.129509999999999792e+01 2.231934999999999945e+03
5.000000000000000278e-02 1.750369999999999981e-01 1.028974999999999973e+01 5.794145000000000323e+01 2.231215000000000146e+03
5.100000000000000366e-02 1.749359999999999804e-01 8.955569999999999808e+00 5.456869999999999976e+01 2.230444999999999709e+03
5.200000000000000455e-02 1.748329999999999884e-01 7.615909999999999513e+00 5.127340000000000231e+01 2.229664999999999964e+03
5.300000000000000544e-02 1.747315000000000118e-01 6.310049999999999493e+00 4.814379999999999882e+01 2.228894999999999982e+03
5.399999999999999939e-02 1.746349999999999847e-01 5.081624999999999837e+00 4.527309999999999945e+01 2.228159999999999854e+03
5.500000000000000028e-02 1.745460000000000067e-01 3.979025000000000034e+00 4.276689999999999969e+01 2.227480000000000018e+03
5.600000000000000117e-02 1.744694999999999996e-01 3.053831999999999880e+00 4.074334999999999951e+01 2.226894999999999982e+03
5.700000000000000205e-02 1.744080000000000075e-01 2.357544000000000306e+00 3.932659999999999911e+01 2.226409999999999854e+03
5.800000000000000294e-02 1.743655000000000066e-01 1.937331999999999832e+00 3.863474999999999682e+01 2.226074999999999818e+03
5.900000000000000383e-02 1.743454999999999866e-01 1.831760000000000055e+00 3.876695000000000135e+01 2.225909999999999854e+03
6.000000000000000472e-02 1.743509999999999782e-01 2.067134999999999945e+00 3.979084999999999894e+01 2.225934999999999945e+03
6.099999999999999867e-02 1.743839999999999835e-01 2.655174999999999841e+00 4.173434999999999917e+01 2.226159999999999854e+03
6.199999999999999956e-02 1.744450000000000167e-01 3.592105000000000103e+00 4.458185000000000286e+01 2.226599999999999909e+03
6.300000000000000044e-02 1.745329999999999937e-01 4.859270000000000422e+00 4.827564999999999884e+01 2.227250000000000000e+03
6.400000000000000133e-02 1.746469999999999967e-01 6.424899999999999167e+00 5.272155000000000058e+01 2.228095000000000255e+03
6.500000000000000222e-02 1.747834999999999805e-01 8.246710000000000207e+00 5.779710000000000036e+01 2.229114999999999782e+03
6.600000000000000311e-02 1.749394999999999978e-01 1.027524000000000015e+01 6.336235000000000639e+01 2.230284999999999854e+03
6.700000000000000400e-02 1.751105000000000023e-01 1.245709499999999892e+01 6.927025000000000432e+01 2.231574999999999818e+03
6.800000000000000488e-02 1.752929999999999766e-01 1.473860000000000170e+01 7.537764999999998849e+01 2.232954999999999927e+03
6.900000000000000577e-02 1.754824999999999857e-01 1.706925000000000026e+01 8.155485000000000184e+01 2.234394999999999982e+03
7.000000000000000666e-02 1.756750000000000256e-01 1.940409999999999968e+01 8.769344999999999857e+01 2.235860000000000127e+03
7.100000000000000755e-02 1.758675000000000099e-01 2.170644999999999669e+01 9.371199999999998909e+01 2.237335000000000036e+03
7.200000000000000844e-02 1.760579999999999923e-01 2.394869999999999877e+01 9.955920000000000414e+01 2.238800000000000182e+03
7.300000000000000933e-02 1.762449999999999850e-01 2.611299999999999955e+01 1.052120999999999924e+02 2.240239999999999782e+03
7.399999999999999634e-02 1.764274999999999871e-01 2.819024999999999892e+01 1.106744999999999948e+02 2.241644999999999982e+03
7.499999999999999722e-02 1.766054999999999986e-01 3.017880000000000251e+01 1.159699999999999989e+02 2.243019999999999982e+03
7.599999999999999811e-02 1.767790000000000195e-01 3.208254999999999768e+01 1.211334999999999980e+02 2.244369999999999891e+03
7.699999999999999900e-02 1.769499999999999962e-01 3.390845000000000198e+01 1.262059999999999889e+02 2.245695000000000164e+03
7.799999999999999989e-02 1.771185000000000120e-01 3.566465000000000174e+01 1.312245000000000061e+02 2.247000000000000000e+03
7.900000000000000078e-02 1.772854999999999848e-01 3.735869999999999891e+01 1.362189999999999941e+02 2.248300000000000182e+03
8.000000000000000167e-02 1.774519999999999986e-01 3.899595000000000056e+01 1.412079999999999984e+02 2.249595000000000255e+03
8.100000000000000255e-02 1.776179999999999981e-01 4.057939999999999969e+01 1.461954999999999814e+02 2.250885000000000218e+03
8.200000000000000344e-02 1.777839999999999976e-01 4.210869999999999891e+01 1.511730000000000018e+02 2.252175000000000182e+03
8.300000000000000433e-02 1.779489999999999961e-01 4.358070000000000022e+01 1.561209999999999809e+02 2.253460000000000036e+03
8.400000000000000522e-02 1.781125000000000069e-01 4.498955000000000126e+01 1.610095000000000027e+02 2.254739999999999782e+03
8.500000000000000611e-02 1.782739999999999880e-01 4.632694999999999652e+01 1.658034999999999854e+02 2.256000000000000000e+03
8.600000000000000699e-02 1.784324999999999939e-01 4.758310000000000173e+01 1.704615000000000009e+02 2.257234999999999673e+03
8.700000000000000788e-02 1.785859999999999947e-01 4.874670000000000414e+01 1.749424999999999955e+02 2.258434999999999945e+03
8.800000000000000877e-02 1.787334999999999896e-01 4.980570000000000164e+01 1.792024999999999864e+02 2.259594999999999800e+03
8.899999999999999578e-02 1.788744999999999918e-01 5.074790000000000134e+01 1.832005000000000052e+02 2.260694999999999709e+03
8.999999999999999667e-02 1.790065000000000128e-01 5.156144999999999357e+01 1.868965000000000032e+02 2.261735000000000127e+03
9.099999999999999756e-02 1.791289999999999827e-01 5.223559999999999803e+01 1.902570000000000050e+02 2.262699999999999818e+03
9.199999999999999845e-02 1.792409999999999837e-01 5.276140000000000185e+01 1.932514999999999930e+02 2.263585000000000036e+03
9.299999999999999933e-02 1.793410000000000004e-01 5.313219999999999743e+01 1.958600000000000136e+02 2.264375000000000000e+03
9.400000000000000022e-02 1.794290000000000052e-01 5.334479999999999933e+01 1.980690000000000168e+02 2.265074999999999818e+03
9.500000000000000111e-02 1.795045000000000113e-01 5.339950000000000330e+01 1.998779999999999859e+02 2.265675000000000182e+03
9.600000000000000200e-02 1.795674999999999910e-01 5.330049999999999955e+01 2.012944999999999993e+02 2.266184999999999945e+03
9.700000000000000289e-02 1.796179999999999999e-01 5.305590000000000117e+01 2.023385000000000105e+02 2.266590000000000146e+03
9.800000000000000377e-02 1.796570000000000111e-01 5.267764999999999986e+01 2.030409999999999968e+02 2.266904999999999745e+03
9.900000000000000466e-02 1.796860000000000124e-01 5.218064999999999998e+01 2.034390000000000214e+02 2.267140000000000327e+03
1.000000000000000056e-01 1.797040000000000026e-01 5.158230000000000359e+01 2.035769999999999982e+02 2.267295000000000073e+03
1.010000000000000064e-01 1.797144999999999992e-01 5.090139999999999532e+01 2.035029999999999859e+02 2.267385000000000218e+03
1.020000000000000073e-01 1.797175000000000022e-01 5.015729999999999933e+01 2.032640000000000100e+02 2.267414999999999964e+03
1.030000000000000082e-01 1.797155000000000002e-01 4.936919999999999931e+01 2.029074999999999989e+02 2.267409999999999854e+03
1.040000000000000091e-01 1.797094999999999942e-01 4.855474999999999852e+01 2.024755000000000109e+02 2.267360000000000127e+03
1.050000000000000100e-01 1.796999999999999986e-01 4.773004999999999853e+01 2.020035000000000025e+02 2.267295000000000073e+03
1.059999999999999970e-01 1.796885000000000010e-01 4.690834999999999866e+01 2.015215000000000032e+02 2.267210000000000036e+03
1.069999999999999979e-01 1.796765000000000168e-01 4.610044999999999504e+01 2.010500000000000114e+02 2.267119999999999891e+03
1.079999999999999988e-01 1.796639999999999904e-01 4.531374999999999886e+01 2.006025000000000205e+02 2.267020000000000437e+03
1.089999999999999997e-01 1.796520000000000061e-01 4.455259999999999820e+01 2.001845000000000141e+02 2.266925000000000182e+03
1.100000000000000006e-01 1.796399999999999941e-01 4.381815000000000282e+01 1.997914999999999850e+02 2.266829999999999927e+03
1.110000000000000014e-01 1.796280000000000099e-01 4.310875000000000057e+01 1.994155000000000086e+02 2.266735000000000127e+03
1.120000000000000023e-01 1.796165000000000123e-01 4.242009999999999792e+01 1.990409999999999968e+02 2.266640000000000327e+03
1.130000000000000032e-01 1.796045000000000003e-01 4.174595000000000056e+01 1.986469999999999914e+02 2.266545000000000073e+03
1.140000000000000041e-01 1.795915000000000150e-01 4.107840000000000202e+01 1.982119999999999891e+02 2.266440000000000055e+03
1.150000000000000050e-01 1.795765000000000000e-01 4.040854999999999819e+01 1.977115000000000009e+02 2.266319999999999709e+03
1.160000000000000059e-01 1.795594999999999830e-01 3.972740000000000293e+01 1.971210000000000093e+02 2.266190000000000055e+03
1.170000000000000068e-01 1.795395000000000185e-01 3.902625000000000455e+01 1.964200000000000159e+02 2.266034999999999854e+03
1.180000000000000077e-01 1.795160000000000089e-01 3.829720000000000368e+01 1.955894999999999868e+02 2.265845000000000255e+03
1.190000000000000085e-01 1.794884999999999953e-01 3.753419999999999845e+01 1.946154999999999973e+02 2.265635000000000218e+03
1.200000000000000094e-01 1.794560000000000044e-01 3.673295000000000243e+01 1.934904999999999973e+02 2.265385000000000218e+03
1.209999999999999964e-01 1.794189999999999952e-01 3.589150000000000063e+01 1.922139999999999986e+02 2.265099999999999909e+03
1.219999999999999973e-01 1.793779999999999819e-01 3.501069999999999993e+01 1.907914999999999850e+02 2.264774999999999636e+03
1.229999999999999982e-01 1.793319999999999914e-01 3.409375000000000000e+01 1.892355000000000018e+02 2.264420000000000073e+03
1.239999999999999991e-01 1.792825000000000113e-01 3.314659999999999940e+01 1.875670000000000073e+02 2.264039999999999964e+03
1.250000000000000000e-01 1.792289999999999994e-01 3.217739999999999867e+01 1.858095000000000141e+02 2.263625000000000000e+03
1.260000000000000009e-01 1.791734999999999856e-01 3.119624999999999915e+01 1.839950000000000045e+02 2.263184999999999945e+03
1.270000000000000018e-01 1.791159999999999974e-01 3.021470000000000056e+01 1.821549999999999727e+02 2.262739999999999782e+03
1.280000000000000027e-01 1.790574999999999806e-01 2.924524999999999864e+01 1.803254999999999768e+02 2.262289999999999964e+03
1.290000000000000036e-01 1.789994999999999781e-01 2.830039999999999978e+01 1.785405000000000086e+02 2.261835000000000036e+03
1.300000000000000044e-01 1.789430000000000187e-01 2.739240000000000208e+01 1.768330000000000268e+02 2.261394999999999982e+03
1.310000000000000053e-01 1.788885000000000058e-01 2.653235000000000099e+01 1.752325000000000159e+02 2.260965000000000146e+03
1.320000000000000062e-01 1.788369999999999960e-01 2.572984999999999900e+01 1.737624999999999886e+02 2.260565000000000055e+03
1.330000000000000071e-01 1.787900000000000045e-01 2.499234999999999829e+01 1.724415000000000191e+02 2.260195000000000164e+03
1.340000000000000080e-01 1.787469999999999892e-01 2.432545000000000002e+01 1.712824999999999989e+02 2.259855000000000018e+03
1.350000000000000089e-01 1.787090000000000067e-01 2.373199999999999932e+01 1.702900000000000205e+02 2.259550000000000182e+03
1.360000000000000098e-01 1.786764999999999881e-01 2.321294999999999931e+01 1.694644999999999868e+02 2.259289999999999964e+03
1.370000000000000107e-01 1.786480000000000012e-01 2.276664999999999850e+01 1.688000000000000114e+02 2.259065000000000055e+03
1.380000000000000115e-01 1.786250000000000060e-01 2.238984999999999914e+01 1.682860000000000014e+02 2.258880000000000109e+03
1.390000000000000124e-01 1.786065000000000014e-01 2.207764999999999844e+01 1.679080000000000155e+02 2.258730000000000018e+03
1.400000000000000133e-01 1.785920000000000007e-01 2.182390000000000185e+01 1.676499999999999773e+02 2.258614999999999782e+03
1.410000000000000142e-01 1.785819999999999907e-01 2.162150000000000105e+01 1.674935000000000116e+02 2.258529999999999745e+03
1.420000000000000151e-01 1.785740000000000105e-01 2.146294999999999931e+01 1.674200000000000159e+02 2.258470000000000255e+03
1.430000000000000160e-01 1.785694999999999921e-01 2.134035000000000082e+01 1.674110000000000014e+02 2.258425000000000182e+03
1.440000000000000169e-01 1.785674999999999901e-01 2.124605000000000032e+01 1.674495000000000005e+02 2.258399999999999636e+03
1.450000000000000178e-01 1.785665000000000169e-01 2.117264999999999731e+01 1.675190000000000055e+02 2.258390000000000327e+03
1.459999999999999909e-01 1.785670000000000035e-01 2.111330000000000240e+01 1.676045000000000016e+02 2.258394999999999982e+03
1.469999999999999918e-01 1.785680000000000045e-01 2.106184999999999974e+01 1.676935000000000002e+02 2.258400000000000091e+03
1.479999999999999927e-01 1.785690000000000055e-01 2.101290000000000191e+01 1.677764999999999986e+02 2.258404999999999745e+03
1.489999999999999936e-01 1.785705000000000209e-01 2.096220000000000283e+01 1.678455000000000155e+02 2.258420000000000073e+03
1.499999999999999944e-01 1.785720000000000085e-01 2.090615000000000023e+01 1.678944999999999936e+02 2.258430000000000291e+03
1.509999999999999953e-01 1.785724999999999951e-01 2.084254999999999924e+01 1.679194999999999993e+02 2.258434999999999945e+03
1.519999999999999962e-01 1.785729999999999817e-01 2.076984999999999815e+01 1.679209999999999923e+02 2.258434999999999945e+03
1.529999999999999971e-01 1.785725000000000229e-01 2.068764999999999787e+01 1.678979999999999961e+02 2.258434999999999945e+03
1.539999999999999980e-01 1.785714999999999941e-01 2.059635000000000105e+01 1.678550000000000182e+02 2.258429999999999836e+03
1.549999999999999989e-01 1.785705000000000209e-01 2.049699999999999989e+01 1.677950000000000159e+02 2.258414999999999964e+03
1.559999999999999998e-01 1.785685000000000189e-01 2.039135000000000275e+01 1.677239999999999895e+02 2.258404999999999745e+03
1.570000000000000007e-01 1.785660000000000025e-01 2.028164999999999907e+01 1.676475000000000080e+02 2.258385000000000218e+03
1.580000000000000016e-01 1.785640000000000005e-01 2.017020000000000124e+01 1.675724999999999909e+02 2.258369999999999891e+03
1.590000000000000024e-01 1.785614999999999841e-01 2.005930000000000035e+01 1.675040000000000191e+02 2.258355000000000018e+03
