# t [s], A [cm^2], U [cm/s], P [cPa], c [cm/s]
1.000000000000000021e-03 7.001275000000000137e-01 5.246449999999999725e-03 1.092249999999999943e+02 1.590380000000000109e+03
2.000000000000000042e-03 7.001184999999999770e-01 2.650945000000000037e-03 1.091980000000000075e+02 1.590380000000000109e+03
3.000000000000000062e-03 7.001954999999999707e-01 1.262373499999999982e-01 1.093290000000000077e+02 1.590409999999999854e+03
4.000000000000000083e-03 7.002420000000000311e-01 2.150393500000000180e-01 1.094334999999999951e+02 1.590440000000000055e+03
5.000000000000000104e-03 7.001859999999999751e-01 1.515900000000000025e-01 1.093060000000000116e+02 1.590409999999999854e+03
6.000000000000000125e-03 7.000954999999999817e-01 2.658299999999996777e-02 1.090080000000000098e+02 1.590345000000000027e+03
7.000000000000000146e-03 7.000049999999999883e-01 -1.107799999999999896e-01 1.086185000000000116e+02 1.590250000000000000e+03
8.000000000000000167e-03 6.998459999999999681e-01 -3.723499999999999588e-01 1.080090000000000003e+02 1.590115000000000009e+03
9.000000000000001055e-03 6.996005000000000695e-01 -7.888749999999999929e-01 1.070974999999999966e+02 1.589904999999999973e+03
1.000000000000000194e-02 6.992674999999999308e-01 -1.347855000000000247e+00 1.058490000000000038e+02 1.589610000000000127e+03
1.099999999999999936e-02 6.988195000000000379e-01 -2.072964999999999947e+00 1.041863999999999919e+02 1.589210000000000036e+03
1.200000000000000025e-02 6.982494999999999674e-01 -2.949934999999999974e+00 1.020709500000000105e+02 1.588694999999999936e+03
1.300000000000000114e-02 6.976160000000000139e-01 -3.848279999999999923e+00 9.962215000000000487e+01 1.588079999999999927e+03
1.400000000000000203e-02 6.970220000000000304e-01 -4.559997000000000078e+00 9.710960000000000036e+01 1.587424999999999955e+03
1.499999999999999944e-02 6.965514999999999901e-01 -4.908515850000000569e+00 9.482249999999999091e+01 1.586799999999999955e+03
1.600000000000000033e-02 6.962260000000000115e-01 -4.825790500000000094e+00 9.294004999999999939e+01 1.586244999999999891e+03
1.700000000000000122e-02 6.960109999999999353e-01 -4.361785000000000245e+00 9.147835000000000605e+01 1.585775000000000091e+03
1.800000000000000211e-02 6.958324999999999649e-01 -3.646475000000000133e+00 9.030879999999999086e+01 1.585365000000000009e+03
1.900000000000000300e-02 6.956180000000000696e-01 -2.832781000000000216e+00 8.922575000000000500e+01 1.584990000000000009e+03
2.000000000000000042e-02 6.953149999999999054e-01 -2.041333499999999912e+00 8.803065000000000850e+01 1.584585000000000036e+03
2.100000000000000130e-02 6.949115000000000153e-01 -1.324994999999999701e+00 8.660224999999999795e+01 1.584135000000000218e+03
2.200000000000000219e-02 6.944320000000000492e-01 -6.664000000000003254e-01 8.492760000000001241e+01 1.583634999999999991e+03
2.299999999999999961e-02 6.939195000000000224e-01 -7.165000000000087965e-03 8.308214999999999861e+01 1.583094999999999800e+03
2.400000000000000050e-02 6.934145000000000447e-01 7.091400000000001036e-01 8.117600000000000193e+01 1.582525000000000091e+03
2.500000000000000139e-02 6.929355000000000375e-01 1.501700000000000035e+00 7.929585000000000150e+01 1.581965000000000146e+03
2.600000000000000228e-02 6.924734999999999641e-01 2.336605000000000043e+00 7.746465000000000600e+01 1.581400000000000091e+03
2.700000000000000316e-02 6.919969999999999732e-01 3.131389999999999674e+00 7.562969999999999970e+01 1.580840000000000146e+03
2.800000000000000058e-02 6.914605000000000334e-01 3.774515000000000065e+00 7.367539999999999623e+01 1.580255000000000109e+03
2.900000000000000147e-02 6.908194999999999197e-01 4.153039999999999843e+00 7.145660000000000878e+01 1.579610000000000127e+03
3.000000000000000236e-02 6.900414999999999743e-01 4.181494999999999962e+00 6.884120000000000061e+01 1.578880000000000109e+03
3.099999999999999978e-02 6.891205000000000247e-01 3.824919999999999654e+00 6.575265000000000271e+01 1.578039999999999964e+03
3.200000000000000067e-02 6.880749999999999922e-01 3.108960000000000612e+00 6.219875000000000398e+01 1.577090000000000146e+03
3.300000000000000155e-02 6.869525000000000770e-01 2.114555000000000184e+00 5.827885000000000559e+01 1.576045000000000073e+03
3.400000000000000244e-02 6.858124999999999361e-01 9.599999999999999645e-01 5.416839999999999833e+01 1.574945000000000164e+03
3.500000000000000333e-02 6.847204999999999542e-01 -2.231000000000005201e-01 5.008814999999999884e+01 1.573835000000000036e+03
3.600000000000000422e-02 6.837355000000000516e-01 -1.311530000000000307e+00 4.626805000000000234e+01 1.572775000000000091e+03
3.700000000000000511e-02 6.829039999999999555e-01 -2.205995000000000150e+00 4.291575000000000273e+01 1.571815000000000055e+03
3.799999999999999906e-02 6.822555000000000147e-01 -2.838229999999999809e+00 4.019375000000000142e+01 1.571000000000000000e+03
3.899999999999999994e-02 6.818054999999999533e-01 -3.171104999999999841e+00 3.820829999999999416e+01 1.570365000000000009e+03
4.000000000000000083e-02 6.815550000000000219e-01 -3.193261000000000127e+00 3.700865000000000293e+01 1.569924999999999955e+03
4.100000000000000172e-02 6.814970000000000194e-01 -2.911360000000000170e+00 3.659515000000000384e+01 1.569695000000000164e+03
4.200000000000000261e-02 6.816185000000000160e-01 -2.341587000000000085e+00 3.693169999999999931e+01 1.569670000000000073e+03
4.300000000000000350e-02 6.819029999999999259e-01 -1.503069999999999684e+00 3.796039999999999992e+01 1.569835000000000036e+03
4.400000000000000439e-02 6.823364999999999014e-01 -4.142850000000000144e-01 3.961314999999999742e+01 1.570180000000000064e+03
4.499999999999999833e-02 6.829030000000000378e-01 9.072249999999999481e-01 4.181935000000000002e+01 1.570684999999999945e+03
4.599999999999999922e-02 6.835875000000000146e-01 2.442560000000000286e+00 4.450844999999999629e+01 1.571335000000000036e+03
4.700000000000000011e-02 6.843730000000000091e-01 4.168074999999999974e+00 4.760899999999999466e+01 1.572110000000000127e+03
4.800000000000000100e-02 6.852409999999999890e-01 6.052900000000000169e+00 5.104585000000000150e+01 1.572985000000000127e+03
4.900000000000000189e-02 6.861699999999999466e-01 8.057484999999999786e+00 5.473819999999999908e+01 1.573949999999999818e+03
5.000000000000000278e-02 6.871355000000000102e-01 1.013491499999999945e+01 5.859944999999999737e+01 1.574974999999999909e+03
5.100000000000000366e-02 6.881150000000000322e-01 1.223367000000000004e+01 6.253894999999999982e+01 1.576039999999999964e+03
5.200000000000000455e-02 6.890830000000000011e-01 1.430137500000000017e+01 6.646684999999999377e+01 1.577115000000000009e+03
5.300000000000000544e-02 6.900199999999999667e-01 1.628926500000000033e+01 7.029914999999999736e+01 1.578179999999999836e+03
5.399999999999999939e-02 6.909079999999999666e-01 1.815565000000000140e+01 7.396365000000000123e+01 1.579214999999999918e+03
5.500000000000000028e-02 6.917359999999999065e-01 1.986874999999999858e+01 7.740434999999999377e+01 1.580210000000000036e+03
5.600000000000000117e-02 6.924980000000000580e-01 2.140794999999999959e+01 8.058485000000000298e+01 1.581139999999999873e+03
5.700000000000000205e-02 6.931924999999999892e-01 2.276400000000000290e+01 8.348904999999999177e+01 1.582009999999999991e+03
5.800000000000000294e-02 6.938225000000000087e-01 2.393750000000000000e+01 8.612014999999999532e+01 1.582809999999999945e+03
5.900000000000000383e-02 6.943965000000000831e-01 2.493779999999999930e+01 8.849830000000000041e+01 1.583545000000000073e+03
6.000000000000000472e-02 6.949235000000000273e-01 2.578059999999999974e+01 9.065704999999999814e+01 1.584220000000000027e+03
6.099999999999999867e-02 6.954145000000000465e-01 2.648629999999999995e+01 9.263925000000000409e+01 1.584844999999999800e+03
6.199999999999999956e-02 6.958824999999999594e-01 2.707825000000000060e+01 9.449349999999999739e+01 1.585434999999999945e+03
6.300000000000000044e-02 6.963390000000000413e-01 2.758129999999999882e+01 9.627049999999999841e+01 1.585994999999999891e+03
6.400000000000000133e-02 6.967965000000000408e-01 2.802089999999999748e+01 9.802039999999999509e+01 1.586539999999999964e+03
6.500000000000000222e-02 6.972654999999999825e-01 2.842170000000000130e+01 9.978940000000000055e+01 1.587085000000000036e+03
6.600000000000000311e-02 6.977549999999999031e-01 2.880614999999999881e+01 1.016182000000000016e+02 1.587644999999999982e+03
6.700000000000000400e-02 6.982720000000000038e-01 2.919359999999999999e+01 1.035390000000000015e+02 1.588220000000000027e+03
6.800000000000000488e-02 6.988210000000000255e-01 2.959884999999999877e+01 1.055734999999999957e+02 1.588815000000000055e+03
6.900000000000000577e-02 6.994029999999999969e-01 3.003079999999999927e+01 1.077315000000000111e+02 1.589444999999999936e+03
7.000000000000000666e-02 7.000155000000000127e-01 3.049210000000000065e+01 1.100105000000000075e+02 1.590105000000000018e+03
7.100000000000000755e-02 7.006529999999999703e-01 3.097874999999999801e+01 1.123924999999999983e+02 1.590789999999999964e+03
7.200000000000000844e-02 7.013059999999999850e-01 3.148039999999999949e+01 1.148499999999999943e+02 1.591500000000000000e+03
7.300000000000000933e-02 7.019640000000000324e-01 3.198150000000000048e+01 1.173425000000000011e+02 1.592220000000000027e+03
7.399999999999999634e-02 7.026135000000000019e-01 3.246249999999999858e+01 1.198215000000000003e+02 1.592940000000000055e+03
7.499999999999999722e-02 7.032410000000000050e-01 3.290144999999999698e+01 1.222359999999999900e+02 1.593644999999999982e+03
7.599999999999999811e-02 7.038329999999999309e-01 3.327595000000000169e+01 1.245319999999999965e+02 1.594324999999999818e+03
7.699999999999999900e-02 7.043774999999999897e-01 3.356449999999999534e+01 1.266574999999999989e+02 1.594960000000000036e+03
7.799999999999999989e-02 7.048624999999999474e-01 3.374819999999999709e+01 1.285674999999999955e+02 1.595545000000000073e+03
7.900000000000000078e-02 7.052804999999999769e-01 3.381175000000000352e+01 1.302239999999999895e+02 1.596065000000000055e+03
8.000000000000000167e-02 7.056249999999999467e-01 3.374439999999999884e+01 1.315985000000000014e+02 1.596509999999999991e+03
8.100000000000000255e-02 7.058934999999999516e-01 3.354025000000000034e+01 1.326759999999999877e+02 1.596875000000000000e+03
8.200000000000000344e-02 7.060855000000000325e-01 3.319865000000000066e+01 1.334495000000000005e+02 1.597154999999999973e+03
8.300000000000000433e-02 7.062040000000000539e-01 3.272379999999999711e+01 1.339259999999999877e+02 1.597355000000000018e+03
8.400000000000000522e-02 7.062534999999999785e-01 3.212469999999999715e+01 1.341220000000000141e+02 1.597470000000000027e+03
8.500000000000000611e-02 7.062410000000000077e-01 3.141420000000000101e+01 1.340629999999999882e+02 1.597514999999999873e+03
8.600000000000000699e-02 7.061749999999999972e-01 3.060869999999999891e+01 1.337810000000000059e+02 1.597494999999999891e+03
8.700000000000000788e-02 7.060665000000000413e-01 2.972724999999999795e+01 1.333139999999999930e+02 1.597414999999999964e+03
8.800000000000000877e-02 7.059239999999999959e-01 2.879050000000000153e+01 1.327044999999999959e+02 1.597284999999999854e+03
8.899999999999999578e-02 7.057594999999999841e-01 2.781984999999999886e+01 1.319945000000000164e+02 1.597125000000000000e+03
8.999999999999999667e-02 7.055835000000000301e-01 2.683660000000000068e+01 1.312270000000000039e+02 1.596934999999999945e+03
9.099999999999999756e-02 7.054049999999999487e-01 2.586094999999999899e+01 1.304424999999999955e+02 1.596735000000000127e+03
9.199999999999999845e-02 7.052329999999999988e-01 2.491134999999999877e+01 1.296759999999999877e+02 1.596529999999999973e+03
9.299999999999999933e-02 7.050739999999999785e-01 2.400339999999999918e+01 1.289584999999999866e+02 1.596340000000000146e+03
9.400000000000000022e-02 7.049345000000000194e-01 2.314959999999999951e+01 1.283145000000000095e+02 1.596154999999999973e+03
9.500000000000000111e-02 7.048170000000000268e-01 2.235880000000000223e+01 1.277604999999999933e+02 1.595989999999999782e+03
9.600000000000000200e-02 7.047235000000000582e-01 2.163595000000000113e+01 1.273054999999999950e+02 1.595849999999999909e+03
9.700000000000000289e-02 7.046535000000000437e-01 2.098225000000000051e+01 1.269519999999999982e+02 1.595730000000000018e+03
9.800000000000000377e-02 7.046059999999999546e-01 2.039520000000000266e+01 1.266935000000000002e+02 1.595639999999999873e+03
9.900000000000000466e-02 7.045759999999999801e-01 1.986885000000000190e+01 1.265199999999999960e+02 1.595575000000000045e+03
1.000000000000000056e-01 7.045605000000000340e-01 1.939450000000000074e+01 1.264129999999999967e+02 1.595525000000000091e+03
1.010000000000000064e-01 7.045519999999999561e-01 1.896109999999999829e+01 1.263515000000000015e+02 1.595490000000000009e+03
1.020000000000000073e-01 7.045460000000000056e-01 1.855604999999999905e+01 1.263110000000000070e+02 1.595460000000000036e+03
1.030000000000000082e-01 7.045349999999999113e-01 1.816575000000000273e+01 1.262665000000000077e+02 1.595434999999999945e+03
1.040000000000000091e-01 7.045135000000000147e-01 1.777649999999999864e+01 1.261915000000000049e+02 1.595404999999999973e+03
1.050000000000000100e-01 7.044745000000000035e-01 1.737504999999999811e+01 1.260610000000000070e+02 1.595365000000000009e+03
1.059999999999999970e-01 7.044135000000000257e-01 1.694935000000000258e+01 1.258539999999999992e+02 1.595305000000000064e+03
1.069999999999999979e-01 7.043260000000000076e-01 1.648924999999999841e+01 1.255515000000000043e+02 1.595220000000000027e+03
1.079999999999999988e-01 7.042094999999999327e-01 1.598675000000000068e+01 1.251389999999999958e+02 1.595110000000000127e+03
1.089999999999999997e-01 7.040619999999999656e-01 1.543679999999999986e+01 1.246084999999999923e+02 1.594970000000000027e+03
1.100000000000000006e-01 7.038845000000000240e-01 1.483714999999999939e+01 1.239579999999999984e+02 1.594795000000000073e+03
1.110000000000000014e-01 7.036769999999999969e-01 1.418879000000000090e+01 1.231889999999999930e+02 1.594589999999999918e+03
1.120000000000000023e-01 7.034430000000000405e-01 1.349580500000000072e+01 1.223119999999999976e+02 1.594360000000000127e+03
1.130000000000000032e-01 7.031875000000000764e-01 1.276515000000000022e+01 1.213404999999999916e+02 1.594095000000000027e+03
1.140000000000000041e-01 7.029149999999999565e-01 1.200645000000000095e+01 1.202950000000000017e+02 1.593815000000000055e+03
1.150000000000000050e-01 7.026315000000000754e-01 1.123155000000000037e+01 1.191975000000000051e+02 1.593515000000000100e+03
1.160000000000000059e-01 7.023454999999999560e-01 1.045382000000000033e+01 1.180745000000000005e+02 1.593199999999999818e+03
1.170000000000000068e-01 7.020619999999999639e-01 9.687675000000000480e+00 1.169544999999999959e+02 1.592884999999999991e+03
1.180000000000000077e-01 7.017889999999999961e-01 8.947839999999999350e+00 1.158659999999999997e+02 1.592575000000000045e+03
1.190000000000000085e-01 7.015344999999999498e-01 8.248670000000000613e+00 1.148354999999999961e+02 1.592279999999999973e+03
1.200000000000000094e-01 7.013030000000000097e-01 7.603470000000000617e+00 1.138894999999999982e+02 1.592000000000000000e+03
1.209999999999999964e-01 7.011005000000000154e-01 7.023930000000000007e+00 1.130490000000000066e+02 1.591750000000000000e+03
1.219999999999999973e-01 7.009300000000000530e-01 6.519524999999999793e+00 1.123325000000000102e+02 1.591530000000000200e+03
1.229999999999999982e-01 7.007959999999999745e-01 6.097160000000000579e+00 1.117524999999999977e+02 1.591335000000000036e+03
1.239999999999999991e-01 7.006980000000000430e-01 5.760950000000000237e+00 1.113174999999999955e+02 1.591190000000000055e+03
1.250000000000000000e-01 7.006364999999999954e-01 5.512075000000000280e+00 1.110275000000000034e+02 1.591079999999999927e+03
1.260000000000000009e-01 7.006105000000000249e-01 5.348869999999999791e+00 1.108799999999999955e+02 1.591005000000000109e+03
1.270000000000000018e-01 7.006164999999999754e-01 5.266989999999999839e+00 1.108665000000000020e+02 1.590969999999999800e+03
1.280000000000000027e-01 7.006509999999999128e-01 5.259724999999999540e+00 1.109729999999999990e+02 1.590974999999999909e+03
1.290000000000000036e-01 7.007105000000000139e-01 5.318414999999999893e+00 1.111844999999999999e+02 1.591000000000000000e+03
1.300000000000000044e-01 7.007885000000000364e-01 5.432869999999999422e+00 1.114805000000000064e+02 1.591059999999999945e+03
1.310000000000000053e-01 7.008809999999999762e-01 5.591884999999999550e+00 1.118410000000000082e+02 1.591134999999999991e+03
1.320000000000000062e-01 7.009814999999999241e-01 5.783735000000000070e+00 1.122445000000000022e+02 1.591234999999999900e+03
1.330000000000000071e-01 7.010859999999999870e-01 5.996640000000000192e+00 1.126699999999999875e+02 1.591335000000000036e+03
1.340000000000000080e-01 7.011884999999999923e-01 6.219210000000000349e+00 1.130969999999999942e+02 1.591445000000000164e+03
1.350000000000000089e-01 7.012855000000000061e-01 6.440839999999999677e+00 1.135090000000000003e+02 1.591549999999999955e+03
1.360000000000000098e-01 7.013735000000000941e-01 6.652034999999999698e+00 1.138890000000000100e+02 1.591654999999999973e+03
1.370000000000000107e-01 7.014495000000000591e-01 6.844664999999999999e+00 1.142249999999999943e+02 1.591750000000000000e+03
1.380000000000000115e-01 7.015114999999999545e-01 7.012154999999999916e+00 1.145080000000000098e+02 1.591829999999999927e+03
1.390000000000000124e-01 7.015580000000000149e-01 7.149589999999999890e+00 1.147314999999999969e+02 1.591900000000000091e+03
1.400000000000000133e-01 7.015899999999999359e-01 7.253804999999999836e+00 1.148919999999999959e+02 1.591949999999999818e+03
1.410000000000000142e-01 7.016059999999999519e-01 7.323280000000000456e+00 1.149904999999999973e+02 1.591990000000000009e+03
1.420000000000000151e-01 7.016080000000000094e-01 7.358144999999999492e+00 1.150294999999999987e+02 1.592009999999999991e+03
1.430000000000000160e-01 7.015970000000000262e-01 7.360005000000000130e+00 1.150134999999999934e+02 1.592019999999999982e+03
1.440000000000000169e-01 7.015754999999999075e-01 7.331769999999999676e+00 1.149509999999999934e+02 1.592009999999999991e+03
1.450000000000000178e-01 7.015460000000000029e-01 7.277435000000000542e+00 1.148489999999999895e+02 1.591990000000000009e+03
1.459999999999999909e-01 7.015099999999999669e-01 7.201840000000000686e+00 1.147199999999999989e+02 1.591964999999999918e+03
1.469999999999999918e-01 7.014709999999999557e-01 7.110405000000000086e+00 1.145724999999999909e+02 1.591929999999999836e+03
1.479999999999999927e-01 7.014325000000000143e-01 7.008860000000000312e+00 1.144175000000000040e+02 1.591894999999999982e+03
1.489999999999999936e-01 7.013949999999999907e-01 6.902944999999999887e+00 1.142655000000000030e+02 1.591860000000000127e+03
1.499999999999999944e-01 7.013624999999999998e-01 6.798159999999999314e+00 1.141255000000000024e+02 1.591824999999999818e+03
1.509999999999999953e-01 7.013355000000000006e-01 6.699519999999999698e+00 1.140049999999999955e+02 1.591789999999999964e+03
1.519999999999999962e-01 7.013165000000000093e-01 6.611335000000000406e+00 1.139114999999999895e+02 1.591764999999999873e+03
1.529999999999999971e-01 7.013054999999999151e-01 6.537060000000000315e+00 1.138490000000000038e+02 1.591744999999999891e+03
1.539999999999999980e-01 7.013035000000000796e-01 6.479169999999999874e+00 1.138205000000000098e+02 1.591735000000000127e+03
1.549999999999999989e-01 7.013100000000001000e-01 6.439090000000000202e+00 1.138259999999999934e+02 1.591735000000000127e+03
1.559999999999999998e-01 7.013255000000000461e-01 6.417229999999999990e+00 1.138654999999999973e+02 1.591740000000000009e+03
1.570000000000000007e-01 7.013475000000000126e-01 6.413014999999999688e+00 1.139354999999999905e+02 1.591755000000000109e+03
1.580000000000000016e-01 7.013765000000000693e-01 6.424974999999999881e+00 1.140310000000000059e+02 1.591775000000000091e+03
1.590000000000000024e-01 7.014095000000000191e-01 6.450924999999999798e+00 1.141470000000000056e+02 1.591805000000000064e+03
