# t [s], A [cm^2], U [cm/s], P [cPa], c [cm/s]
1.000000000000000021e-03 1.859744999999999870e-01 4.415631500000000154e-01 1.039660000000000082e+02 2.002275000000000091e+03
2.000000000000000042e-03 1.859099999999999919e-01 2.284985999999999962e+00 1.000921000000000021e+02 2.001735000000000127e+03
3.000000000000000062e-03 1.857405000000000028e-01 4.519275500000000001e+00 9.482529999999999859e+01 2.000394999999999982e+03
4.000000000000000083e-03 1.855144999999999988e-01 7.014178499999999872e+00 8.929210000000000491e+01 1.998630000000000109e+03
5.000000000000000104e-03 1.852759999999999962e-01 9.666104999999999947e+00 8.451030000000000086e+01 1.996784999999999854e+03
6.000000000000000125e-03 1.850490000000000190e-01 1.223418000000000028e+01 8.067175000000000296e+01 1.995050000000000182e+03
7.000000000000000146e-03 1.848385000000000167e-01 1.447256499999999946e+01 7.739135000000000275e+01 1.993480000000000018e+03
8.000000000000000167e-03 1.846475000000000199e-01 1.632779999999999987e+01 7.444839999999999236e+01 1.992075000000000045e+03
9.000000000000001055e-03 1.844824999999999937e-01 1.786335000000000051e+01 7.194854999999999734e+01 1.990875000000000000e+03
1.000000000000000194e-02 1.843449999999999811e-01 1.911619999999999919e+01 6.994790000000000418e+01 1.989884999999999991e+03
1.099999999999999936e-02 1.842340000000000089e-01 2.010900000000000176e+01 6.839545000000001096e+01 1.989099999999999909e+03
1.200000000000000025e-02 1.841474999999999917e-01 2.087024999999999864e+01 6.723264999999999247e+01 1.988490000000000009e+03
1.300000000000000114e-02 1.840804999999999803e-01 2.141145000000000209e+01 6.635885000000000389e+01 1.988035000000000082e+03
1.400000000000000203e-02 1.840279999999999971e-01 2.174885000000000090e+01 6.564714999999999634e+01 1.987679999999999836e+03
1.499999999999999944e-02 1.839874999999999983e-01 2.196665000000000134e+01 6.511865000000000236e+01 1.987420000000000073e+03
1.600000000000000033e-02 1.839655000000000040e-01 2.222995000000000232e+01 6.505870000000000175e+01 1.987284999999999854e+03
1.700000000000000122e-02 1.839740000000000264e-01 2.270980000000000132e+01 6.588289999999999225e+01 1.987355000000000018e+03
1.800000000000000211e-02 1.840220000000000189e-01 2.347959999999999781e+01 6.783660000000000423e+01 1.987715000000000146e+03
1.900000000000000300e-02 1.841099999999999959e-01 2.446155000000000257e+01 7.076399999999999579e+01 1.988340000000000146e+03
2.000000000000000042e-02 1.842239999999999989e-01 2.545349999999999824e+01 7.410065000000000168e+01 1.989170000000000073e+03
2.100000000000000130e-02 1.843420000000000059e-01 2.621244999999999692e+01 7.707519999999999527e+01 1.990039999999999964e+03
2.200000000000000219e-02 1.844389999999999918e-01 2.654905000000000115e+01 7.900039999999999907e+01 1.990769999999999982e+03
2.299999999999999961e-02 1.844979999999999953e-01 2.639280000000000115e+01 7.951630000000000109e+01 1.991230000000000018e+03
2.400000000000000050e-02 1.845124999999999960e-01 2.580604999999999905e+01 7.869159999999999400e+01 1.991365000000000009e+03
2.500000000000000139e-02 1.844874999999999987e-01 2.494669999999999987e+01 7.695525000000000659e+01 1.991215000000000146e+03
2.600000000000000228e-02 1.844379999999999908e-01 2.400140000000000029e+01 7.490315000000001078e+01 1.990875000000000000e+03
2.700000000000000316e-02 1.843810000000000171e-01 2.311894999999999811e+01 7.307224999999999682e+01 1.990470000000000027e+03
2.800000000000000058e-02 1.843305000000000082e-01 2.236974999999999980e+01 7.177340000000000941e+01 1.990094999999999800e+03
2.900000000000000147e-02 1.842924999999999980e-01 2.174089999999999989e+01 7.103374999999999773e+01 1.989815000000000055e+03
3.000000000000000236e-02 1.842659999999999854e-01 2.116120000000000090e+01 7.064914999999999168e+01 1.989619999999999891e+03
3.099999999999999978e-02 1.842449999999999921e-01 2.054204999999999970e+01 7.030570000000000164e+01 1.989460000000000036e+03
3.200000000000000067e-02 1.842209999999999959e-01 1.981850000000000023e+01 6.972029999999999461e+01 1.989289999999999964e+03
3.300000000000000155e-02 1.841875000000000040e-01 1.897860000000000014e+01 6.875370000000000914e+01 1.989045000000000073e+03
3.400000000000000244e-02 1.841424999999999867e-01 1.807310000000000016e+01 6.746580000000000155e+01 1.988730000000000018e+03
3.500000000000000333e-02 1.840920000000000056e-01 1.720335000000000036e+01 6.610034999999999172e+01 1.988364999999999782e+03
3.600000000000000422e-02 1.840439999999999854e-01 1.649255000000000138e+01 6.500820000000000221e+01 1.988019999999999982e+03
3.700000000000000511e-02 1.840114999999999945e-01 1.604959999999999809e+01 6.453530000000000655e+01 1.987769999999999982e+03
3.799999999999999906e-02 1.840034999999999865e-01 1.593645000000000067e+01 6.491400000000000148e+01 1.987695000000000164e+03
3.899999999999999994e-02 1.840260000000000229e-01 1.615044999999999931e+01 6.619030000000000769e+01 1.987840000000000146e+03
4.000000000000000083e-02 1.840779999999999916e-01 1.662279999999999802e+01 6.820490000000000919e+01 1.988194999999999936e+03
4.100000000000000172e-02 1.841524999999999967e-01 1.723355000000000103e+01 7.062800000000000011e+01 1.988719999999999800e+03
4.200000000000000261e-02 1.842374999999999985e-01 1.783574999999999733e+01 7.303190000000000737e+01 1.989335000000000036e+03
4.300000000000000350e-02 1.843190000000000106e-01 1.828249999999999886e+01 7.497719999999999629e+01 1.989924999999999955e+03
4.400000000000000439e-02 1.843815000000000037e-01 1.845000000000000284e+01 7.609229999999999450e+01 1.990384999999999991e+03
4.499999999999999833e-02 1.844135000000000080e-01 1.825379999999999825e+01 7.612944999999999141e+01 1.990630000000000109e+03
4.599999999999999922e-02 1.844069999999999876e-01 1.765514999999999901e+01 7.498914999999999509e+01 1.990599999999999909e+03
4.700000000000000011e-02 1.843575000000000075e-01 1.665899999999999892e+01 7.271474999999999511e+01 1.990255000000000109e+03
4.800000000000000100e-02 1.842675000000000007e-01 1.530610000000000070e+01 6.946340000000000714e+01 1.989619999999999891e+03
4.900000000000000189e-02 1.841420000000000001e-01 1.366166500000000106e+01 6.546465000000000600e+01 1.988724999999999909e+03
5.000000000000000278e-02 1.839884999999999993e-01 1.180381500000000017e+01 6.097755000000000081e+01 1.987615000000000009e+03
5.100000000000000366e-02 1.838150000000000062e-01 9.814479999999999649e+00 5.625605000000000189e+01 1.986365000000000009e+03
5.200000000000000455e-02 1.836309999999999887e-01 7.773455000000000226e+00 5.152720000000000056e+01 1.985030000000000200e+03
5.300000000000000544e-02 1.834435000000000093e-01 5.755570000000000519e+00 4.698230000000000217e+01 1.983675000000000182e+03
5.399999999999999939e-02 1.832619999999999805e-01 3.830408999999999509e+00 4.277915000000000134e+01 1.982349999999999909e+03
5.500000000000000028e-02 1.830910000000000037e-01 2.062990000000000101e+00 3.904970000000000141e+01 1.981099999999999909e+03
5.600000000000000117e-02 1.829375000000000029e-01 5.145049999999999901e-01 3.590859999999999985e+01 1.979980000000000018e+03
5.700000000000000205e-02 1.828064999999999829e-01 -7.578300000000000036e-01 3.345924999999999727e+01 1.979009999999999991e+03
5.800000000000000294e-02 1.827019999999999755e-01 -1.702204000000000050e+00 3.179534999999999911e+01 1.978235000000000127e+03
5.900000000000000383e-02 1.826284999999999992e-01 -2.274728000000000083e+00 3.099725000000000108e+01 1.977684999999999945e+03
6.000000000000000472e-02 1.825900000000000023e-01 -2.442694999999999617e+00 3.112465000000000259e+01 1.977380000000000109e+03
6.099999999999999867e-02 1.825884999999999869e-01 -2.187724999999999920e+00 3.220835000000000292e+01 1.977345000000000027e+03
6.199999999999999956e-02 1.826254999999999962e-01 -1.508144999999999847e+00 3.424264999999999759e+01 1.977585000000000036e+03
6.300000000000000044e-02 1.827004999999999879e-01 -4.200200000000000600e-01 3.718104999999999905e+01 1.978099999999999909e+03
6.400000000000000133e-02 1.828124999999999889e-01 1.043514999999999748e+00 4.093699999999999761e+01 1.978880000000000109e+03
6.500000000000000222e-02 1.829569999999999808e-01 2.834460999999999675e+00 4.538864999999999839e+01 1.979900000000000091e+03
6.600000000000000311e-02 1.831300000000000150e-01 4.893359999999999488e+00 5.038795000000000357e+01 1.981134999999999991e+03
6.700000000000000400e-02 1.833265000000000033e-01 7.153330000000000410e+00 5.577179999999999893e+01 1.982550000000000182e+03
6.800000000000000488e-02 1.835390000000000077e-01 9.544309999999999405e+00 6.137330000000000041e+01 1.984079999999999927e+03
6.900000000000000577e-02 1.837630000000000097e-01 1.199655999999999878e+01 6.703225000000000477e+01 1.985704999999999927e+03
7.000000000000000666e-02 1.839909999999999879e-01 1.444427499999999931e+01 7.260349999999999682e+01 1.987365000000000009e+03
7.100000000000000755e-02 1.842174999999999785e-01 1.682764999999999844e+01 7.796240000000000236e+01 1.989025000000000091e+03
7.200000000000000844e-02 1.844385000000000052e-01 1.909530000000000172e+01 8.300874999999999204e+01 1.990644999999999982e+03
7.300000000000000933e-02 1.846484999999999932e-01 2.120555000000000234e+01 8.766915000000000191e+01 1.992199999999999818e+03
7.399999999999999634e-02 1.848454999999999959e-01 2.312790000000000035e+01 9.189789999999999281e+01 1.993654999999999973e+03
7.499999999999999722e-02 1.850264999999999826e-01 2.484344999999999715e+01 9.567740000000000578e+01 1.995005000000000109e+03
7.599999999999999811e-02 1.851915000000000089e-01 2.634559999999999746e+01 9.901730000000000587e+01 1.996235000000000127e+03
7.699999999999999900e-02 1.853405000000000191e-01 2.763960000000000150e+01 1.019532999999999987e+02 1.997349999999999909e+03
7.799999999999999989e-02 1.854740000000000000e-01 2.874150000000000205e+01 1.045432500000000005e+02 1.998355000000000018e+03
7.900000000000000078e-02 1.855939999999999812e-01 2.967660000000000053e+01 1.068624999999999972e+02 1.999265000000000100e+03
8.000000000000000167e-02 1.857044999999999946e-01 3.047700000000000031e+01 1.089995000000000118e+02 2.000095000000000027e+03
8.100000000000000255e-02 1.858069999999999999e-01 3.117900000000000205e+01 1.110455000000000041e+02 2.000875000000000000e+03
8.200000000000000344e-02 1.859055000000000013e-01 3.181995000000000218e+01 1.130910000000000082e+02 2.001619999999999891e+03
8.300000000000000433e-02 1.860040000000000027e-01 3.243574999999999875e+01 1.152175000000000011e+02 2.002360000000000127e+03
8.400000000000000522e-02 1.861045000000000060e-01 3.305740000000000123e+01 1.174890000000000043e+02 2.003119999999999891e+03
8.500000000000000611e-02 1.862105000000000010e-01 3.370955000000000013e+01 1.199525000000000006e+02 2.003910000000000082e+03
8.600000000000000699e-02 1.863230000000000164e-01 3.440859999999999985e+01 1.226280000000000001e+02 2.004750000000000000e+03
8.700000000000000788e-02 1.864425000000000110e-01 3.516199999999999903e+01 1.255155000000000030e+02 2.005639999999999873e+03
8.800000000000000877e-02 1.865694999999999992e-01 3.596795000000000186e+01 1.285894999999999868e+02 2.006585000000000036e+03
8.899999999999999578e-02 1.867030000000000078e-01 3.681615000000000038e+01 1.318060000000000116e+02 2.007579999999999927e+03
8.999999999999999667e-02 1.868410000000000071e-01 3.768880000000000052e+01 1.351030000000000086e+02 2.008605000000000018e+03
9.099999999999999756e-02 1.869814999999999949e-01 3.856260000000000332e+01 1.384069999999999823e+02 2.009655000000000200e+03
9.199999999999999845e-02 1.871220000000000105e-01 3.940984999999999872e+01 1.416399999999999864e+02 2.010710000000000036e+03
9.299999999999999933e-02 1.872594999999999954e-01 4.020114999999999839e+01 1.447210000000000036e+02 2.011735000000000127e+03
9.400000000000000022e-02 1.873905000000000154e-01 4.090690000000000026e+01 1.475734999999999957e+02 2.012720000000000027e+03
9.500000000000000111e-02 1.875120000000000120e-01 4.149930000000000518e+01 1.501290000000000191e+02 2.013634999999999991e+03
9.600000000000000200e-02 1.876224999999999976e-01 4.195374999999999943e+01 1.523299999999999841e+02 2.014465000000000146e+03
9.700000000000000289e-02 1.877185000000000104e-01 4.225025000000000119e+01 1.541330000000000098e+02 2.015194999999999936e+03
9.800000000000000377e-02 1.877989999999999937e-01 4.237449999999999761e+01 1.555099999999999909e+02 2.015809999999999945e+03
9.900000000000000466e-02 1.878620000000000012e-01 4.231804999999999950e+01 1.564479999999999791e+02 2.016295000000000073e+03
1.000000000000000056e-01 1.879085000000000061e-01 4.207914999999999850e+01 1.569509999999999934e+02 2.016655000000000200e+03
1.010000000000000064e-01 1.879365000000000063e-01 4.166249999999999432e+01 1.570364999999999895e+02 2.016880000000000109e+03
1.020000000000000073e-01 1.879480000000000040e-01 4.107860000000000156e+01 1.567370000000000232e+02 2.016980000000000018e+03
1.030000000000000082e-01 1.879434999999999856e-01 4.034340000000000259e+01 1.560944999999999823e+02 2.016960000000000036e+03
1.040000000000000091e-01 1.879250000000000087e-01 3.947729999999999961e+01 1.551610000000000014e+02 2.016835000000000036e+03
1.050000000000000100e-01 1.878944999999999921e-01 3.850419999999999732e+01 1.539939999999999998e+02 2.016619999999999891e+03
1.059999999999999970e-01 1.878540000000000210e-01 3.745009999999999906e+01 1.526535000000000082e+02 2.016324999999999818e+03
1.069999999999999979e-01 1.878055000000000141e-01 3.634215000000000373e+01 1.512015000000000100e+02 2.015969999999999800e+03
1.079999999999999988e-01 1.877515000000000156e-01 3.520734999999999815e+01 1.496970000000000027e+02 2.015569999999999936e+03
1.089999999999999997e-01 1.876944999999999864e-01 3.407160000000000366e+01 1.481940000000000168e+02 2.015150000000000091e+03
1.100000000000000006e-01 1.876369999999999982e-01 3.295850000000000080e+01 1.467425000000000068e+02 2.014720000000000027e+03
1.110000000000000014e-01 1.875799999999999967e-01 3.188855000000000217e+01 1.453815000000000168e+02 2.014295000000000073e+03
1.120000000000000023e-01 1.875255000000000116e-01 3.087875000000000014e+01 1.441430000000000007e+02 2.013889999999999873e+03
1.130000000000000032e-01 1.874760000000000038e-01 2.994170000000000087e+01 1.430494999999999948e+02 2.013509999999999991e+03
1.140000000000000041e-01 1.874304999999999999e-01 2.908539999999999992e+01 1.421114999999999782e+02 2.013170000000000073e+03
1.150000000000000050e-01 1.873905000000000154e-01 2.831340000000000146e+01 1.413304999999999723e+02 2.012865000000000009e+03
1.160000000000000059e-01 1.873564999999999814e-01 2.762434999999999974e+01 1.406970000000000027e+02 2.012605000000000018e+03
1.170000000000000068e-01 1.873274999999999801e-01 2.701290000000000191e+01 1.401940000000000168e+02 2.012380000000000109e+03
1.180000000000000077e-01 1.873040000000000260e-01 2.646970000000000312e+01 1.397944999999999993e+02 2.012190000000000055e+03
1.190000000000000085e-01 1.872834999999999916e-01 2.598219999999999885e+01 1.394675000000000011e+02 2.012034999999999854e+03
1.200000000000000094e-01 1.872665000000000024e-01 2.553549999999999898e+01 1.391759999999999877e+02 2.011900000000000091e+03
1.209999999999999964e-01 1.872500000000000275e-01 2.511289999999999978e+01 1.388815000000000168e+02 2.011775000000000091e+03
1.219999999999999973e-01 1.872340000000000115e-01 2.469705000000000084e+01 1.385439999999999827e+02 2.011650000000000091e+03
1.229999999999999982e-01 1.872159999999999935e-01 2.427089999999999748e+01 1.381254999999999882e+02 2.011514999999999873e+03
1.239999999999999991e-01 1.871955000000000147e-01 2.381839999999999691e+01 1.375925000000000011e+02 2.011355000000000018e+03
1.250000000000000000e-01 1.871700000000000030e-01 2.332540000000000191e+01 1.369155000000000086e+02 2.011164999999999964e+03
1.260000000000000009e-01 1.871395000000000142e-01 2.278059999999999974e+01 1.360729999999999791e+02 2.010934999999999945e+03
1.270000000000000018e-01 1.871025000000000049e-01 2.217575000000000074e+01 1.350514999999999759e+02 2.010659999999999854e+03
1.280000000000000027e-01 1.870580000000000020e-01 2.150659999999999883e+01 1.338464999999999918e+02 2.010329999999999927e+03
1.290000000000000036e-01 1.870070000000000066e-01 2.077260000000000062e+01 1.324629999999999939e+02 2.009954999999999927e+03
1.300000000000000044e-01 1.869489999999999763e-01 1.997744999999999749e+01 1.309155000000000086e+02 2.009525000000000091e+03
1.310000000000000053e-01 1.868839999999999946e-01 1.912859999999999872e+01 1.292270000000000039e+02 2.009045000000000073e+03
1.320000000000000062e-01 1.868139999999999801e-01 1.823695000000000022e+01 1.274269999999999925e+02 2.008525000000000091e+03
1.330000000000000071e-01 1.867395000000000027e-01 1.731640000000000157e+01 1.255529999999999973e+02 2.007969999999999800e+03
1.340000000000000080e-01 1.866619999999999946e-01 1.638295000000000101e+01 1.236450000000000102e+02 2.007394999999999982e+03
1.350000000000000089e-01 1.865824999999999845e-01 1.545410000000000039e+01 1.217464999999999975e+02 2.006809999999999945e+03
1.360000000000000098e-01 1.865040000000000031e-01 1.454795000000000016e+01 1.199000000000000057e+02 2.006220000000000027e+03
1.370000000000000107e-01 1.864270000000000094e-01 1.368230000000000146e+01 1.181479999999999961e+02 2.005644999999999982e+03
1.380000000000000115e-01 1.863529999999999909e-01 1.287385000000000090e+01 1.165270000000000010e+02 2.005099999999999909e+03
1.390000000000000124e-01 1.862845000000000195e-01 1.213741999999999877e+01 1.150695000000000050e+02 2.004585000000000036e+03
1.400000000000000133e-01 1.862219999999999986e-01 1.148544000000000054e+01 1.138019999999999925e+02 2.004115000000000009e+03
1.410000000000000142e-01 1.861669999999999991e-01 1.092733499999999935e+01 1.127429999999999950e+02 2.003700000000000045e+03
1.420000000000000151e-01 1.861200000000000077e-01 1.046943500000000071e+01 1.119029999999999916e+02 2.003345000000000027e+03
1.430000000000000160e-01 1.860819999999999974e-01 1.011456000000000088e+01 1.112860000000000014e+02 2.003054999999999836e+03
1.440000000000000169e-01 1.860525000000000095e-01 9.862284999999999968e+00 1.108850000000000051e+02 2.002829999999999927e+03
1.450000000000000178e-01 1.860315000000000163e-01 9.708819999999999339e+00 1.106899999999999977e+02 2.002664999999999964e+03
1.459999999999999909e-01 1.860195000000000043e-01 9.647600000000000620e+00 1.106814999999999998e+02 2.002559999999999945e+03
1.469999999999999918e-01 1.860140000000000127e-01 9.669509999999998939e+00 1.108375000000000057e+02 2.002515000000000100e+03
1.479999999999999927e-01 1.860159999999999869e-01 9.763459999999998473e+00 1.111315000000000026e+02 2.002525000000000091e+03
1.489999999999999936e-01 1.860240000000000227e-01 9.916869999999999408e+00 1.115335000000000036e+02 2.002575000000000045e+03
1.499999999999999944e-01 1.860364999999999935e-01 1.011625499999999889e+01 1.120134999999999934e+02 2.002659999999999854e+03
1.509999999999999953e-01 1.860519999999999952e-01 1.034769999999999968e+01 1.125409999999999968e+02 2.002775000000000091e+03
1.519999999999999962e-01 1.860709999999999864e-01 1.059764999999999979e+01 1.130875000000000057e+02 2.002910000000000082e+03
1.529999999999999971e-01 1.860900000000000054e-01 1.085294999999999987e+01 1.136255000000000024e+02 2.003049999999999955e+03
1.539999999999999980e-01 1.861105000000000120e-01 1.110174999999999912e+01 1.141320000000000050e+02 2.003194999999999936e+03
1.549999999999999989e-01 1.861289999999999889e-01 1.133344999999999914e+01 1.145875000000000057e+02 2.003335000000000036e+03
1.559999999999999998e-01 1.861464999999999925e-01 1.153940000000000055e+01 1.149749999999999943e+02 2.003464999999999918e+03
1.570000000000000007e-01 1.861614999999999798e-01 1.171274999999999977e+01 1.152845000000000084e+02 2.003575000000000045e+03
1.580000000000000016e-01 1.861740000000000061e-01 1.184870000000000090e+01 1.155080000000000098e+02 2.003670000000000073e+03
1.590000000000000024e-01 1.861835000000000018e-01 1.194449999999999967e+01 1.156450000000000102e+02 2.003740000000000009e+03
