# t [s], A [cm^2], U [cm/s], P [cPa], c [cm/s]
1.000000000000000021e-03 1.315085000000000004e-01 1.720160000000000022e-01 8.828425000000000011e+01 1.952200000000000045e+03
2.000000000000000042e-03 1.314895000000000092e-01 1.379551000000000194e+00 8.582240000000000180e+01 1.951949999999999818e+03
3.000000000000000062e-03 1.314190000000000080e-01 2.911319999999999908e+00 8.246795000000000186e+01 1.951085000000000036e+03
4.000000000000000083e-03 1.313134999999999997e-01 4.637095500000000037e+00 7.858249999999999602e+01 1.949815000000000055e+03
5.000000000000000104e-03 1.311904999999999877e-01 6.513460000000000250e+00 7.479779999999999518e+01 1.948345000000000027e+03
6.000000000000000125e-03 1.310655000000000014e-01 8.457634999999999792e+00 7.150419999999999732e+01 1.946860000000000127e+03
7.000000000000000146e-03 1.309450000000000058e-01 1.032734499999999933e+01 6.872360000000000468e+01 1.945450000000000045e+03
8.000000000000000167e-03 1.308310000000000028e-01 1.199627999999999872e+01 6.626650000000000773e+01 1.944139999999999873e+03
9.000000000000001055e-03 1.307260000000000089e-01 1.343197499999999955e+01 6.403145000000000664e+01 1.942940000000000055e+03
1.000000000000000194e-02 1.306309999999999971e-01 1.466039999999999921e+01 6.206354999999999222e+01 1.941884999999999991e+03
1.099999999999999936e-02 1.305489999999999984e-01 1.570389999999999908e+01 6.041075000000000728e+01 1.940974999999999909e+03
1.200000000000000025e-02 1.304799999999999849e-01 1.657319999999999993e+01 5.906565000000000509e+01 1.940215000000000146e+03
1.300000000000000114e-02 1.304224999999999968e-01 1.727505000000000024e+01 5.798845000000000027e+01 1.939594999999999800e+03
1.400000000000000203e-02 1.303755000000000053e-01 1.780969999999999942e+01 5.711169999999999902e+01 1.939090000000000146e+03
1.499999999999999944e-02 1.303360000000000074e-01 1.817810000000000059e+01 5.635029999999999717e+01 1.938675000000000182e+03
1.600000000000000033e-02 1.303020000000000012e-01 1.840639999999999787e+01 5.566154999999999831e+01 1.938329999999999927e+03
1.700000000000000122e-02 1.302750000000000019e-01 1.856329999999999814e+01 5.511379999999999768e+01 1.938045000000000073e+03
1.800000000000000211e-02 1.302564999999999973e-01 1.874649999999999750e+01 5.488904999999999745e+01 1.937869999999999891e+03
1.900000000000000300e-02 1.302530000000000077e-01 1.904500000000000171e+01 5.519984999999999786e+01 1.937840000000000146e+03
2.000000000000000042e-02 1.302669999999999939e-01 1.950019999999999953e+01 5.617300000000000182e+01 1.937994999999999891e+03
2.100000000000000130e-02 1.302979999999999972e-01 2.008885000000000076e+01 5.776874999999999716e+01 1.938349999999999909e+03
2.200000000000000219e-02 1.303445000000000020e-01 2.073280000000000101e+01 5.977499999999999858e+01 1.938865000000000009e+03
2.299999999999999961e-02 1.303989999999999871e-01 2.132764999999999844e+01 6.187010000000000076e+01 1.939474999999999909e+03
2.400000000000000050e-02 1.304535000000000000e-01 2.177749999999999986e+01 6.372055000000000291e+01 1.940095000000000027e+03
2.500000000000000139e-02 1.305014999999999925e-01 2.202100000000000080e+01 6.507339999999999236e+01 1.940644999999999982e+03
2.600000000000000228e-02 1.305370000000000141e-01 2.204415000000000191e+01 6.581340000000000146e+01 1.941065000000000055e+03
2.700000000000000316e-02 1.305594999999999950e-01 2.187604999999999933e+01 6.597299999999999898e+01 1.941340000000000146e+03
2.800000000000000058e-02 1.305689999999999906e-01 2.157355000000000089e+01 6.569759999999999422e+01 1.941465000000000146e+03
2.900000000000000147e-02 1.305685000000000040e-01 2.119955000000000211e+01 6.518434999999999491e+01 1.941485000000000127e+03
3.000000000000000236e-02 1.305634999999999990e-01 2.080405000000000015e+01 6.461610000000000298e+01 1.941434999999999945e+03
3.099999999999999978e-02 1.305560000000000054e-01 2.041214999999999691e+01 6.411160000000000991e+01 1.941355000000000018e+03
3.200000000000000067e-02 1.305479999999999974e-01 2.002179999999999893e+01 6.370404999999999518e+01 1.941269999999999982e+03
3.300000000000000155e-02 1.305400000000000171e-01 1.961054999999999993e+01 6.334834999999999638e+01 1.941175000000000182e+03
3.400000000000000244e-02 1.305300000000000071e-01 1.914784999999999826e+01 6.295265000000000555e+01 1.941075000000000045e+03
3.500000000000000333e-02 1.305169999999999941e-01 1.860875000000000057e+01 6.241939999999999600e+01 1.940929999999999836e+03
3.600000000000000422e-02 1.304994999999999905e-01 1.798550000000000182e+01 6.168625000000000114e+01 1.940740000000000009e+03
3.700000000000000511e-02 1.304764999999999953e-01 1.729395000000000238e+01 6.075410000000000110e+01 1.940494999999999891e+03
3.799999999999999906e-02 1.304494999999999960e-01 1.657334999999999781e+01 5.969579999999999842e+01 1.940190000000000055e+03
3.899999999999999994e-02 1.304200000000000081e-01 1.587920000000000087e+01 5.864415000000000333e+01 1.939869999999999891e+03
4.000000000000000083e-02 1.303920000000000079e-01 1.527175000000000082e+01 5.776210000000000377e+01 1.939565000000000055e+03
4.100000000000000172e-02 1.303699999999999859e-01 1.480320000000000036e+01 5.720485000000000042e+01 1.939309999999999945e+03
4.200000000000000261e-02 1.303575000000000150e-01 1.450665000000000049e+01 5.708350000000000080e+01 1.939159999999999854e+03
4.300000000000000350e-02 1.303565000000000140e-01 1.438980000000000103e+01 5.744004999999999939e+01 1.939130000000000109e+03
4.400000000000000439e-02 1.303670000000000107e-01 1.443424999999999869e+01 5.823845000000000027e+01 1.939235000000000127e+03
4.499999999999999833e-02 1.303884999999999905e-01 1.459955000000000069e+01 5.937269999999999470e+01 1.939460000000000036e+03
4.599999999999999922e-02 1.304184999999999928e-01 1.483109999999999928e+01 6.068739999999999668e+01 1.939779999999999973e+03
4.700000000000000011e-02 1.304520000000000124e-01 1.506939999999999991e+01 6.200565000000000282e+01 1.940150000000000091e+03
4.800000000000000100e-02 1.304850000000000176e-01 1.525854999999999961e+01 6.315749999999999886e+01 1.940519999999999982e+03
4.900000000000000189e-02 1.305140000000000189e-01 1.535299999999999976e+01 6.400300000000000011e+01 1.940845000000000027e+03
5.000000000000000278e-02 1.305354999999999988e-01 1.532144999999999868e+01 6.444720000000000937e+01 1.941089999999999918e+03
5.100000000000000366e-02 1.305465000000000098e-01 1.514765000000000050e+01 6.444554999999999723e+01 1.941220000000000027e+03
5.200000000000000455e-02 1.305465000000000098e-01 1.482920000000000016e+01 6.400050000000000239e+01 1.941224999999999909e+03
5.300000000000000544e-02 1.305344999999999978e-01 1.437439999999999962e+01 6.315135000000000076e+01 1.941105000000000018e+03
5.399999999999999939e-02 1.305119999999999891e-01 1.379879999999999995e+01 6.196164999999999878e+01 1.940855000000000018e+03
5.500000000000000028e-02 1.304794999999999983e-01 1.312160000000000082e+01 6.050610000000000355e+01 1.940505000000000109e+03
5.600000000000000117e-02 1.304394999999999860e-01 1.236334000000000088e+01 5.885989999999999611e+01 1.940065000000000055e+03
5.700000000000000205e-02 1.303934999999999955e-01 1.154441500000000076e+01 5.709234999999999616e+01 1.939550000000000182e+03
5.800000000000000294e-02 1.303425000000000000e-01 1.068495499999999865e+01 5.526444999999999652e+01 1.938990000000000009e+03
5.900000000000000383e-02 1.302895000000000025e-01 9.805194999999999439e+00 5.342954999999999899e+01 1.938394999999999982e+03
6.000000000000000472e-02 1.302349999999999897e-01 8.926320000000000476e+00 5.163705000000000211e+01 1.937795000000000073e+03
6.099999999999999867e-02 1.301815000000000055e-01 8.071435000000001025e+00 4.993580000000000041e+01 1.937194999999999936e+03
6.199999999999999956e-02 1.301299999999999957e-01 7.266114999999999213e+00 4.837770000000000437e+01 1.936610000000000127e+03
6.300000000000000044e-02 1.300815000000000166e-01 6.538199999999999790e+00 4.701944999999999908e+01 1.936079999999999927e+03
6.400000000000000133e-02 1.300395000000000023e-01 5.917304999999999815e+00 4.592249999999999943e+01 1.935605000000000018e+03
6.500000000000000222e-02 1.300054999999999961e-01 5.433574999999999378e+00 4.515104999999999791e+01 1.935215000000000146e+03
6.600000000000000311e-02 1.299810000000000132e-01 5.116159999999999819e+00 4.476874999999999716e+01 1.934925000000000182e+03
6.700000000000000400e-02 1.299675000000000136e-01 4.991464999999999819e+00 4.483419999999999561e+01 1.934764999999999873e+03
6.800000000000000488e-02 1.299675000000000136e-01 5.081504999999999939e+00 4.539650000000000318e+01 1.934750000000000000e+03
6.900000000000000577e-02 1.299819999999999864e-01 5.402470000000000105e+00 4.649134999999999707e+01 1.934894999999999982e+03
7.000000000000000666e-02 1.300125000000000031e-01 5.963725000000000165e+00 4.813824999999999932e+01 1.935214999999999918e+03
7.100000000000000755e-02 1.300590000000000079e-01 6.767290000000000028e+00 5.033844999999999459e+01 1.935719999999999800e+03
7.200000000000000844e-02 1.301225000000000021e-01 7.807760000000000034e+00 5.307535000000000025e+01 1.936404999999999973e+03
7.300000000000000933e-02 1.302014999999999978e-01 9.072810000000000485e+00 5.631519999999999726e+01 1.937269999999999982e+03
7.399999999999999634e-02 1.302959999999999952e-01 1.054373000000000005e+01 6.000960000000000605e+01 1.938315000000000055e+03
7.499999999999999722e-02 1.304049999999999931e-01 1.219694999999999929e+01 6.409844999999999970e+01 1.939514999999999873e+03
7.599999999999999811e-02 1.305260000000000031e-01 1.400486000000000075e+01 6.851375000000000171e+01 1.940855000000000018e+03
7.699999999999999900e-02 1.306574999999999820e-01 1.593750000000000000e+01 7.318330000000000268e+01 1.942320000000000164e+03
7.799999999999999989e-02 1.307975000000000110e-01 1.796385000000000076e+01 7.803464999999999918e+01 1.943884999999999991e+03
7.900000000000000078e-02 1.309440000000000048e-01 2.005324999999999847e+01 8.299854999999999450e+01 1.945529999999999973e+03
8.000000000000000167e-02 1.310950000000000171e-01 2.217660000000000053e+01 8.801200000000000045e+01 1.947230000000000018e+03
8.100000000000000255e-02 1.312484999999999902e-01 2.430734999999999957e+01 9.302049999999999841e+01 1.948965000000000146e+03
8.200000000000000344e-02 1.314035000000000064e-01 2.642235000000000156e+01 9.798064999999999714e+01 1.950724999999999909e+03
8.300000000000000433e-02 1.315580000000000083e-01 2.850215000000000032e+01 1.028592000000000013e+02 1.952474999999999909e+03
8.400000000000000522e-02 1.317109999999999947e-01 3.053119999999999834e+01 1.076331999999999880e+02 1.954224999999999909e+03
8.500000000000000611e-02 1.318624999999999936e-01 3.249765000000000015e+01 1.122899999999999920e+02 1.955954999999999927e+03
8.600000000000000699e-02 1.320105000000000028e-01 3.439309999999999690e+01 1.168255000000000052e+02 1.957655000000000200e+03
8.700000000000000788e-02 1.321559999999999957e-01 3.621184999999999832e+01 1.212404999999999973e+02 1.959325000000000045e+03
8.800000000000000877e-02 1.322984999999999856e-01 3.795050000000000523e+01 1.255399999999999920e+02 1.960969999999999800e+03
8.899999999999999578e-02 1.324374999999999858e-01 3.960689999999999600e+01 1.297299999999999898e+02 1.962574999999999818e+03
8.999999999999999667e-02 1.325739999999999974e-01 4.118014999999999759e+01 1.338170000000000073e+02 1.964154999999999973e+03
9.099999999999999756e-02 1.327074999999999783e-01 4.266955000000000098e+01 1.378050000000000068e+02 1.965700000000000045e+03
9.199999999999999845e-02 1.328380000000000116e-01 4.407444999999999879e+01 1.416949999999999932e+02 1.967214999999999918e+03
9.299999999999999933e-02 1.329654999999999865e-01 4.539410000000000167e+01 1.454859999999999900e+02 1.968700000000000045e+03
9.400000000000000022e-02 1.330894999999999995e-01 4.662740000000000151e+01 1.491730000000000018e+02 1.970150000000000091e+03
9.500000000000000111e-02 1.332110000000000238e-01 4.777289999999999992e+01 1.527479999999999905e+02 1.971559999999999945e+03
9.600000000000000200e-02 1.333280000000000021e-01 4.882880000000000109e+01 1.562024999999999864e+02 1.972940000000000055e+03
9.700000000000000289e-02 1.334420000000000051e-01 4.979299999999999926e+01 1.595244999999999891e+02 1.974275000000000091e+03
9.800000000000000377e-02 1.335520000000000040e-01 5.066324999999999790e+01 1.627015000000000100e+02 1.975554999999999836e+03
9.900000000000000466e-02 1.336569999999999980e-01 5.143704999999999927e+01 1.657214999999999918e+02 1.976795000000000073e+03
1.000000000000000056e-01 1.337570000000000148e-01 5.211190000000000566e+01 1.685699999999999932e+02 1.977974999999999909e+03
1.010000000000000064e-01 1.338524999999999854e-01 5.268534999999999968e+01 1.712355000000000018e+02 1.979095000000000027e+03
1.020000000000000073e-01 1.339414999999999911e-01 5.315484999999999616e+01 1.737044999999999959e+02 1.980150000000000091e+03
1.030000000000000082e-01 1.340244999999999909e-01 5.351825000000000188e+01 1.759664999999999964e+02 1.981134999999999991e+03
1.040000000000000091e-01 1.341014999999999846e-01 5.377370000000000516e+01 1.780115000000000123e+02 1.982045000000000073e+03
1.050000000000000100e-01 1.341714999999999991e-01 5.391970000000000596e+01 1.798290000000000077e+02 1.982875000000000000e+03
1.059999999999999970e-01 1.342344999999999788e-01 5.395564999999999856e+01 1.814139999999999873e+02 1.983630000000000109e+03
1.069999999999999979e-01 1.342900000000000205e-01 5.388174999999999670e+01 1.827604999999999791e+02 1.984295000000000073e+03
1.079999999999999988e-01 1.343384999999999996e-01 5.369934999999999548e+01 1.838679999999999950e+02 1.984869999999999891e+03
1.089999999999999997e-01 1.343789999999999984e-01 5.341114999999999924e+01 1.847379999999999995e+02 1.985365000000000009e+03
1.100000000000000006e-01 1.344130000000000047e-01 5.302110000000000412e+01 1.853765000000000214e+02 1.985769999999999982e+03
1.110000000000000014e-01 1.344390000000000029e-01 5.253495000000000203e+01 1.857930000000000064e+02 1.986090000000000146e+03
1.120000000000000023e-01 1.344580000000000219e-01 5.195974999999999966e+01 1.860004999999999882e+02 1.986325000000000045e+03
1.130000000000000032e-01 1.344710000000000072e-01 5.130375000000000085e+01 1.860159999999999911e+02 1.986485000000000127e+03
1.140000000000000041e-01 1.344770000000000132e-01 5.057670000000000243e+01 1.858589999999999804e+02 1.986570000000000164e+03
1.150000000000000050e-01 1.344779999999999864e-01 4.978894999999999982e+01 1.855520000000000209e+02 1.986589999999999918e+03
1.160000000000000059e-01 1.344739999999999824e-01 4.895165000000000077e+01 1.851189999999999998e+02 1.986555000000000064e+03
1.170000000000000068e-01 1.344655000000000156e-01 4.807600000000000051e+01 1.845824999999999818e+02 1.986460000000000036e+03
1.180000000000000077e-01 1.344535000000000036e-01 4.717310000000000514e+01 1.839675000000000011e+02 1.986324999999999818e+03
1.190000000000000085e-01 1.344385000000000163e-01 4.625359999999999872e+01 1.832959999999999923e+02 1.986159999999999854e+03
1.200000000000000094e-01 1.344219999999999859e-01 4.532724999999999937e+01 1.825869999999999891e+02 1.985964999999999918e+03
1.209999999999999964e-01 1.344029999999999947e-01 4.440279999999999916e+01 1.818584999999999923e+02 1.985744999999999891e+03
1.219999999999999973e-01 1.343830000000000024e-01 4.348760000000000048e+01 1.811254999999999882e+02 1.985514999999999873e+03
1.229999999999999982e-01 1.343624999999999958e-01 4.258755000000000024e+01 1.803974999999999795e+02 1.985275000000000091e+03
1.239999999999999991e-01 1.343415000000000026e-01 4.170709999999999695e+01 1.796820000000000164e+02 1.985025000000000091e+03
1.250000000000000000e-01 1.343205000000000093e-01 4.084895000000000209e+01 1.789819999999999993e+02 1.984780000000000200e+03
1.260000000000000009e-01 1.342995000000000161e-01 4.001435000000000031e+01 1.782980000000000018e+02 1.984535000000000082e+03
1.270000000000000018e-01 1.342790000000000095e-01 3.920305000000000462e+01 1.776264999999999930e+02 1.984284999999999854e+03
1.280000000000000027e-01 1.342575000000000018e-01 3.841334999999999411e+01 1.769619999999999891e+02 1.984039999999999964e+03
1.290000000000000036e-01 1.342369999999999952e-01 3.764254999999999995e+01 1.762959999999999923e+02 1.983789999999999964e+03
1.300000000000000044e-01 1.342154999999999876e-01 3.688689999999999714e+01 1.756184999999999832e+02 1.983539999999999964e+03
1.310000000000000053e-01 1.341944999999999943e-01 3.614189999999999969e+01 1.749184999999999945e+02 1.983284999999999854e+03
1.320000000000000062e-01 1.341720000000000135e-01 3.540274999999999750e+01 1.741845000000000141e+02 1.983019999999999982e+03
1.330000000000000071e-01 1.341485000000000039e-01 3.466429999999999723e+01 1.734044999999999845e+02 1.982739999999999782e+03
1.340000000000000080e-01 1.341235000000000066e-01 3.392155000000000342e+01 1.725685000000000002e+02 1.982449999999999818e+03
1.350000000000000089e-01 1.340965000000000074e-01 3.316980000000000217e+01 1.716655000000000086e+02 1.982134999999999991e+03
1.360000000000000098e-01 1.340679999999999927e-01 3.240494999999999948e+01 1.706885000000000048e+02 1.981799999999999955e+03
1.370000000000000107e-01 1.340369999999999895e-01 3.162359999999999971e+01 1.696314999999999884e+02 1.981434999999999945e+03
1.380000000000000115e-01 1.340040000000000120e-01 3.082335000000000136e+01 1.684915000000000020e+02 1.981045000000000073e+03
1.390000000000000124e-01 1.339680000000000037e-01 3.000270000000000081e+01 1.672659999999999911e+02 1.980630000000000109e+03
1.400000000000000133e-01 1.339299999999999935e-01 2.916150000000000375e+01 1.659585000000000150e+02 1.980184999999999945e+03
1.410000000000000142e-01 1.338889999999999803e-01 2.830065000000000097e+01 1.645724999999999909e+02 1.979710000000000036e+03
1.420000000000000151e-01 1.338460000000000205e-01 2.742220000000000013e+01 1.631159999999999854e+02 1.979210000000000036e+03
1.430000000000000160e-01 1.338004999999999889e-01 2.652935000000000088e+01 1.615980000000000132e+02 1.978684999999999945e+03
1.440000000000000169e-01 1.337535000000000251e-01 2.562635000000000218e+01 1.600305000000000177e+02 1.978134999999999991e+03
1.450000000000000178e-01 1.337050000000000183e-01 2.471819999999999951e+01 1.584279999999999973e+02 1.977565000000000055e+03
1.459999999999999909e-01 1.336555000000000104e-01 2.381070000000000064e+01 1.568040000000000020e+02 1.976990000000000009e+03
1.469999999999999918e-01 1.336044999999999872e-01 2.291000000000000014e+01 1.551750000000000114e+02 1.976394999999999982e+03
1.479999999999999927e-01 1.335534999999999917e-01 2.202244999999999919e+01 1.535564999999999998e+02 1.975805000000000064e+03
1.489999999999999936e-01 1.335024999999999962e-01 2.115449999999999875e+01 1.519635000000000105e+02 1.975214999999999918e+03
1.499999999999999944e-01 1.334525000000000017e-01 2.031219999999999715e+01 1.504114999999999895e+02 1.974630000000000109e+03
1.509999999999999953e-01 1.334029999999999938e-01 1.950140000000000029e+01 1.489120000000000061e+02 1.974054999999999836e+03
1.519999999999999962e-01 1.333555000000000157e-01 1.872684999999999889e+01 1.474769999999999754e+02 1.973500000000000000e+03
1.529999999999999971e-01 1.333099999999999841e-01 1.799295000000000044e+01 1.461154999999999973e+02 1.972960000000000036e+03
1.539999999999999980e-01 1.332659999999999956e-01 1.730294999999999916e+01 1.448335000000000150e+02 1.972449999999999818e+03
1.549999999999999989e-01 1.332240000000000091e-01 1.665925000000000011e+01 1.436365000000000123e+02 1.971960000000000036e+03
1.559999999999999998e-01 1.331849999999999978e-01 1.606309999999999860e+01 1.425260000000000105e+02 1.971500000000000000e+03
1.570000000000000007e-01 1.331479999999999886e-01 1.551495000000000068e+01 1.415020000000000095e+02 1.971069999999999936e+03
1.580000000000000016e-01 1.331140000000000101e-01 1.501440000000000019e+01 1.405625000000000000e+02 1.970664999999999964e+03
1.590000000000000024e-01 1.330819999999999781e-01 1.456015000000000015e+01 1.397034999999999911e+02 1.970295000000000073e+03
