# t [s], A [cm^2], U [cm/s], P [cPa], c [cm/s]
1.000000000000000021e-03 1.531105000000000105e-01 3.692509999999999959e-01 9.513649999999999807e+01 1.797615000000000009e+03
2.000000000000000042e-03 1.530785000000000062e-01 1.968747000000000247e+00 9.206139999999999191e+01 1.797300000000000182e+03
3.000000000000000062e-03 1.529690000000000216e-01 3.889634000000000036e+00 8.807104999999999961e+01 1.796299999999999955e+03
4.000000000000000083e-03 1.528090000000000004e-01 6.001166999999999696e+00 8.374895000000000778e+01 1.794860000000000127e+03
5.000000000000000104e-03 1.526274999999999993e-01 8.248290000000000788e+00 7.981895000000000095e+01 1.793240000000000009e+03
6.000000000000000125e-03 1.524459999999999982e-01 1.050700999999999929e+01 7.658605000000000018e+01 1.791630000000000109e+03
7.000000000000000146e-03 1.522719999999999907e-01 1.260811499999999974e+01 7.393180000000000973e+01 1.790115000000000009e+03
8.000000000000000167e-03 1.521095000000000086e-01 1.444236000000000075e+01 7.161844999999999573e+01 1.788715000000000146e+03
9.000000000000001055e-03 1.519619999999999860e-01 1.600655000000000072e+01 6.957229999999999848e+01 1.787454999999999927e+03
1.000000000000000194e-02 1.518315000000000081e-01 1.733614999999999995e+01 6.784180000000000632e+01 1.786360000000000127e+03
1.099999999999999936e-02 1.517195000000000071e-01 1.844995000000000118e+01 6.643809999999999150e+01 1.785434999999999945e+03
1.200000000000000025e-02 1.516255000000000241e-01 1.935815000000000197e+01 6.532000000000000739e+01 1.784664999999999964e+03
1.300000000000000114e-02 1.515485000000000027e-01 2.007334999999999781e+01 6.443845000000000312e+01 1.784039999999999964e+03
1.400000000000000203e-02 1.514854999999999952e-01 2.060580000000000211e+01 6.373775000000000546e+01 1.783539999999999964e+03
1.499999999999999944e-02 1.514344999999999997e-01 2.096804999999999808e+01 6.315765000000000384e+01 1.783139999999999873e+03
1.600000000000000033e-02 1.513929999999999998e-01 2.119740000000000180e+01 6.268349999999999511e+01 1.782819999999999936e+03
1.700000000000000122e-02 1.513615000000000099e-01 2.136990000000000123e+01 6.240340000000000487e+01 1.782585000000000036e+03
1.800000000000000211e-02 1.513444999999999929e-01 2.158490000000000109e+01 6.250034999999999741e+01 1.782470000000000027e+03
1.900000000000000300e-02 1.513470000000000093e-01 2.192654999999999887e+01 6.316660000000000252e+01 1.782505000000000109e+03
2.000000000000000042e-02 1.513740000000000085e-01 2.242609999999999815e+01 6.449240000000000350e+01 1.782740000000000009e+03
2.100000000000000130e-02 1.514250000000000040e-01 2.304690000000000083e+01 6.639555000000000007e+01 1.783175000000000182e+03
2.200000000000000219e-02 1.514949999999999908e-01 2.369619999999999749e+01 6.862534999999999741e+01 1.783759999999999991e+03
2.299999999999999961e-02 1.515745000000000009e-01 2.425654999999999717e+01 7.083275000000000432e+01 1.784434999999999945e+03
2.400000000000000050e-02 1.516534999999999966e-01 2.462190000000000012e+01 7.267180000000000462e+01 1.785105000000000018e+03
2.500000000000000139e-02 1.517204999999999804e-01 2.472639999999999816e+01 7.389359999999999218e+01 1.785684999999999945e+03
2.600000000000000228e-02 1.517700000000000160e-01 2.455780000000000030e+01 7.440234999999999843e+01 1.786115000000000009e+03
2.700000000000000316e-02 1.517970000000000153e-01 2.415354999999999919e+01 7.426194999999999879e+01 1.786369999999999891e+03
2.800000000000000058e-02 1.518050000000000233e-01 2.358374999999999844e+01 7.365614999999999668e+01 1.786460000000000036e+03
2.900000000000000147e-02 1.517990000000000173e-01 2.292725000000000080e+01 7.282124999999999204e+01 1.786424999999999955e+03
3.000000000000000236e-02 1.517835000000000156e-01 2.225014999999999787e+01 7.197509999999999764e+01 1.786309999999999945e+03
3.099999999999999978e-02 1.517654999999999976e-01 2.159189999999999898e+01 7.126404999999999745e+01 1.786164999999999964e+03
3.200000000000000067e-02 1.517485000000000084e-01 2.096195000000000164e+01 7.074039999999999395e+01 1.786025000000000091e+03
3.300000000000000155e-02 1.517340000000000078e-01 2.034570000000000078e+01 7.037055000000000859e+01 1.785904999999999973e+03
3.400000000000000244e-02 1.517209999999999948e-01 1.971645000000000181e+01 7.006589999999999918e+01 1.785799999999999955e+03
3.500000000000000333e-02 1.517084999999999961e-01 1.904874999999999829e+01 6.972440000000000282e+01 1.785695000000000164e+03
3.600000000000000422e-02 1.516929999999999945e-01 1.833064999999999856e+01 6.926999999999999602e+01 1.785570000000000164e+03
3.700000000000000511e-02 1.516735000000000166e-01 1.757024999999999793e+01 6.868045000000000755e+01 1.785409999999999854e+03
3.799999999999999906e-02 1.516500000000000070e-01 1.679704999999999870e+01 6.799774999999999636e+01 1.785220000000000027e+03
3.899999999999999994e-02 1.516250000000000098e-01 1.605715000000000003e+01 6.732059999999999889e+01 1.785014999999999873e+03
4.000000000000000083e-02 1.516009999999999858e-01 1.540360000000000085e+01 6.678090000000000259e+01 1.784815000000000055e+03
4.100000000000000172e-02 1.515829999999999955e-01 1.488530000000000086e+01 6.651160000000000139e+01 1.784664999999999964e+03
4.200000000000000261e-02 1.515750000000000153e-01 1.453604999999999947e+01 6.661414999999999509e+01 1.784589999999999918e+03
4.300000000000000350e-02 1.515794999999999781e-01 1.436690000000000111e+01 6.713319999999998799e+01 1.784619999999999891e+03
4.400000000000000439e-02 1.515984999999999971e-01 1.436340000000000039e+01 6.804394999999999527e+01 1.784769999999999982e+03
4.499999999999999833e-02 1.516305000000000014e-01 1.448754999999999882e+01 6.925415000000000987e+01 1.785025000000000091e+03
4.599999999999999922e-02 1.516735000000000166e-01 1.468335000000000079e+01 7.061869999999998981e+01 1.785365000000000009e+03
4.700000000000000011e-02 1.517209999999999948e-01 1.488534999999999897e+01 7.196289999999999054e+01 1.785755000000000109e+03
4.800000000000000100e-02 1.517680000000000140e-01 1.502720000000000056e+01 7.310845000000000482e+01 1.786150000000000091e+03
4.900000000000000189e-02 1.518089999999999995e-01 1.505004999999999882e+01 7.389779999999998950e+01 1.786490000000000009e+03
5.000000000000000278e-02 1.518384999999999874e-01 1.490779999999999994e+01 7.421235000000000070e+01 1.786735000000000127e+03
5.100000000000000366e-02 1.518515000000000004e-01 1.457110000000000127e+01 7.398300000000000409e+01 1.786855000000000018e+03
5.200000000000000455e-02 1.518460000000000087e-01 1.402754999999999974e+01 7.319190000000000396e+01 1.786815000000000055e+03
5.300000000000000544e-02 1.518200000000000105e-01 1.328059999999999974e+01 7.186754999999999427e+01 1.786605000000000018e+03
5.399999999999999939e-02 1.517745000000000066e-01 1.234685999999999950e+01 7.007484999999999786e+01 1.786235000000000127e+03
5.500000000000000028e-02 1.517109999999999848e-01 1.125238500000000030e+01 6.790285000000000082e+01 1.785710000000000036e+03
5.600000000000000117e-02 1.516319999999999890e-01 1.002956999999999965e+01 6.545259999999998968e+01 1.785055000000000064e+03
5.700000000000000205e-02 1.515405000000000224e-01 8.714135000000000630e+00 6.282739999999999725e+01 1.784295000000000073e+03
5.800000000000000294e-02 1.514399999999999913e-01 7.343189999999999884e+00 6.012584999999999980e+01 1.783464999999999918e+03
5.900000000000000383e-02 1.513344999999999829e-01 5.953940000000000232e+00 5.743815000000000026e+01 1.782589999999999918e+03
6.000000000000000472e-02 1.512275000000000147e-01 4.583104999999999762e+00 5.484515000000000384e+01 1.781694999999999936e+03
6.099999999999999867e-02 1.511215000000000197e-01 3.266594500000000068e+00 5.241915000000000191e+01 1.780809999999999945e+03
6.199999999999999956e-02 1.510199999999999876e-01 2.039460000000000051e+00 5.022574999999999790e+01 1.779960000000000036e+03
6.300000000000000044e-02 1.509260000000000046e-01 9.356500000000000927e-01 4.832519999999999527e+01 1.779175000000000182e+03
6.400000000000000133e-02 1.508424999999999905e-01 -1.248500000000007937e-02 4.677324999999999733e+01 1.778470000000000027e+03
6.500000000000000222e-02 1.507715000000000027e-01 -7.749399999999999622e-01 4.562069999999999936e+01 1.777869999999999891e+03
6.600000000000000311e-02 1.507155000000000022e-01 -1.325104000000000060e+00 4.491239999999999810e+01 1.777394999999999982e+03
6.700000000000000400e-02 1.506764999999999910e-01 -1.640941500000000053e+00 4.468469999999999942e+01 1.777055000000000064e+03
6.800000000000000488e-02 1.506565000000000265e-01 -1.706164999999999932e+00 4.496325000000000216e+01 1.776869999999999891e+03
6.900000000000000577e-02 1.506565000000000265e-01 -1.511255000000000015e+00 4.576040000000000418e+01 1.776855000000000018e+03
7.000000000000000666e-02 1.506770000000000054e-01 -1.054117500000000041e+00 4.707370000000000232e+01 1.777005000000000109e+03
7.100000000000000755e-02 1.507180000000000186e-01 -3.404299999999998994e-01 4.888469999999999516e+01 1.777329999999999927e+03
7.200000000000000844e-02 1.507799999999999974e-01 6.166199999999999459e-01 5.115975000000000250e+01 1.777829999999999927e+03
7.300000000000000933e-02 1.508614999999999817e-01 1.796910500000000077e+00 5.385089999999999577e+01 1.778489999999999782e+03
7.399999999999999634e-02 1.509604999999999975e-01 3.174401049999999724e+00 5.689880000000000138e+01 1.779295000000000073e+03
7.499999999999999722e-02 1.510754999999999737e-01 4.718440000000000190e+00 6.023579999999999757e+01 1.780240000000000009e+03
7.599999999999999811e-02 1.512034999999999907e-01 6.395164999999999544e+00 6.378940000000000055e+01 1.781300000000000182e+03
7.699999999999999900e-02 1.513430000000000053e-01 8.169079999999999231e+00 6.748574999999999591e+01 1.782444999999999936e+03
7.799999999999999989e-02 1.514894999999999992e-01 1.000430000000000064e+01 7.125345000000000084e+01 1.783670000000000073e+03
7.900000000000000078e-02 1.516409999999999980e-01 1.186629500000000093e+01 7.502604999999999791e+01 1.784934999999999945e+03
8.000000000000000167e-02 1.517954999999999999e-01 1.372259999999999991e+01 7.874485000000001378e+01 1.786224999999999909e+03
8.100000000000000255e-02 1.519500000000000017e-01 1.554420000000000002e+01 8.236070000000000846e+01 1.787525000000000091e+03
8.200000000000000344e-02 1.521025000000000016e-01 1.730630000000000024e+01 8.583539999999999281e+01 1.788804999999999836e+03
8.300000000000000433e-02 1.522505000000000108e-01 1.898874999999999957e+01 8.914215000000000089e+01 1.790065000000000055e+03
8.400000000000000522e-02 1.523940000000000017e-01 2.057654999999999745e+01 9.226595000000000368e+01 1.791275000000000091e+03
8.500000000000000611e-02 1.525320000000000009e-01 2.206005000000000038e+01 9.520294999999998709e+01 1.792450000000000045e+03
8.600000000000000699e-02 1.526629999999999932e-01 2.343444999999999823e+01 9.796035000000000537e+01 1.793570000000000164e+03
8.700000000000000788e-02 1.527874999999999928e-01 2.469995000000000118e+01 1.005528500000000065e+02 1.794639999999999873e+03
8.800000000000000877e-02 1.529065000000000007e-01 2.586079999999999757e+01 1.030037499999999966e+02 1.795654999999999973e+03
8.899999999999999578e-02 1.530205000000000037e-01 2.692464999999999975e+01 1.053404999999999916e+02 1.796630000000000109e+03
8.999999999999999667e-02 1.531290000000000151e-01 2.790149999999999864e+01 1.075935000000000059e+02 1.797570000000000164e+03
9.099999999999999756e-02 1.532344999999999957e-01 2.880304999999999893e+01 1.097934999999999945e+02 1.798474999999999909e+03
9.199999999999999845e-02 1.533370000000000011e-01 2.964144999999999897e+01 1.119699999999999989e+02 1.799365000000000009e+03
9.299999999999999933e-02 1.534384999999999777e-01 3.042839999999999989e+01 1.141470000000000056e+02 1.800240000000000009e+03
9.400000000000000022e-02 1.535394999999999954e-01 3.117439999999999856e+01 1.163449999999999989e+02 1.801115000000000009e+03
9.500000000000000111e-02 1.536409999999999998e-01 3.188804999999999978e+01 1.185769999999999982e+02 1.801990000000000009e+03
9.600000000000000200e-02 1.537425000000000042e-01 3.257550000000000523e+01 1.208489999999999895e+02 1.802869999999999891e+03
9.700000000000000289e-02 1.538454999999999961e-01 3.324029999999999774e+01 1.231599999999999966e+02 1.803759999999999991e+03
9.800000000000000377e-02 1.539494999999999891e-01 3.388299999999999557e+01 1.255005000000000024e+02 1.804660000000000082e+03
9.900000000000000466e-02 1.540545000000000109e-01 3.450144999999999840e+01 1.278559999999999945e+02 1.805569999999999936e+03
1.000000000000000056e-01 1.541600000000000192e-01 3.509104999999999563e+01 1.302055000000000007e+02 1.806474999999999909e+03
1.010000000000000064e-01 1.542649999999999855e-01 3.564485000000000525e+01 1.325240000000000009e+02 1.807384999999999991e+03
1.020000000000000073e-01 1.543684999999999918e-01 3.615449999999999875e+01 1.347845000000000084e+02 1.808284999999999854e+03
1.030000000000000082e-01 1.544705000000000106e-01 3.661020000000000607e+01 1.369569999999999936e+02 1.809159999999999854e+03
1.040000000000000091e-01 1.545684999999999976e-01 3.700169999999999959e+01 1.390130000000000052e+02 1.810010000000000218e+03
1.050000000000000100e-01 1.546620000000000217e-01 3.731874999999999432e+01 1.409240000000000066e+02 1.810825000000000045e+03
1.059999999999999970e-01 1.547494999999999843e-01 3.755155000000000598e+01 1.426664999999999850e+02 1.811589999999999918e+03
1.069999999999999979e-01 1.548315000000000108e-01 3.769134999999999991e+01 1.442164999999999964e+02 1.812300000000000182e+03
1.079999999999999988e-01 1.549049999999999871e-01 3.773064999999999714e+01 1.455579999999999927e+02 1.812940000000000055e+03
1.089999999999999997e-01 1.549705000000000110e-01 3.766379999999999484e+01 1.466769999999999925e+02 1.813514999999999873e+03
1.100000000000000006e-01 1.550270000000000259e-01 3.748720000000000141e+01 1.475654999999999859e+02 1.814014999999999873e+03
1.110000000000000014e-01 1.550739999999999896e-01 3.719934999999999548e+01 1.482214999999999918e+02 1.814434999999999945e+03
1.120000000000000023e-01 1.551119999999999999e-01 3.680114999999999981e+01 1.486469999999999914e+02 1.814769999999999982e+03
1.130000000000000032e-01 1.551400000000000001e-01 3.629574999999999818e+01 1.488485000000000014e+02 1.815025000000000091e+03
1.140000000000000041e-01 1.551585000000000047e-01 3.568860000000000099e+01 1.488389999999999986e+02 1.815195000000000164e+03
1.150000000000000050e-01 1.551684999999999870e-01 3.498714999999999975e+01 1.486334999999999980e+02 1.815289999999999964e+03
1.160000000000000059e-01 1.551700000000000024e-01 3.420090000000000430e+01 1.482524999999999977e+02 1.815309999999999945e+03
1.170000000000000068e-01 1.551629999999999954e-01 3.334074999999999989e+01 1.477180000000000177e+02 1.815264999999999873e+03
1.180000000000000077e-01 1.551494999999999957e-01 3.241895000000000238e+01 1.470544999999999902e+02 1.815154999999999973e+03
1.190000000000000085e-01 1.551299999999999901e-01 3.144859999999999900e+01 1.462880000000000109e+02 1.814994999999999891e+03
1.200000000000000094e-01 1.551059999999999939e-01 3.044314999999999927e+01 1.454435000000000002e+02 1.814789999999999964e+03
1.209999999999999964e-01 1.550765000000000060e-01 2.941624999999999801e+01 1.445464999999999804e+02 1.814545000000000073e+03
1.219999999999999973e-01 1.550449999999999884e-01 2.838089999999999691e+01 1.436220000000000141e+02 1.814269999999999982e+03
1.229999999999999982e-01 1.550110000000000099e-01 2.734945000000000093e+01 1.426910000000000025e+02 1.813985000000000127e+03
1.239999999999999991e-01 1.549754999999999883e-01 2.633324999999999960e+01 1.417729999999999961e+02 1.813680000000000064e+03
1.250000000000000000e-01 1.549400000000000222e-01 2.534199999999999875e+01 1.408840000000000146e+02 1.813375000000000000e+03
1.260000000000000009e-01 1.549050000000000149e-01 2.438400000000000034e+01 1.400360000000000014e+02 1.813069999999999936e+03
1.270000000000000018e-01 1.548700000000000077e-01 2.346549999999999869e+01 1.392379999999999995e+02 1.812764999999999873e+03
1.280000000000000027e-01 1.548370000000000024e-01 2.259094999999999942e+01 1.384954999999999927e+02 1.812480000000000018e+03
1.290000000000000036e-01 1.548055000000000125e-01 2.176275000000000048e+01 1.378085000000000093e+02 1.812200000000000045e+03
1.300000000000000044e-01 1.547755000000000103e-01 2.098160000000000025e+01 1.371745000000000232e+02 1.811940000000000055e+03
1.310000000000000053e-01 1.547474999999999823e-01 2.024615000000000009e+01 1.365865000000000009e+02 1.811694999999999936e+03
1.320000000000000062e-01 1.547209999999999974e-01 1.955360000000000298e+01 1.360380000000000109e+02 1.811460000000000036e+03
1.330000000000000071e-01 1.546960000000000002e-01 1.889959999999999951e+01 1.355165000000000077e+02 1.811240000000000009e+03
1.340000000000000080e-01 1.546710000000000029e-01 1.827880000000000038e+01 1.350084999999999980e+02 1.811025000000000091e+03
1.350000000000000089e-01 1.546480000000000077e-01 1.768489999999999895e+01 1.345010000000000048e+02 1.810815000000000055e+03
1.360000000000000098e-01 1.546239999999999837e-01 1.711110000000000042e+01 1.339789999999999850e+02 1.810605000000000018e+03
1.370000000000000107e-01 1.546000000000000152e-01 1.655030000000000001e+01 1.334295000000000186e+02 1.810389999999999873e+03
1.380000000000000115e-01 1.545749999999999902e-01 1.599549999999999983e+01 1.328379999999999939e+02 1.810170000000000073e+03
1.390000000000000124e-01 1.545484999999999776e-01 1.544025000000000070e+01 1.321929999999999836e+02 1.809940000000000055e+03
1.400000000000000133e-01 1.545194999999999763e-01 1.487850000000000072e+01 1.314844999999999970e+02 1.809690000000000055e+03
1.410000000000000142e-01 1.544885000000000008e-01 1.430545000000000044e+01 1.307055000000000007e+02 1.809420000000000073e+03
1.420000000000000151e-01 1.544550000000000090e-01 1.371724999999999994e+01 1.298499999999999943e+02 1.809130000000000109e+03
1.430000000000000160e-01 1.544185000000000141e-01 1.311139999999999972e+01 1.289180000000000064e+02 1.808809999999999945e+03
1.440000000000000169e-01 1.543784999999999741e-01 1.248690000000000033e+01 1.279089999999999918e+02 1.808470000000000027e+03
1.450000000000000178e-01 1.543360000000000010e-01 1.184421000000000035e+01 1.268284999999999911e+02 1.808099999999999909e+03
1.459999999999999909e-01 1.542899999999999827e-01 1.118531499999999923e+01 1.256844999999999857e+02 1.807710000000000036e+03
1.469999999999999918e-01 1.542419999999999902e-01 1.051360999999999990e+01 1.244869999999999948e+02 1.807295000000000073e+03
1.479999999999999927e-01 1.541915000000000091e-01 9.833845000000000169e+00 1.232489999999999952e+02 1.806865000000000009e+03
1.489999999999999936e-01 1.541389999999999982e-01 9.151810000000001111e+00 1.219859999999999900e+02 1.806409999999999854e+03
1.499999999999999944e-01 1.540854999999999864e-01 8.474259999999999238e+00 1.207139999999999986e+02 1.805949999999999818e+03
1.509999999999999953e-01 1.540314999999999879e-01 7.808574999999999378e+00 1.194505000000000052e+02 1.805485000000000127e+03
1.519999999999999962e-01 1.539774999999999894e-01 7.162499999999999645e+00 1.182129999999999939e+02 1.805025000000000091e+03
1.529999999999999971e-01 1.539240000000000053e-01 6.543820000000000192e+00 1.170185000000000031e+02 1.804559999999999945e+03
1.539999999999999980e-01 1.538714999999999944e-01 5.960074999999999790e+00 1.158840000000000003e+02 1.804115000000000009e+03
1.549999999999999989e-01 1.538220000000000143e-01 5.418280000000000207e+00 1.148234999999999957e+02 1.803680000000000064e+03
1.559999999999999998e-01 1.537745000000000084e-01 4.924680000000000391e+00 1.138495000000000061e+02 1.803275000000000091e+03
1.570000000000000007e-01 1.537304999999999922e-01 4.484505000000000408e+00 1.129719999999999942e+02 1.802894999999999982e+03
1.580000000000000016e-01 1.536894999999999789e-01 4.101830000000000531e+00 1.121984999999999957e+02 1.802539999999999964e+03
1.590000000000000024e-01 1.536530000000000118e-01 3.779420000000000002e+00 1.115339999999999918e+02 1.802224999999999909e+03
