# t [s], A [cm^2], U [cm/s], P [cPa], c [cm/s]
1.000000000000000021e-03 1.643050000000000066e-01 7.173899999999999721e-02 8.786929999999999552e+01 1.948329999999999927e+03
2.000000000000000042e-03 1.642929999999999946e-01 1.075064500000000089e+00 8.579710000000000036e+01 1.948199999999999818e+03
3.000000000000000062e-03 1.642264999999999975e-01 2.395547999999999789e+00 8.303829999999999245e+01 1.947554999999999836e+03
4.000000000000000083e-03 1.641190000000000149e-01 3.896970500000000115e+00 7.970095000000000596e+01 1.946545000000000073e+03
5.000000000000000104e-03 1.639875000000000083e-01 5.538310499999999692e+00 7.624780000000001223e+01 1.945315000000000055e+03
6.000000000000000125e-03 1.638469999999999926e-01 7.271105000000000373e+00 7.305525000000000091e+01 1.944014999999999873e+03
7.000000000000000146e-03 1.637075000000000058e-01 9.005330000000000723e+00 7.027145000000000152e+01 1.942740000000000009e+03
8.000000000000000167e-03 1.635735000000000106e-01 1.063191000000000130e+01 6.783180000000000121e+01 1.941525000000000091e+03
9.000000000000001055e-03 1.634455000000000213e-01 1.208291999999999966e+01 6.562229999999999563e+01 1.940389999999999873e+03
1.000000000000000194e-02 1.633280000000000010e-01 1.335040500000000208e+01 6.361789999999999878e+01 1.939355000000000018e+03
1.099999999999999936e-02 1.632219999999999782e-01 1.445095000000000063e+01 6.185705000000000098e+01 1.938430000000000064e+03
1.200000000000000025e-02 1.631295000000000106e-01 1.539744999999999919e+01 6.036614999999999753e+01 1.937640000000000100e+03
1.300000000000000114e-02 1.630504999999999871e-01 1.619579999999999842e+01 5.913649999999999807e+01 1.936960000000000036e+03
1.400000000000000203e-02 1.629835000000000034e-01 1.684655000000000058e+01 5.812964999999999804e+01 1.936405000000000200e+03
1.499999999999999944e-02 1.629275000000000029e-01 1.734635000000000105e+01 5.728305000000000291e+01 1.935934999999999945e+03
1.600000000000000033e-02 1.628795000000000104e-01 1.769790000000000063e+01 5.653130000000000166e+01 1.935545000000000073e+03
1.700000000000000122e-02 1.628379999999999828e-01 1.792490000000000094e+01 5.584904999999999831e+01 1.935204999999999927e+03
1.800000000000000211e-02 1.628034999999999899e-01 1.807874999999999943e+01 5.528659999999999997e+01 1.934929999999999836e+03
1.900000000000000300e-02 1.627784999999999926e-01 1.822794999999999987e+01 5.496374999999999744e+01 1.934735000000000127e+03
2.000000000000000042e-02 1.627664999999999806e-01 1.843619999999999948e+01 5.502134999999999820e+01 1.934650000000000091e+03
2.100000000000000130e-02 1.627715000000000134e-01 1.874034999999999940e+01 5.555610000000000070e+01 1.934700000000000045e+03
2.200000000000000219e-02 1.627930000000000210e-01 1.914014999999999844e+01 5.657389999999999475e+01 1.934890000000000100e+03
2.299999999999999961e-02 1.628310000000000035e-01 1.960105000000000075e+01 5.797944999999999993e+01 1.935220000000000027e+03
2.400000000000000050e-02 1.628795000000000104e-01 2.006814999999999927e+01 5.960134999999999650e+01 1.935639999999999873e+03
2.500000000000000139e-02 1.629339999999999955e-01 2.048300000000000054e+01 6.123860000000000525e+01 1.936125000000000000e+03
2.600000000000000228e-02 1.629885000000000084e-01 2.079915000000000092e+01 6.270914999999999395e+01 1.936610000000000127e+03
2.700000000000000316e-02 1.630385000000000029e-01 2.099085000000000178e+01 6.388710000000000377e+01 1.937054999999999836e+03
2.800000000000000058e-02 1.630805000000000171e-01 2.105545000000000044e+01 6.471944999999999482e+01 1.937434999999999945e+03
2.900000000000000147e-02 1.631130000000000080e-01 2.100909999999999656e+01 6.522235000000000582e+01 1.937735000000000127e+03
3.000000000000000236e-02 1.631364999999999899e-01 2.087780000000000058e+01 6.546090000000000941e+01 1.937954999999999927e+03
3.099999999999999978e-02 1.631535000000000069e-01 2.068874999999999886e+01 6.552049999999999841e+01 1.938110000000000127e+03
3.200000000000000067e-02 1.631639999999999757e-01 2.046205000000000140e+01 6.547894999999999754e+01 1.938210000000000036e+03
3.300000000000000155e-02 1.631704999999999961e-01 2.020685000000000286e+01 6.538704999999998790e+01 1.938275000000000091e+03
3.400000000000000244e-02 1.631739999999999857e-01 1.992119999999999891e+01 6.526030000000000086e+01 1.938309999999999945e+03
3.500000000000000333e-02 1.631739999999999857e-01 1.959525000000000006e+01 6.508299999999999841e+01 1.938315000000000055e+03
3.600000000000000422e-02 1.631704999999999961e-01 1.921710000000000207e+01 6.482165000000000532e+01 1.938284999999999854e+03
3.700000000000000511e-02 1.631624999999999881e-01 1.877830000000000155e+01 6.444200000000000728e+01 1.938224999999999909e+03
3.799999999999999906e-02 1.631495000000000029e-01 1.827899999999999991e+01 6.392579999999999529e+01 1.938115000000000009e+03
3.899999999999999994e-02 1.631309999999999982e-01 1.773029999999999973e+01 6.328274999999999295e+01 1.937965000000000146e+03
4.000000000000000083e-02 1.631084999999999896e-01 1.715405000000000157e+01 6.255409999999999826e+01 1.937785000000000082e+03
4.100000000000000172e-02 1.630844999999999934e-01 1.658004999999999995e+01 6.180849999999999511e+01 1.937575000000000045e+03
4.200000000000000261e-02 1.630599999999999827e-01 1.604090000000000060e+01 6.112989999999999924e+01 1.937365000000000009e+03
4.300000000000000350e-02 1.630384999999999751e-01 1.556650000000000134e+01 6.060219999999999629e+01 1.937175000000000182e+03
4.400000000000000439e-02 1.630225000000000146e-01 1.517924999999999969e+01 6.029295000000000471e+01 1.937029999999999973e+03
4.499999999999999833e-02 1.630130000000000190e-01 1.489024999999999999e+01 6.024115000000000464e+01 1.936944999999999936e+03
4.599999999999999922e-02 1.630119999999999902e-01 1.469849999999999923e+01 6.045095000000000596e+01 1.936925000000000182e+03
4.700000000000000011e-02 1.630194999999999839e-01 1.459179999999999922e+01 6.089185000000000514e+01 1.936980000000000018e+03
4.800000000000000100e-02 1.630340000000000122e-01 1.454950000000000010e+01 6.150544999999999618e+01 1.937099999999999909e+03
4.900000000000000189e-02 1.630534999999999901e-01 1.454635000000000034e+01 6.221590000000000487e+01 1.937264999999999873e+03
5.000000000000000278e-02 1.630759999999999987e-01 1.455620000000000047e+01 6.294214999999999804e+01 1.937449999999999818e+03
5.100000000000000366e-02 1.630989999999999940e-01 1.455525000000000091e+01 6.360869999999999891e+01 1.937650000000000091e+03
5.200000000000000455e-02 1.631210000000000160e-01 1.452420000000000044e+01 6.415404999999999802e+01 1.937839999999999918e+03
5.300000000000000544e-02 1.631389999999999785e-01 1.444920000000000115e+01 6.453515000000000157e+01 1.937994999999999891e+03
5.399999999999999939e-02 1.631515000000000049e-01 1.432164999999999999e+01 6.472790000000000532e+01 1.938109999999999900e+03
5.500000000000000028e-02 1.631589999999999985e-01 1.413729999999999976e+01 6.472525000000000261e+01 1.938175000000000182e+03
5.600000000000000117e-02 1.631595000000000129e-01 1.389505000000000123e+01 6.453239999999999554e+01 1.938184999999999945e+03
5.700000000000000205e-02 1.631539999999999935e-01 1.359574999999999889e+01 6.416240000000000521e+01 1.938134999999999991e+03
5.800000000000000294e-02 1.631414999999999949e-01 1.324089999999999989e+01 6.363119999999999266e+01 1.938034999999999854e+03
5.900000000000000383e-02 1.631239999999999912e-01 1.283244999999999969e+01 6.295529999999999404e+01 1.937885000000000218e+03
6.000000000000000472e-02 1.631004999999999816e-01 1.237255000000000038e+01 6.214960000000000662e+01 1.937684999999999945e+03
6.099999999999999867e-02 1.630715000000000081e-01 1.186404999999999887e+01 6.122800000000000153e+01 1.937434999999999945e+03
6.199999999999999956e-02 1.630380000000000162e-01 1.131104999999999983e+01 6.020445000000000135e+01 1.937150000000000091e+03
6.300000000000000044e-02 1.630004999999999926e-01 1.071959499999999998e+01 5.909515000000000384e+01 1.936824999999999818e+03
6.400000000000000133e-02 1.629595000000000071e-01 1.009827499999999922e+01 5.792034999999999911e+01 1.936470000000000027e+03
6.500000000000000222e-02 1.629154999999999909e-01 9.458619999999999806e+00 5.670619999999999550e+01 1.936090000000000146e+03
6.600000000000000311e-02 1.628700000000000148e-01 8.815134999999999721e+00 5.548555000000000348e+01 1.935695000000000164e+03
6.700000000000000400e-02 1.628240000000000243e-01 8.184895000000000920e+00 5.429760000000000275e+01 1.935295000000000073e+03
6.800000000000000488e-02 1.627790000000000070e-01 7.587144999999999584e+00 5.318704999999999927e+01 1.934905000000000200e+03
6.900000000000000577e-02 1.627369999999999928e-01 7.042360000000000397e+00 5.220199999999999818e+01 1.934534999999999854e+03
7.000000000000000666e-02 1.626994999999999969e-01 6.571175000000000210e+00 5.139135000000000275e+01 1.934210000000000036e+03
7.100000000000000755e-02 1.626680000000000070e-01 6.193425000000000402e+00 5.080225000000000080e+01 1.933929999999999836e+03
7.200000000000000844e-02 1.626444999999999974e-01 5.927150000000000141e+00 5.047715000000000174e+01 1.933720000000000027e+03
7.300000000000000933e-02 1.626305000000000112e-01 5.787739999999999441e+00 5.045185000000000031e+01 1.933585000000000036e+03
7.399999999999999634e-02 1.626275000000000082e-01 5.787295000000000300e+00 5.075329999999999586e+01 1.933550000000000182e+03
7.499999999999999722e-02 1.626365000000000172e-01 5.934219999999999828e+00 5.139900000000000091e+01 1.933619999999999891e+03
7.599999999999999811e-02 1.626575000000000104e-01 6.233035000000000103e+00 5.239615000000000578e+01 1.933789999999999964e+03
7.699999999999999900e-02 1.626920000000000033e-01 6.684404999999999930e+00 5.374219999999999686e+01 1.934070000000000164e+03
7.799999999999999989e-02 1.627394999999999814e-01 7.285415000000000418e+00 5.542549999999999955e+01 1.934474999999999909e+03
7.900000000000000078e-02 1.627994999999999859e-01 8.029959999999999098e+00 5.742704999999999416e+01 1.934980000000000018e+03
8.000000000000000167e-02 1.628715000000000024e-01 8.909245000000000303e+00 5.972155000000000058e+01 1.935595000000000027e+03
8.100000000000000255e-02 1.629549999999999887e-01 9.912504999999999455e+00 6.227970000000000539e+01 1.936309999999999945e+03
8.200000000000000344e-02 1.630489999999999995e-01 1.102742499999999914e+01 6.506985000000000241e+01 1.937115000000000009e+03
8.300000000000000433e-02 1.631524999999999781e-01 1.224104999999999954e+01 6.805984999999999729e+01 1.938009999999999991e+03
8.400000000000000522e-02 1.632644999999999791e-01 1.354005000000000081e+01 7.121860000000000923e+01 1.938974999999999909e+03
8.500000000000000611e-02 1.633835000000000148e-01 1.491140000000000043e+01 7.451720000000000255e+01 1.940009999999999991e+03
8.600000000000000699e-02 1.635085000000000011e-01 1.634254999999999924e+01 7.792985000000000184e+01 1.941099999999999909e+03
8.700000000000000788e-02 1.636385000000000201e-01 1.782184999999999775e+01 8.143420000000000414e+01 1.942235000000000127e+03
8.800000000000000877e-02 1.637735000000000163e-01 1.933830000000000027e+01 8.501124999999998977e+01 1.943414999999999964e+03
8.899999999999999578e-02 1.639120000000000021e-01 2.088185000000000002e+01 8.864515000000000100e+01 1.944625000000000000e+03
8.999999999999999667e-02 1.640535000000000188e-01 2.244304999999999950e+01 9.232240000000000180e+01 1.945869999999999891e+03
9.099999999999999756e-02 1.641974999999999962e-01 2.401299999999999812e+01 9.603104999999999336e+01 1.947134999999999991e+03
9.199999999999999845e-02 1.643430000000000168e-01 2.558319999999999794e+01 9.975974999999999682e+01 1.948420000000000073e+03
9.299999999999999933e-02 1.644904999999999839e-01 2.714525000000000077e+01 1.034981999999999971e+02 1.949724999999999909e+03
9.400000000000000022e-02 1.646385000000000209e-01 2.869105000000000061e+01 1.072338499999999897e+02 1.951035000000000082e+03
9.500000000000000111e-02 1.647865000000000024e-01 3.021265000000000356e+01 1.109559999999999889e+02 1.952349999999999909e+03
9.600000000000000200e-02 1.649349999999999983e-01 3.170204999999999984e+01 1.146504999999999939e+02 1.953670000000000073e+03
9.700000000000000289e-02 1.650830000000000075e-01 3.315185000000000315e+01 1.183045000000000044e+02 1.954990000000000009e+03
9.800000000000000377e-02 1.652290000000000147e-01 3.455474999999999852e+01 1.219050000000000011e+02 1.956295000000000073e+03
9.900000000000000466e-02 1.653740000000000210e-01 3.590424999999999756e+01 1.254394999999999953e+02 1.957590000000000146e+03
1.000000000000000056e-01 1.655165000000000108e-01 3.719429999999999836e+01 1.288949999999999818e+02 1.958869999999999891e+03
1.010000000000000064e-01 1.656565000000000121e-01 3.841974999999999341e+01 1.322599999999999909e+02 1.960125000000000000e+03
1.020000000000000073e-01 1.657935000000000103e-01 3.957605000000000217e+01 1.355255000000000223e+02 1.961355000000000018e+03
1.030000000000000082e-01 1.659265000000000045e-01 4.065944999999999965e+01 1.386825000000000045e+02 1.962554999999999836e+03
1.040000000000000091e-01 1.660554999999999948e-01 4.166679999999999495e+01 1.417235000000000014e+02 1.963724999999999909e+03
1.050000000000000100e-01 1.661809999999999954e-01 4.259555000000000291e+01 1.446424999999999841e+02 1.964860000000000127e+03
1.059999999999999970e-01 1.663014999999999910e-01 4.344370000000000687e+01 1.474334999999999809e+02 1.965949999999999818e+03
1.069999999999999979e-01 1.664174999999999960e-01 4.420945000000000391e+01 1.500914999999999964e+02 1.967000000000000000e+03
1.079999999999999988e-01 1.665280000000000094e-01 4.489135000000000275e+01 1.526115000000000066e+02 1.968010000000000218e+03
1.089999999999999997e-01 1.666334999999999900e-01 4.548825000000000074e+01 1.549884999999999877e+02 1.968970000000000027e+03
1.100000000000000006e-01 1.667339999999999933e-01 4.599920000000000186e+01 1.572175000000000011e+02 1.969880000000000109e+03
1.110000000000000014e-01 1.668279999999999763e-01 4.642350000000000421e+01 1.592950000000000159e+02 1.970744999999999891e+03
1.120000000000000023e-01 1.669164999999999954e-01 4.676090000000000657e+01 1.612144999999999868e+02 1.971554999999999836e+03
1.130000000000000032e-01 1.669984999999999942e-01 4.701154999999999973e+01 1.629744999999999777e+02 1.972305000000000064e+03
1.140000000000000041e-01 1.670749999999999735e-01 4.717624999999999602e+01 1.645724999999999909e+02 1.973005000000000109e+03
1.150000000000000050e-01 1.671445000000000014e-01 4.725629999999999598e+01 1.660070000000000050e+02 1.973644999999999982e+03
1.160000000000000059e-01 1.672079999999999955e-01 4.725390000000000157e+01 1.672794999999999845e+02 1.974230000000000018e+03
1.170000000000000068e-01 1.672644999999999826e-01 4.717190000000000083e+01 1.683919999999999959e+02 1.974755000000000109e+03
1.180000000000000077e-01 1.673149999999999915e-01 4.701399999999999579e+01 1.693494999999999777e+02 1.975230000000000018e+03
1.190000000000000085e-01 1.673600000000000088e-01 4.678444999999999965e+01 1.701585000000000036e+02 1.975644999999999982e+03
1.200000000000000094e-01 1.673985000000000056e-01 4.648824999999999363e+01 1.708274999999999864e+02 1.976005000000000109e+03
1.209999999999999964e-01 1.674315000000000109e-01 4.613080000000000069e+01 1.713659999999999854e+02 1.976309999999999945e+03
1.219999999999999973e-01 1.674589999999999967e-01 4.571810000000000684e+01 1.717835000000000036e+02 1.976575000000000045e+03
1.229999999999999982e-01 1.674819999999999920e-01 4.525615000000000521e+01 1.720925000000000011e+02 1.976784999999999854e+03
1.239999999999999991e-01 1.674999999999999822e-01 4.475110000000000099e+01 1.723034999999999854e+02 1.976960000000000036e+03
1.250000000000000000e-01 1.675145000000000106e-01 4.420909999999999940e+01 1.724275000000000091e+02 1.977095000000000027e+03
1.260000000000000009e-01 1.675245000000000206e-01 4.363615000000000066e+01 1.724770000000000039e+02 1.977195000000000164e+03
1.270000000000000018e-01 1.675314999999999999e-01 4.303764999999999930e+01 1.724610000000000127e+02 1.977264999999999873e+03
1.280000000000000027e-01 1.675355000000000039e-01 4.241904999999999859e+01 1.723880000000000052e+02 1.977305000000000064e+03
1.290000000000000036e-01 1.675375000000000059e-01 4.178504999999999825e+01 1.722669999999999959e+02 1.977325000000000045e+03
1.300000000000000044e-01 1.675364999999999771e-01 4.113979999999999393e+01 1.721050000000000182e+02 1.977315000000000055e+03
1.310000000000000053e-01 1.675339999999999885e-01 4.048700000000000188e+01 1.719064999999999941e+02 1.977295000000000073e+03
1.320000000000000062e-01 1.675290000000000112e-01 3.982970000000000255e+01 1.716770000000000209e+02 1.977255000000000109e+03
1.330000000000000071e-01 1.675225000000000186e-01 3.917040000000000077e+01 1.714184999999999945e+02 1.977200000000000045e+03
1.340000000000000080e-01 1.675154999999999839e-01 3.851089999999999947e+01 1.711340000000000146e+02 1.977130000000000109e+03
1.350000000000000089e-01 1.675059999999999882e-01 3.785240000000000293e+01 1.708240000000000123e+02 1.977049999999999955e+03
1.360000000000000098e-01 1.674959999999999782e-01 3.719575000000000387e+01 1.704875000000000114e+02 1.976960000000000036e+03
1.370000000000000107e-01 1.674845000000000084e-01 3.654124999999999801e+01 1.701245000000000118e+02 1.976855000000000018e+03
1.380000000000000115e-01 1.674709999999999810e-01 3.588855000000000217e+01 1.697325000000000159e+02 1.976735000000000127e+03
1.390000000000000124e-01 1.674570000000000225e-01 3.523720000000000141e+01 1.693100000000000023e+02 1.976605000000000018e+03
1.400000000000000133e-01 1.674414999999999931e-01 3.458634999999999593e+01 1.688530000000000086e+02 1.976465000000000146e+03
1.410000000000000142e-01 1.674245000000000039e-01 3.393495000000000061e+01 1.683605000000000018e+02 1.976309999999999945e+03
1.420000000000000151e-01 1.674059999999999993e-01 3.328184999999999860e+01 1.678280000000000030e+02 1.976140000000000100e+03
1.430000000000000160e-01 1.673854999999999926e-01 3.262584999999999980e+01 1.672540000000000191e+02 1.975954999999999927e+03
1.440000000000000169e-01 1.673634999999999984e-01 3.196594999999999942e+01 1.666345000000000027e+02 1.975755000000000109e+03
1.450000000000000178e-01 1.673399999999999888e-01 3.130109999999999815e+01 1.659695000000000107e+02 1.975539999999999964e+03
1.459999999999999909e-01 1.673145000000000049e-01 3.063069999999999737e+01 1.652570000000000050e+02 1.975309999999999945e+03
1.469999999999999918e-01 1.672875000000000056e-01 2.995439999999999969e+01 1.644975000000000023e+02 1.975059999999999945e+03
1.479999999999999927e-01 1.672575000000000034e-01 2.927224999999999966e+01 1.636915000000000191e+02 1.974799999999999955e+03
1.489999999999999936e-01 1.672270000000000145e-01 2.858485000000000298e+01 1.628414999999999964e+02 1.974514999999999873e+03
1.499999999999999944e-01 1.671934999999999949e-01 2.789300000000000068e+01 1.619509999999999934e+02 1.974215000000000146e+03
1.509999999999999953e-01 1.671590000000000020e-01 2.719819999999999993e+01 1.610240000000000009e+02 1.973904999999999973e+03
1.519999999999999962e-01 1.671234999999999804e-01 2.650244999999999962e+01 1.600665000000000191e+02 1.973579999999999927e+03
1.529999999999999971e-01 1.670860000000000123e-01 2.580794999999999817e+01 1.590850000000000080e+02 1.973244999999999891e+03
1.539999999999999980e-01 1.670484999999999887e-01 2.511734999999999829e+01 1.580854999999999961e+02 1.972900000000000091e+03
1.549999999999999989e-01 1.670095000000000052e-01 2.443370000000000175e+01 1.570780000000000030e+02 1.972545000000000073e+03
1.559999999999999998e-01 1.669694999999999929e-01 2.376004999999999967e+01 1.560695000000000050e+02 1.972190000000000055e+03
1.570000000000000007e-01 1.669300000000000228e-01 2.309964999999999691e+01 1.550685000000000002e+02 1.971835000000000036e+03
1.580000000000000016e-01 1.668910000000000116e-01 2.245564999999999856e+01 1.540829999999999984e+02 1.971474999999999909e+03
1.590000000000000024e-01 1.668520000000000003e-01 2.183115000000000094e+01 1.531209999999999809e+02 1.971119999999999891e+03
