# t [s], A [cm^2], U [cm/s], P [cPa], c [cm/s]
1.000000000000000021e-03 6.034569999999999101e-01 3.122199999999998588e-03 1.096785000000000139e+02 1.548074999999999818e+03
2.000000000000000042e-03 6.034519999999999884e-01 6.951859999999999810e-03 1.096604999999999990e+02 1.548069999999999936e+03
3.000000000000000062e-03 6.035169999999999702e-01 1.213682499999999831e-01 1.097794999999999987e+02 1.548099999999999909e+03
4.000000000000000083e-03 6.035570000000000102e-01 1.985962000000000005e-01 1.098769999999999953e+02 1.548125000000000000e+03
5.000000000000000104e-03 6.035220000000000029e-01 1.473939999999999972e-01 1.097864999999999895e+02 1.548110000000000127e+03
6.000000000000000125e-03 6.034599999999999964e-01 4.081000000000001293e-02 1.095465000000000089e+02 1.548059999999999945e+03
7.000000000000000146e-03 6.033920000000000394e-01 -8.312600000000003320e-02 1.092090000000000032e+02 1.547985000000000127e+03
8.000000000000000167e-03 6.032750000000000057e-01 -3.063949999999999729e-01 1.086804999999999950e+02 1.547865000000000009e+03
9.000000000000001055e-03 6.030860000000000110e-01 -6.685599999999999321e-01 1.078774999999999977e+02 1.547679999999999836e+03
1.000000000000000194e-02 6.028204999999999814e-01 -1.167444999999999844e+00 1.067535000000000025e+02 1.547409999999999854e+03
1.099999999999999936e-02 6.024620000000000530e-01 -1.815405000000000157e+00 1.052520000000000095e+02 1.547049999999999955e+03
1.200000000000000025e-02 6.020050000000000123e-01 -2.598749999999999893e+00 1.033421999999999912e+02 1.546579999999999927e+03
1.300000000000000114e-02 6.014850000000000474e-01 -3.423894999999999911e+00 1.011030499999999961e+02 1.546014999999999873e+03
1.400000000000000203e-02 6.009685000000000166e-01 -4.134470000000000312e+00 9.872809999999999775e+01 1.545389999999999873e+03
1.499999999999999944e-02 6.005175000000000374e-01 -4.581773000000000096e+00 9.644870000000000232e+01 1.544769999999999982e+03
1.600000000000000033e-02 6.001640000000000308e-01 -4.685410749999999958e+00 9.444304999999999950e+01 1.544184999999999945e+03
1.700000000000000122e-02 5.998980000000000423e-01 -4.451813000000000464e+00 9.278010000000000446e+01 1.543660000000000082e+03
1.800000000000000211e-02 5.996839999999999948e-01 -3.956166000000000071e+00 9.141729999999999734e+01 1.543200000000000045e+03
1.900000000000000300e-02 5.994770000000000376e-01 -3.305995999999999935e+00 9.023519999999999186e+01 1.542779999999999973e+03
2.000000000000000042e-02 5.992374999999999785e-01 -2.602173000000000069e+00 8.908904999999998608e+01 1.542369999999999891e+03
2.100000000000000130e-02 5.989444999999999908e-01 -1.909645000000000259e+00 8.786115000000000919e+01 1.541949999999999818e+03
2.200000000000000219e-02 5.986004999999999798e-01 -1.246765000000000123e+00 8.649299999999999500e+01 1.541505000000000109e+03
2.299999999999999961e-02 5.982204999999999329e-01 -5.954150000000000276e-01 8.498930000000000007e+01 1.541029999999999973e+03
2.400000000000000050e-02 5.978269999999999973e-01 7.532000000000005357e-02 8.339619999999999322e+01 1.540529999999999973e+03
2.500000000000000139e-02 5.974350000000000493e-01 7.839550000000001795e-01 8.176635000000000275e+01 1.540019999999999982e+03
2.600000000000000228e-02 5.970469999999999944e-01 1.520080000000000098e+00 8.012834999999999752e+01 1.539500000000000000e+03
2.700000000000000316e-02 5.966500000000000137e-01 2.240404999999999536e+00 7.846895000000000664e+01 1.538974999999999909e+03
2.800000000000000058e-02 5.962220000000000297e-01 2.876394999999999591e+00 7.673255000000000337e+01 1.538429999999999836e+03
2.900000000000000147e-02 5.957365000000000022e-01 3.349500000000000366e+00 7.483414999999999395e+01 1.537845000000000027e+03
3.000000000000000236e-02 5.951710000000000056e-01 3.589475000000000193e+00 7.268319999999999936e+01 1.537204999999999927e+03
3.099999999999999978e-02 5.945124999999999993e-01 3.551345000000000418e+00 7.020955000000000723e+01 1.536494999999999891e+03
3.200000000000000067e-02 5.937639999999999585e-01 3.226624999999999854e+00 6.738720000000000709e+01 1.535695000000000164e+03
3.300000000000000155e-02 5.929429999999999978e-01 2.646285000000000220e+00 6.424745000000000061e+01 1.534824999999999818e+03
3.400000000000000244e-02 5.920815000000000383e-01 1.875530000000000364e+00 6.088004999999999711e+01 1.533884999999999991e+03
3.500000000000000333e-02 5.912190000000000500e-01 1.001524999999999999e+00 5.742154999999999632e+01 1.532924999999999955e+03
3.600000000000000422e-02 5.903970000000000606e-01 1.191499999999994230e-01 5.403615000000000634e+01 1.531965000000000146e+03
3.700000000000000511e-02 5.896544999999999703e-01 -6.823150000000000048e-01 5.089365000000000094e+01 1.531049999999999955e+03
3.799999999999999906e-02 5.890229999999999633e-01 -1.328689999999999927e+00 4.814950000000000330e+01 1.530230000000000018e+03
3.899999999999999994e-02 5.885259999999999936e-01 -1.765640000000000320e+00 4.593014999999999759e+01 1.529539999999999964e+03
4.000000000000000083e-02 5.881769999999999499e-01 -1.959144999999999914e+00 4.432505000000000450e+01 1.528994999999999891e+03
4.100000000000000172e-02 5.879814999999999348e-01 -1.892797500000000133e+00 4.338524999999999920e+01 1.528619999999999891e+03
4.200000000000000261e-02 5.879394999999999483e-01 -1.563293499999999892e+00 4.312675000000000125e+01 1.528429999999999836e+03
4.300000000000000350e-02 5.880460000000000687e-01 -9.757295000000000273e-01 4.353794999999999504e+01 1.528424999999999955e+03
4.400000000000000439e-02 5.882924999999999960e-01 -1.397599999999998843e-01 4.458715000000000117e+01 1.528599999999999909e+03
4.499999999999999833e-02 5.886694999999999567e-01 9.325099999999999500e-01 4.623004999999999853e+01 1.528944999999999936e+03
4.599999999999999922e-02 5.891669999999999963e-01 2.226975000000000371e+00 4.841454999999999842e+01 1.529454999999999927e+03
4.700000000000000011e-02 5.897725000000000328e-01 3.726620000000000488e+00 5.108344999999999914e+01 1.530105000000000018e+03
4.800000000000000100e-02 5.904740000000000544e-01 5.410110000000000419e+00 5.417544999999999789e+01 1.530884999999999991e+03
4.900000000000000189e-02 5.912550000000000860e-01 7.250630000000001019e+00 5.762454999999999927e+01 1.531789999999999964e+03
5.000000000000000278e-02 5.920995000000000008e-01 9.215297999999998879e+00 6.136005000000000109e+01 1.532779999999999973e+03
5.100000000000000366e-02 5.929904999999999760e-01 1.126629999999999932e+01 6.530724999999999625e+01 1.533849999999999909e+03
5.200000000000000455e-02 5.939084999999999503e-01 1.336230000000000118e+01 6.938890000000000668e+01 1.534970000000000027e+03
5.300000000000000544e-02 5.948364999999999903e-01 1.546091999999999977e+01 7.352824999999999989e+01 1.536130000000000109e+03
5.399999999999999939e-02 5.957575000000000509e-01 1.752155499999999932e+01 7.765240000000000009e+01 1.537305000000000064e+03
5.500000000000000028e-02 5.966574999999999518e-01 1.950755000000000194e+01 8.169610000000000127e+01 1.538470000000000027e+03
5.600000000000000117e-02 5.975260000000000016e-01 2.138850000000000051e+01 8.560489999999998645e+01 1.539610000000000127e+03
5.700000000000000205e-02 5.983534999999999826e-01 2.314140000000000086e+01 8.933774999999999977e+01 1.540724999999999909e+03
5.800000000000000294e-02 5.991374999999999895e-01 2.475124999999999886e+01 9.286795000000000755e+01 1.541789999999999964e+03
5.900000000000000383e-02 5.998755000000000059e-01 2.621085000000000065e+01 9.618455000000000155e+01 1.542804999999999836e+03
6.000000000000000472e-02 6.005699999999999372e-01 2.751989999999999981e+01 9.928940000000000055e+01 1.543775000000000091e+03
6.099999999999999867e-02 6.012254999999999683e-01 2.868434999999999846e+01 1.021968500000000120e+02 1.544684999999999945e+03
6.199999999999999956e-02 6.018470000000000208e-01 2.971490000000000009e+01 1.049307000000000016e+02 1.545554999999999836e+03
6.300000000000000044e-02 6.024430000000000618e-01 3.062559999999999860e+01 1.075219999999999914e+02 1.546380000000000109e+03
6.400000000000000133e-02 6.030200000000000005e-01 3.143290000000000006e+01 1.100055000000000121e+02 1.547180000000000064e+03
6.500000000000000222e-02 6.035865000000000258e-01 3.215429999999999922e+01 1.124164999999999992e+02 1.547950000000000045e+03
6.600000000000000311e-02 6.041499999999999648e-01 3.280720000000000169e+01 1.147904999999999944e+02 1.548710000000000036e+03
6.700000000000000400e-02 6.047160000000000313e-01 3.340794999999999959e+01 1.171589999999999918e+02 1.549460000000000036e+03
6.800000000000000488e-02 6.052904999999999536e-01 3.397100000000000364e+01 1.195469999999999970e+02 1.550210000000000036e+03
6.900000000000000577e-02 6.058764999999999290e-01 3.450790000000000646e+01 1.219730000000000132e+02 1.550970000000000027e+03
7.000000000000000666e-02 6.064745000000000275e-01 3.502649999999999864e+01 1.244480000000000075e+02 1.551735000000000127e+03
7.100000000000000755e-02 6.070849999999999858e-01 3.553085000000000093e+01 1.269715000000000060e+02 1.552514999999999873e+03
7.200000000000000844e-02 6.077040000000000219e-01 3.602069999999999794e+01 1.295355000000000132e+02 1.553304999999999836e+03
7.300000000000000933e-02 6.083275000000000210e-01 3.649164999999999992e+01 1.321220000000000141e+02 1.554095000000000027e+03
7.399999999999999634e-02 6.089489999999999625e-01 3.693585000000000207e+01 1.347065000000000055e+02 1.554889999999999873e+03
7.499999999999999722e-02 6.095599999999999907e-01 3.734235000000000326e+01 1.372564999999999884e+02 1.555679999999999836e+03
7.599999999999999811e-02 6.101529999999999454e-01 3.769830000000000325e+01 1.397370000000000232e+02 1.556450000000000045e+03
7.699999999999999900e-02 6.107179999999999831e-01 3.798975000000000080e+01 1.421089999999999804e+02 1.557190000000000055e+03
7.799999999999999989e-02 6.112474999999999437e-01 3.820279999999999632e+01 1.443354999999999961e+02 1.557894999999999982e+03
7.900000000000000078e-02 6.117330000000000823e-01 3.832460000000000377e+01 1.463804999999999836e+02 1.558545000000000073e+03
8.000000000000000167e-02 6.121680000000000454e-01 3.834404999999999575e+01 1.482135000000000105e+02 1.559144999999999982e+03
8.100000000000000255e-02 6.125469999999999526e-01 3.825260000000000105e+01 1.498089999999999975e+02 1.559679999999999836e+03
8.200000000000000344e-02 6.128675000000000095e-01 3.804474999999999341e+01 1.511485000000000127e+02 1.560144999999999982e+03
8.300000000000000433e-02 6.131265000000000187e-01 3.771835000000000093e+01 1.522230000000000132e+02 1.560534999999999854e+03
8.400000000000000522e-02 6.133239999999999803e-01 3.727459999999999951e+01 1.530300000000000011e+02 1.560844999999999800e+03
8.500000000000000611e-02 6.134619999999999518e-01 3.671824999999999761e+01 1.535745000000000005e+02 1.561075000000000045e+03
8.600000000000000699e-02 6.135444999999999371e-01 3.605700000000000216e+01 1.538709999999999809e+02 1.561235000000000127e+03
8.700000000000000788e-02 6.135755000000000514e-01 3.530154999999999887e+01 1.539379999999999882e+02 1.561329999999999927e+03
8.800000000000000877e-02 6.135604999999999531e-01 3.446484999999999843e+01 1.538004999999999995e+02 1.561355000000000018e+03
8.899999999999999578e-02 6.135075000000000944e-01 3.356184999999999974e+01 1.534895000000000209e+02 1.561324999999999818e+03
8.999999999999999667e-02 6.134219999999999118e-01 3.260860000000000269e+01 1.530360000000000014e+02 1.561244999999999891e+03
9.099999999999999756e-02 6.133129999999999971e-01 3.162180000000000035e+01 1.524735000000000014e+02 1.561125000000000000e+03
9.199999999999999845e-02 6.131869999999999266e-01 3.061820000000000164e+01 1.518365000000000009e+02 1.560980000000000018e+03
9.299999999999999933e-02 6.130519999999999303e-01 2.961379999999999768e+01 1.511564999999999941e+02 1.560809999999999945e+03
9.400000000000000022e-02 6.129139999999999588e-01 2.862354999999999805e+01 1.504654999999999916e+02 1.560625000000000000e+03
9.500000000000000111e-02 6.127785000000000037e-01 2.766035000000000110e+01 1.497889999999999873e+02 1.560445000000000164e+03
9.600000000000000200e-02 6.126519999999999744e-01 2.673505000000000109e+01 1.491494999999999891e+02 1.560264999999999873e+03
9.700000000000000289e-02 6.125359999999999694e-01 2.585585000000000022e+01 1.485640000000000214e+02 1.560090000000000146e+03
9.800000000000000377e-02 6.124335000000000750e-01 2.502810000000000201e+01 1.480455000000000041e+02 1.559929999999999836e+03
9.900000000000000466e-02 6.123464999999999048e-01 2.425420000000000087e+01 1.475989999999999895e+02 1.559789999999999964e+03
1.000000000000000056e-01 6.122739999999999849e-01 2.353379999999999939e+01 1.472259999999999991e+02 1.559670000000000073e+03
1.010000000000000064e-01 6.122144999999999948e-01 2.286380000000000123e+01 1.469225000000000136e+02 1.559559999999999945e+03
1.020000000000000073e-01 6.121659999999999879e-01 2.223875000000000313e+01 1.466779999999999973e+02 1.559470000000000027e+03
1.030000000000000082e-01 6.121265000000000178e-01 2.165120000000000289e+01 1.464800000000000182e+02 1.559394999999999982e+03
1.040000000000000091e-01 6.120909999999999407e-01 2.109234999999999971e+01 1.463140000000000214e+02 1.559329999999999927e+03
1.050000000000000100e-01 6.120559999999999334e-01 2.055230000000000246e+01 1.461610000000000014e+02 1.559269999999999982e+03
1.059999999999999970e-01 6.120174999999999921e-01 2.002084999999999937e+01 1.460034999999999741e+02 1.559204999999999927e+03
1.069999999999999979e-01 6.119715000000000016e-01 1.948785000000000167e+01 1.458229999999999791e+02 1.559144999999999982e+03
1.079999999999999988e-01 6.119144999999999168e-01 1.894389999999999930e+01 1.456019999999999754e+02 1.559075000000000045e+03
1.089999999999999997e-01 6.118434999999999846e-01 1.838060000000000116e+01 1.453269999999999982e+02 1.558990000000000009e+03
1.100000000000000006e-01 6.117565000000000364e-01 1.779119999999999990e+01 1.449859999999999900e+02 1.558890000000000100e+03
1.110000000000000014e-01 6.116520000000000845e-01 1.717060000000000031e+01 1.445695000000000050e+02 1.558769999999999982e+03
1.120000000000000023e-01 6.115280000000000715e-01 1.651595000000000013e+01 1.440740000000000123e+02 1.558630000000000109e+03
1.130000000000000032e-01 6.113865000000000549e-01 1.582634999999999970e+01 1.434990000000000236e+02 1.558470000000000027e+03
1.140000000000000041e-01 6.112284999999999524e-01 1.510339999999999883e+01 1.428485000000000014e+02 1.558289999999999964e+03
1.150000000000000050e-01 6.110554999999999737e-01 1.435067500000000074e+01 1.421295000000000073e+02 1.558090000000000146e+03
1.160000000000000059e-01 6.108705000000000940e-01 1.357367999999999952e+01 1.413539999999999850e+02 1.557869999999999891e+03
1.170000000000000068e-01 6.106774999999999842e-01 1.277978500000000039e+01 1.405355000000000132e+02 1.557639999999999873e+03
1.180000000000000077e-01 6.104794999999999527e-01 1.197779500000000041e+01 1.396924999999999955e+02 1.557400000000000091e+03
1.190000000000000085e-01 6.102825000000000610e-01 1.117743999999999893e+01 1.388425000000000011e+02 1.557150000000000091e+03
1.200000000000000094e-01 6.100900000000000212e-01 1.038921500000000009e+01 1.380055000000000121e+02 1.556909999999999854e+03
1.209999999999999964e-01 6.099060000000000592e-01 9.623704999999999288e+00 1.372009999999999934e+02 1.556670000000000073e+03
1.219999999999999973e-01 6.097360000000000557e-01 8.891209999999999170e+00 1.364474999999999909e+02 1.556444999999999936e+03
1.229999999999999982e-01 6.095825000000000271e-01 8.201380000000000337e+00 1.357624999999999886e+02 1.556235000000000127e+03
1.239999999999999991e-01 6.094494999999999774e-01 7.562559999999999505e+00 1.351620000000000061e+02 1.556039999999999964e+03
1.250000000000000000e-01 6.093394999999999229e-01 6.981825000000000614e+00 1.346564999999999941e+02 1.555880000000000109e+03
1.260000000000000009e-01 6.092539999999999623e-01 6.464359999999999218e+00 1.342545000000000073e+02 1.555740000000000009e+03
1.270000000000000018e-01 6.091934999999999434e-01 6.013479999999999492e+00 1.339624999999999773e+02 1.555630000000000109e+03
1.280000000000000027e-01 6.091579999999999773e-01 5.630444999999999922e+00 1.337794999999999845e+02 1.555555000000000064e+03
1.290000000000000036e-01 6.091470000000001050e-01 5.314544999999999852e+00 1.337040000000000077e+02 1.555505000000000109e+03
1.300000000000000044e-01 6.091579999999999773e-01 5.063145000000000451e+00 1.337289999999999850e+02 1.555485000000000127e+03
1.310000000000000053e-01 6.091889999999999805e-01 4.871904999999999930e+00 1.338454999999999870e+02 1.555494999999999891e+03
1.320000000000000062e-01 6.092374999999999874e-01 4.735025000000000261e+00 1.340405000000000086e+02 1.555525000000000091e+03
1.330000000000000071e-01 6.092994999999999939e-01 4.645545000000000258e+00 1.343000000000000114e+02 1.555579999999999927e+03
1.340000000000000080e-01 6.093714999999999549e-01 4.595695000000000086e+00 1.346094999999999970e+02 1.555650000000000091e+03
1.350000000000000089e-01 6.094500000000000473e-01 4.577215000000000700e+00 1.349515000000000100e+02 1.555730000000000018e+03
1.360000000000000098e-01 6.095319999999999627e-01 4.581699999999999662e+00 1.353120000000000118e+02 1.555819999999999936e+03
1.370000000000000107e-01 6.096129999999999605e-01 4.600950000000000095e+00 1.356734999999999900e+02 1.555914999999999964e+03
1.380000000000000115e-01 6.096904999999999131e-01 4.627205000000000013e+00 1.360235000000000127e+02 1.556005000000000109e+03
1.390000000000000124e-01 6.097620000000000262e-01 4.653404999999999347e+00 1.363495000000000061e+02 1.556095000000000027e+03
1.400000000000000133e-01 6.098259999999999792e-01 4.673384999999999678e+00 1.366415000000000077e+02 1.556180000000000064e+03
1.410000000000000142e-01 6.098790000000000600e-01 4.682005000000000194e+00 1.368909999999999911e+02 1.556255000000000109e+03
1.420000000000000151e-01 6.099215000000000053e-01 4.675240000000000506e+00 1.370929999999999893e+02 1.556319999999999936e+03
1.430000000000000160e-01 6.099529999999999674e-01 4.650199999999999889e+00 1.372429999999999950e+02 1.556369999999999891e+03
1.440000000000000169e-01 6.099719999999999587e-01 4.605125000000000135e+00 1.373410000000000082e+02 1.556400000000000091e+03
1.450000000000000178e-01 6.099805000000000366e-01 4.539335000000000342e+00 1.373874999999999886e+02 1.556424999999999955e+03
1.459999999999999909e-01 6.099780000000000202e-01 4.453134999999999621e+00 1.373849999999999909e+02 1.556430000000000064e+03
1.469999999999999918e-01 6.099660000000000082e-01 4.347669999999999924e+00 1.373380000000000223e+02 1.556429999999999836e+03
1.479999999999999927e-01 6.099455000000000293e-01 4.224829999999999863e+00 1.372504999999999882e+02 1.556414999999999964e+03
1.489999999999999936e-01 6.099179999999999602e-01 4.087060000000000137e+00 1.371295000000000073e+02 1.556389999999999873e+03
1.499999999999999944e-01 6.098850000000000104e-01 3.937205000000000066e+00 1.369805000000000064e+02 1.556355000000000018e+03
1.509999999999999953e-01 6.098479999999999457e-01 3.778344999999999843e+00 1.368104999999999905e+02 1.556315000000000055e+03
1.519999999999999962e-01 6.098075000000000578e-01 3.613640000000000185e+00 1.366250000000000000e+02 1.556269999999999982e+03
1.529999999999999971e-01 6.097654999999999603e-01 3.446175000000000210e+00 1.364300000000000068e+02 1.556215000000000146e+03
1.539999999999999980e-01 6.097230000000000150e-01 3.278839999999999755e+00 1.362305000000000064e+02 1.556164999999999964e+03
1.549999999999999989e-01 6.096805000000000696e-01 3.114205000000000112e+00 1.360300000000000011e+02 1.556110000000000127e+03
1.559999999999999998e-01 6.096384999999999721e-01 2.954439999999999955e+00 1.358319999999999936e+02 1.556049999999999955e+03
1.570000000000000007e-01 6.095979999999999732e-01 2.801264999999999894e+00 1.356380000000000052e+02 1.556000000000000000e+03
1.580000000000000016e-01 6.095585000000000031e-01 2.655915000000000248e+00 1.354490000000000123e+02 1.555940000000000055e+03
1.590000000000000024e-01 6.095194999999999919e-01 2.519124999999999837e+00 1.352655000000000030e+02 1.555884999999999991e+03
