# t [s], A [cm^2], U [cm/s], P [cPa], c [cm/s]
1.000000000000000021e-03 6.291439999999999255e-01 5.955950000000001521e-03 1.025534999999999997e+02 1.801454999999999927e+03
2.000000000000000042e-03 6.291379999999999750e-01 7.382500000000001041e-03 1.025264999999999986e+02 1.801454999999999927e+03
3.000000000000000062e-03 6.292054999999999731e-01 1.451045499999999988e-01 1.026965000000000003e+02 1.801485000000000127e+03
4.000000000000000083e-03 6.292309999999999848e-01 2.192110000000000170e-01 1.027909999999999968e+02 1.801505000000000109e+03
5.000000000000000104e-03 6.291735000000000522e-01 1.309095000000000120e-01 1.025970000000000084e+02 1.801470000000000027e+03
6.000000000000000125e-03 6.291080000000000005e-01 1.675650000000000750e-02 1.022609999999999957e+02 1.801405000000000200e+03
7.000000000000000146e-03 6.290299999999999780e-01 -1.351149999999999851e-01 1.018004999999999995e+02 1.801315000000000055e+03
8.000000000000000167e-03 6.288864999999999039e-01 -4.395049999999999235e-01 1.010488000000000000e+02 1.801175000000000182e+03
9.000000000000001055e-03 6.286680000000000046e-01 -9.135550000000000059e-01 9.992464999999999975e+01 1.800960000000000036e+03
1.000000000000000194e-02 6.283559999999999146e-01 -1.583039999999999781e+00 9.833484999999998877e+01 1.800654999999999973e+03
1.099999999999999936e-02 6.279369999999999674e-01 -2.454220000000000290e+00 9.620275000000000887e+01 1.800235000000000127e+03
1.200000000000000025e-02 6.274560000000000137e-01 -3.405845000000000233e+00 9.364074999999999704e+01 1.799720000000000027e+03
1.300000000000000114e-02 6.270005000000000717e-01 -4.217501000000000388e+00 9.096150000000000091e+01 1.799159999999999854e+03
1.400000000000000203e-02 6.266399999999999748e-01 -4.700443799999999506e+00 8.850525000000000375e+01 1.798619999999999891e+03
1.499999999999999944e-02 6.263885000000000147e-01 -4.788700000000000401e+00 8.646744999999999948e+01 1.798139999999999873e+03
1.600000000000000033e-02 6.262114999999999210e-01 -4.541024999999999423e+00 8.484460000000001401e+01 1.797724999999999909e+03
1.700000000000000122e-02 6.260499999999999954e-01 -4.086389999999999745e+00 8.348040000000000305e+01 1.797355000000000018e+03
1.800000000000000211e-02 6.258534999999999515e-01 -3.556189999999999962e+00 8.216370000000000573e+01 1.797000000000000000e+03
1.900000000000000300e-02 6.255975000000000286e-01 -3.031357999999999997e+00 8.072719999999999629e+01 1.796625000000000000e+03
2.000000000000000042e-02 6.252895000000000536e-01 -2.522018000000000093e+00 7.910880000000000223e+01 1.796224999999999909e+03
2.100000000000000130e-02 6.249569999999999848e-01 -1.984809999999999963e+00 7.735339999999999350e+01 1.795795000000000073e+03
2.200000000000000219e-02 6.246310000000000473e-01 -1.365269999999999984e+00 7.556159999999999854e+01 1.795355000000000018e+03
2.299999999999999961e-02 6.243270000000000763e-01 -6.406499999999997197e-01 7.381860000000000355e+01 1.794924999999999955e+03
2.400000000000000050e-02 6.240375000000000227e-01 1.565600000000002545e-01 7.213974999999999227e+01 1.794500000000000000e+03
2.500000000000000139e-02 6.237340000000000106e-01 9.403899999999998371e-01 7.045114999999999839e+01 1.794065000000000055e+03
2.600000000000000228e-02 6.233779999999999877e-01 1.593615000000000004e+00 6.860745000000000005e+01 1.793615000000000009e+03
2.700000000000000316e-02 6.229325000000000001e-01 2.001130000000000297e+00 6.643750000000000000e+01 1.793105000000000018e+03
2.800000000000000058e-02 6.223760000000000403e-01 2.084159999999999791e+00 6.380209999999999582e+01 1.792505000000000109e+03
2.900000000000000147e-02 6.217114999999999725e-01 1.824399999999999800e+00 6.064645000000000152e+01 1.791809999999999945e+03
3.000000000000000236e-02 6.209659999999999069e-01 1.269635000000000069e+00 5.702740000000000009e+01 1.791019999999999982e+03
3.099999999999999978e-02 6.201855000000000562e-01 5.197750000000000981e-01 5.310774999999999579e+01 1.790164999999999964e+03
3.200000000000000067e-02 6.194224999999999870e-01 -3.001299999999993418e-01 4.912165000000000248e+01 1.789289999999999964e+03
3.300000000000000155e-02 6.187255000000000393e-01 -1.068084999999999951e+00 4.532710000000000150e+01 1.788440000000000055e+03
3.400000000000000244e-02 6.181335000000000024e-01 -1.685705000000000009e+00 4.196099999999999852e+01 1.787660000000000082e+03
3.500000000000000333e-02 6.176699999999999413e-01 -2.087579999999999547e+00 3.920850000000000080e+01 1.786994999999999891e+03
3.600000000000000422e-02 6.173459999999999503e-01 -2.240479999999999805e+00 3.718965000000000032e+01 1.786474999999999909e+03
3.700000000000000511e-02 6.171630000000000171e-01 -2.135451999999999906e+00 3.596124999999999972e+01 1.786119999999999891e+03
3.799999999999999906e-02 6.171155000000000390e-01 -1.777054999999999829e+00 3.553025000000000233e+01 1.785930000000000064e+03
3.899999999999999994e-02 6.171984999999999832e-01 -1.173377295000000098e+00 3.587189999999999657e+01 1.785914999999999964e+03
4.000000000000000083e-02 6.174045000000000227e-01 -3.296449999999999658e-01 3.694719999999999516e+01 1.786070000000000164e+03
4.100000000000000172e-02 6.177289999999999726e-01 7.533000000000000806e-01 3.871379999999999910e+01 1.786380000000000109e+03
4.200000000000000261e-02 6.181669999999999110e-01 2.076094999999999580e+00 4.113024999999999665e+01 1.786840000000000146e+03
4.300000000000000350e-02 6.187135000000000273e-01 3.635550000000000281e+00 4.415314999999999657e+01 1.787444999999999936e+03
4.400000000000000439e-02 6.193589999999999929e-01 5.419170000000000265e+00 4.773125000000000284e+01 1.788179999999999836e+03
4.499999999999999833e-02 6.200904999999999889e-01 7.402169999999999028e+00 5.179964999999999975e+01 1.789029999999999973e+03
4.599999999999999922e-02 6.208914999999999296e-01 9.546879999999999811e+00 5.627729999999999677e+01 1.789985000000000127e+03
4.700000000000000011e-02 6.217424999999999757e-01 1.180527999999999977e+01 6.106804999999999950e+01 1.791019999999999982e+03
4.800000000000000100e-02 6.226234999999999964e-01 1.412366499999999903e+01 6.606624999999999659e+01 1.792115000000000009e+03
4.900000000000000189e-02 6.235150000000000414e-01 1.644788000000000139e+01 7.116415000000000646e+01 1.793244999999999891e+03
5.000000000000000278e-02 6.243989999999999263e-01 1.872813500000000175e+01 7.626079999999998904e+01 1.794394999999999982e+03
5.100000000000000366e-02 6.252619999999999845e-01 2.092275000000000063e+01 8.126964999999999861e+01 1.795545000000000073e+03
5.200000000000000455e-02 6.260944999999999983e-01 2.300055000000000049e+01 8.612324999999999875e+01 1.796664999999999964e+03
5.300000000000000544e-02 6.268909999999999760e-01 2.494105000000000061e+01 9.077744999999998754e+01 1.797755000000000109e+03
5.399999999999999939e-02 6.276509999999999589e-01 2.673400000000000176e+01 9.521144999999999925e+01 1.798809999999999945e+03
5.500000000000000028e-02 6.283760000000000456e-01 2.837785000000000224e+01 9.942260000000000275e+01 1.799820000000000164e+03
5.600000000000000117e-02 6.290700000000000180e-01 2.987785000000000224e+01 1.034281000000000006e+02 1.800789999999999964e+03
5.700000000000000205e-02 6.297384999999999788e-01 3.124399999999999977e+01 1.072545499999999947e+02 1.801724999999999909e+03
5.800000000000000294e-02 6.303889999999999771e-01 3.248944999999999794e+01 1.109379999999999882e+02 1.802619999999999891e+03
5.900000000000000383e-02 6.310270000000000046e-01 3.362845000000000084e+01 1.145169999999999959e+02 1.803494999999999891e+03
6.000000000000000472e-02 6.316585000000000116e-01 3.467499999999999716e+01 1.180264999999999986e+02 1.804355000000000018e+03
6.099999999999999867e-02 6.322875000000000023e-01 3.564099999999999824e+01 1.214979999999999905e+02 1.805200000000000045e+03
6.199999999999999956e-02 6.329169999999999519e-01 3.653549999999999898e+01 1.249514999999999958e+02 1.806035000000000082e+03
6.300000000000000044e-02 6.335469999999999713e-01 3.736324999999999363e+01 1.283969999999999914e+02 1.806875000000000000e+03
6.400000000000000133e-02 6.341755000000000031e-01 3.812494999999999834e+01 1.318294999999999959e+02 1.807699999999999818e+03
6.500000000000000222e-02 6.347990000000000022e-01 3.881695000000000562e+01 1.352344999999999970e+02 1.808529999999999973e+03
6.600000000000000311e-02 6.354104999999999892e-01 3.943200000000000216e+01 1.385840000000000032e+02 1.809340000000000146e+03
6.700000000000000400e-02 6.360050000000000425e-01 3.996075000000000443e+01 1.418439999999999941e+02 1.810134999999999991e+03
6.800000000000000488e-02 6.365735000000000143e-01 4.039260000000000161e+01 1.449739999999999895e+02 1.810900000000000091e+03
6.900000000000000577e-02 6.371089999999999254e-01 4.071690000000000254e+01 1.479335000000000093e+02 1.811630000000000109e+03
7.000000000000000666e-02 6.376059999999998951e-01 4.092440000000000566e+01 1.506834999999999809e+02 1.812315000000000055e+03
7.100000000000000755e-02 6.380575000000000552e-01 4.100754999999999484e+01 1.531889999999999930e+02 1.812944999999999936e+03
7.200000000000000844e-02 6.384600000000000275e-01 4.096155000000000257e+01 1.554234999999999900e+02 1.813519999999999982e+03
7.300000000000000933e-02 6.388110000000000177e-01 4.078435000000000343e+01 1.573665000000000020e+02 1.814025000000000091e+03
7.399999999999999634e-02 6.391080000000000094e-01 4.047704999999999842e+01 1.590079999999999814e+02 1.814465000000000146e+03
7.499999999999999722e-02 6.393514999999999615e-01 4.004380000000000450e+01 1.603455000000000155e+02 1.814835000000000036e+03
7.599999999999999811e-02 6.395440000000000014e-01 3.949174999999999613e+01 1.613865000000000123e+02 1.815134999999999991e+03
7.699999999999999900e-02 6.396870000000000056e-01 3.883100000000000307e+01 1.621435000000000173e+02 1.815369999999999891e+03
7.799999999999999989e-02 6.397850000000000481e-01 3.807434999999999548e+01 1.626410000000000196e+02 1.815539999999999964e+03
7.900000000000000078e-02 6.398439999999999683e-01 3.723700000000000188e+01 1.629055000000000177e+02 1.815650000000000091e+03
8.000000000000000167e-02 6.398684999999999512e-01 3.633585000000000065e+01 1.629705000000000155e+02 1.815715000000000146e+03
8.100000000000000255e-02 6.398660000000000458e-01 3.538884999999999792e+01 1.628720000000000141e+02 1.815730000000000018e+03
8.200000000000000344e-02 6.398435000000000095e-01 3.441460000000000008e+01 1.626479999999999961e+02 1.815710000000000036e+03
8.300000000000000433e-02 6.398064999999999447e-01 3.343104999999999905e+01 1.623354999999999961e+02 1.815670000000000073e+03
8.400000000000000522e-02 6.397604999999999542e-01 3.245474999999999710e+01 1.619710000000000036e+02 1.815610000000000127e+03
8.500000000000000611e-02 6.397124999999999062e-01 3.150019999999999953e+01 1.615850000000000080e+02 1.815539999999999964e+03
8.600000000000000699e-02 6.396649999999999281e-01 3.057894999999999897e+01 1.612044999999999959e+02 1.815454999999999927e+03
8.700000000000000788e-02 6.396215000000000650e-01 2.969914999999999949e+01 1.608485000000000014e+02 1.815380000000000109e+03
8.800000000000000877e-02 6.395839999999999304e-01 2.886544999999999916e+01 1.605285000000000082e+02 1.815309999999999945e+03
8.899999999999999578e-02 6.395515000000000505e-01 2.807884999999999920e+01 1.602509999999999764e+02 1.815240000000000009e+03
8.999999999999999667e-02 6.395235000000000225e-01 2.733684999999999832e+01 1.600115000000000123e+02 1.815184999999999945e+03
9.099999999999999756e-02 6.394984999999999697e-01 2.663430000000000319e+01 1.598015000000000043e+02 1.815125000000000000e+03
9.199999999999999845e-02 6.394744999999999457e-01 2.596345000000000169e+01 1.596080000000000041e+02 1.815070000000000164e+03
9.299999999999999933e-02 6.394459999999999589e-01 2.531504999999999939e+01 1.594125000000000227e+02 1.815019999999999982e+03
9.400000000000000022e-02 6.394109999999999516e-01 2.467889999999999873e+01 1.591940000000000168e+02 1.814965000000000146e+03
9.500000000000000111e-02 6.393659999999999899e-01 2.404435000000000144e+01 1.589334999999999809e+02 1.814900000000000091e+03
9.600000000000000200e-02 6.393064999999999998e-01 2.340140000000000242e+01 1.586105000000000018e+02 1.814829999999999927e+03
9.700000000000000289e-02 6.392309999999999937e-01 2.274110000000000298e+01 1.582069999999999936e+02 1.814735000000000127e+03
9.800000000000000377e-02 6.391374999999999140e-01 2.205580000000000140e+01 1.577090000000000032e+02 1.814619999999999891e+03
9.900000000000000466e-02 6.390240000000000364e-01 2.134019999999999939e+01 1.571080000000000041e+02 1.814485000000000127e+03
1.000000000000000056e-01 6.388905000000000278e-01 2.059124999999999872e+01 1.563979999999999961e+02 1.814329999999999927e+03
1.010000000000000064e-01 6.387380000000000280e-01 1.980845000000000056e+01 1.555805000000000007e+02 1.814150000000000091e+03
1.020000000000000073e-01 6.385674999999999546e-01 1.899399999999999977e+01 1.546614999999999895e+02 1.813944999999999936e+03
1.030000000000000082e-01 6.383820000000000050e-01 1.815259999999999962e+01 1.536530000000000200e+02 1.813720000000000027e+03
1.040000000000000091e-01 6.381844999999999324e-01 1.729135000000000133e+01 1.525715000000000146e+02 1.813485000000000127e+03
1.050000000000000100e-01 6.379789999999999628e-01 1.641920000000000002e+01 1.514370000000000118e+02 1.813224999999999909e+03
1.059999999999999970e-01 6.377705000000000179e-01 1.554669999999999952e+01 1.502735000000000127e+02 1.812960000000000036e+03
1.069999999999999979e-01 6.375629999999999908e-01 1.468513500000000072e+01 1.491059999999999945e+02 1.812690000000000055e+03
1.079999999999999988e-01 6.373610000000000664e-01 1.384637000000000029e+01 1.479594999999999914e+02 1.812429999999999836e+03
1.089999999999999997e-01 6.371689999999999854e-01 1.304181499999999971e+01 1.468589999999999804e+02 1.812164999999999964e+03
1.100000000000000006e-01 6.369910000000000849e-01 1.228200999999999965e+01 1.458284999999999911e+02 1.811920000000000073e+03
1.110000000000000014e-01 6.368294999999999373e-01 1.157619000000000042e+01 1.448860000000000241e+02 1.811694999999999936e+03
1.120000000000000023e-01 6.366879999999999207e-01 1.093169999999999931e+01 1.440469999999999970e+02 1.811485000000000127e+03
1.130000000000000032e-01 6.365669999999999940e-01 1.035369999999999990e+01 1.433224999999999909e+02 1.811304999999999836e+03
1.140000000000000041e-01 6.364674999999999638e-01 9.845119999999999649e+00 1.427185000000000059e+02 1.811139999999999873e+03
1.150000000000000050e-01 6.363889999999999825e-01 9.406369999999999010e+00 1.422340000000000089e+02 1.811014999999999873e+03
1.160000000000000059e-01 6.363304999999999101e-01 9.035750000000000171e+00 1.418654999999999973e+02 1.810904999999999973e+03
1.170000000000000068e-01 6.362900000000000222e-01 8.729364999999999597e+00 1.416030000000000086e+02 1.810824999999999818e+03
1.180000000000000077e-01 6.362645000000000106e-01 8.481645000000000323e+00 1.414345000000000141e+02 1.810764999999999873e+03
1.190000000000000085e-01 6.362514999999999699e-01 8.285714999999999719e+00 1.413439999999999941e+02 1.810724999999999909e+03
1.200000000000000094e-01 6.362484999999999946e-01 8.133760000000000545e+00 1.413154999999999859e+02 1.810699999999999818e+03
1.209999999999999964e-01 6.362514999999999699e-01 8.017485000000000639e+00 1.413310000000000173e+02 1.810684999999999945e+03
1.219999999999999973e-01 6.362584999999999491e-01 7.928500000000000547e+00 1.413725000000000023e+02 1.810684999999999945e+03
1.229999999999999982e-01 6.362654999999999283e-01 7.858705000000000496e+00 1.414245000000000232e+02 1.810679999999999836e+03
1.239999999999999991e-01 6.362704999999999611e-01 7.800520000000000564e+00 1.414720000000000084e+02 1.810684999999999945e+03
1.250000000000000000e-01 6.362725000000000186e-01 7.747195000000000498e+00 1.415029999999999859e+02 1.810684999999999945e+03
1.260000000000000009e-01 6.362689999999999735e-01 7.692895000000000039e+00 1.415074999999999932e+02 1.810684999999999945e+03
1.270000000000000018e-01 6.362590000000000190e-01 7.632835000000000036e+00 1.414780000000000086e+02 1.810674999999999955e+03
1.280000000000000027e-01 6.362419999999999742e-01 7.563349999999999795e+00 1.414105000000000132e+02 1.810659999999999854e+03
1.290000000000000036e-01 6.362185000000000201e-01 7.481889999999999930e+00 1.413025000000000091e+02 1.810634999999999991e+03
1.300000000000000044e-01 6.361870000000000580e-01 7.386974999999999625e+00 1.411539999999999964e+02 1.810599999999999909e+03
1.310000000000000053e-01 6.361499999999999932e-01 7.278175000000000949e+00 1.409669999999999845e+02 1.810559999999999945e+03
1.320000000000000062e-01 6.361069999999999780e-01 7.156000000000000583e+00 1.407454999999999927e+02 1.810514999999999873e+03
1.330000000000000071e-01 6.360589999999999300e-01 7.021770000000000067e+00 1.404950000000000045e+02 1.810460000000000036e+03
1.340000000000000080e-01 6.360084999999999766e-01 6.877489999999999881e+00 1.402210000000000036e+02 1.810400000000000091e+03
1.350000000000000089e-01 6.359550000000000480e-01 6.725670000000000037e+00 1.399304999999999950e+02 1.810329999999999927e+03
1.360000000000000098e-01 6.358999999999999098e-01 6.569145000000000678e+00 1.396299999999999955e+02 1.810264999999999873e+03
1.370000000000000107e-01 6.358459999999999113e-01 6.410890000000000200e+00 1.393269999999999982e+02 1.810199999999999818e+03
1.380000000000000115e-01 6.357924999999999827e-01 6.253804999999999836e+00 1.390275000000000034e+02 1.810130000000000109e+03
1.390000000000000124e-01 6.357414999999999594e-01 6.100570000000000270e+00 1.387364999999999782e+02 1.810065000000000055e+03
1.400000000000000133e-01 6.356935000000000224e-01 5.953475000000000072e+00 1.384590000000000032e+02 1.809994999999999891e+03
1.410000000000000142e-01 6.356475000000000319e-01 5.814329999999999998e+00 1.381970000000000027e+02 1.809934999999999945e+03
1.420000000000000151e-01 6.356060000000000043e-01 5.684374999999999289e+00 1.379529999999999745e+02 1.809875000000000000e+03
1.430000000000000160e-01 6.355669999999999931e-01 5.564300000000000246e+00 1.377270000000000039e+02 1.809820000000000164e+03
1.440000000000000169e-01 6.355310000000000681e-01 5.454245000000000232e+00 1.375174999999999841e+02 1.809769999999999982e+03
1.450000000000000178e-01 6.354975000000000485e-01 5.353915000000000646e+00 1.373229999999999791e+02 1.809720000000000027e+03
1.459999999999999909e-01 6.354659999999999753e-01 5.262665000000000148e+00 1.371404999999999745e+02 1.809675000000000182e+03
1.469999999999999918e-01 6.354355000000000420e-01 5.179629999999999512e+00 1.369675000000000011e+02 1.809635000000000218e+03
1.479999999999999927e-01 6.354059999999999153e-01 5.103885000000000005e+00 1.368000000000000114e+02 1.809594999999999800e+03
1.489999999999999936e-01 6.353765000000000107e-01 5.034530000000000172e+00 1.366349999999999909e+02 1.809549999999999955e+03
1.499999999999999944e-01 6.353474999999999540e-01 4.970849999999999547e+00 1.364710000000000036e+02 1.809509999999999991e+03
1.509999999999999953e-01 6.353174999999999795e-01 4.912340000000000373e+00 1.363064999999999998e+02 1.809470000000000027e+03
1.519999999999999962e-01 6.352875000000000050e-01 4.858765000000000001e+00 1.361399999999999864e+02 1.809429999999999836e+03
1.529999999999999971e-01 6.352569999999999606e-01 4.810184999999999711e+00 1.359724999999999966e+02 1.809389999999999873e+03
1.539999999999999980e-01 6.352265000000000272e-01 4.766890000000000072e+00 1.358050000000000068e+02 1.809349999999999909e+03
1.549999999999999989e-01 6.351964999999999417e-01 4.729395000000000238e+00 1.356399999999999864e+02 1.809309999999999945e+03
1.559999999999999998e-01 6.351674999999999960e-01 4.698330000000000339e+00 1.354784999999999968e+02 1.809269999999999982e+03
1.570000000000000007e-01 6.351405000000001078e-01 4.674379999999999313e+00 1.353254999999999768e+02 1.809230000000000018e+03
1.580000000000000016e-01 6.351149999999999851e-01 4.658224999999999838e+00 1.351825000000000045e+02 1.809194999999999936e+03
1.590000000000000024e-01 6.350919999999999899e-01 4.650445000000000384e+00 1.350529999999999973e+02 1.809164999999999964e+03
