# t [s], A [cm^2], U [cm/s], P [cPa], c [cm/s]
1.000000000000000021e-03 5.007485000000000408e-01 6.043599999999996197e-03 1.093310000000000031e+02 1.597400000000000091e+03
2.000000000000000042e-03 5.007390000000000452e-01 -3.230249250000000009e-03 1.093040000000000020e+02 1.597394999999999982e+03
3.000000000000000062e-03 5.007749999999999702e-01 7.180930000000000646e-02 1.093850000000000051e+02 1.597420000000000073e+03
4.000000000000000083e-03 5.008170000000000677e-01 1.696064499999999919e-01 1.095090000000000003e+02 1.597445000000000164e+03
5.000000000000000104e-03 5.008084999999999898e-01 1.683390000000000164e-01 1.094925000000000068e+02 1.597444999999999936e+03
6.000000000000000125e-03 5.007595000000000240e-01 7.902400000000001090e-02 1.093085000000000093e+02 1.597404999999999973e+03
7.000000000000000146e-03 5.007165000000000088e-01 -3.122000000000013653e-03 1.090670000000000073e+02 1.597349999999999909e+03
8.000000000000000167e-03 5.006614999999999815e-01 -1.196385000000000365e-01 1.087415000000000020e+02 1.597269999999999982e+03
9.000000000000001055e-03 5.005660000000000664e-01 -3.399199999999999999e-01 1.082385000000000019e+02 1.597154999999999973e+03
1.000000000000000194e-02 5.004275000000000251e-01 -6.698300000000000365e-01 1.075174999999999983e+02 1.596980000000000018e+03
1.099999999999999936e-02 5.002360000000000140e-01 -1.120449999999999946e+00 1.065300000000000011e+02 1.596744999999999891e+03
1.200000000000000025e-02 4.999765000000000459e-01 -1.710994999999999822e+00 1.052115000000000009e+02 1.596420000000000073e+03
1.300000000000000114e-02 4.996570000000000178e-01 -2.404799999999999827e+00 1.035611000000000104e+02 1.596014999999999873e+03
1.400000000000000203e-02 4.993159999999999821e-01 -3.087250000000000050e+00 1.016938999999999993e+02 1.595534999999999854e+03
1.499999999999999944e-02 4.990035000000000442e-01 -3.615311500000000233e+00 9.979474999999999341e+01 1.595029999999999973e+03
1.600000000000000033e-02 4.987504999999999855e-01 -3.884859000000000062e+00 9.803489999999999327e+01 1.594534999999999854e+03
1.700000000000000122e-02 4.985600000000000032e-01 -3.865488500000000105e+00 9.650239999999999441e+01 1.594079999999999927e+03
1.800000000000000211e-02 4.984100000000000197e-01 -3.595676000000000094e+00 9.518930000000000291e+01 1.593664999999999964e+03
1.900000000000000300e-02 4.982674999999999743e-01 -3.154665500000000122e+00 9.401314999999999600e+01 1.593280000000000200e+03
2.000000000000000042e-02 4.981014999999999748e-01 -2.628230000000000288e+00 9.285949999999999704e+01 1.592894999999999982e+03
2.100000000000000130e-02 4.978934999999999889e-01 -2.080009999999999692e+00 9.162709999999999866e+01 1.592490000000000009e+03
2.200000000000000219e-02 4.976415000000000144e-01 -1.535599999999999854e+00 9.026064999999999827e+01 1.592059999999999945e+03
2.299999999999999961e-02 4.973579999999999668e-01 -9.831650000000002887e-01 8.876324999999999932e+01 1.591595000000000027e+03
2.400000000000000050e-02 4.970620000000000038e-01 -3.887950000000000017e-01 8.718504999999998972e+01 1.591110000000000127e+03
2.500000000000000139e-02 4.967719999999999914e-01 2.810899999999998400e-01 8.559539999999999793e+01 1.590614999999999782e+03
2.600000000000000228e-02 4.964990000000000236e-01 1.039719999999999978e+00 8.405160000000000764e+01 1.590130000000000109e+03
2.700000000000000316e-02 4.962404999999999733e-01 1.869100000000000206e+00 8.257550000000000523e+01 1.589654999999999973e+03
2.800000000000000058e-02 4.959844999999999948e-01 2.719889999999999475e+00 8.114345000000000141e+01 1.589190000000000055e+03
2.900000000000000147e-02 4.957099999999999840e-01 3.520465000000000177e+00 7.969095000000000084e+01 1.588724999999999909e+03
3.000000000000000236e-02 4.953954999999999886e-01 4.191894999999999705e+00 7.812819999999999254e+01 1.588234999999999900e+03
3.099999999999999978e-02 4.950235000000000052e-01 4.665165000000000006e+00 7.636414999999999509e+01 1.587710000000000036e+03
3.200000000000000067e-02 4.945855000000000112e-01 4.896939999999999849e+00 7.433164999999999623e+01 1.587119999999999891e+03
3.300000000000000155e-02 4.940849999999999964e-01 4.879564999999999486e+00 7.200830000000000553e+01 1.586465000000000146e+03
3.400000000000000244e-02 4.935374999999999623e-01 4.642144999999999300e+00 6.942629999999999768e+01 1.585740000000000009e+03
3.500000000000000333e-02 4.929689999999999905e-01 4.243050000000000210e+00 6.666925000000000523e+01 1.584974999999999909e+03
3.600000000000000422e-02 4.924074999999999980e-01 3.756920000000000037e+00 6.385750000000000171e+01 1.584190000000000055e+03
3.700000000000000511e-02 4.918814999999999715e-01 3.260065000000000435e+00 6.112754999999999939e+01 1.583414999999999964e+03
3.799999999999999906e-02 4.914134999999999476e-01 2.819144999999999790e+00 5.861230000000000473e+01 1.582684999999999945e+03
3.899999999999999994e-02 4.910219999999999585e-01 2.484214999999999840e+00 5.642490000000000094e+01 1.582034999999999854e+03
4.000000000000000083e-02 4.907150000000000123e-01 2.286970000000000169e+00 5.464969999999999573e+01 1.581485000000000127e+03
4.100000000000000172e-02 4.904975000000000307e-01 2.242714999999999570e+00 5.333935000000000315e+01 1.581049999999999955e+03
4.200000000000000261e-02 4.903684999999999850e-01 2.354870500000000089e+00 5.251735000000000042e+01 1.580750000000000000e+03
4.300000000000000350e-02 4.903245000000000520e-01 2.620370000000000310e+00 5.218460000000000321e+01 1.580579999999999927e+03
4.400000000000000439e-02 4.903620000000000201e-01 3.034660000000000135e+00 5.232710000000000150e+01 1.580545000000000073e+03
4.499999999999999833e-02 4.904770000000000518e-01 3.595194999999999919e+00 5.292385000000000161e+01 1.580639999999999873e+03
4.599999999999999922e-02 4.906675000000000342e-01 4.302785000000000082e+00 5.395264999999999844e+01 1.580860000000000127e+03
4.700000000000000011e-02 4.909310000000000063e-01 5.160754999999999981e+00 5.539260000000000161e+01 1.581200000000000045e+03
4.800000000000000100e-02 4.912655000000000216e-01 6.172575000000000145e+00 5.722405000000000541e+01 1.581654999999999973e+03
4.900000000000000189e-02 4.916679999999999939e-01 7.338765000000000427e+00 5.942624999999999602e+01 1.582220000000000027e+03
5.000000000000000278e-02 4.921339999999999604e-01 8.654304999999999026e+00 6.197405000000000541e+01 1.582889999999999873e+03
5.100000000000000366e-02 4.926564999999999972e-01 1.010679999999999978e+01 6.483530000000000371e+01 1.583650000000000091e+03
5.200000000000000455e-02 4.932274999999999854e-01 1.167638499999999979e+01 6.796920000000000073e+01 1.584500000000000000e+03
5.300000000000000544e-02 4.938365000000000116e-01 1.333674000000000071e+01 7.132675000000000409e+01 1.585414999999999964e+03
5.399999999999999939e-02 4.944715000000000082e-01 1.505703500000000084e+01 7.485229999999999961e+01 1.586394999999999982e+03
5.500000000000000028e-02 4.951214999999999922e-01 1.680452500000000171e+01 7.848704999999999643e+01 1.587409999999999854e+03
5.600000000000000117e-02 4.957755000000000356e-01 1.854729999999999990e+01 8.217240000000001032e+01 1.588454999999999927e+03
5.700000000000000205e-02 4.964250000000000052e-01 2.025634999999999764e+01 8.585419999999999163e+01 1.589509999999999991e+03
5.800000000000000294e-02 4.970614999999999895e-01 2.190735000000000099e+01 8.948444999999999538e+01 1.590559999999999945e+03
5.900000000000000383e-02 4.976800000000000113e-01 2.348160000000000025e+01 9.302705000000000268e+01 1.591599999999999909e+03
6.000000000000000472e-02 4.982775000000000398e-01 2.496610000000000085e+01 9.645425000000000182e+01 1.592619999999999891e+03
6.099999999999999867e-02 4.988520000000000176e-01 2.635320000000000107e+01 9.975049999999998818e+01 1.593609999999999900e+03
6.199999999999999956e-02 4.994039999999999591e-01 2.764000000000000057e+01 1.029095499999999959e+02 1.594559999999999945e+03
6.300000000000000044e-02 4.999349999999999627e-01 2.882724999999999937e+01 1.059342499999999916e+02 1.595485000000000127e+03
6.400000000000000133e-02 5.004465000000000163e-01 2.991844999999999999e+01 1.088331500000000034e+02 1.596375000000000000e+03
6.500000000000000222e-02 5.009424999999999573e-01 3.091884999999999906e+01 1.116194999999999879e+02 1.597234999999999900e+03
6.600000000000000311e-02 5.014244999999999397e-01 3.183489999999999753e+01 1.143104999999999905e+02 1.598070000000000164e+03
6.700000000000000400e-02 5.018960000000000088e-01 3.267319999999999425e+01 1.169219999999999970e+02 1.598875000000000000e+03
6.800000000000000488e-02 5.023594999999999589e-01 3.343999999999999773e+01 1.194694999999999965e+02 1.599664999999999964e+03
6.900000000000000577e-02 5.028160000000000407e-01 3.414069999999999538e+01 1.219660000000000082e+02 1.600434999999999945e+03
7.000000000000000666e-02 5.032674999999999788e-01 3.477929999999999922e+01 1.244210000000000065e+02 1.601200000000000045e+03
7.100000000000000755e-02 5.037130000000000773e-01 3.535800000000000409e+01 1.268379999999999939e+02 1.601945000000000164e+03
7.200000000000000844e-02 5.041525000000000034e-01 3.587699999999999534e+01 1.292164999999999964e+02 1.602684999999999945e+03
7.300000000000000933e-02 5.045835000000000736e-01 3.633485000000000298e+01 1.315494999999999948e+02 1.603410000000000082e+03
7.399999999999999634e-02 5.050035000000000496e-01 3.672820000000000107e+01 1.338254999999999768e+02 1.604115000000000009e+03
7.499999999999999722e-02 5.054099999999999149e-01 3.705250000000000199e+01 1.360289999999999964e+02 1.604804999999999836e+03
7.599999999999999811e-02 5.057989999999999986e-01 3.730259999999999820e+01 1.381430000000000007e+02 1.605465000000000146e+03
7.699999999999999900e-02 5.061670000000000336e-01 3.747299999999999898e+01 1.401465000000000032e+02 1.606095000000000027e+03
7.799999999999999989e-02 5.065100000000000158e-01 3.755870000000000175e+01 1.420204999999999984e+02 1.606690000000000055e+03
7.900000000000000078e-02 5.068259999999999987e-01 3.755544999999999334e+01 1.437464999999999975e+02 1.607244999999999891e+03
8.000000000000000167e-02 5.071109999999999784e-01 3.746025000000000205e+01 1.453084999999999809e+02 1.607755000000000109e+03
8.100000000000000255e-02 5.073635000000000783e-01 3.727150000000000318e+01 1.466929999999999836e+02 1.608215000000000146e+03
8.200000000000000344e-02 5.075825000000000475e-01 3.698910000000000053e+01 1.478899999999999864e+02 1.608619999999999891e+03
8.300000000000000433e-02 5.077670000000000794e-01 3.661464999999999748e+01 1.488960000000000150e+02 1.608965000000000146e+03
8.400000000000000522e-02 5.079170000000000629e-01 3.615120000000000289e+01 1.497079999999999984e+02 1.609259999999999991e+03
8.500000000000000611e-02 5.080329999999999568e-01 3.560349999999999682e+01 1.503290000000000077e+02 1.609494999999999891e+03
8.600000000000000699e-02 5.081169999999999298e-01 3.497759999999999536e+01 1.507660000000000196e+02 1.609674999999999955e+03
8.700000000000000788e-02 5.081710000000000393e-01 3.428094999999999715e+01 1.510285000000000082e+02 1.609804999999999836e+03
8.800000000000000877e-02 5.081964999999999399e-01 3.352230000000000132e+01 1.511289999999999907e+02 1.609880000000000109e+03
8.899999999999999578e-02 5.081964999999999399e-01 3.271119999999999806e+01 1.510840000000000032e+02 1.609909999999999854e+03
8.999999999999999667e-02 5.081744999999999735e-01 3.185820000000000363e+01 1.509099999999999966e+02 1.609900000000000091e+03
9.099999999999999756e-02 5.081339999999999746e-01 3.097429999999999950e+01 1.506270000000000095e+02 1.609855000000000018e+03
9.199999999999999845e-02 5.080789999999999473e-01 3.007079999999999842e+01 1.502549999999999955e+02 1.609780000000000200e+03
9.299999999999999933e-02 5.080120000000000191e-01 2.915869999999999962e+01 1.498140000000000214e+02 1.609670000000000073e+03
9.400000000000000022e-02 5.079369999999999719e-01 2.824879999999999569e+01 1.493245000000000005e+02 1.609555000000000064e+03
9.500000000000000111e-02 5.078574999999999617e-01 2.735074999999999790e+01 1.488050000000000068e+02 1.609420000000000073e+03
9.600000000000000200e-02 5.077754999999999352e-01 2.647299999999999898e+01 1.482719999999999914e+02 1.609269999999999982e+03
9.700000000000000289e-02 5.076939999999999786e-01 2.562245000000000061e+01 1.477404999999999973e+02 1.609119999999999891e+03
9.800000000000000377e-02 5.076140000000000096e-01 2.480424999999999969e+01 1.472210000000000036e+02 1.608974999999999909e+03
9.900000000000000466e-02 5.075374999999999748e-01 2.402145000000000152e+01 1.467230000000000132e+02 1.608824999999999818e+03
1.000000000000000056e-01 5.074644999999999850e-01 2.327510000000000190e+01 1.462495000000000118e+02 1.608679999999999836e+03
1.010000000000000064e-01 5.073950000000000404e-01 2.256450000000000244e+01 1.458025000000000091e+02 1.608539999999999964e+03
1.020000000000000073e-01 5.073280000000000012e-01 2.188689999999999714e+01 1.453789999999999907e+02 1.608409999999999854e+03
1.030000000000000082e-01 5.072630000000000194e-01 2.123835000000000051e+01 1.449745000000000061e+02 1.608279999999999973e+03
1.040000000000000091e-01 5.071974999999999678e-01 2.061355000000000004e+01 1.445815000000000055e+02 1.608154999999999973e+03
1.050000000000000100e-01 5.071309999999999985e-01 2.000639999999999930e+01 1.441904999999999859e+02 1.608029999999999973e+03
1.059999999999999970e-01 5.070605000000000251e-01 1.941035000000000110e+01 1.437920000000000016e+02 1.607910000000000082e+03
1.069999999999999979e-01 5.069850000000000190e-01 1.881869999999999976e+01 1.433750000000000000e+02 1.607775000000000091e+03
1.079999999999999988e-01 5.069025000000000336e-01 1.822494999999999976e+01 1.429290000000000020e+02 1.607639999999999873e+03
1.089999999999999997e-01 5.068114999999999704e-01 1.762315000000000254e+01 1.424445000000000050e+02 1.607494999999999891e+03
1.100000000000000006e-01 5.067110000000000225e-01 1.700825000000000031e+01 1.419149999999999920e+02 1.607339999999999918e+03
1.110000000000000014e-01 5.066005000000000091e-01 1.637604999999999933e+01 1.413324999999999818e+02 1.607164999999999964e+03
1.120000000000000023e-01 5.064790000000000125e-01 1.572374999999999901e+01 1.406945000000000050e+02 1.606980000000000018e+03
1.130000000000000032e-01 5.063465000000000327e-01 1.504990000000000094e+01 1.399989999999999952e+02 1.606780000000000200e+03
1.140000000000000041e-01 5.062039999999999873e-01 1.435457500000000053e+01 1.392479999999999905e+02 1.606565000000000055e+03
1.150000000000000050e-01 5.060530000000000861e-01 1.363921000000000028e+01 1.384454999999999814e+02 1.606329999999999927e+03
1.160000000000000059e-01 5.058940000000000659e-01 1.290688000000000102e+01 1.375974999999999966e+02 1.606090000000000146e+03
1.170000000000000068e-01 5.057289999999999841e-01 1.216184999999999938e+01 1.367135000000000105e+02 1.605835000000000036e+03
1.180000000000000077e-01 5.055610000000000381e-01 1.140978000000000137e+01 1.358044999999999902e+02 1.605574999999999818e+03
1.190000000000000085e-01 5.053920000000000634e-01 1.065709000000000017e+01 1.348834999999999980e+02 1.605304999999999836e+03
1.200000000000000094e-01 5.052240000000000064e-01 9.910994999999999777e+00 1.339639999999999986e+02 1.605034999999999854e+03
1.209999999999999964e-01 5.050609999999999822e-01 9.179114999999999469e+00 1.330610000000000070e+02 1.604769999999999982e+03
1.219999999999999973e-01 5.049044999999999783e-01 8.469179999999999708e+00 1.321885000000000048e+02 1.604509999999999991e+03
1.229999999999999982e-01 5.047580000000000400e-01 7.788679999999999382e+00 1.313609999999999900e+02 1.604255000000000109e+03
1.239999999999999991e-01 5.046224999999999739e-01 7.144574999999999676e+00 1.305910000000000082e+02 1.604019999999999982e+03
1.250000000000000000e-01 5.045005000000000184e-01 6.543014999999999581e+00 1.298905000000000030e+02 1.603805000000000064e+03
1.260000000000000009e-01 5.043940000000000090e-01 5.989140000000000796e+00 1.292669999999999959e+02 1.603610000000000127e+03
1.270000000000000018e-01 5.043024999999999869e-01 5.486819999999999808e+00 1.287289999999999850e+02 1.603434999999999945e+03
1.280000000000000027e-01 5.042275000000000507e-01 5.038599999999999746e+00 1.282789999999999964e+02 1.603284999999999854e+03
1.290000000000000036e-01 5.041689999999999783e-01 4.645579999999999821e+00 1.279190000000000111e+02 1.603159999999999854e+03
1.300000000000000044e-01 5.041260000000000741e-01 4.307484999999999786e+00 1.276484999999999985e+02 1.603059999999999945e+03
1.310000000000000053e-01 5.040980000000000461e-01 4.022689999999999877e+00 1.274615000000000009e+02 1.602985000000000127e+03
1.320000000000000062e-01 5.040835000000000177e-01 3.788359999999999950e+00 1.273534999999999968e+02 1.602929999999999836e+03
1.330000000000000071e-01 5.040810000000000013e-01 3.600660000000000416e+00 1.273149999999999977e+02 1.602900000000000091e+03
1.340000000000000080e-01 5.040879999999999805e-01 3.454959999999999809e+00 1.273375000000000057e+02 1.602884999999999991e+03
1.350000000000000089e-01 5.041029999999999678e-01 3.346035000000000093e+00 1.274095000000000084e+02 1.602884999999999991e+03
1.360000000000000098e-01 5.041245000000000864e-01 3.268355000000000121e+00 1.275200000000000102e+02 1.602904999999999973e+03
1.370000000000000107e-01 5.041499999999999870e-01 3.216289999999999871e+00 1.276580000000000013e+02 1.602929999999999836e+03
1.380000000000000115e-01 5.041769999999999863e-01 3.184305000000000163e+00 1.278135000000000048e+02 1.602960000000000036e+03
1.390000000000000124e-01 5.042050000000000143e-01 3.167155000000000165e+00 1.279764999999999873e+02 1.603000000000000000e+03
1.400000000000000133e-01 5.042329999999999313e-01 3.160004999999999953e+00 1.281380000000000052e+02 1.603039999999999964e+03
1.410000000000000142e-01 5.042579999999999840e-01 3.158539999999999903e+00 1.282905000000000086e+02 1.603074999999999818e+03
1.420000000000000151e-01 5.042799999999999505e-01 3.159030000000000005e+00 1.284284999999999854e+02 1.603110000000000127e+03
1.430000000000000160e-01 5.042990000000000528e-01 3.158355000000000246e+00 1.285469999999999970e+02 1.603150000000000091e+03
1.440000000000000169e-01 5.043130000000000113e-01 3.154015000000000235e+00 1.286440000000000055e+02 1.603170000000000073e+03
1.450000000000000178e-01 5.043235000000000356e-01 3.144095000000000084e+00 1.287160000000000082e+02 1.603195000000000164e+03
1.459999999999999909e-01 5.043294999999999861e-01 3.127264999999999961e+00 1.287624999999999886e+02 1.603210000000000036e+03
1.469999999999999918e-01 5.043310000000000848e-01 3.102689999999999948e+00 1.287845000000000084e+02 1.603214999999999918e+03
1.479999999999999927e-01 5.043284999999999574e-01 3.070019999999999971e+00 1.287824999999999989e+02 1.603224999999999909e+03
1.489999999999999936e-01 5.043230000000000768e-01 3.029309999999999725e+00 1.287584999999999980e+02 1.603214999999999918e+03
1.499999999999999944e-01 5.043135000000000812e-01 2.980934999999999668e+00 1.287139999999999986e+02 1.603204999999999927e+03
1.509999999999999953e-01 5.043014999999999581e-01 2.925584999999999880e+00 1.286525000000000034e+02 1.603190000000000055e+03
1.519999999999999962e-01 5.042870000000000408e-01 2.864125000000000032e+00 1.285754999999999768e+02 1.603175000000000182e+03
1.529999999999999971e-01 5.042710000000000248e-01 2.797579999999999956e+00 1.284864999999999782e+02 1.603150000000000091e+03
1.539999999999999980e-01 5.042530000000000623e-01 2.727055000000000007e+00 1.283865000000000123e+02 1.603125000000000000e+03
1.549999999999999989e-01 5.042339999999999600e-01 2.653674999999999784e+00 1.282789999999999964e+02 1.603094999999999800e+03
1.559999999999999998e-01 5.042139999999999400e-01 2.578520000000000145e+00 1.281655000000000086e+02 1.603069999999999936e+03
1.570000000000000007e-01 5.041934999999999611e-01 2.502580000000000027e+00 1.280475000000000136e+02 1.603034999999999854e+03
1.580000000000000016e-01 5.041724999999999124e-01 2.426739999999999675e+00 1.279260000000000019e+02 1.603000000000000000e+03
1.590000000000000024e-01 5.041519999999999335e-01 2.351729999999999876e+00 1.278025000000000091e+02 1.602970000000000027e+03
