# t [s], A [cm^2], U [cm/s], P [cPa], c [cm/s]
1.000000000000000021e-03 5.618235000000000312e-01 3.069000000000002282e-03 1.034145000000000039e+02 1.499329999999999927e+03
2.000000000000000042e-03 5.618170000000000108e-01 2.050254999999999959e-03 1.033960000000000008e+02 1.499324999999999818e+03
3.000000000000000062e-03 5.618650000000000588e-01 8.993995000000000462e-02 1.034819999999999993e+02 1.499355000000000018e+03
4.000000000000000083e-03 5.619104999999999794e-01 1.758369999999999933e-01 1.035875000000000057e+02 1.499384999999999991e+03
5.000000000000000104e-03 5.618975000000000497e-01 1.588032000000000055e-01 1.035585000000000093e+02 1.499380000000000109e+03
6.000000000000000125e-03 5.618484999999999729e-01 7.385449999999998960e-02 1.033919999999999959e+02 1.499345000000000027e+03
7.000000000000000146e-03 5.617989999999999373e-01 -1.785700000000001175e-02 1.031510000000000105e+02 1.499284999999999854e+03
8.000000000000000167e-03 5.617265000000000175e-01 -1.596615000000000117e-01 1.027990000000000066e+02 1.499204999999999927e+03
9.000000000000001055e-03 5.616025000000000045e-01 -4.071399999999998354e-01 1.022549999999999955e+02 1.499074999999999818e+03
1.000000000000000194e-02 5.614204999999999890e-01 -7.679000000000000270e-01 1.014754000000000076e+02 1.498880000000000109e+03
1.099999999999999936e-02 5.611705000000000165e-01 -1.248599999999999932e+00 1.004170500000000033e+02 1.498619999999999891e+03
1.200000000000000025e-02 5.608409999999999229e-01 -1.856874999999999831e+00 9.903499999999999659e+01 1.498259999999999991e+03
1.300000000000000114e-02 5.604390000000000205e-01 -2.556745000000000267e+00 9.733599999999999852e+01 1.497815000000000055e+03
1.400000000000000203e-02 5.600034999999999874e-01 -3.251059999999999839e+00 9.541344999999999743e+01 1.497295000000000073e+03
1.499999999999999944e-02 5.595860000000000278e-01 -3.814554999999999474e+00 9.342685000000000173e+01 1.496740000000000009e+03
1.600000000000000033e-02 5.592249999999999721e-01 -4.145252499999999785e+00 9.153969999999999629e+01 1.496190000000000055e+03
1.700000000000000122e-02 5.589355000000000295e-01 -4.197681000000000218e+00 8.986269999999998959e+01 1.495670000000000073e+03
1.800000000000000211e-02 5.587060000000000359e-01 -3.987314000000000025e+00 8.842945000000000277e+01 1.495194999999999936e+03
1.900000000000000300e-02 5.585090000000000332e-01 -3.573964999999999836e+00 8.720095000000000596e+01 1.494759999999999991e+03
2.000000000000000042e-02 5.583114999999999606e-01 -3.035999499999999962e+00 8.609120000000000061e+01 1.494355000000000018e+03
2.100000000000000130e-02 5.580884999999999874e-01 -2.444754499999999720e+00 8.500164999999999793e+01 1.493960000000000036e+03
2.200000000000000219e-02 5.578255000000000852e-01 -1.846165000000000056e+00 8.385280000000000200e+01 1.493549999999999955e+03
2.299999999999999961e-02 5.575240000000000196e-01 -1.254364999999999952e+00 8.260429999999999495e+01 1.493119999999999891e+03
2.400000000000000050e-02 5.571949999999999958e-01 -6.581099999999999728e-01 8.125775000000000148e+01 1.492664999999999964e+03
2.500000000000000139e-02 5.568535000000000013e-01 -3.590999999999988646e-02 7.984324999999999761e+01 1.492190000000000055e+03
2.600000000000000228e-02 5.565120000000000067e-01 6.271649999999997505e-01 7.839840000000000941e+01 1.491704999999999927e+03
2.700000000000000316e-02 5.561730000000000285e-01 1.327265000000000139e+00 7.694774999999999920e+01 1.491220000000000027e+03
2.800000000000000058e-02 5.558305000000000051e-01 2.037304999999999922e+00 7.548939999999998918e+01 1.490730000000000018e+03
2.900000000000000147e-02 5.554710000000000480e-01 2.710204999999999753e+00 7.399205000000000609e+01 1.490220000000000027e+03
3.000000000000000236e-02 5.550754999999999439e-01 3.287824999999999775e+00 7.240104999999999791e+01 1.489695000000000164e+03
3.099999999999999978e-02 5.546259999999999524e-01 3.712894999999999612e+00 7.065170000000000528e+01 1.489130000000000109e+03
3.200000000000000067e-02 5.541110000000000202e-01 3.941169999999999618e+00 6.868594999999999118e+01 1.488509999999999991e+03
3.300000000000000155e-02 5.535259999999999625e-01 3.950930000000000053e+00 6.646895000000000664e+01 1.487829999999999927e+03
3.400000000000000244e-02 5.528794999999999682e-01 3.747885000000000133e+00 6.400090000000000146e+01 1.487085000000000036e+03
3.500000000000000333e-02 5.521875000000000533e-01 3.364489999999999981e+00 6.132204999999999728e+01 1.486289999999999964e+03
3.600000000000000422e-02 5.514759999999999662e-01 2.854134999999999867e+00 5.850985000000000014e+01 1.485450000000000045e+03
3.700000000000000511e-02 5.507735000000000269e-01 2.282134999999999803e+00 5.566859999999999786e+01 1.484594999999999800e+03
3.799999999999999906e-02 5.501099999999999879e-01 1.716049999999999631e+00 5.291665000000000418e+01 1.483759999999999991e+03
3.899999999999999994e-02 5.495105000000000128e-01 1.217620000000000591e+00 5.037205000000000155e+01 1.482969999999999800e+03
4.000000000000000083e-02 5.489975000000000271e-01 8.371249999999998970e-01 4.814055000000000462e+01 1.482259999999999991e+03
4.100000000000000172e-02 5.485845000000000304e-01 6.109800000000000786e-01 4.630749999999999744e+01 1.481644999999999982e+03
4.200000000000000261e-02 5.482810000000000183e-01 5.620449999999999058e-01 4.493354999999999677e+01 1.481150000000000091e+03
4.300000000000000350e-02 5.480920000000000236e-01 7.017400000000000304e-01 4.405420000000000158e+01 1.480799999999999955e+03
4.400000000000000439e-02 5.480165000000000175e-01 1.033206999999999987e+00 4.368274999999999864e+01 1.480590000000000146e+03
4.499999999999999833e-02 5.480519999999999836e-01 1.554485000000000117e+00 4.381470000000000198e+01 1.480525000000000091e+03
4.599999999999999922e-02 5.481940000000000701e-01 2.261066000000000020e+00 4.443280000000000030e+01 1.480610000000000127e+03
4.700000000000000011e-02 5.484375000000000222e-01 3.147319500000000048e+00 4.551169999999999760e+01 1.480829999999999927e+03
4.800000000000000100e-02 5.487765000000000004e-01 4.206744500000000109e+00 4.702100000000000080e+01 1.481184999999999945e+03
4.900000000000000189e-02 5.492049999999999432e-01 5.431278749999999711e+00 4.892699999999999960e+01 1.481670000000000073e+03
5.000000000000000278e-02 5.497134999999999661e-01 6.810232000000000063e+00 5.119315000000000282e+01 1.482264999999999873e+03
5.100000000000000366e-02 5.502949999999999786e-01 8.329059000000000879e+00 5.377944999999999709e+01 1.482970000000000027e+03
5.200000000000000455e-02 5.509384999999999977e-01 9.968724999999999170e+00 5.664219999999999544e+01 1.483765000000000100e+03
5.300000000000000544e-02 5.516324999999999701e-01 1.170585499999999968e+01 5.973380000000000223e+01 1.484639999999999873e+03
5.399999999999999939e-02 5.523655000000000648e-01 1.351347999999999949e+01 6.300325000000000841e+01 1.485579999999999927e+03
5.500000000000000028e-02 5.531245000000000189e-01 1.536219000000000001e+01 6.639770000000000039e+01 1.486574999999999818e+03
5.600000000000000117e-02 5.538969999999999727e-01 1.722214999999999918e+01 6.986424999999999841e+01 1.487599999999999909e+03
5.700000000000000205e-02 5.546725000000000128e-01 1.906459999999999866e+01 7.335259999999999536e+01 1.488644999999999982e+03
5.800000000000000294e-02 5.554405000000000037e-01 2.086349999999999838e+01 7.681695000000000562e+01 1.489704999999999927e+03
5.900000000000000383e-02 5.561929999999999374e-01 2.259709999999999752e+01 8.021875000000000000e+01 1.490755000000000109e+03
6.000000000000000472e-02 5.569245000000000445e-01 2.424830000000000041e+01 8.352769999999999584e+01 1.491789999999999964e+03
6.099999999999999867e-02 5.576315000000000577e-01 2.580519999999999925e+01 8.672289999999999566e+01 1.492799999999999955e+03
6.199999999999999956e-02 5.583120000000000305e-01 2.726115000000000066e+01 8.979314999999999714e+01 1.493785000000000082e+03
6.300000000000000044e-02 5.589674999999999505e-01 2.861399999999999721e+01 9.273629999999999995e+01 1.494740000000000009e+03
6.400000000000000133e-02 5.595995000000000275e-01 2.986565000000000225e+01 9.555760000000000787e+01 1.495659999999999854e+03
6.500000000000000222e-02 5.602110000000000145e-01 3.102129999999999654e+01 9.826974999999998772e+01 1.496555000000000064e+03
6.600000000000000311e-02 5.608060000000000267e-01 3.208825000000000216e+01 1.008890499999999975e+02 1.497425000000000182e+03
6.700000000000000400e-02 5.613889999999999159e-01 3.307549999999999812e+01 1.034353499999999997e+02 1.498264999999999873e+03
6.800000000000000488e-02 5.619655000000000067e-01 3.399284999999999712e+01 1.059300999999999959e+02 1.499095000000000027e+03
6.900000000000000577e-02 5.625384999999999414e-01 3.484980000000000189e+01 1.083940000000000055e+02 1.499914999999999964e+03
7.000000000000000666e-02 5.631120000000000569e-01 3.565555000000000518e+01 1.108445000000000107e+02 1.500724999999999909e+03
7.100000000000000755e-02 5.636894999999999545e-01 3.641774999999999807e+01 1.132974999999999994e+02 1.501539999999999964e+03
7.200000000000000844e-02 5.642715000000000369e-01 3.714239999999999498e+01 1.157634999999999934e+02 1.502349999999999909e+03
7.300000000000000933e-02 5.648584999999999301e-01 3.783339999999999748e+01 1.182475000000000023e+02 1.503164999999999964e+03
7.399999999999999634e-02 5.654514999999999958e-01 3.849214999999999520e+01 1.207489999999999952e+02 1.503984999999999900e+03
7.499999999999999722e-02 5.660465000000000080e-01 3.911759999999999593e+01 1.232625000000000028e+02 1.504809999999999945e+03
7.599999999999999811e-02 5.666410000000000613e-01 3.970645000000000380e+01 1.257754999999999939e+02 1.505630000000000109e+03
7.699999999999999900e-02 5.672310000000000407e-01 4.025315000000000509e+01 1.282715000000000032e+02 1.506454999999999927e+03
7.799999999999999989e-02 5.678110000000000657e-01 4.075074999999999648e+01 1.307295000000000016e+02 1.507259999999999991e+03
7.900000000000000078e-02 5.683755000000000335e-01 4.119084999999999752e+01 1.331260000000000048e+02 1.508055000000000064e+03
8.000000000000000167e-02 5.689189999999999525e-01 4.156480000000000530e+01 1.354375000000000000e+02 1.508824999999999818e+03
8.100000000000000255e-02 5.694354999999999833e-01 4.186364999999999981e+01 1.376370000000000005e+02 1.509565000000000055e+03
8.200000000000000344e-02 5.699205000000000521e-01 4.207930000000000348e+01 1.397010000000000218e+02 1.510265000000000100e+03
8.300000000000000433e-02 5.703685000000000560e-01 4.220465000000000089e+01 1.416090000000000089e+02 1.510920000000000073e+03
8.400000000000000522e-02 5.707754999999999912e-01 4.223405000000000342e+01 1.433410000000000082e+02 1.511525000000000091e+03
8.500000000000000611e-02 5.711395000000000222e-01 4.216365000000000407e+01 1.448834999999999980e+02 1.512070000000000164e+03
8.600000000000000699e-02 5.714574999999999516e-01 4.199184999999999945e+01 1.462269999999999754e+02 1.512565000000000055e+03
8.700000000000000788e-02 5.717295000000000016e-01 4.171894999999999953e+01 1.473659999999999854e+02 1.512994999999999891e+03
8.800000000000000877e-02 5.719555000000000611e-01 4.134754999999999825e+01 1.483004999999999995e+02 1.513355000000000018e+03
8.899999999999999578e-02 5.721370000000000067e-01 4.088219999999999743e+01 1.490355000000000132e+02 1.513654999999999973e+03
8.999999999999999667e-02 5.722760000000000069e-01 4.032970000000000255e+01 1.495810000000000173e+02 1.513900000000000091e+03
9.099999999999999756e-02 5.723754999999999260e-01 3.969830000000000325e+01 1.499490000000000123e+02 1.514079999999999927e+03
9.199999999999999845e-02 5.724394999999999900e-01 3.899779999999999802e+01 1.501560000000000059e+02 1.514210000000000036e+03
9.299999999999999933e-02 5.724724999999999397e-01 3.823919999999999675e+01 1.502219999999999800e+02 1.514289999999999964e+03
9.400000000000000022e-02 5.724785000000000013e-01 3.743430000000000035e+01 1.501664999999999850e+02 1.514329999999999927e+03
9.500000000000000111e-02 5.724629999999999441e-01 3.659525000000000006e+01 1.500120000000000005e+02 1.514325000000000045e+03
9.600000000000000200e-02 5.724305000000000643e-01 3.573420000000000130e+01 1.497805000000000177e+02 1.514299999999999955e+03
9.700000000000000289e-02 5.723854999999999915e-01 3.486294999999999789e+01 1.494939999999999998e+02 1.514244999999999891e+03
9.800000000000000377e-02 5.723324999999999108e-01 3.399259999999999593e+01 1.491719999999999970e+02 1.514175000000000182e+03
9.900000000000000466e-02 5.722760000000000069e-01 3.313284999999999769e+01 1.488325000000000102e+02 1.514095000000000027e+03
1.000000000000000056e-01 5.722184999999999633e-01 3.229225000000000279e+01 1.484920000000000186e+02 1.514005000000000109e+03
1.010000000000000064e-01 5.721625000000000183e-01 3.147755000000000081e+01 1.481630000000000109e+02 1.513909999999999854e+03
1.020000000000000073e-01 5.721104999999999663e-01 3.069350000000000023e+01 1.478545000000000016e+02 1.513824999999999818e+03
1.030000000000000082e-01 5.720629999999999882e-01 2.994295000000000329e+01 1.475720000000000027e+02 1.513740000000000009e+03
1.040000000000000091e-01 5.720210000000000017e-01 2.922684999999999889e+01 1.473179999999999836e+02 1.513655000000000200e+03
1.050000000000000100e-01 5.719830000000000192e-01 2.854415000000000191e+01 1.470910000000000082e+02 1.513579999999999927e+03
1.059999999999999970e-01 5.719480000000000119e-01 2.789224999999999710e+01 1.468874999999999886e+02 1.513509999999999991e+03
1.069999999999999979e-01 5.719144999999999923e-01 2.726689999999999969e+01 1.466990000000000123e+02 1.513445000000000164e+03
1.079999999999999988e-01 5.718809999999999727e-01 2.666300000000000026e+01 1.465174999999999841e+02 1.513384999999999991e+03
1.089999999999999997e-01 5.718440000000000190e-01 2.607419999999999760e+01 1.463315000000000055e+02 1.513315000000000055e+03
1.100000000000000006e-01 5.718014999999999626e-01 2.549414999999999765e+01 1.461304999999999836e+02 1.513250000000000000e+03
1.110000000000000014e-01 5.717505000000000503e-01 2.491615000000000180e+01 1.459014999999999986e+02 1.513174999999999955e+03
1.120000000000000023e-01 5.716894999999999616e-01 2.433380000000000010e+01 1.456349999999999909e+02 1.513085000000000036e+03
1.130000000000000032e-01 5.716160000000000130e-01 2.374115000000000109e+01 1.453195000000000050e+02 1.512985000000000127e+03
1.140000000000000041e-01 5.715280000000000360e-01 2.313325000000000031e+01 1.449470000000000027e+02 1.512875000000000000e+03
1.150000000000000050e-01 5.714249999999999607e-01 2.250614999999999810e+01 1.445110000000000241e+02 1.512744999999999891e+03
1.160000000000000059e-01 5.713059999999999805e-01 2.185715000000000074e+01 1.440084999999999980e+02 1.512590000000000146e+03
1.170000000000000068e-01 5.711709999999999843e-01 2.118489999999999895e+01 1.434370000000000118e+02 1.512414999999999964e+03
1.180000000000000077e-01 5.710204999999999309e-01 2.048949999999999960e+01 1.427975000000000136e+02 1.512224999999999909e+03
1.190000000000000085e-01 5.708554999999999602e-01 1.977239999999999753e+01 1.420949999999999989e+02 1.512014999999999873e+03
1.200000000000000094e-01 5.706780000000000186e-01 1.903659999999999997e+01 1.413344999999999914e+02 1.511785000000000082e+03
1.209999999999999964e-01 5.704900000000000526e-01 1.828625000000000256e+01 1.405260000000000105e+02 1.511539999999999964e+03
1.219999999999999973e-01 5.702940000000000786e-01 1.752665000000000006e+01 1.396790000000000020e+02 1.511279999999999973e+03
1.229999999999999982e-01 5.700935000000000308e-01 1.676409999999999911e+01 1.388059999999999832e+02 1.511014999999999873e+03
1.239999999999999991e-01 5.698904999999999665e-01 1.600550000000000139e+01 1.379209999999999923e+02 1.510744999999999891e+03
1.250000000000000000e-01 5.696894999999999598e-01 1.525809500000000085e+01 1.370374999999999943e+02 1.510470000000000027e+03
1.260000000000000009e-01 5.694930000000000270e-01 1.452960999999999814e+01 1.361694999999999993e+02 1.510195000000000164e+03
1.270000000000000018e-01 5.693040000000000322e-01 1.382731000000000066e+01 1.353315000000000055e+02 1.509924999999999955e+03
1.280000000000000027e-01 5.691254999999999509e-01 1.315830499999999859e+01 1.345355000000000132e+02 1.509664999999999964e+03
1.290000000000000036e-01 5.689594999999999514e-01 1.252895499999999984e+01 1.337934999999999945e+02 1.509425000000000182e+03
1.300000000000000044e-01 5.688090000000000090e-01 1.194475500000000068e+01 1.331154999999999973e+02 1.509194999999999936e+03
1.310000000000000053e-01 5.686755000000000004e-01 1.141023500000000013e+01 1.325099999999999909e+02 1.508990000000000009e+03
1.320000000000000062e-01 5.685594999999999954e-01 1.092854999999999954e+01 1.319814999999999827e+02 1.508809999999999945e+03
1.330000000000000071e-01 5.684620000000000228e-01 1.050176000000000087e+01 1.315345000000000084e+02 1.508644999999999982e+03
1.340000000000000080e-01 5.683829999999999716e-01 1.013056999999999874e+01 1.311689999999999827e+02 1.508505000000000109e+03
1.350000000000000089e-01 5.683219999999999938e-01 9.814289999999999736e+00 1.308834999999999980e+02 1.508394999999999982e+03
1.360000000000000098e-01 5.682774999999999910e-01 9.551130000000000564e+00 1.306754999999999995e+02 1.508299999999999955e+03
1.370000000000000107e-01 5.682485000000000452e-01 9.338234999999999175e+00 1.305384999999999991e+02 1.508234999999999900e+03
1.380000000000000115e-01 5.682335000000000580e-01 9.171609999999999374e+00 1.304650000000000034e+02 1.508184999999999945e+03
1.390000000000000124e-01 5.682300000000000129e-01 9.046744999999999592e+00 1.304470000000000027e+02 1.508154999999999973e+03
1.400000000000000133e-01 5.682359999999999634e-01 8.958429999999999893e+00 1.304755000000000109e+02 1.508140000000000100e+03
1.410000000000000142e-01 5.682490000000000041e-01 8.901139999999999830e+00 1.305400000000000205e+02 1.508139999999999873e+03
1.420000000000000151e-01 5.682679999999999954e-01 8.869250000000000966e+00 1.306310000000000002e+02 1.508150000000000091e+03
1.430000000000000160e-01 5.682899999999999618e-01 8.857144999999999158e+00 1.307390000000000043e+02 1.508170000000000073e+03
1.440000000000000169e-01 5.683130000000000681e-01 8.859450000000000713e+00 1.308559999999999945e+02 1.508190000000000055e+03
1.450000000000000178e-01 5.683354999999999935e-01 8.871150000000000091e+00 1.309725000000000250e+02 1.508215000000000146e+03
1.459999999999999909e-01 5.683559999999999723e-01 8.887719999999999843e+00 1.310824999999999818e+02 1.508240000000000009e+03
1.469999999999999918e-01 5.683740000000000459e-01 8.905224999999999724e+00 1.311800000000000068e+02 1.508264999999999873e+03
1.479999999999999927e-01 5.683880000000000043e-01 8.920339999999999492e+00 1.312609999999999957e+02 1.508284999999999854e+03
1.489999999999999936e-01 5.683975000000000000e-01 8.930455000000000254e+00 1.313224999999999909e+02 1.508299999999999955e+03
1.499999999999999944e-01 5.684024999999999217e-01 8.933609999999999829e+00 1.313629999999999995e+02 1.508315000000000055e+03
1.509999999999999953e-01 5.684029999999999916e-01 8.928525000000000489e+00 1.313820000000000050e+02 1.508315000000000055e+03
1.519999999999999962e-01 5.683989999999999876e-01 8.914445000000000618e+00 1.313799999999999955e+02 1.508319999999999936e+03
1.529999999999999971e-01 5.683905000000000207e-01 8.891355000000000786e+00 1.313584999999999923e+02 1.508315000000000055e+03
1.539999999999999980e-01 5.683789999999999676e-01 8.859609999999999985e+00 1.313199999999999932e+02 1.508305000000000064e+03
1.549999999999999989e-01 5.683650000000000091e-01 8.820005000000000095e+00 1.312674999999999841e+02 1.508289999999999964e+03
1.559999999999999998e-01 5.683489999999999931e-01 8.773735000000000284e+00 1.312034999999999911e+02 1.508275000000000091e+03
1.570000000000000007e-01 5.683310000000000306e-01 8.722175000000000011e+00 1.311324999999999932e+02 1.508255000000000109e+03
1.580000000000000016e-01 5.683135000000000270e-01 8.666879999999999029e+00 1.310579999999999927e+02 1.508235000000000127e+03
1.590000000000000024e-01 5.682960000000000234e-01 8.609510000000000218e+00 1.309830000000000041e+02 1.508215000000000146e+03
