# t [s], A [cm^2], U [cm/s], P [cPa], c [cm/s]
1.000000000000000021e-03 8.155060000000000642e-01 4.365549999999995823e-03 9.312035000000000196e+01 1.558980000000000018e+03
2.000000000000000042e-03 8.154919999999999947e-01 -3.036084999999999999e-03 9.309454999999999814e+01 1.558974999999999909e+03
3.000000000000000062e-03 8.155565000000000175e-01 8.239019999999999677e-02 9.317980000000000018e+01 1.558989999999999782e+03
4.000000000000000083e-03 8.156239999999999046e-01 1.810265500000000083e-01 9.329720000000000368e+01 1.559019999999999982e+03
5.000000000000000104e-03 8.156019999999999381e-01 1.720532499999999909e-01 9.326709999999999923e+01 1.559014999999999873e+03
6.000000000000000125e-03 8.155179999999999652e-01 7.957849999999999646e-02 9.307644999999999413e+01 1.558980000000000018e+03
7.000000000000000146e-03 8.154425000000000701e-01 -8.716500000000015902e-03 9.282689999999999486e+01 1.558925000000000182e+03
8.000000000000000167e-03 8.153405000000000236e-01 -1.430260000000000420e-01 9.248015000000000896e+01 1.558860000000000127e+03
9.000000000000001055e-03 8.151639999999999997e-01 -3.911099999999999577e-01 9.194335000000000946e+01 1.558750000000000000e+03
1.000000000000000194e-02 8.149094999999999533e-01 -7.580500000000000016e-01 9.117650000000000432e+01 1.558595000000000027e+03
1.099999999999999936e-02 8.145620000000000083e-01 -1.253615000000000368e+00 9.013415000000000532e+01 1.558380000000000109e+03
1.200000000000000025e-02 8.141005000000000047e-01 -1.892390000000000239e+00 8.876120000000000232e+01 1.558095000000000027e+03
1.300000000000000114e-02 8.135409999999999586e-01 -2.633719999999999839e+00 8.706690000000000396e+01 1.557740000000000009e+03
1.400000000000000203e-02 8.129500000000000615e-01 -3.362795000000000201e+00 8.516944999999999766e+01 1.557329999999999927e+03
1.499999999999999944e-02 8.124080000000000190e-01 -3.938102000000000213e+00 8.325530000000000541e+01 1.556900000000000091e+03
1.600000000000000033e-02 8.119709999999999983e-01 -4.255253199999999403e+00 8.149739999999999895e+01 1.556485000000000127e+03
1.700000000000000122e-02 8.116459999999999786e-01 -4.281055999999999528e+00 7.999190000000000111e+01 1.556110000000000127e+03
1.800000000000000211e-02 8.114014999999999977e-01 -4.050485000000000113e+00 7.874035000000000650e+01 1.555775000000000091e+03
1.900000000000000300e-02 8.111850000000000449e-01 -3.641210000000000058e+00 7.766755000000000564e+01 1.555474999999999909e+03
2.000000000000000042e-02 8.109435000000000393e-01 -3.141140000000000043e+00 7.666070000000000562e+01 1.555180000000000064e+03
2.100000000000000130e-02 8.106435000000000723e-01 -2.619447599999999987e+00 7.561240000000000805e+01 1.554889999999999873e+03
2.200000000000000219e-02 8.102749999999999675e-01 -2.108798999999999868e+00 7.445574999999999477e+01 1.554575000000000045e+03
2.299999999999999961e-02 8.098535000000000039e-01 -1.603775000000000173e+00 7.317965000000000941e+01 1.554240000000000009e+03
2.400000000000000050e-02 8.094090000000000451e-01 -1.074910000000000032e+00 7.182030000000000314e+01 1.553885000000000218e+03
2.500000000000000139e-02 8.089699999999999669e-01 -4.909699999999999065e-01 7.043545000000000300e+01 1.553525000000000091e+03
2.600000000000000228e-02 8.085510000000000197e-01 1.605599999999998140e-01 6.907379999999999143e+01 1.553164999999999964e+03
2.700000000000000316e-02 8.081494999999999651e-01 8.619850000000002233e-01 6.775149999999999295e+01 1.552809999999999945e+03
2.800000000000000058e-02 8.077429999999999888e-01 1.564869999999999761e+00 6.644165000000000987e+01 1.552454999999999927e+03
2.900000000000000147e-02 8.072984999999999189e-01 2.198989999999999778e+00 6.507829999999999870e+01 1.552095000000000027e+03
3.000000000000000236e-02 8.067779999999999951e-01 2.687184999999999491e+00 6.357200000000000273e+01 1.551710000000000036e+03
3.099999999999999978e-02 8.061525000000000496e-01 2.962505000000000166e+00 6.183249999999999602e+01 1.551275000000000091e+03
3.200000000000000067e-02 8.054080000000000128e-01 2.983665000000000234e+00 5.979370000000000118e+01 1.550784999999999854e+03
3.300000000000000155e-02 8.045495000000000285e-01 2.744755000000000056e+00 5.743375000000000341e+01 1.550230000000000018e+03
3.400000000000000244e-02 8.036039999999999850e-01 2.276850000000000041e+00 5.478470000000000084e+01 1.549615000000000009e+03
3.500000000000000333e-02 8.026119999999999921e-01 1.640904999999999614e+00 5.193080000000000496e+01 1.548954999999999927e+03
3.600000000000000422e-02 8.016244999999999621e-01 9.152550000000001518e-01 4.899439999999999884e+01 1.548265000000000100e+03
3.700000000000000511e-02 8.006904999999999717e-01 1.813150000000005591e-01 4.611704999999999899e+01 1.547585000000000036e+03
3.799999999999999906e-02 7.998510000000000897e-01 -4.879600000000001714e-01 4.343880000000000052e+01 1.546940000000000055e+03
3.899999999999999994e-02 7.991390000000000438e-01 -1.035779999999999923e+00 4.108204999999999529e+01 1.546355000000000018e+03
4.000000000000000083e-02 7.985729999999999773e-01 -1.424034999999999940e+00 3.914104999999999990e+01 1.545849999999999909e+03
4.100000000000000172e-02 7.981640000000000956e-01 -1.632120000000000237e+00 3.767754999999999654e+01 1.545449999999999818e+03
4.200000000000000261e-02 7.979119999999999546e-01 -1.652944999999999887e+00 3.672230000000000416e+01 1.545164999999999964e+03
4.300000000000000350e-02 7.978134999999999533e-01 -1.487883499999999914e+00 3.628070000000000306e+01 1.544994999999999891e+03
4.400000000000000439e-02 7.978609999999999314e-01 -1.141814499999999954e+00 3.634009999999999962e+01 1.544940000000000055e+03
4.499999999999999833e-02 7.980475000000000207e-01 -6.195100000000000051e-01 3.687770000000000437e+01 1.545000000000000000e+03
4.599999999999999922e-02 7.983660000000000201e-01 7.606999999999985995e-02 3.786645000000000039e+01 1.545164999999999964e+03
4.700000000000000011e-02 7.988110000000000488e-01 9.434599999999999653e-01 3.927859999999999729e+01 1.545445000000000164e+03
4.800000000000000100e-02 7.993755000000000166e-01 1.980864999999999876e+00 4.108634999999999593e+01 1.545815000000000055e+03
4.900000000000000189e-02 8.000525000000000553e-01 3.183599999999999763e+00 4.326050000000000040e+01 1.546279999999999973e+03
5.000000000000000278e-02 8.008325000000000582e-01 4.541740000000000776e+00 4.576800000000000068e+01 1.546825000000000045e+03
5.100000000000000366e-02 8.017015000000000668e-01 6.038774999999999338e+00 4.857019999999999982e+01 1.547449999999999818e+03
5.200000000000000455e-02 8.026440000000000241e-01 7.651214999999999655e+00 5.162109999999999843e+01 1.548134999999999991e+03
5.300000000000000544e-02 8.036419999999999675e-01 9.349822000000001410e+00 5.486834999999999951e+01 1.548880000000000109e+03
5.399999999999999939e-02 8.046765000000000168e-01 1.110150499999999951e+01 5.825430000000000064e+01 1.549664999999999964e+03
5.500000000000000028e-02 8.057274999999999299e-01 1.287170500000000040e+01 6.171945000000000192e+01 1.550480000000000018e+03
5.600000000000000117e-02 8.067770000000000774e-01 1.462701500000000010e+01 6.520570000000000732e+01 1.551309999999999945e+03
5.700000000000000205e-02 8.078100000000000280e-01 1.633734000000000108e+01 6.865959999999999752e+01 1.552140000000000100e+03
5.800000000000000294e-02 8.088140000000000329e-01 1.797759999999999891e+01 7.203579999999999472e+01 1.552965000000000146e+03
5.900000000000000383e-02 8.097810000000000841e-01 1.952860000000000085e+01 7.529874999999999829e+01 1.553769999999999982e+03
6.000000000000000472e-02 8.107050000000000090e-01 2.097745000000000104e+01 7.842410000000000991e+01 1.554555000000000064e+03
6.099999999999999867e-02 8.115844999999999310e-01 2.231700000000000017e+01 8.139875000000000682e+01 1.555304999999999836e+03
6.199999999999999956e-02 8.124210000000000598e-01 2.354540000000000077e+01 8.421995000000001141e+01 1.556025000000000091e+03
6.300000000000000044e-02 8.132189999999999142e-01 2.466530000000000200e+01 8.689410000000000878e+01 1.556714999999999918e+03
6.400000000000000133e-02 8.139819999999999833e-01 2.568260000000000076e+01 8.943489999999999895e+01 1.557375000000000000e+03
6.500000000000000222e-02 8.147169999999999135e-01 2.660575000000000045e+01 9.186144999999999072e+01 1.558005000000000109e+03
6.600000000000000311e-02 8.154320000000000457e-01 2.744480000000000075e+01 9.419589999999999463e+01 1.558619999999999891e+03
6.700000000000000400e-02 8.161320000000000796e-01 2.821059999999999945e+01 9.646215000000000828e+01 1.559210000000000036e+03
6.800000000000000488e-02 8.168249999999999122e-01 2.891400000000000148e+01 9.868314999999999770e+01 1.559789999999999964e+03
6.900000000000000577e-02 8.175160000000000204e-01 2.956510000000000105e+01 1.008791999999999973e+02 1.560365000000000009e+03
7.000000000000000666e-02 8.182089999999999641e-01 3.017235000000000156e+01 1.030677499999999895e+02 1.560930000000000064e+03
7.100000000000000755e-02 8.189064999999999817e-01 3.074210000000000065e+01 1.052595000000000027e+02 1.561494999999999891e+03
7.200000000000000844e-02 8.196090000000000320e-01 3.127819999999999823e+01 1.074604999999999961e+02 1.562065000000000055e+03
7.300000000000000933e-02 8.203139999999999876e-01 3.178164999999999907e+01 1.096689999999999969e+02 1.562630000000000109e+03
7.399999999999999634e-02 8.210195000000000132e-01 3.225074999999999648e+01 1.118774999999999977e+02 1.563200000000000045e+03
7.499999999999999722e-02 8.217185000000000183e-01 3.268135000000000190e+01 1.140709999999999980e+02 1.563759999999999991e+03
7.599999999999999811e-02 8.224050000000000527e-01 3.306714999999999804e+01 1.162314999999999969e+02 1.564315000000000055e+03
7.699999999999999900e-02 8.230720000000000258e-01 3.340075000000000216e+01 1.183360000000000127e+02 1.564859999999999900e+03
7.799999999999999989e-02 8.237105000000000121e-01 3.367394999999999783e+01 1.203599999999999994e+02 1.565384999999999991e+03
7.900000000000000078e-02 8.243150000000000199e-01 3.387870000000000203e+01 1.222794999999999987e+02 1.565889999999999873e+03
8.000000000000000167e-02 8.248759999999999426e-01 3.400744999999999862e+01 1.240699999999999932e+02 1.566360000000000127e+03
8.100000000000000255e-02 8.253889999999999283e-01 3.405384999999999707e+01 1.257100000000000080e+02 1.566795000000000073e+03
8.200000000000000344e-02 8.258484999999999854e-01 3.401314999999999600e+01 1.271809999999999974e+02 1.567200000000000045e+03
8.300000000000000433e-02 8.262509999999999577e-01 3.388224999999999909e+01 1.284699999999999989e+02 1.567555000000000064e+03
8.400000000000000522e-02 8.265940000000000509e-01 3.366009999999999991e+01 1.295679999999999836e+02 1.567869999999999891e+03
8.500000000000000611e-02 8.268769999999999731e-01 3.334770000000000323e+01 1.304699999999999989e+02 1.568125000000000000e+03
8.600000000000000699e-02 8.271014999999999340e-01 3.294794999999999874e+01 1.311775000000000091e+02 1.568345000000000027e+03
8.700000000000000788e-02 8.272675000000000445e-01 3.246594999999999942e+01 1.316954999999999814e+02 1.568519999999999982e+03
8.800000000000000877e-02 8.273810000000000331e-01 3.190850000000000009e+01 1.320339999999999918e+02 1.568639999999999873e+03
8.899999999999999578e-02 8.274445000000000272e-01 3.128390000000000271e+01 1.322065000000000055e+02 1.568720000000000027e+03
8.999999999999999667e-02 8.274645000000000472e-01 3.060210000000000008e+01 1.322309999999999945e+02 1.568764999999999873e+03
9.099999999999999756e-02 8.274464999999999737e-01 2.987409999999999854e+01 1.321260000000000048e+02 1.568775000000000091e+03
9.199999999999999845e-02 8.273980000000000778e-01 2.911139999999999617e+01 1.319134999999999991e+02 1.568750000000000000e+03
9.299999999999999933e-02 8.273239999999999483e-01 2.832620000000000005e+01 1.316160000000000139e+02 1.568704999999999927e+03
9.400000000000000022e-02 8.272334999999999550e-01 2.753024999999999878e+01 1.312564999999999884e+02 1.568640000000000100e+03
9.500000000000000111e-02 8.271314999999999085e-01 2.673509999999999920e+01 1.308569999999999993e+02 1.568559999999999945e+03
9.600000000000000200e-02 8.270250000000000101e-01 2.595100000000000051e+01 1.304379999999999882e+02 1.568470000000000027e+03
9.700000000000000289e-02 8.269180000000000419e-01 2.518710000000000093e+01 1.300180000000000007e+02 1.568375000000000000e+03
9.800000000000000377e-02 8.268164999999999543e-01 2.445074999999999932e+01 1.296125000000000114e+02 1.568285000000000082e+03
9.900000000000000466e-02 8.267219999999999569e-01 2.374739999999999895e+01 1.292334999999999923e+02 1.568190000000000055e+03
1.000000000000000056e-01 8.266370000000000662e-01 2.308040000000000092e+01 1.288890000000000100e+02 1.568105000000000018e+03
1.010000000000000064e-01 8.265629999999999367e-01 2.245094999999999885e+01 1.285844999999999914e+02 1.568025000000000091e+03
1.020000000000000073e-01 8.264985000000000248e-01 2.185845000000000127e+01 1.283199999999999932e+02 1.567954999999999927e+03
1.030000000000000082e-01 8.264439999999999564e-01 2.130024999999999835e+01 1.280935000000000059e+02 1.567889999999999873e+03
1.040000000000000091e-01 8.263955000000000606e-01 2.077210000000000178e+01 1.278990000000000009e+02 1.567835000000000036e+03
1.050000000000000100e-01 8.263515000000000166e-01 2.026859999999999928e+01 1.277270000000000039e+02 1.567784999999999854e+03
1.059999999999999970e-01 8.263080000000000425e-01 1.978330000000000055e+01 1.275689999999999884e+02 1.567735000000000127e+03
1.069999999999999979e-01 8.262620000000000520e-01 1.930915000000000248e+01 1.274124999999999943e+02 1.567694999999999936e+03
1.079999999999999988e-01 8.262100000000000000e-01 1.883890000000000242e+01 1.272454999999999927e+02 1.567644999999999982e+03
1.089999999999999997e-01 8.261484999999999523e-01 1.836560000000000059e+01 1.270564999999999998e+02 1.567595000000000027e+03
1.100000000000000006e-01 8.260739999999999750e-01 1.788260000000000005e+01 1.268344999999999914e+02 1.567539999999999964e+03
1.110000000000000014e-01 8.259840000000000515e-01 1.738410000000000011e+01 1.265695000000000050e+02 1.567474999999999909e+03
1.120000000000000023e-01 8.258769999999999722e-01 1.686540000000000106e+01 1.262545000000000073e+02 1.567394999999999982e+03
1.130000000000000032e-01 8.257514999999999716e-01 1.632294999999999874e+01 1.258834999999999980e+02 1.567309999999999945e+03
1.140000000000000041e-01 8.256075000000000497e-01 1.575485000000000113e+01 1.254530000000000030e+02 1.567204999999999927e+03
1.150000000000000050e-01 8.254460000000000131e-01 1.516065000000000040e+01 1.249650000000000034e+02 1.567090000000000146e+03
1.160000000000000059e-01 8.252669999999999728e-01 1.454145000000000110e+01 1.244205000000000041e+02 1.566960000000000036e+03
1.170000000000000068e-01 8.250735000000000152e-01 1.389995000000000047e+01 1.238254999999999910e+02 1.566819999999999936e+03
1.180000000000000077e-01 8.248685000000000045e-01 1.324035500000000098e+01 1.231889999999999930e+02 1.566670000000000073e+03
1.190000000000000085e-01 8.246549999999999159e-01 1.256802000000000064e+01 1.225204999999999984e+02 1.566509999999999991e+03
1.200000000000000094e-01 8.244380000000000042e-01 1.188962000000000074e+01 1.218325000000000102e+02 1.566345000000000027e+03
1.209999999999999964e-01 8.242214999999999403e-01 1.121233499999999950e+01 1.211389999999999958e+02 1.566179999999999836e+03
1.219999999999999973e-01 8.240104999999999791e-01 1.054412500000000108e+01 1.204549999999999983e+02 1.566015000000000100e+03
1.229999999999999982e-01 8.238079999999999847e-01 9.892854999999999066e+00 1.197934999999999945e+02 1.565845000000000027e+03
1.239999999999999991e-01 8.236200000000000188e-01 9.266519999999999868e+00 1.191705000000000041e+02 1.565690000000000055e+03
1.250000000000000000e-01 8.234500000000000153e-01 8.672360000000001179e+00 1.185989999999999895e+02 1.565549999999999955e+03
1.260000000000000009e-01 8.233010000000000606e-01 8.117039999999999367e+00 1.180900000000000034e+02 1.565414999999999964e+03
1.270000000000000018e-01 8.231755000000000599e-01 7.605999999999999872e+00 1.176529999999999916e+02 1.565295000000000073e+03
1.280000000000000027e-01 8.230755000000000710e-01 7.143644999999999357e+00 1.172959999999999923e+02 1.565195000000000164e+03
1.290000000000000036e-01 8.230020000000000113e-01 6.732770000000000366e+00 1.170229999999999961e+02 1.565119999999999891e+03
1.300000000000000044e-01 8.229554999999999509e-01 6.374805000000000277e+00 1.168359999999999985e+02 1.565059999999999945e+03
1.310000000000000053e-01 8.229345000000000132e-01 6.069634999999999891e+00 1.167330000000000041e+02 1.565019999999999982e+03
1.320000000000000062e-01 8.229379999999999473e-01 5.815730000000000288e+00 1.167120000000000033e+02 1.565000000000000000e+03
1.330000000000000071e-01 8.229634999999999589e-01 5.610229999999999606e+00 1.167644999999999982e+02 1.564994999999999891e+03
1.340000000000000080e-01 8.230079999999999618e-01 5.449135000000000062e+00 1.168840000000000003e+02 1.565009999999999991e+03
1.350000000000000089e-01 8.230679999999999108e-01 5.327494999999999870e+00 1.170589999999999975e+02 1.565039999999999964e+03
1.360000000000000098e-01 8.231405000000000527e-01 5.239689999999999515e+00 1.172785000000000082e+02 1.565079999999999927e+03
1.370000000000000107e-01 8.232209999999999805e-01 5.179645000000000721e+00 1.175310000000000059e+02 1.565130000000000109e+03
1.380000000000000115e-01 8.233064999999999412e-01 5.141094999999999970e+00 1.178034999999999997e+02 1.565184999999999945e+03
1.390000000000000124e-01 8.233924999999999716e-01 5.117834999999999468e+00 1.180850000000000080e+02 1.565250000000000000e+03
1.400000000000000133e-01 8.234770000000000145e-01 5.103889999999999816e+00 1.183640000000000043e+02 1.565309999999999945e+03
1.410000000000000142e-01 8.235565000000000246e-01 5.093764999999999432e+00 1.186310000000000002e+02 1.565369999999999891e+03
1.420000000000000151e-01 8.236289999999999445e-01 5.082525000000000404e+00 1.188764999999999930e+02 1.565429999999999836e+03
1.430000000000000160e-01 8.236915000000000209e-01 5.065940000000000332e+00 1.190935000000000059e+02 1.565480000000000018e+03
1.440000000000000169e-01 8.237434999999999619e-01 5.040544999999999831e+00 1.192779999999999916e+02 1.565525000000000091e+03
1.450000000000000178e-01 8.237840000000000718e-01 5.003684999999999938e+00 1.194244999999999948e+02 1.565569999999999936e+03
1.459999999999999909e-01 8.238125000000000586e-01 4.953500000000000014e+00 1.195320000000000107e+02 1.565595000000000027e+03
1.469999999999999918e-01 8.238289999999999225e-01 4.888930000000000220e+00 1.195999999999999943e+02 1.565615000000000009e+03
1.479999999999999927e-01 8.238345000000000251e-01 4.809630000000000294e+00 1.196280000000000001e+02 1.565630000000000109e+03
1.489999999999999936e-01 8.238290000000000335e-01 4.715910000000000046e+00 1.196200000000000045e+02 1.565634999999999991e+03
1.499999999999999944e-01 8.238140000000000462e-01 4.608679999999999666e+00 1.195775000000000006e+02 1.565625000000000000e+03
1.509999999999999953e-01 8.237894999999999524e-01 4.489295000000000258e+00 1.195045000000000073e+02 1.565619999999999891e+03
1.519999999999999962e-01 8.237589999999999080e-01 4.359510000000000218e+00 1.194050000000000011e+02 1.565599999999999909e+03
1.529999999999999971e-01 8.237220000000000653e-01 4.221330000000000027e+00 1.192845000000000084e+02 1.565574999999999818e+03
1.539999999999999980e-01 8.236799999999999677e-01 4.076925000000000132e+00 1.191460000000000008e+02 1.565545000000000073e+03
1.549999999999999989e-01 8.236350000000000060e-01 3.928514999999999979e+00 1.189950000000000045e+02 1.565514999999999873e+03
1.559999999999999998e-01 8.235885000000000566e-01 3.778285000000000338e+00 1.188350000000000080e+02 1.565474999999999909e+03
1.570000000000000007e-01 8.235409999999999675e-01 3.628295000000000048e+00 1.186700000000000017e+02 1.565440000000000055e+03
1.580000000000000016e-01 8.234924999999999606e-01 3.480389999999999873e+00 1.185024999999999977e+02 1.565400000000000091e+03
1.590000000000000024e-01 8.234449999999999825e-01 3.336174999999999891e+00 1.183350000000000080e+02 1.565360000000000127e+03
