# t [s], A [cm^2], U [cm/s], P [cPa], c [cm/s]
1.000000000000000021e-03 2.166155000000000164e-01 2.469709999999999961e-01 8.909834999999999638e+01 1.962625000000000000e+03
2.000000000000000042e-03 2.165680000000000105e-01 1.622420500000000043e+00 8.630315000000000225e+01 1.962340000000000146e+03
3.000000000000000062e-03 2.164240000000000053e-01 3.333844500000000100e+00 8.242844999999999800e+01 1.961534999999999854e+03
4.000000000000000083e-03 2.162189999999999945e-01 5.256553999999999505e+00 7.809340000000000259e+01 1.960414999999999964e+03
5.000000000000000104e-03 2.159935000000000049e-01 7.337334999999999496e+00 7.408584999999999354e+01 1.959184999999999945e+03
6.000000000000000125e-03 2.157720000000000193e-01 9.441715000000000302e+00 7.075964999999999350e+01 1.957985000000000127e+03
7.000000000000000146e-03 2.155644999999999922e-01 1.137463500000000138e+01 6.797984999999999900e+01 1.956880000000000109e+03
8.000000000000000167e-03 2.153714999999999935e-01 1.302123999999999882e+01 6.549699999999999989e+01 1.955875000000000000e+03
9.000000000000001055e-03 2.151994999999999880e-01 1.439473999999999876e+01 6.329160000000000252e+01 1.954989999999999782e+03
1.000000000000000194e-02 2.150515000000000065e-01 1.553594999999999970e+01 6.145004999999999740e+01 1.954235000000000127e+03
1.099999999999999936e-02 2.149280000000000079e-01 1.646324999999999861e+01 5.998400000000000176e+01 1.953619999999999891e+03
1.200000000000000025e-02 2.148295000000000066e-01 1.719034999999999869e+01 5.885069999999999624e+01 1.953125000000000000e+03
1.300000000000000114e-02 2.147509999999999974e-01 1.772829999999999728e+01 5.798730000000000473e+01 1.952744999999999891e+03
1.400000000000000203e-02 2.146895000000000053e-01 1.808099999999999952e+01 5.730030000000000001e+01 1.952445000000000164e+03
1.499999999999999944e-02 2.146389999999999965e-01 1.827085000000000292e+01 5.671500000000000341e+01 1.952210000000000036e+03
1.600000000000000033e-02 2.146004999999999996e-01 1.837255000000000038e+01 5.628144999999999953e+01 1.952034999999999854e+03
1.700000000000000122e-02 2.145790000000000197e-01 1.850835000000000008e+01 5.621370000000000289e+01 1.951945000000000164e+03
1.800000000000000211e-02 2.145854999999999846e-01 1.879840000000000089e+01 5.679349999999999454e+01 1.951985000000000127e+03
1.900000000000000300e-02 2.146270000000000122e-01 1.930044999999999789e+01 5.819710000000000605e+01 1.952199999999999818e+03
2.000000000000000042e-02 2.147049999999999792e-01 1.997885000000000133e+01 6.036374999999999602e+01 1.952599999999999909e+03
2.100000000000000130e-02 2.148104999999999876e-01 2.071654999999999802e+01 6.297950000000000159e+01 1.953134999999999991e+03
2.200000000000000219e-02 2.149270000000000069e-01 2.135960000000000036e+01 6.557410000000000139e+01 1.953740000000000009e+03
2.299999999999999961e-02 2.150365000000000193e-01 2.177060000000000173e+01 6.767595000000000027e+01 1.954315000000000055e+03
2.400000000000000050e-02 2.151230000000000087e-01 2.187109999999999843e+01 6.895720000000000027e+01 1.954769999999999982e+03
2.500000000000000139e-02 2.151754999999999918e-01 2.165879999999999939e+01 6.931880000000001019e+01 1.955059999999999945e+03
2.600000000000000228e-02 2.151945000000000108e-01 2.119749999999999801e+01 6.889105000000000700e+01 1.955179999999999836e+03
2.700000000000000316e-02 2.151850000000000152e-01 2.058719999999999928e+01 6.796025000000000205e+01 1.955150000000000091e+03
2.800000000000000058e-02 2.151579999999999881e-01 1.992650000000000077e+01 6.685500000000000398e+01 1.955025000000000091e+03
2.900000000000000147e-02 2.151254999999999973e-01 1.928264999999999674e+01 6.583820000000000050e+01 1.954860000000000127e+03
3.000000000000000236e-02 2.150925000000000198e-01 1.867755000000000010e+01 6.503919999999999391e+01 1.954694999999999936e+03
3.099999999999999978e-02 2.150640000000000052e-01 1.809149999999999991e+01 6.444169999999999732e+01 1.954549999999999955e+03
3.200000000000000067e-02 2.150380000000000069e-01 1.748029999999999973e+01 6.392210000000000036e+01 1.954409999999999854e+03
3.300000000000000155e-02 2.150094999999999923e-01 1.679870000000000019e+01 6.331730000000000302e+01 1.954264999999999873e+03
3.400000000000000244e-02 2.149729999999999974e-01 1.602205000000000013e+01 6.249790000000000134e+01 1.954085000000000036e+03
3.500000000000000333e-02 2.149274999999999936e-01 1.516075000000000017e+01 6.142494999999999550e+01 1.953855000000000018e+03
3.600000000000000422e-02 2.148730000000000084e-01 1.426295000000000002e+01 6.017494999999999550e+01 1.953585000000000036e+03
3.700000000000000511e-02 2.148149999999999782e-01 1.340564999999999962e+01 5.892690000000000339e+01 1.953284999999999854e+03
3.799999999999999906e-02 2.147614999999999941e-01 1.267665000000000042e+01 5.791689999999999827e+01 1.953009999999999991e+03
3.899999999999999994e-02 2.147224999999999828e-01 1.215274999999999928e+01 5.737484999999999502e+01 1.952799999999999955e+03
4.000000000000000083e-02 2.147060000000000080e-01 1.188105000000000011e+01 5.746184999999999832e+01 1.952710000000000036e+03
4.100000000000000172e-02 2.147169999999999912e-01 1.186730000000000018e+01 5.822664999999999935e+01 1.952750000000000000e+03
4.200000000000000261e-02 2.147554999999999881e-01 1.207479999999999976e+01 5.959094999999999942e+01 1.952934999999999945e+03
4.300000000000000350e-02 2.148180000000000089e-01 1.243164999999999942e+01 6.136464999999999748e+01 1.953240000000000009e+03
4.400000000000000439e-02 2.148950000000000027e-01 1.284485000000000099e+01 6.328329999999999700e+01 1.953630000000000109e+03
4.499999999999999833e-02 2.149754999999999860e-01 1.321610000000000085e+01 6.505790000000000362e+01 1.954034999999999854e+03
4.599999999999999922e-02 2.150485000000000035e-01 1.345645000000000024e+01 6.642274999999999352e+01 1.954404999999999973e+03
4.700000000000000011e-02 2.151025000000000020e-01 1.349735000000000085e+01 6.717409999999999570e+01 1.954690000000000055e+03
4.800000000000000100e-02 2.151299999999999879e-01 1.329659999999999975e+01 6.719159999999999400e+01 1.954840000000000146e+03
4.900000000000000189e-02 2.151254999999999973e-01 1.283900000000000041e+01 6.644344999999999857e+01 1.954829999999999927e+03
5.000000000000000278e-02 2.150885000000000158e-01 1.213264999999999993e+01 6.497554999999999836e+01 1.954650000000000091e+03
5.100000000000000366e-02 2.150195000000000023e-01 1.120378999999999969e+01 6.289150000000000773e+01 1.954305000000000064e+03
5.200000000000000455e-02 2.149230000000000029e-01 1.008959499999999920e+01 6.032784999999999798e+01 1.953819999999999936e+03
5.300000000000000544e-02 2.148045000000000093e-01 8.832415000000001015e+00 5.743149999999999977e+01 1.953215000000000146e+03
5.399999999999999939e-02 2.146689999999999987e-01 7.475664999999999338e+00 5.434274999999999523e+01 1.952525000000000091e+03
5.500000000000000028e-02 2.145230000000000192e-01 6.061359999999999637e+00 5.118554999999999922e+01 1.951779999999999973e+03
5.600000000000000117e-02 2.143714999999999926e-01 4.629639000000000060e+00 4.806494999999999607e+01 1.951009999999999991e+03
5.700000000000000205e-02 2.142204999999999804e-01 3.219385500000000011e+00 4.507004999999999484e+01 1.950234999999999900e+03
5.800000000000000294e-02 2.140739999999999865e-01 1.869139999999999802e+00 4.227955000000000041e+01 1.949474999999999909e+03
5.900000000000000383e-02 2.139355000000000007e-01 6.178950000000000831e-01 3.976709999999999923e+01 1.948759999999999991e+03
6.000000000000000472e-02 2.138094999999999857e-01 -4.948099999999999721e-01 3.760569999999999879e+01 1.948110000000000127e+03
6.099999999999999867e-02 2.137000000000000011e-01 -1.429622500000000018e+00 3.586874999999999858e+01 1.947545000000000073e+03
6.199999999999999956e-02 2.136115000000000097e-01 -2.148928999999999867e+00 3.462810000000000343e+01 1.947079999999999927e+03
6.300000000000000044e-02 2.135464999999999725e-01 -2.618900000000000006e+00 3.395035000000000025e+01 1.946735000000000127e+03
6.400000000000000133e-02 2.135090000000000043e-01 -2.811779999999999724e+00 3.389074999999999704e+01 1.946525000000000091e+03
6.500000000000000222e-02 2.135015000000000107e-01 -2.707980000000000054e+00 3.448799999999999955e+01 1.946470000000000027e+03
6.600000000000000311e-02 2.135265000000000080e-01 -2.297665000000000290e+00 3.575919999999999987e+01 1.946575000000000045e+03
6.700000000000000400e-02 2.135835000000000095e-01 -1.581567999999999863e+00 3.769750000000000512e+01 1.946849999999999909e+03
6.800000000000000488e-02 2.136735000000000162e-01 -5.710700000000000776e-01 4.027094999999999914e+01 1.947295000000000073e+03
6.900000000000000577e-02 2.137939999999999841e-01 7.124999999999999112e-01 4.342449999999999477e+01 1.947894999999999982e+03
7.000000000000000666e-02 2.139429999999999943e-01 2.239200000000000301e+00 4.708360000000000412e+01 1.948639999999999873e+03
7.100000000000000755e-02 2.141170000000000018e-01 3.972211399999999948e+00 5.115854999999999819e+01 1.949525000000000091e+03
7.200000000000000844e-02 2.143130000000000035e-01 5.869804999999999495e+00 5.555034999999999457e+01 1.950519999999999982e+03
7.300000000000000933e-02 2.145250000000000212e-01 7.887444999999999595e+00 6.015619999999999834e+01 1.951595000000000027e+03
7.399999999999999634e-02 2.147495000000000098e-01 9.979844999999999189e+00 6.487479999999999336e+01 1.952744999999999891e+03
7.499999999999999722e-02 2.149800000000000044e-01 1.210302000000000078e+01 6.961135000000000161e+01 1.953929999999999836e+03
7.599999999999999811e-02 2.152145000000000030e-01 1.421621999999999986e+01 7.428194999999999482e+01 1.955140000000000100e+03
7.699999999999999900e-02 2.154469999999999996e-01 1.628330000000000055e+01 7.881694999999999141e+01 1.956340000000000146e+03
7.799999999999999989e-02 2.156750000000000056e-01 1.827430000000000021e+01 8.316374999999999318e+01 1.957525000000000091e+03
7.900000000000000078e-02 2.158964999999999912e-01 2.016645000000000110e+01 8.728835000000000832e+01 1.958675000000000182e+03
8.000000000000000167e-02 2.161080000000000223e-01 2.194415000000000049e+01 9.117535000000000878e+01 1.959779999999999973e+03
8.100000000000000255e-02 2.163104999999999889e-01 2.359939999999999927e+01 9.482710000000000150e+01 1.960835000000000036e+03
8.200000000000000344e-02 2.165024999999999866e-01 2.513125000000000142e+01 9.826224999999999454e+01 1.961845000000000027e+03
8.300000000000000433e-02 2.166854999999999754e-01 2.654440000000000310e+01 1.015100000000000051e+02 1.962809999999999945e+03
8.400000000000000522e-02 2.168599999999999972e-01 2.784815000000000040e+01 1.046093500000000063e+02 1.963730000000000018e+03
8.500000000000000611e-02 2.170285000000000131e-01 2.905514999999999759e+01 1.076030000000000086e+02 1.964615000000000009e+03
8.600000000000000699e-02 2.171914999999999818e-01 3.017925000000000324e+01 1.105314999999999941e+02 1.965474999999999909e+03
8.700000000000000788e-02 2.173515000000000030e-01 3.123449999999999704e+01 1.134329999999999927e+02 1.966315000000000055e+03
8.800000000000000877e-02 2.175099999999999811e-01 3.223375000000000057e+01 1.163385000000000105e+02 1.967154999999999973e+03
8.899999999999999578e-02 2.176684999999999870e-01 3.318760000000000332e+01 1.192685000000000031e+02 1.967985000000000127e+03
8.999999999999999667e-02 2.178269999999999929e-01 3.410360000000000014e+01 1.222325000000000017e+02 1.968829999999999927e+03
9.099999999999999756e-02 2.179864999999999997e-01 3.498604999999999876e+01 1.252314999999999969e+02 1.969670000000000073e+03
9.199999999999999845e-02 2.181480000000000086e-01 3.583570000000000277e+01 1.282535000000000025e+02 1.970514999999999873e+03
9.299999999999999933e-02 2.183090000000000031e-01 3.665009999999999479e+01 1.312810000000000059e+02 1.971369999999999891e+03
9.400000000000000022e-02 2.184699999999999975e-01 3.742360000000000042e+01 1.342870000000000061e+02 1.972214999999999918e+03
9.500000000000000111e-02 2.186289999999999900e-01 3.814829999999999899e+01 1.372390000000000043e+02 1.973055000000000064e+03
9.600000000000000200e-02 2.187860000000000082e-01 3.881409999999999627e+01 1.401014999999999873e+02 1.973880000000000109e+03
9.700000000000000289e-02 2.189375000000000071e-01 3.940994999999999493e+01 1.428389999999999986e+02 1.974684999999999945e+03
9.800000000000000377e-02 2.190825000000000133e-01 3.992409999999999570e+01 1.454145000000000039e+02 1.975449999999999818e+03
9.900000000000000466e-02 2.192199999999999982e-01 4.034494999999999720e+01 1.477944999999999993e+02 1.976180000000000064e+03
1.000000000000000056e-01 2.193475000000000008e-01 4.066174999999999784e+01 1.499484999999999957e+02 1.976855000000000018e+03
1.010000000000000064e-01 2.194634999999999780e-01 4.086500000000000199e+01 1.518505000000000109e+02 1.977474999999999909e+03
1.020000000000000073e-01 2.195674999999999988e-01 4.094724999999999682e+01 1.534809999999999945e+02 1.978025000000000091e+03
1.030000000000000082e-01 2.196575000000000055e-01 4.090340000000000487e+01 1.548265000000000100e+02 1.978509999999999991e+03
1.040000000000000091e-01 2.197339999999999849e-01 4.073104999999999620e+01 1.558824999999999932e+02 1.978920000000000073e+03
1.050000000000000100e-01 2.197954999999999770e-01 4.043070000000000164e+01 1.566479999999999961e+02 1.979255000000000109e+03
1.059999999999999970e-01 2.198430000000000106e-01 4.000605000000000189e+01 1.571320000000000050e+02 1.979514999999999873e+03
1.069999999999999979e-01 2.198760000000000159e-01 3.946365000000000123e+01 1.573514999999999873e+02 1.979699999999999818e+03
1.079999999999999988e-01 2.198959999999999804e-01 3.881300000000000239e+01 1.573269999999999982e+02 1.979815000000000055e+03
1.089999999999999997e-01 2.199039999999999884e-01 3.806589999999999918e+01 1.570850000000000080e+02 1.979860000000000127e+03
1.100000000000000006e-01 2.198994999999999977e-01 3.723614999999999498e+01 1.566569999999999823e+02 1.979849999999999909e+03
1.110000000000000014e-01 2.198865000000000125e-01 3.633915000000000362e+01 1.560765000000000100e+02 1.979784999999999854e+03
1.120000000000000023e-01 2.198650000000000049e-01 3.539095000000000368e+01 1.553785000000000025e+02 1.979679999999999836e+03
1.130000000000000032e-01 2.198370000000000046e-01 3.440809999999999746e+01 1.545969999999999800e+02 1.979539999999999964e+03
1.140000000000000041e-01 2.198039999999999994e-01 3.340654999999999575e+01 1.537659999999999911e+02 1.979375000000000000e+03
1.150000000000000050e-01 2.197680000000000189e-01 3.240160000000000196e+01 1.529145000000000039e+02 1.979184999999999945e+03
1.160000000000000059e-01 2.197294999999999943e-01 3.140685000000000215e+01 1.520695000000000050e+02 1.978980000000000018e+03
1.170000000000000068e-01 2.196905000000000108e-01 3.043440000000000367e+01 1.512535000000000025e+02 1.978779999999999973e+03
1.180000000000000077e-01 2.196529999999999871e-01 2.949399999999999977e+01 1.504825000000000159e+02 1.978579999999999927e+03
1.190000000000000085e-01 2.196160000000000057e-01 2.859304999999999808e+01 1.497680000000000007e+02 1.978384999999999991e+03
1.200000000000000094e-01 2.195814999999999850e-01 2.773649999999999949e+01 1.491170000000000186e+02 1.978204999999999927e+03
1.209999999999999964e-01 2.195484999999999798e-01 2.692685000000000173e+01 1.485285000000000082e+02 1.978029999999999973e+03
1.219999999999999973e-01 2.195190000000000197e-01 2.616394999999999982e+01 1.479995000000000118e+02 1.977869999999999891e+03
1.229999999999999982e-01 2.194915000000000060e-01 2.544559999999999889e+01 1.475190000000000055e+02 1.977719999999999800e+03
1.239999999999999991e-01 2.194654999999999800e-01 2.476745000000000019e+01 1.470760000000000218e+02 1.977579999999999927e+03
1.250000000000000000e-01 2.194415000000000115e-01 2.412335000000000207e+01 1.466529999999999916e+02 1.977450000000000045e+03
1.260000000000000009e-01 2.194180000000000019e-01 2.350589999999999691e+01 1.462319999999999993e+02 1.977319999999999936e+03
1.270000000000000018e-01 2.193944999999999923e-01 2.290690000000000026e+01 1.457934999999999945e+02 1.977200000000000045e+03
1.280000000000000027e-01 2.193700000000000094e-01 2.231754999999999711e+01 1.453179999999999836e+02 1.977065000000000055e+03
1.290000000000000036e-01 2.193435000000000246e-01 2.172909999999999897e+01 1.447860000000000014e+02 1.976924999999999955e+03
1.300000000000000044e-01 2.193140000000000089e-01 2.113335000000000008e+01 1.441814999999999998e+02 1.976765000000000100e+03
1.310000000000000053e-01 2.192820000000000047e-01 2.052284999999999826e+01 1.434890000000000043e+02 1.976590000000000146e+03
1.320000000000000062e-01 2.192445000000000088e-01 1.989160000000000039e+01 1.426985000000000241e+02 1.976400000000000091e+03
1.330000000000000071e-01 2.192029999999999812e-01 1.923505000000000109e+01 1.418029999999999973e+02 1.976179999999999836e+03
1.340000000000000080e-01 2.191560000000000175e-01 1.855055000000000121e+01 1.407995000000000232e+02 1.975934999999999945e+03
1.350000000000000089e-01 2.191045000000000076e-01 1.783749999999999858e+01 1.396909999999999741e+02 1.975659999999999854e+03
1.360000000000000098e-01 2.190475000000000061e-01 1.709714999999999918e+01 1.384850000000000136e+02 1.975365000000000009e+03
1.370000000000000107e-01 2.189865000000000006e-01 1.633305000000000007e+01 1.371924999999999955e+02 1.975039999999999964e+03
1.380000000000000115e-01 2.189204999999999901e-01 1.555034999999999989e+01 1.358290000000000077e+02 1.974699999999999818e+03
1.390000000000000124e-01 2.188515000000000044e-01 1.475604999999999833e+01 1.344145000000000039e+02 1.974340000000000146e+03
1.400000000000000133e-01 2.187795000000000156e-01 1.395850000000000080e+01 1.329705000000000155e+02 1.973960000000000036e+03
1.410000000000000142e-01 2.187060000000000115e-01 1.316699999999999982e+01 1.315199999999999818e+02 1.973575000000000045e+03
1.420000000000000151e-01 2.186325000000000074e-01 1.239140000000000086e+01 1.300885000000000105e+02 1.973195000000000164e+03
1.430000000000000160e-01 2.185599999999999765e-01 1.164173500000000061e+01 1.286984999999999957e+02 1.972804999999999836e+03
1.440000000000000169e-01 2.184885000000000022e-01 1.092773000000000039e+01 1.273729999999999905e+02 1.972434999999999945e+03
1.450000000000000178e-01 2.184205000000000174e-01 1.025837500000000091e+01 1.261329999999999956e+02 1.972075000000000045e+03
1.459999999999999909e-01 2.183559999999999945e-01 9.641629999999999256e+00 1.249960000000000093e+02 1.971735000000000127e+03
1.469999999999999918e-01 2.182970000000000188e-01 9.083954999999999558e+00 1.239745000000000061e+02 1.971420000000000073e+03
1.479999999999999927e-01 2.182430000000000203e-01 8.590294999999999348e+00 1.230790000000000077e+02 1.971130000000000109e+03
1.489999999999999936e-01 2.181945000000000134e-01 8.163655000000000328e+00 1.223139999999999930e+02 1.970880000000000109e+03
1.499999999999999944e-01 2.181529999999999858e-01 7.805355000000000487e+00 1.216804999999999950e+02 1.970650000000000091e+03
1.509999999999999953e-01 2.181174999999999919e-01 7.514770000000000394e+00 1.211765000000000043e+02 1.970465000000000146e+03
1.519999999999999962e-01 2.180885000000000185e-01 7.289584999999999759e+00 1.207925000000000040e+02 1.970304999999999836e+03
1.529999999999999971e-01 2.180650000000000088e-01 7.125890000000000057e+00 1.205210000000000008e+02 1.970179999999999836e+03
1.539999999999999980e-01 2.180475000000000052e-01 7.018454999999999444e+00 1.203474999999999966e+02 1.970079999999999927e+03
1.549999999999999989e-01 2.180345000000000200e-01 6.960934999999999206e+00 1.202584999999999980e+02 1.970005000000000109e+03
1.559999999999999998e-01 2.180255000000000110e-01 6.946199999999999264e+00 1.202365000000000066e+02 1.969960000000000036e+03
1.570000000000000007e-01 2.180205000000000060e-01 6.966599999999999682e+00 1.202655000000000030e+02 1.969929999999999836e+03
1.580000000000000016e-01 2.180185000000000040e-01 7.014260000000000161e+00 1.203299999999999983e+02 1.969914999999999964e+03
1.590000000000000024e-01 2.180185000000000040e-01 7.081389999999999851e+00 1.204134999999999991e+02 1.969909999999999854e+03
