# t [s], A [cm^2], U [cm/s], P [cPa], c [cm/s]
1.000000000000000021e-03 1.657039999999999902e-01 2.777165000000000328e-01 1.014564000000000021e+02 2.158010000000000218e+03
2.000000000000000042e-03 1.656624999999999903e-01 1.780583500000000097e+00 9.809979999999998768e+01 2.157559999999999945e+03
3.000000000000000062e-03 1.655469999999999997e-01 3.665802999999999923e+00 9.339529999999999177e+01 2.156369999999999891e+03
4.000000000000000083e-03 1.653875000000000206e-01 5.800867500000000732e+00 8.820059999999999434e+01 2.154744999999999891e+03
5.000000000000000104e-03 1.652144999999999864e-01 8.109429999999999694e+00 8.347030000000000882e+01 2.153005000000000109e+03
6.000000000000000125e-03 1.650469999999999993e-01 1.040975000000000072e+01 7.954695000000000960e+01 2.151340000000000146e+03
7.000000000000000146e-03 1.648899999999999810e-01 1.247387499999999960e+01 7.618255000000000621e+01 2.149809999999999945e+03
8.000000000000000167e-03 1.647454999999999892e-01 1.421253499999999903e+01 7.313850000000000762e+01 2.148420000000000073e+03
9.000000000000001055e-03 1.646174999999999999e-01 1.566365000000000052e+01 7.048005000000000564e+01 2.147215000000000146e+03
1.000000000000000194e-02 1.645090000000000163e-01 1.686384999999999934e+01 6.829554999999999154e+01 2.146204999999999927e+03
1.099999999999999936e-02 1.644204999999999972e-01 1.783125000000000071e+01 6.656864999999999100e+01 2.145380000000000109e+03
1.200000000000000025e-02 1.643499999999999961e-01 1.857839999999999847e+01 6.523060000000000969e+01 2.144739999999999782e+03
1.300000000000000114e-02 1.642939999999999956e-01 1.910425000000000040e+01 6.415524999999999523e+01 2.144235000000000127e+03
1.400000000000000203e-02 1.642464999999999897e-01 1.942014999999999958e+01 6.320589999999999975e+01 2.143819999999999709e+03
1.499999999999999944e-02 1.642079999999999929e-01 1.960334999999999894e+01 6.240104999999999791e+01 2.143489999999999782e+03
1.600000000000000033e-02 1.641825000000000090e-01 1.980424999999999969e+01 6.201224999999999454e+01 2.143269999999999982e+03
1.700000000000000122e-02 1.641794999999999782e-01 2.017970000000000041e+01 6.243770000000000664e+01 2.143255000000000109e+03
1.800000000000000211e-02 1.642055000000000042e-01 2.080599999999999739e+01 6.393429999999999325e+01 2.143500000000000000e+03
1.900000000000000300e-02 1.642609999999999904e-01 2.163400000000000034e+01 6.641150000000000375e+01 2.144019999999999982e+03
2.000000000000000042e-02 1.643379999999999841e-01 2.251079999999999970e+01 6.941745000000000232e+01 2.144739999999999782e+03
2.100000000000000130e-02 1.644214999999999982e-01 2.324719999999999942e+01 7.230655000000000143e+01 2.145539999999999964e+03
2.200000000000000219e-02 1.644955000000000167e-01 2.369205000000000183e+01 7.448224999999999341e+01 2.146260000000000218e+03
2.299999999999999961e-02 1.645490000000000008e-01 2.378170000000000073e+01 7.559860000000000468e+01 2.146789999999999964e+03
2.400000000000000050e-02 1.645760000000000001e-01 2.354945000000000022e+01 7.564379999999999882e+01 2.147074999999999818e+03
2.500000000000000139e-02 1.645794999999999897e-01 2.309740000000000038e+01 7.489105000000000700e+01 2.147135000000000218e+03
2.600000000000000228e-02 1.645654999999999757e-01 2.254829999999999757e+01 7.375384999999999991e+01 2.147029999999999745e+03
2.700000000000000316e-02 1.645445000000000102e-01 2.199855000000000160e+01 7.261670000000000869e+01 2.146840000000000146e+03
2.800000000000000058e-02 1.645234999999999892e-01 2.148995000000000033e+01 7.170640000000000214e+01 2.146639999999999873e+03
2.900000000000000147e-02 1.645050000000000123e-01 2.100685000000000002e+01 7.104515000000000668e+01 2.146454999999999927e+03
3.000000000000000236e-02 1.644869999999999943e-01 2.049504999999999910e+01 7.048645000000000493e+01 2.146295000000000073e+03
3.099999999999999978e-02 1.644674999999999887e-01 1.989305000000000234e+01 6.980760000000000787e+01 2.146104999999999563e+03
3.200000000000000067e-02 1.644404999999999895e-01 1.916320000000000334e+01 6.881999999999999318e+01 2.145860000000000127e+03
3.300000000000000155e-02 1.644039999999999946e-01 1.831354999999999933e+01 6.746009999999999707e+01 2.145525000000000091e+03
3.400000000000000244e-02 1.643600000000000061e-01 1.740319999999999823e+01 6.583124999999999716e+01 2.145114999999999782e+03
3.500000000000000333e-02 1.643114999999999992e-01 1.652955000000000041e+01 6.418545000000000300e+01 2.144659999999999854e+03
3.600000000000000422e-02 1.642669999999999964e-01 1.580255000000000010e+01 6.285179999999999723e+01 2.144239999999999782e+03
3.700000000000000511e-02 1.642345000000000055e-01 1.531429999999999936e+01 6.213885000000000502e+01 2.143930000000000291e+03
3.799999999999999906e-02 1.642220000000000069e-01 1.511410000000000053e+01 6.224314999999999998e+01 2.143784999999999854e+03
3.899999999999999994e-02 1.642315000000000025e-01 1.519695000000000107e+01 6.319320000000000448e+01 2.143855000000000018e+03
4.000000000000000083e-02 1.642620000000000191e-01 1.550539999999999985e+01 6.484205000000000041e+01 2.144125000000000000e+03
4.100000000000000172e-02 1.643100000000000116e-01 1.594425000000000026e+01 6.690404999999999802e+01 2.144559999999999945e+03
4.200000000000000261e-02 1.643654999999999977e-01 1.640090000000000003e+01 6.902029999999999177e+01 2.145074999999999818e+03
4.300000000000000350e-02 1.644205000000000250e-01 1.676695000000000135e+01 7.083244999999999436e+01 2.145595000000000255e+03
4.400000000000000439e-02 1.644660000000000011e-01 1.695470000000000255e+01 7.204675000000000296e+01 2.146025000000000091e+03
4.499999999999999833e-02 1.644935000000000147e-01 1.690740000000000265e+01 7.247460000000000946e+01 2.146300000000000182e+03
4.599999999999999922e-02 1.645000000000000073e-01 1.660135000000000005e+01 7.204625000000000057e+01 2.146375000000000000e+03
4.700000000000000011e-02 1.644835000000000047e-01 1.604214999999999947e+01 7.079959999999999809e+01 2.146234999999999673e+03
4.800000000000000100e-02 1.644444999999999935e-01 1.525649999999999906e+01 6.885134999999999650e+01 2.145875000000000000e+03
4.900000000000000189e-02 1.643860000000000043e-01 1.428330000000000055e+01 6.636090000000000089e+01 2.145335000000000036e+03
5.000000000000000278e-02 1.643120000000000136e-01 1.316531999999999947e+01 6.349745000000000061e+01 2.144644999999999982e+03
5.100000000000000366e-02 1.642264999999999975e-01 1.194468499999999977e+01 6.041599999999999682e+01 2.143845000000000255e+03
5.200000000000000455e-02 1.641334999999999877e-01 1.066011999999999915e+01 5.724640000000000128e+01 2.142970000000000255e+03
5.300000000000000544e-02 1.640365000000000018e-01 9.347870000000000346e+00 5.409279999999999688e+01 2.142055000000000291e+03
5.399999999999999939e-02 1.639390000000000014e-01 8.043279999999999319e+00 5.104144999999999754e+01 2.141135000000000218e+03
5.500000000000000028e-02 1.638435000000000030e-01 6.782955000000000290e+00 4.817105000000000103e+01 2.140230000000000018e+03
5.600000000000000117e-02 1.637529999999999819e-01 5.606340000000000323e+00 4.556204999999999927e+01 2.139369999999999891e+03
5.700000000000000205e-02 1.636704999999999965e-01 4.555550000000000210e+00 4.330204999999999416e+01 2.138590000000000146e+03
5.800000000000000294e-02 1.635989999999999944e-01 3.674209999999999976e+00 4.148550000000000182e+01 2.137900000000000091e+03
5.900000000000000383e-02 1.635415000000000063e-01 3.004775000000000418e+00 4.020865000000000578e+01 2.137345000000000255e+03
6.000000000000000472e-02 1.635014999999999941e-01 2.585359999999999658e+00 3.956125000000000114e+01 2.136945000000000164e+03
6.099999999999999867e-02 1.634805000000000008e-01 2.446400000000000130e+00 3.961645000000000039e+01 2.136730000000000018e+03
6.199999999999999956e-02 1.634815000000000018e-01 2.607909999999999950e+00 4.042215000000000202e+01 2.136720000000000255e+03
6.300000000000000044e-02 1.635054999999999981e-01 3.077675000000000161e+00 4.199455000000000382e+01 2.136925000000000182e+03
6.400000000000000133e-02 1.635535000000000183e-01 3.850610000000000088e+00 4.431550000000000011e+01 2.137355000000000018e+03
6.500000000000000222e-02 1.636245000000000061e-01 4.909285000000000565e+00 4.733384999999999820e+01 2.138000000000000000e+03
6.600000000000000311e-02 1.637164999999999870e-01 6.225394999999999790e+00 5.096909999999999741e+01 2.138849999999999909e+03
6.700000000000000400e-02 1.638279999999999736e-01 7.761944999999999872e+00 5.511865000000000236e+01 2.139885000000000218e+03
6.800000000000000488e-02 1.639554999999999763e-01 9.475905000000000911e+00 5.966564999999999941e+01 2.141069999999999709e+03
6.900000000000000577e-02 1.640960000000000196e-01 1.132110499999999931e+01 6.448765000000000214e+01 2.142385000000000218e+03
7.000000000000000666e-02 1.642460000000000031e-01 1.325096999999999881e+01 6.946500000000000341e+01 2.143800000000000182e+03
7.100000000000000755e-02 1.644015000000000060e-01 1.522134999999999927e+01 7.448850000000000193e+01 2.145270000000000437e+03
7.200000000000000844e-02 1.645590000000000108e-01 1.719269999999999854e+01 7.946549999999999159e+01 2.146769999999999982e+03
7.300000000000000933e-02 1.647170000000000023e-01 1.913214999999999932e+01 8.432464999999999122e+01 2.148274999999999636e+03
7.399999999999999634e-02 1.648720000000000185e-01 2.101440000000000197e+01 8.901830000000001064e+01 2.149760000000000218e+03
7.499999999999999722e-02 1.650240000000000040e-01 2.282229999999999848e+01 9.352320000000000277e+01 2.151220000000000255e+03
7.599999999999999811e-02 1.651710000000000123e-01 2.454674999999999940e+01 9.783735000000000070e+01 2.152635000000000218e+03
7.699999999999999900e-02 1.653135000000000021e-01 2.618560000000000088e+01 1.019780499999999961e+02 2.154014999999999873e+03
7.799999999999999989e-02 1.654519999999999880e-01 2.774230000000000018e+01 1.059759499999999974e+02 2.155345000000000255e+03
7.900000000000000078e-02 1.655865000000000253e-01 2.922420000000000329e+01 1.098689999999999998e+02 2.156649999999999636e+03
8.000000000000000167e-02 1.657180000000000042e-01 3.064065000000000083e+01 1.136949999999999932e+02 2.157929999999999836e+03
8.100000000000000255e-02 1.658479999999999954e-01 3.200150000000000006e+01 1.174909999999999997e+02 2.159195000000000164e+03
8.200000000000000344e-02 1.659770000000000134e-01 3.331550000000000011e+01 1.212829999999999870e+02 2.160444999999999709e+03
8.300000000000000433e-02 1.661060000000000036e-01 3.458935000000000315e+01 1.250900000000000034e+02 2.161699999999999818e+03
8.400000000000000522e-02 1.662349999999999939e-01 3.582699999999999818e+01 1.289164999999999850e+02 2.162954999999999927e+03
8.500000000000000611e-02 1.663644999999999985e-01 3.702939999999999543e+01 1.327570000000000050e+02 2.164215000000000146e+03
8.600000000000000699e-02 1.664940000000000031e-01 3.819429999999999836e+01 1.365964999999999918e+02 2.165474999999999909e+03
8.700000000000000788e-02 1.666229999999999933e-01 3.931669999999999732e+01 1.404085000000000036e+02 2.166730000000000018e+03
8.800000000000000877e-02 1.667500000000000093e-01 4.038904999999999745e+01 1.441625000000000227e+02 2.167974999999999909e+03
8.899999999999999578e-02 1.668755000000000099e-01 4.140209999999999724e+01 1.478215000000000146e+02 2.169199999999999818e+03
8.999999999999999667e-02 1.669979999999999798e-01 4.234505000000000052e+01 1.513480000000000132e+02 2.170399999999999636e+03
9.099999999999999756e-02 1.671155000000000002e-01 4.320624999999999716e+01 1.547030000000000030e+02 2.171550000000000182e+03
9.199999999999999845e-02 1.672279999999999878e-01 4.397409999999999997e+01 1.578485000000000014e+02 2.172650000000000091e+03
9.299999999999999933e-02 1.673334999999999961e-01 4.463725000000000165e+01 1.607495000000000118e+02 2.173690000000000055e+03
9.400000000000000022e-02 1.674304999999999821e-01 4.518545000000000300e+01 1.633760000000000048e+02 2.174655000000000200e+03
9.500000000000000111e-02 1.675194999999999879e-01 4.561010000000000275e+01 1.657010000000000218e+02 2.175529999999999745e+03
9.600000000000000200e-02 1.675989999999999980e-01 4.590474999999999994e+01 1.677069999999999936e+02 2.176319999999999709e+03
9.700000000000000289e-02 1.676680000000000115e-01 4.606570000000000675e+01 1.693834999999999980e+02 2.177005000000000109e+03
9.800000000000000377e-02 1.677270000000000150e-01 4.609224999999999994e+01 1.707264999999999873e+02 2.177595000000000255e+03
9.900000000000000466e-02 1.677755000000000218e-01 4.598714999999999975e+01 1.717429999999999950e+02 2.178079999999999927e+03
1.000000000000000056e-01 1.678129999999999900e-01 4.575625000000000142e+01 1.724479999999999791e+02 2.178465000000000146e+03
1.010000000000000064e-01 1.678414999999999768e-01 4.540870000000000317e+01 1.728645000000000209e+02 2.178750000000000000e+03
1.020000000000000073e-01 1.678594999999999948e-01 4.495635000000000048e+01 1.730219999999999914e+02 2.178949999999999818e+03
1.030000000000000082e-01 1.678704999999999781e-01 4.441325000000000500e+01 1.729569999999999936e+02 2.179065000000000055e+03
1.040000000000000091e-01 1.678739999999999954e-01 4.379495000000000005e+01 1.727065000000000055e+02 2.179105000000000018e+03
1.050000000000000100e-01 1.678705000000000058e-01 4.311799999999999500e+01 1.723125000000000000e+02 2.179085000000000036e+03
1.059999999999999970e-01 1.678629999999999844e-01 4.239875000000000682e+01 1.718120000000000118e+02 2.179019999999999982e+03
1.069999999999999979e-01 1.678514999999999868e-01 4.165319999999999823e+01 1.712445000000000164e+02 2.178909999999999854e+03
1.079999999999999988e-01 1.678370000000000140e-01 4.089585000000000292e+01 1.706415000000000077e+02 2.178769999999999982e+03
1.089999999999999997e-01 1.678215000000000123e-01 4.013954999999999984e+01 1.700305000000000177e+02 2.178619999999999891e+03
1.100000000000000006e-01 1.678050000000000097e-01 3.939480000000000359e+01 1.694339999999999975e+02 2.178460000000000036e+03
1.110000000000000014e-01 1.677879999999999927e-01 3.866979999999999507e+01 1.688665000000000020e+02 2.178300000000000182e+03
1.120000000000000023e-01 1.677715000000000178e-01 3.796979999999999933e+01 1.683365000000000009e+02 2.178135000000000218e+03
1.130000000000000032e-01 1.677555000000000018e-01 3.729749999999999943e+01 1.678460000000000036e+02 2.177979999999999563e+03
1.140000000000000041e-01 1.677405000000000146e-01 3.665299999999999869e+01 1.673894999999999982e+02 2.177829999999999927e+03
1.150000000000000050e-01 1.677265000000000006e-01 3.603379999999999939e+01 1.669574999999999818e+02 2.177680000000000291e+03
1.160000000000000059e-01 1.677120000000000000e-01 3.543540000000000134e+01 1.665339999999999918e+02 2.177545000000000073e+03
1.170000000000000068e-01 1.676980000000000137e-01 3.485134999999999650e+01 1.661020000000000039e+02 2.177400000000000091e+03
1.180000000000000077e-01 1.676829999999999987e-01 3.427425000000000210e+01 1.656390000000000100e+02 2.177255000000000109e+03
1.190000000000000085e-01 1.676670000000000105e-01 3.369554999999999723e+01 1.651235000000000070e+02 2.177095000000000255e+03
1.200000000000000094e-01 1.676489999999999925e-01 3.310675000000000523e+01 1.645339999999999918e+02 2.176920000000000073e+03
1.209999999999999964e-01 1.676290000000000002e-01 3.249960000000000093e+01 1.638505000000000109e+02 2.176725000000000364e+03
1.219999999999999973e-01 1.676060000000000050e-01 3.186680000000000135e+01 1.630550000000000068e+02 2.176494999999999891e+03
1.229999999999999982e-01 1.675790000000000057e-01 3.120235000000000269e+01 1.621359999999999957e+02 2.176235000000000127e+03
1.239999999999999991e-01 1.675484999999999891e-01 3.050205000000000055e+01 1.610854999999999961e+02 2.175934999999999945e+03
1.250000000000000000e-01 1.675139999999999962e-01 2.976379999999999626e+01 1.599005000000000223e+02 2.175600000000000364e+03
1.260000000000000009e-01 1.674749999999999850e-01 2.898780000000000001e+01 1.585865000000000009e+02 2.175230000000000018e+03
1.270000000000000018e-01 1.674324999999999841e-01 2.817660000000000053e+01 1.571525000000000034e+02 2.174809999999999945e+03
1.280000000000000027e-01 1.673860000000000070e-01 2.733514999999999873e+01 1.556145000000000209e+02 2.174364999999999782e+03
1.290000000000000036e-01 1.673370000000000135e-01 2.647044999999999959e+01 1.539950000000000045e+02 2.173880000000000109e+03
1.300000000000000044e-01 1.672845000000000026e-01 2.559134999999999849e+01 1.523190000000000168e+02 2.173375000000000000e+03
1.310000000000000053e-01 1.672310000000000185e-01 2.470814999999999984e+01 1.506150000000000091e+02 2.172850000000000364e+03
1.320000000000000062e-01 1.671759999999999913e-01 2.383204999999999885e+01 1.489139999999999873e+02 2.172320000000000164e+03
1.330000000000000071e-01 1.671219999999999928e-01 2.297460000000000235e+01 1.472459999999999809e+02 2.171789999999999964e+03
1.340000000000000080e-01 1.670679999999999943e-01 2.214714999999999989e+01 1.456415000000000077e+02 2.171265000000000327e+03
1.350000000000000089e-01 1.670165000000000122e-01 2.136039999999999850e+01 1.441270000000000095e+02 2.170755000000000109e+03
1.360000000000000098e-01 1.669670000000000043e-01 2.062369999999999948e+01 1.427259999999999991e+02 2.170275000000000091e+03
1.370000000000000107e-01 1.669215000000000004e-01 1.994510000000000005e+01 1.414565000000000055e+02 2.169824999999999818e+03
1.380000000000000115e-01 1.668795000000000139e-01 1.933030000000000115e+01 1.403324999999999818e+02 2.169414999999999964e+03
1.390000000000000124e-01 1.668419999999999903e-01 1.878340000000000032e+01 1.393614999999999782e+02 2.169045000000000073e+03
1.400000000000000133e-01 1.668094999999999994e-01 1.830624999999999858e+01 1.385459999999999923e+02 2.168720000000000255e+03
1.410000000000000142e-01 1.667814999999999992e-01 1.789860000000000184e+01 1.378824999999999932e+02 2.168440000000000055e+03
1.420000000000000151e-01 1.667575000000000029e-01 1.755850000000000222e+01 1.373654999999999973e+02 2.168204999999999927e+03
1.430000000000000160e-01 1.667389999999999983e-01 1.728235000000000099e+01 1.369830000000000041e+02 2.168014999999999873e+03
1.440000000000000169e-01 1.667239999999999833e-01 1.706510000000000105e+01 1.367219999999999800e+02 2.167864999999999782e+03
1.450000000000000178e-01 1.667130000000000001e-01 1.690090000000000003e+01 1.365674999999999955e+02 2.167755000000000109e+03
1.459999999999999909e-01 1.667059999999999931e-01 1.678300000000000125e+01 1.365009999999999764e+02 2.167675000000000182e+03
1.469999999999999918e-01 1.667015000000000025e-01 1.670425000000000182e+01 1.365080000000000098e+02 2.167625000000000000e+03
1.479999999999999927e-01 1.666989999999999861e-01 1.665745000000000076e+01 1.365709999999999980e+02 2.167600000000000364e+03
1.489999999999999936e-01 1.666989999999999861e-01 1.663560000000000016e+01 1.366744999999999948e+02 2.167595000000000255e+03
1.499999999999999944e-01 1.667000000000000148e-01 1.663194999999999979e+01 1.368045000000000186e+02 2.167605000000000018e+03
1.509999999999999953e-01 1.667024999999999757e-01 1.664015000000000200e+01 1.369474999999999909e+02 2.167619999999999891e+03
1.519999999999999962e-01 1.667055000000000065e-01 1.665479999999999805e+01 1.370935000000000059e+02 2.167650000000000091e+03
1.529999999999999971e-01 1.667089999999999961e-01 1.667110000000000269e+01 1.372340000000000089e+02 2.167680000000000291e+03
1.539999999999999980e-01 1.667124999999999857e-01 1.668505000000000038e+01 1.373620000000000232e+02 2.167710000000000036e+03
1.549999999999999989e-01 1.667155000000000165e-01 1.669375000000000142e+01 1.374724999999999966e+02 2.167744999999999891e+03
1.559999999999999998e-01 1.667184999999999917e-01 1.669519999999999982e+01 1.375634999999999764e+02 2.167769999999999982e+03
1.570000000000000007e-01 1.667210000000000081e-01 1.668805000000000049e+01 1.376345000000000027e+02 2.167795000000000073e+03
1.580000000000000016e-01 1.667230000000000101e-01 1.667204999999999870e+01 1.376864999999999952e+02 2.167815000000000055e+03
1.590000000000000024e-01 1.667244999999999977e-01 1.664754999999999896e+01 1.377220000000000084e+02 2.167829999999999927e+03
