# t [s], A [cm^2], U [cm/s], P [cPa], c [cm/s]
1.000000000000000021e-03 6.238375000000000448e-01 6.503150000000006148e-03 1.059639999999999986e+02 1.714115000000000009e+03
2.000000000000000042e-03 6.238274999999999793e-01 -1.908318050000000011e-03 1.059335000000000093e+02 1.714105000000000018e+03
3.000000000000000062e-03 6.238810000000000189e-01 9.874464999999998938e-02 1.060509999999999877e+02 1.714134999999999991e+03
4.000000000000000083e-03 6.239244999999999930e-01 1.943066549999999948e-01 1.061769999999999925e+02 1.714170000000000073e+03
5.000000000000000104e-03 6.238930000000000309e-01 1.581627500000000186e-01 1.060955000000000013e+02 1.714150000000000091e+03
6.000000000000000125e-03 6.238289999999999669e-01 5.693199999999998262e-02 1.058474999999999966e+02 1.714095000000000027e+03
7.000000000000000146e-03 6.237745000000000095e-01 -3.533700000000000729e-02 1.055444999999999993e+02 1.714025000000000091e+03
8.000000000000000167e-03 6.236835000000000573e-01 -2.106799999999999784e-01 1.050844999999999914e+02 1.713920000000000073e+03
9.000000000000001055e-03 6.235334999999999628e-01 -5.174649999999999528e-01 1.043764999999999930e+02 1.713755000000000109e+03
1.000000000000000194e-02 6.233184999999999976e-01 -9.627499999999999947e-01 1.033665000000000020e+02 1.713519999999999982e+03
1.099999999999999936e-02 6.230160000000000142e-01 -1.576029999999999820e+00 1.019695000000000107e+02 1.713190000000000055e+03
1.200000000000000025e-02 6.226249999999999840e-01 -2.341425000000000090e+00 1.001495500000000050e+02 1.712755000000000109e+03
1.300000000000000114e-02 6.221935000000000660e-01 -3.137935000000000141e+00 9.802639999999999532e+01 1.712235000000000127e+03
1.400000000000000203e-02 6.217939999999999579e-01 -3.787919000000000036e+00 9.584055000000000746e+01 1.711680000000000064e+03
1.499999999999999944e-02 6.214770000000000572e-01 -4.153313999999999950e+00 9.382835000000000036e+01 1.711134999999999991e+03
1.600000000000000033e-02 6.212489999999999402e-01 -4.191304999999999836e+00 9.211490000000000578e+01 1.710650000000000091e+03
1.700000000000000122e-02 6.210769999999999902e-01 -3.949914000000000147e+00 9.068665000000000020e+01 1.710210000000000036e+03
1.800000000000000211e-02 6.209145000000000358e-01 -3.528041500000000052e+00 8.942849999999999966e+01 1.709809999999999945e+03
1.900000000000000300e-02 6.207179999999999920e-01 -3.027773999999999965e+00 8.818789999999999907e+01 1.709409999999999854e+03
2.000000000000000042e-02 6.204655000000000031e-01 -2.517016499999999990e+00 8.683959999999999013e+01 1.708990000000000009e+03
2.100000000000000130e-02 6.201594999999999747e-01 -2.012795000000000112e+00 8.532890000000000441e+01 1.708535000000000082e+03
2.200000000000000219e-02 6.198204999999999965e-01 -1.488540000000000196e+00 8.367875000000000796e+01 1.708045000000000073e+03
2.299999999999999961e-02 6.194775000000000142e-01 -8.994849999999998680e-01 8.196405000000000030e+01 1.707534999999999854e+03
2.400000000000000050e-02 6.191500000000000892e-01 -2.129900000000000126e-01 8.026740000000000919e+01 1.707025000000000091e+03
2.500000000000000139e-02 6.188439999999999497e-01 5.693299999999998917e-01 7.863755000000000450e+01 1.706529999999999973e+03
2.600000000000000228e-02 6.185460000000000402e-01 1.404359999999999831e+00 7.706565000000000509e+01 1.706045000000000073e+03
2.700000000000000316e-02 6.182320000000000038e-01 2.214820000000000455e+00 7.548300000000000409e+01 1.705559999999999945e+03
2.800000000000000058e-02 6.178695000000000714e-01 2.907109999999999861e+00 7.377889999999999304e+01 1.705045000000000073e+03
2.900000000000000147e-02 6.174310000000000631e-01 3.394300000000000317e+00 7.183244999999999436e+01 1.704485000000000127e+03
3.000000000000000236e-02 6.169014999999999915e-01 3.618244999999999933e+00 6.954919999999999902e+01 1.703845000000000027e+03
3.099999999999999978e-02 6.162860000000000005e-01 3.564490000000000158e+00 6.689265000000000327e+01 1.703119999999999891e+03
3.200000000000000067e-02 6.156034999999999702e-01 3.265234999999999665e+00 6.390000000000000568e+01 1.702319999999999936e+03
3.300000000000000155e-02 6.148899999999999366e-01 2.789649999999999519e+00 6.067810000000000059e+01 1.701460000000000036e+03
3.400000000000000244e-02 6.141845000000000221e-01 2.226059999999999484e+00 5.738170000000000215e+01 1.700574999999999818e+03
3.500000000000000333e-02 6.135260000000000158e-01 1.663045000000000329e+00 5.418410000000000082e+01 1.699699999999999818e+03
3.600000000000000422e-02 6.129434999999999745e-01 1.174875000000000558e+00 5.124895000000000067e+01 1.698880000000000109e+03
3.700000000000000511e-02 6.124585000000000168e-01 8.137500000000001954e-01 4.870974999999999966e+01 1.698150000000000091e+03
3.799999999999999906e-02 6.120794999999999986e-01 6.091649999999999565e-01 4.665909999999999513e+01 1.697539999999999964e+03
3.899999999999999994e-02 6.118099999999999650e-01 5.719649999999998347e-01 4.514799999999999613e+01 1.697054999999999836e+03
4.000000000000000083e-02 6.116459999999999120e-01 7.011350000000000637e-01 4.419204999999999472e+01 1.696720000000000027e+03
4.100000000000000172e-02 6.115840000000000165e-01 9.910899999999999155e-01 4.378185000000000571e+01 1.696525000000000091e+03
4.200000000000000261e-02 6.116185000000000649e-01 1.437409999999999854e+00 4.389495000000000147e+01 1.696480000000000018e+03
4.300000000000000350e-02 6.117449999999999832e-01 2.039903499999999870e+00 4.450504999999999711e+01 1.696569999999999936e+03
4.400000000000000439e-02 6.119615000000000471e-01 2.802462799999999810e+00 4.558745000000000402e+01 1.696789999999999964e+03
4.499999999999999833e-02 6.122659999999999769e-01 3.730385000000000062e+00 4.711990000000000123e+01 1.697139999999999873e+03
4.599999999999999922e-02 6.126555000000000195e-01 4.826386499999999913e+00 4.907979999999999876e+01 1.697610000000000127e+03
4.700000000000000011e-02 6.131249999999999201e-01 6.086815500000000156e+00 5.143979999999999819e+01 1.698200000000000045e+03
4.800000000000000100e-02 6.136654999999999749e-01 7.499352499999999644e+00 5.416339999999999577e+01 1.698884999999999991e+03
4.900000000000000189e-02 6.142670000000000075e-01 9.042160000000000863e+00 5.720319999999999538e+01 1.699670000000000073e+03
5.000000000000000278e-02 6.149149999999999894e-01 1.068571999999999989e+01 6.050079999999999814e+01 1.700525000000000091e+03
5.100000000000000366e-02 6.155945000000000444e-01 1.239504999999999946e+01 6.398969999999999914e+01 1.701450000000000045e+03
5.200000000000000455e-02 6.162914999999999921e-01 1.413360999999999912e+01 6.759964999999999691e+01 1.702420000000000073e+03
5.300000000000000544e-02 6.169929999999999026e-01 1.586625000000000085e+01 7.126219999999999288e+01 1.703409999999999854e+03
5.399999999999999939e-02 6.176865000000000272e-01 1.756235000000000213e+01 7.491585000000000605e+01 1.704414999999999964e+03
5.500000000000000028e-02 6.183650000000000535e-01 1.919774999999999920e+01 7.851005000000000678e+01 1.705420000000000073e+03
5.600000000000000117e-02 6.190225000000000311e-01 2.075520000000000209e+01 8.200800000000000978e+01 1.706405000000000200e+03
5.700000000000000205e-02 6.196574999999999722e-01 2.222500000000000142e+01 8.538755000000000450e+01 1.707369999999999891e+03
5.800000000000000294e-02 6.202700000000000990e-01 2.360330000000000084e+01 8.864025000000000887e+01 1.708309999999999945e+03
5.900000000000000383e-02 6.208620000000000250e-01 2.489155000000000229e+01 9.177070000000000505e+01 1.709215000000000146e+03
6.000000000000000472e-02 6.214370000000000172e-01 2.609479999999999933e+01 9.479160000000000252e+01 1.710099999999999909e+03
6.099999999999999867e-02 6.220004999999999562e-01 2.722034999999999982e+01 9.772249999999999659e+01 1.710954999999999927e+03
6.199999999999999956e-02 6.225549999999999695e-01 2.827665000000000006e+01 1.005872500000000116e+02 1.711795000000000073e+03
6.300000000000000044e-02 6.231065000000000076e-01 2.927199999999999847e+01 1.034080999999999904e+02 1.712625000000000000e+03
6.400000000000000133e-02 6.236580000000000457e-01 3.021390000000000242e+01 1.062071500000000128e+02 1.713445000000000164e+03
6.500000000000000222e-02 6.242115000000000302e-01 3.110799999999999699e+01 1.090010000000000048e+02 1.714264999999999873e+03
6.600000000000000311e-02 6.247674999999999201e-01 3.195750000000000313e+01 1.117980000000000018e+02 1.715085000000000036e+03
6.700000000000000400e-02 6.253265000000000073e-01 3.276319999999999766e+01 1.146030000000000086e+02 1.715904999999999973e+03
6.800000000000000488e-02 6.258859999999999424e-01 3.352315000000000111e+01 1.174095000000000084e+02 1.716720000000000027e+03
6.900000000000000577e-02 6.264429999999999721e-01 3.423274999999999579e+01 1.202055000000000007e+02 1.717539999999999964e+03
7.000000000000000666e-02 6.269929999999999115e-01 3.488564999999999827e+01 1.229724999999999966e+02 1.718349999999999909e+03
7.100000000000000755e-02 6.275310000000000610e-01 3.547424999999999784e+01 1.256864999999999952e+02 1.719150000000000091e+03
7.200000000000000844e-02 6.280514999999999848e-01 3.599025000000000318e+01 1.283215000000000146e+02 1.719925000000000182e+03
7.300000000000000933e-02 6.285490000000000244e-01 3.642569999999999908e+01 1.308495000000000061e+02 1.720674999999999955e+03
7.399999999999999634e-02 6.290195000000000647e-01 3.677339999999999520e+01 1.332454999999999927e+02 1.721394999999999982e+03
7.499999999999999722e-02 6.294579999999999620e-01 3.702745000000000175e+01 1.354850000000000136e+02 1.722070000000000164e+03
7.599999999999999811e-02 6.298620000000000330e-01 3.718345000000000056e+01 1.375484999999999900e+02 1.722699999999999818e+03
7.699999999999999900e-02 6.302274999999999405e-01 3.723895000000000266e+01 1.394200000000000159e+02 1.723279999999999973e+03
7.799999999999999989e-02 6.305545000000000178e-01 3.719334999999999525e+01 1.410899999999999750e+02 1.723799999999999955e+03
7.900000000000000078e-02 6.308409999999999851e-01 3.704784999999999684e+01 1.425519999999999925e+02 1.724264999999999873e+03
8.000000000000000167e-02 6.310879999999999823e-01 3.680570000000000164e+01 1.438060000000000116e+02 1.724675000000000182e+03
8.100000000000000255e-02 6.312964999999999272e-01 3.647189999999999799e+01 1.448569999999999993e+02 1.725025000000000091e+03
8.200000000000000344e-02 6.314684999999999881e-01 3.605320000000000391e+01 1.457129999999999939e+02 1.725324999999999818e+03
8.300000000000000433e-02 6.316064999999999596e-01 3.555819999999999936e+01 1.463874999999999886e+02 1.725565000000000055e+03
8.400000000000000522e-02 6.317135000000000389e-01 3.499675000000000580e+01 1.468969999999999914e+02 1.725755000000000109e+03
8.500000000000000611e-02 6.317935000000000079e-01 3.438000000000000256e+01 1.472599999999999909e+02 1.725904999999999973e+03
8.600000000000000699e-02 6.318520000000000802e-01 3.371979999999999933e+01 1.474989999999999952e+02 1.726009999999999991e+03
8.700000000000000788e-02 6.318909999999999805e-01 3.302859999999999729e+01 1.476365000000000123e+02 1.726085000000000036e+03
8.800000000000000877e-02 6.319164999999999921e-01 3.231855000000000189e+01 1.476940000000000168e+02 1.726130000000000109e+03
8.899999999999999578e-02 6.319325000000000081e-01 3.160114999999999696e+01 1.476945000000000050e+02 1.726159999999999854e+03
8.999999999999999667e-02 6.319414999999999338e-01 3.088680000000000092e+01 1.476574999999999989e+02 1.726170000000000073e+03
9.099999999999999756e-02 6.319474999999999953e-01 3.018424999999999869e+01 1.476005000000000109e+02 1.726170000000000073e+03
9.199999999999999845e-02 6.319529999999999870e-01 2.950015000000000143e+01 1.475369999999999777e+02 1.726164999999999964e+03
9.299999999999999933e-02 6.319574999999999498e-01 2.883899999999999864e+01 1.474764999999999873e+02 1.726154999999999973e+03
9.400000000000000022e-02 6.319635000000000113e-01 2.820295000000000130e+01 1.474234999999999900e+02 1.726144999999999982e+03
9.500000000000000111e-02 6.319690000000000030e-01 2.759199999999999875e+01 1.473795000000000073e+02 1.726140000000000100e+03
9.600000000000000200e-02 6.319744999999999946e-01 2.700399999999999778e+01 1.473405000000000200e+02 1.726125000000000000e+03
9.700000000000000289e-02 6.319779999999999287e-01 2.643524999999999991e+01 1.473000000000000114e+02 1.726115000000000009e+03
9.800000000000000377e-02 6.319764999999999411e-01 2.588064999999999927e+01 1.472479999999999905e+02 1.726094999999999800e+03
9.900000000000000466e-02 6.319684999999999331e-01 2.533409999999999940e+01 1.471739999999999782e+02 1.726074999999999818e+03
1.000000000000000056e-01 6.319520000000000692e-01 2.478934999999999889e+01 1.470649999999999977e+02 1.726045000000000073e+03
1.010000000000000064e-01 6.319230000000000125e-01 2.423975000000000080e+01 1.469085000000000036e+02 1.726005000000000109e+03
1.020000000000000073e-01 6.318814999999999849e-01 2.367930000000000135e+01 1.466924999999999955e+02 1.725944999999999936e+03
1.030000000000000082e-01 6.318245000000000111e-01 2.310249999999999915e+01 1.464074999999999989e+02 1.725869999999999891e+03
1.040000000000000091e-01 6.317509999999999515e-01 2.250509999999999877e+01 1.460455000000000041e+02 1.725769999999999982e+03
1.050000000000000100e-01 6.316604999999999581e-01 2.188390000000000057e+01 1.456005000000000109e+02 1.725654999999999973e+03
1.059999999999999970e-01 6.315524999999999611e-01 2.123754999999999882e+01 1.450715000000000146e+02 1.725514999999999873e+03
1.069999999999999979e-01 6.314284999999999481e-01 2.056620000000000203e+01 1.444594999999999914e+02 1.725349999999999909e+03
1.079999999999999988e-01 6.312895000000000589e-01 1.987165000000000248e+01 1.437694999999999936e+02 1.725164999999999964e+03
1.089999999999999997e-01 6.311370000000000591e-01 1.915760000000000218e+01 1.430095000000000027e+02 1.724964999999999918e+03
1.100000000000000006e-01 6.309744999999999937e-01 1.842914999999999992e+01 1.421915000000000191e+02 1.724740000000000009e+03
1.110000000000000014e-01 6.308044999999999902e-01 1.769290000000000163e+01 1.413300000000000125e+02 1.724505000000000109e+03
1.120000000000000023e-01 6.306305000000000938e-01 1.695655000000000001e+01 1.404410000000000025e+02 1.724259999999999991e+03
1.130000000000000032e-01 6.304564999999999753e-01 1.622845000000000226e+01 1.395425000000000182e+02 1.724009999999999991e+03
1.140000000000000041e-01 6.302855000000000540e-01 1.551745000000000019e+01 1.386530000000000200e+02 1.723755000000000109e+03
1.150000000000000050e-01 6.301215000000000011e-01 1.483239999999999981e+01 1.377915000000000134e+02 1.723509999999999991e+03
1.160000000000000059e-01 6.299675000000000136e-01 1.418160999999999916e+01 1.369755000000000109e+02 1.723275000000000091e+03
1.170000000000000068e-01 6.298270000000000257e-01 1.357268499999999989e+01 1.362210000000000036e+02 1.723054999999999836e+03
1.180000000000000077e-01 6.297019999999999840e-01 1.301205500000000015e+01 1.355419999999999732e+02 1.722849999999999909e+03
1.190000000000000085e-01 6.295945000000000569e-01 1.250489999999999924e+01 1.349485000000000241e+02 1.722670000000000073e+03
1.200000000000000094e-01 6.295055000000000511e-01 1.205462999999999951e+01 1.344480000000000075e+02 1.722509999999999991e+03
1.209999999999999964e-01 6.294355000000000366e-01 1.166311500000000123e+01 1.340455000000000041e+02 1.722380000000000109e+03
1.219999999999999973e-01 6.293839999999999435e-01 1.133035999999999888e+01 1.337395000000000209e+02 1.722275000000000091e+03
1.229999999999999982e-01 6.293499999999999650e-01 1.105497500000000066e+01 1.335285000000000082e+02 1.722190000000000055e+03
1.239999999999999991e-01 6.293325000000000724e-01 1.083390499999999967e+01 1.334055000000000177e+02 1.722134999999999991e+03
1.250000000000000000e-01 6.293295000000000972e-01 1.066303999999999874e+01 1.333629999999999995e+02 1.722099999999999909e+03
1.260000000000000009e-01 6.293394999999999406e-01 1.053710999999999842e+01 1.333899999999999864e+02 1.722090000000000146e+03
1.270000000000000018e-01 6.293584999999999319e-01 1.045046500000000123e+01 1.334749999999999943e+02 1.722095000000000027e+03
1.280000000000000027e-01 6.293849999999999723e-01 1.039683000000000135e+01 1.336055000000000064e+02 1.722115000000000009e+03
1.290000000000000036e-01 6.294174999999999631e-01 1.036992000000000047e+01 1.337694999999999936e+02 1.722150000000000091e+03
1.300000000000000044e-01 6.294524999999999704e-01 1.036375999999999920e+01 1.339555000000000007e+02 1.722184999999999945e+03
1.310000000000000053e-01 6.294895000000000351e-01 1.037261499999999970e+01 1.341524999999999750e+02 1.722235000000000127e+03
1.320000000000000062e-01 6.295254999999999601e-01 1.039123000000000019e+01 1.343514999999999873e+02 1.722284999999999854e+03
1.330000000000000071e-01 6.295600000000000085e-01 1.041508999999999929e+01 1.345459999999999923e+02 1.722329999999999927e+03
1.340000000000000080e-01 6.295924999999999994e-01 1.044028499999999937e+01 1.347280000000000086e+02 1.722375000000000000e+03
1.350000000000000089e-01 6.296209999999999862e-01 1.046371500000000054e+01 1.348954999999999984e+02 1.722420000000000073e+03
1.360000000000000098e-01 6.296464999999999979e-01 1.048293499999999945e+01 1.350450000000000159e+02 1.722460000000000036e+03
1.370000000000000107e-01 6.296684999999999643e-01 1.049629000000000012e+01 1.351750000000000114e+02 1.722500000000000000e+03
1.380000000000000115e-01 6.296869999999999967e-01 1.050259499999999946e+01 1.352870000000000061e+02 1.722530000000000200e+03
1.390000000000000124e-01 6.297025000000000539e-01 1.050141499999999972e+01 1.353815000000000168e+02 1.722559999999999945e+03
1.400000000000000133e-01 6.297159999999999425e-01 1.049280500000000060e+01 1.354600000000000080e+02 1.722590000000000146e+03
1.410000000000000142e-01 6.297264999999999668e-01 1.047738000000000014e+01 1.355264999999999986e+02 1.722610000000000127e+03
1.420000000000000151e-01 6.297365000000000324e-01 1.045589999999999975e+01 1.355840000000000032e+02 1.722625000000000000e+03
1.430000000000000160e-01 6.297455000000000691e-01 1.042967499999999959e+01 1.356354999999999791e+02 1.722644999999999982e+03
1.440000000000000169e-01 6.297539999999999250e-01 1.039997499999999953e+01 1.356850000000000023e+02 1.722660000000000082e+03
1.450000000000000178e-01 6.297639999999999905e-01 1.036834499999999970e+01 1.357355000000000018e+02 1.722675000000000182e+03
1.459999999999999909e-01 6.297749999999999737e-01 1.033618500000000040e+01 1.357905000000000086e+02 1.722690000000000055e+03
1.469999999999999918e-01 6.297885000000000844e-01 1.030490999999999957e+01 1.358524999999999920e+02 1.722710000000000036e+03
1.479999999999999927e-01 6.298030000000000017e-01 1.027561000000000035e+01 1.359239999999999782e+02 1.722730000000000018e+03
1.489999999999999936e-01 6.298200000000000465e-01 1.024920999999999971e+01 1.360049999999999955e+02 1.722755000000000109e+03
1.499999999999999944e-01 6.298399999999999554e-01 1.022642000000000095e+01 1.360980000000000132e+02 1.722784999999999854e+03
1.509999999999999953e-01 6.298615000000000741e-01 1.020748999999999995e+01 1.362015000000000100e+02 1.722809999999999945e+03
1.519999999999999962e-01 6.298850000000000282e-01 1.019246000000000052e+01 1.363145000000000095e+02 1.722839999999999918e+03
1.529999999999999971e-01 6.299105000000000398e-01 1.018110000000000070e+01 1.364364999999999952e+02 1.722880000000000109e+03
1.539999999999999980e-01 6.299369999999999692e-01 1.017298500000000061e+01 1.365649999999999977e+02 1.722909999999999854e+03
1.549999999999999989e-01 6.299639999999999684e-01 1.016745500000000035e+01 1.366980000000000075e+02 1.722950000000000045e+03
1.559999999999999998e-01 6.299915000000000376e-01 1.016381499999999960e+01 1.368329999999999984e+02 1.722990000000000009e+03
1.570000000000000007e-01 6.300189999999999957e-01 1.016149500000000039e+01 1.369685000000000059e+02 1.723025000000000091e+03
1.580000000000000016e-01 6.300449999999999662e-01 1.015983999999999909e+01 1.371014999999999873e+02 1.723065000000000055e+03
1.590000000000000024e-01 6.300710000000000477e-01 1.015838000000000108e+01 1.372309999999999945e+02 1.723105000000000018e+03
