# t [s], A [cm^2], U [cm/s], P [cPa], c [cm/s]
1.000000000000000021e-03 7.539080000000000226e-01 5.487050000000000261e-03 1.031604999999999990e+02 1.611014999999999873e+03
2.000000000000000042e-03 7.538949999999999818e-01 -3.467289999999999608e-03 1.031365000000000123e+02 1.611014999999999873e+03
3.000000000000000062e-03 7.539325000000000054e-01 4.843780000000000308e-02 1.031929999999999978e+02 1.611025000000000091e+03
4.000000000000000083e-03 7.539955000000000407e-01 1.412598499999999924e-01 1.033130000000000024e+02 1.611049999999999955e+03
5.000000000000000104e-03 7.540024999999999089e-01 1.656885999999999914e-01 1.033389999999999986e+02 1.611059999999999945e+03
6.000000000000000125e-03 7.539449999999999763e-01 1.012514999999999943e-01 1.032104999999999961e+02 1.611034999999999854e+03
7.000000000000000146e-03 7.538879999999998915e-01 3.407400000000004869e-02 1.030235000000000127e+02 1.610994999999999891e+03
8.000000000000000167e-03 7.538354999999999917e-01 -3.380449999999995958e-02 1.027990000000000066e+02 1.610954999999999927e+03
9.000000000000001055e-03 7.537430000000000518e-01 -1.709284999999999832e-01 1.024610000000000127e+02 1.610884999999999991e+03
1.000000000000000194e-02 7.535965000000000025e-01 -4.030299999999999994e-01 1.019569999999999936e+02 1.610784999999999854e+03
1.099999999999999936e-02 7.533870000000000289e-01 -7.403699999999999726e-01 1.012471500000000049e+02 1.610650000000000091e+03
1.200000000000000025e-02 7.530955000000000288e-01 -1.202465000000000117e+00 1.002757000000000005e+02 1.610454999999999927e+03
1.300000000000000114e-02 7.527215000000000433e-01 -1.778390000000000137e+00 9.901739999999999498e+01 1.610200000000000045e+03
1.400000000000000203e-02 7.523005000000000386e-01 -2.396294999999999842e+00 9.753050000000000352e+01 1.609894999999999982e+03
1.499999999999999944e-02 7.518884999999999597e-01 -2.946854999999999780e+00 9.594259999999999877e+01 1.609559999999999945e+03
1.600000000000000033e-02 7.515304999999999902e-01 -3.333781000000000105e+00 9.439034999999999798e+01 1.609215000000000146e+03
1.700000000000000122e-02 7.512419999999999654e-01 -3.508764499999999842e+00 9.296424999999999272e+01 1.608880000000000109e+03
1.800000000000000211e-02 7.510090000000000376e-01 -3.476424000000000181e+00 9.168795000000000073e+01 1.608565000000000055e+03
1.900000000000000300e-02 7.507995000000000640e-01 -3.278372499999999690e+00 9.052615000000000123e+01 1.608275000000000091e+03
2.000000000000000042e-02 7.505785000000000373e-01 -2.970105500000000287e+00 8.941134999999999877e+01 1.607980000000000018e+03
2.100000000000000130e-02 7.503219999999999335e-01 -2.600375000000000103e+00 8.827340000000000941e+01 1.607684999999999945e+03
2.200000000000000219e-02 7.500200000000000200e-01 -2.197840000000000238e+00 8.706374999999999886e+01 1.607369999999999891e+03
2.299999999999999961e-02 7.496780000000000665e-01 -1.767020000000000035e+00 8.576810000000000400e+01 1.607039999999999964e+03
2.400000000000000050e-02 7.493130000000000068e-01 -1.293635000000000090e+00 8.440620000000001255e+01 1.606695000000000164e+03
2.500000000000000139e-02 7.489449999999999719e-01 -7.566049999999999720e-01 8.301869999999999550e+01 1.606340000000000146e+03
2.600000000000000228e-02 7.485880000000000312e-01 -1.418900000000000716e-01 8.164844999999999686e+01 1.605990000000000009e+03
2.700000000000000316e-02 7.482474999999999543e-01 5.469800000000000217e-01 8.032185000000001196e+01 1.605644999999999982e+03
2.800000000000000058e-02 7.479154999999999553e-01 1.284710000000000019e+00 7.903804999999999836e+01 1.605299999999999955e+03
2.900000000000000147e-02 7.475749999999999895e-01 2.026835000000000164e+00 7.776640000000000441e+01 1.604965000000000146e+03
3.000000000000000236e-02 7.472024999999999917e-01 2.717575000000000074e+00 7.645310000000000628e+01 1.604625000000000000e+03
3.099999999999999978e-02 7.467770000000000241e-01 3.300849999999999618e+00 7.503454999999999586e+01 1.604264999999999873e+03
3.200000000000000067e-02 7.462830000000000297e-01 3.731694999999999762e+00 7.345349999999999113e+01 1.603875000000000000e+03
3.300000000000000155e-02 7.457180000000001030e-01 3.985484999999999722e+00 7.167520000000000380e+01 1.603450000000000045e+03
3.400000000000000244e-02 7.450900000000000301e-01 4.062664999999999971e+00 6.969819999999999993e+01 1.602985000000000127e+03
3.500000000000000333e-02 7.444204999999999295e-01 3.987489999999999757e+00 6.755774999999999864e+01 1.602485000000000127e+03
3.600000000000000422e-02 7.437369999999999814e-01 3.801739999999999675e+00 6.532065000000000055e+01 1.601969999999999800e+03
3.700000000000000511e-02 7.430710000000000370e-01 3.555525000000000269e+00 6.307430000000000803e+01 1.601445000000000164e+03
3.799999999999999906e-02 7.424505000000000132e-01 3.298204999999999831e+00 6.091270000000000095e+01 1.600940000000000055e+03
3.899999999999999994e-02 7.418970000000000287e-01 3.071330000000000116e+00 5.892390000000000327e+01 1.600460000000000036e+03
4.000000000000000083e-02 7.414274999999999061e-01 2.905389999999999695e+00 5.718124999999999858e+01 1.600039999999999964e+03
4.100000000000000172e-02 7.410490000000000688e-01 2.819264999999999688e+00 5.573855000000000359e+01 1.599675000000000182e+03
4.200000000000000261e-02 7.407660000000000355e-01 2.822560000000000180e+00 5.463004999999999711e+01 1.599380000000000109e+03
4.300000000000000350e-02 7.405770000000000408e-01 2.918978000000000073e+00 5.387340000000000373e+01 1.599164999999999964e+03
4.400000000000000439e-02 7.404824999999999324e-01 3.110069999999999890e+00 5.347429999999999950e+01 1.599029999999999973e+03
4.499999999999999833e-02 7.404800000000000271e-01 3.398245000000000182e+00 5.343174999999999386e+01 1.598974999999999909e+03
4.599999999999999922e-02 7.405699999999999505e-01 3.788529999999999731e+00 5.374259999999999593e+01 1.599005000000000109e+03
4.700000000000000011e-02 7.407525000000000359e-01 4.288780000000000037e+00 5.440390000000000015e+01 1.599115000000000009e+03
4.800000000000000100e-02 7.410295000000000076e-01 4.908434999999999881e+00 5.541370000000000573e+01 1.599304999999999836e+03
4.900000000000000189e-02 7.414020000000000055e-01 5.656419999999999781e+00 5.676940000000000452e+01 1.599585000000000036e+03
5.000000000000000278e-02 7.418685000000000418e-01 6.538685000000000080e+00 5.846604999999999563e+01 1.599934999999999945e+03
5.100000000000000366e-02 7.424264999999999892e-01 7.556189999999999962e+00 6.049290000000000589e+01 1.600369999999999891e+03
5.200000000000000455e-02 7.430689999999999795e-01 8.703644999999999854e+00 6.283180000000000121e+01 1.600884999999999991e+03
5.300000000000000544e-02 7.437869999999999759e-01 9.969104999999998995e+00 6.545595000000000141e+01 1.601465000000000146e+03
5.399999999999999939e-02 7.445694999999999952e-01 1.133479999999999954e+01 6.832994999999999663e+01 1.602099999999999909e+03
5.500000000000000028e-02 7.454024999999999679e-01 1.277841999999999878e+01 7.141105000000000302e+01 1.602795000000000073e+03
5.600000000000000117e-02 7.462710000000000177e-01 1.427477000000000018e+01 7.465165000000000362e+01 1.603535000000000082e+03
5.700000000000000205e-02 7.471619999999999928e-01 1.579809500000000000e+01 7.800215000000000032e+01 1.604304999999999836e+03
5.800000000000000294e-02 7.480629999999999225e-01 1.732350499999999727e+01 8.141355000000000075e+01 1.605099999999999909e+03
5.900000000000000383e-02 7.489615000000000578e-01 1.882860000000000156e+01 8.484039999999998827e+01 1.605904999999999973e+03
6.000000000000000472e-02 7.498484999999999179e-01 2.029435000000000144e+01 8.824314999999999998e+01 1.606710000000000036e+03
6.099999999999999867e-02 7.507174999999999265e-01 2.170570000000000022e+01 9.158955000000000268e+01 1.607509999999999991e+03
6.199999999999999956e-02 7.515635000000000510e-01 2.305134999999999934e+01 9.485415000000000418e+01 1.608304999999999836e+03
6.300000000000000044e-02 7.523839999999999417e-01 2.432359999999999900e+01 9.802020000000000266e+01 1.609074999999999818e+03
6.400000000000000133e-02 7.531775000000000553e-01 2.551774999999999949e+01 1.010781499999999937e+02 1.609829999999999927e+03
6.500000000000000222e-02 7.539434999999999887e-01 2.663165000000000049e+01 1.040233499999999935e+02 1.610554999999999836e+03
6.600000000000000311e-02 7.546844999999999803e-01 2.766469999999999985e+01 1.068566000000000003e+02 1.611264999999999873e+03
6.700000000000000400e-02 7.554005000000000303e-01 2.861775000000000091e+01 1.095815000000000055e+02 1.611945000000000164e+03
6.800000000000000488e-02 7.560930000000000151e-01 2.949199999999999733e+01 1.122044999999999959e+02 1.612605000000000018e+03
6.900000000000000577e-02 7.567645000000000621e-01 3.028910000000000124e+01 1.147319999999999993e+02 1.613240000000000009e+03
7.000000000000000666e-02 7.574149999999999494e-01 3.101024999999999920e+01 1.171694999999999993e+02 1.613860000000000127e+03
7.100000000000000755e-02 7.580454999999999277e-01 3.165644999999999953e+01 1.195215000000000032e+02 1.614460000000000036e+03
7.200000000000000844e-02 7.586554999999999271e-01 3.222800000000000153e+01 1.217905000000000086e+02 1.615029999999999973e+03
7.300000000000000933e-02 7.592455000000000176e-01 3.272449999999999903e+01 1.239765000000000015e+02 1.615590000000000146e+03
7.399999999999999634e-02 7.598130000000000717e-01 3.314520000000000266e+01 1.260765000000000100e+02 1.616125000000000000e+03
7.499999999999999722e-02 7.603564999999999907e-01 3.348870000000000147e+01 1.280860000000000127e+02 1.616644999999999982e+03
7.599999999999999811e-02 7.608734999999999804e-01 3.375370000000000203e+01 1.299989999999999952e+02 1.617139999999999873e+03
7.699999999999999900e-02 7.613630000000000120e-01 3.393894999999999840e+01 1.318070000000000164e+02 1.617605000000000018e+03
7.799999999999999989e-02 7.618210000000000814e-01 3.404370000000000118e+01 1.335029999999999859e+02 1.618049999999999955e+03
7.900000000000000078e-02 7.622470000000000079e-01 3.406770000000000209e+01 1.350794999999999959e+02 1.618465000000000146e+03
8.000000000000000167e-02 7.626389999999999558e-01 3.401170000000000471e+01 1.365285000000000082e+02 1.618849999999999909e+03
8.100000000000000255e-02 7.629960000000000075e-01 3.387699999999999534e+01 1.378460000000000036e+02 1.619204999999999927e+03
8.200000000000000344e-02 7.633164999999999534e-01 3.366575000000000273e+01 1.390269999999999868e+02 1.619525000000000091e+03
8.300000000000000433e-02 7.636009999999999742e-01 3.338080000000000069e+01 1.400695000000000050e+02 1.619809999999999945e+03
8.400000000000000522e-02 7.638484999999999303e-01 3.302544999999999931e+01 1.409735000000000014e+02 1.620065000000000055e+03
8.500000000000000611e-02 7.640599999999999614e-01 3.260340000000000060e+01 1.417379999999999995e+02 1.620284999999999854e+03
8.600000000000000699e-02 7.642360000000000264e-01 3.211885000000000190e+01 1.423659999999999854e+02 1.620470000000000027e+03
8.700000000000000788e-02 7.643769999999999731e-01 3.157634999999999792e+01 1.428615000000000066e+02 1.620625000000000000e+03
8.800000000000000877e-02 7.644845000000000113e-01 3.098069999999999879e+01 1.432275000000000205e+02 1.620740000000000009e+03
8.899999999999999578e-02 7.645595000000000585e-01 3.033729999999999905e+01 1.434699999999999989e+02 1.620835000000000036e+03
8.999999999999999667e-02 7.646040000000000614e-01 2.965184999999999960e+01 1.435960000000000036e+02 1.620894999999999982e+03
9.099999999999999756e-02 7.646209999999999951e-01 2.893064999999999998e+01 1.436139999999999759e+02 1.620925000000000182e+03
9.199999999999999845e-02 7.646114999999999995e-01 2.818050000000000210e+01 1.435335000000000036e+02 1.620929999999999836e+03
9.299999999999999933e-02 7.645800000000000374e-01 2.740855000000000175e+01 1.433650000000000091e+02 1.620914999999999964e+03
9.400000000000000022e-02 7.645284999999999442e-01 2.662219999999999942e+01 1.431200000000000045e+02 1.620875000000000000e+03
9.500000000000000111e-02 7.644610000000000571e-01 2.582894999999999897e+01 1.428109999999999786e+02 1.620820000000000164e+03
9.600000000000000200e-02 7.643805000000000183e-01 2.503589999999999804e+01 1.424499999999999886e+02 1.620744999999999891e+03
9.700000000000000289e-02 7.642904999999999838e-01 2.424985000000000213e+01 1.420500000000000114e+02 1.620659999999999854e+03
9.800000000000000377e-02 7.641930000000000112e-01 2.347670000000000101e+01 1.416215000000000259e+02 1.620565000000000055e+03
9.900000000000000466e-02 7.640910000000000757e-01 2.272145000000000081e+01 1.411759999999999877e+02 1.620465000000000146e+03
1.000000000000000056e-01 7.639869999999999717e-01 2.198774999999999835e+01 1.407210000000000036e+02 1.620359999999999900e+03
1.010000000000000064e-01 7.638814999999999911e-01 2.127815000000000012e+01 1.402644999999999982e+02 1.620255000000000109e+03
1.020000000000000073e-01 7.637760000000000105e-01 2.059369999999999834e+01 1.398109999999999786e+02 1.620139999999999873e+03
1.030000000000000082e-01 7.636700000000000710e-01 1.993424999999999869e+01 1.393625000000000114e+02 1.620034999999999854e+03
1.040000000000000091e-01 7.635644999999999794e-01 1.929830000000000112e+01 1.389200000000000159e+02 1.619924999999999955e+03
1.050000000000000100e-01 7.634575000000000111e-01 1.868345000000000056e+01 1.384819999999999993e+02 1.619815000000000055e+03
1.059999999999999970e-01 7.633490000000000553e-01 1.808650000000000091e+01 1.380459999999999923e+02 1.619704999999999927e+03
1.069999999999999979e-01 7.632375000000000131e-01 1.750350000000000250e+01 1.376069999999999993e+02 1.619589999999999918e+03
1.079999999999999988e-01 7.631209999999999383e-01 1.693019999999999925e+01 1.371610000000000014e+02 1.619485000000000127e+03
1.089999999999999997e-01 7.629989999999999828e-01 1.636220000000000141e+01 1.367019999999999982e+02 1.619365000000000009e+03
1.100000000000000006e-01 7.628699999999999370e-01 1.579504999999999981e+01 1.362244999999999777e+02 1.619244999999999891e+03
1.110000000000000014e-01 7.627319999999999656e-01 1.522465000000000046e+01 1.357235000000000014e+02 1.619119999999999891e+03
1.120000000000000023e-01 7.625854999999999162e-01 1.464719999999999978e+01 1.351949999999999932e+02 1.618994999999999891e+03
1.130000000000000032e-01 7.624284999999999535e-01 1.405966000000000093e+01 1.346349999999999909e+02 1.618855000000000018e+03
1.140000000000000041e-01 7.622610000000000774e-01 1.345947499999999941e+01 1.340409999999999968e+02 1.618715000000000146e+03
1.150000000000000050e-01 7.620835000000000248e-01 1.284504000000000090e+01 1.334124999999999943e+02 1.618565000000000055e+03
1.160000000000000059e-01 7.618964999999999765e-01 1.221567500000000095e+01 1.327495000000000118e+02 1.618405000000000200e+03
1.170000000000000068e-01 7.617009999999999614e-01 1.157156499999999966e+01 1.320545000000000186e+02 1.618240000000000009e+03
1.180000000000000077e-01 7.614974999999999383e-01 1.091398500000000027e+01 1.313305000000000007e+02 1.618065000000000055e+03
1.190000000000000085e-01 7.612889999999999935e-01 1.024505999999999872e+01 1.305834999999999866e+02 1.617889999999999873e+03
1.200000000000000094e-01 7.610760000000000858e-01 9.567899999999999849e+00 1.298204999999999814e+02 1.617704999999999927e+03
1.209999999999999964e-01 7.608630000000000670e-01 8.886210000000000164e+00 1.290490000000000066e+02 1.617519999999999982e+03
1.219999999999999973e-01 7.606509999999999661e-01 8.204544999999999533e+00 1.282770000000000152e+02 1.617335000000000036e+03
1.229999999999999982e-01 7.604429999999999801e-01 7.527795000000000236e+00 1.275150000000000148e+02 1.617150000000000091e+03
1.239999999999999991e-01 7.602419999999999733e-01 6.861170000000000435e+00 1.267725000000000080e+02 1.616970000000000027e+03
1.250000000000000000e-01 7.600510000000000321e-01 6.209940000000000460e+00 1.260594999999999999e+02 1.616799999999999955e+03
1.260000000000000009e-01 7.598715000000000330e-01 5.579235000000000610e+00 1.253845000000000027e+02 1.616630000000000109e+03
1.270000000000000018e-01 7.597059999999999924e-01 4.973874999999999602e+00 1.247565000000000026e+02 1.616469999999999800e+03
1.280000000000000027e-01 7.595570000000000377e-01 4.398175000000000168e+00 1.241825000000000045e+02 1.616329999999999927e+03
1.290000000000000036e-01 7.594250000000000167e-01 3.855750000000000011e+00 1.236679999999999922e+02 1.616195000000000164e+03
1.300000000000000044e-01 7.593109999999999582e-01 3.349435000000000162e+00 1.232189999999999941e+02 1.616079999999999927e+03
1.310000000000000053e-01 7.592155000000000431e-01 2.881160000000000387e+00 1.228365000000000009e+02 1.615974999999999909e+03
1.320000000000000062e-01 7.591384999999999383e-01 2.451950000000000074e+00 1.225210000000000008e+02 1.615889999999999873e+03
1.330000000000000071e-01 7.590794999999999071e-01 2.061890000000000001e+00 1.222715000000000032e+02 1.615815000000000055e+03
1.340000000000000080e-01 7.590365000000000029e-01 1.710178500000000046e+00 1.220844999999999914e+02 1.615759999999999991e+03
1.350000000000000089e-01 7.590090000000000447e-01 1.395229999999999970e+00 1.219569999999999936e+02 1.615715000000000146e+03
1.360000000000000098e-01 7.589950000000000863e-01 1.114786500000000125e+00 1.218815000000000026e+02 1.615684999999999945e+03
1.370000000000000107e-01 7.589920000000000000e-01 8.660430000000000073e-01 1.218520000000000039e+02 1.615670000000000073e+03
1.380000000000000115e-01 7.589980000000000615e-01 6.458189999999999209e-01 1.218599999999999994e+02 1.615659999999999854e+03
1.390000000000000124e-01 7.590114999999999501e-01 4.506979999999999875e-01 1.218979999999999961e+02 1.615659999999999854e+03
1.400000000000000133e-01 7.590300000000000935e-01 2.771747999999999990e-01 1.219579999999999984e+02 1.615664999999999964e+03
1.410000000000000142e-01 7.590510000000000312e-01 1.217825000000000019e-01 1.220330000000000013e+02 1.615680000000000064e+03
1.420000000000000151e-01 7.590734999999999566e-01 -1.879949999999999677e-02 1.221144999999999925e+02 1.615690000000000055e+03
1.430000000000000160e-01 7.590954999999999231e-01 -1.476680000000000215e-01 1.221970000000000027e+02 1.615700000000000045e+03
1.440000000000000169e-01 7.591155000000000541e-01 -2.676345500000000266e-01 1.222744999999999891e+02 1.615715000000000146e+03
1.450000000000000178e-01 7.591324999999999878e-01 -3.811876499999999890e-01 1.223414999999999964e+02 1.615735000000000127e+03
1.459999999999999909e-01 7.591455000000000286e-01 -4.904749999999999943e-01 1.223950000000000102e+02 1.615740000000000009e+03
1.469999999999999918e-01 7.591539999999999955e-01 -5.972984999999999545e-01 1.224309999999999974e+02 1.615750000000000000e+03
1.479999999999999927e-01 7.591570000000000817e-01 -7.031164999999999221e-01 1.224484999999999957e+02 1.615755000000000109e+03
1.489999999999999936e-01 7.591550000000000242e-01 -8.090570000000000261e-01 1.224459999999999980e+02 1.615755000000000109e+03
1.499999999999999944e-01 7.591474999999999751e-01 -9.159284999999999233e-01 1.224219999999999970e+02 1.615750000000000000e+03
1.509999999999999953e-01 7.591345000000000454e-01 -1.024253499999999928e+00 1.223769999999999953e+02 1.615740000000000009e+03
1.519999999999999962e-01 7.591164999999999718e-01 -1.134274999999999922e+00 1.223114999999999952e+02 1.615724999999999909e+03
1.529999999999999971e-01 7.590935000000000876e-01 -1.245995000000000186e+00 1.222259999999999991e+02 1.615704999999999927e+03
1.539999999999999980e-01 7.590660000000000185e-01 -1.359210000000000029e+00 1.221219999999999999e+02 1.615684999999999945e+03
1.549999999999999989e-01 7.590339999999999865e-01 -1.473549999999999915e+00 1.220014999999999930e+02 1.615660000000000082e+03
1.559999999999999998e-01 7.589989999999999792e-01 -1.588519999999999932e+00 1.218650000000000091e+02 1.615625000000000000e+03
1.570000000000000007e-01 7.589595000000000091e-01 -1.703535000000000021e+00 1.217150000000000034e+02 1.615594999999999800e+03
1.580000000000000016e-01 7.589175000000000226e-01 -1.818010000000000126e+00 1.215529999999999973e+02 1.615554999999999836e+03
1.590000000000000024e-01 7.588734999999999786e-01 -1.931364999999999998e+00 1.213799999999999955e+02 1.615514999999999873e+03
