# t [s], A [cm^2], U [cm/s], P [cPa], c [cm/s]
1.000000000000000021e-03 1.860669999999999824e-01 3.658115000000000117e-01 8.583355000000000246e+01 2.139840000000000146e+03
2.000000000000000042e-03 1.860080000000000067e-01 1.849200500000000025e+00 8.239825000000000443e+01 2.139315000000000055e+03
3.000000000000000062e-03 1.858670000000000044e-01 3.654451499999999964e+00 7.768699999999999761e+01 2.138099999999999909e+03
4.000000000000000083e-03 1.856869999999999910e-01 5.692842999999999876e+00 7.287109999999999843e+01 2.136559999999999945e+03
5.000000000000000104e-03 1.855050000000000032e-01 7.864544999999999675e+00 6.889529999999999177e+01 2.135019999999999982e+03
6.000000000000000125e-03 1.853365000000000151e-01 9.909525000000000361e+00 6.578399999999999181e+01 2.133619999999999891e+03
7.000000000000000146e-03 1.851820000000000133e-01 1.160444000000000031e+01 6.305485000000000184e+01 2.132360000000000127e+03
8.000000000000000167e-03 1.850450000000000150e-01 1.295909999999999940e+01 6.061280000000000001e+01 2.131264999999999873e+03
9.000000000000001055e-03 1.849300000000000110e-01 1.404459999999999908e+01 5.862730000000000530e+01 2.130359999999999673e+03
1.000000000000000194e-02 1.848385000000000167e-01 1.488380000000000081e+01 5.710625000000000284e+01 2.129644999999999982e+03
1.099999999999999936e-02 1.847670000000000146e-01 1.550145000000000017e+01 5.598690000000000566e+01 2.129095000000000255e+03
1.200000000000000025e-02 1.847145000000000037e-01 1.591324999999999967e+01 5.518359999999999843e+01 2.128699999999999818e+03
1.300000000000000114e-02 1.846734999999999904e-01 1.611659999999999826e+01 5.453095000000000425e+01 2.128400000000000091e+03
1.400000000000000203e-02 1.846404999999999852e-01 1.616900000000000048e+01 5.396340000000000003e+01 2.128159999999999854e+03
1.499999999999999944e-02 1.846200000000000063e-01 1.624549999999999983e+01 5.376760000000000161e+01 2.128029999999999745e+03
1.600000000000000033e-02 1.846274999999999999e-01 1.656745000000000090e+01 5.450430000000000064e+01 2.128094999999999800e+03
1.700000000000000122e-02 1.846754999999999924e-01 1.725560000000000116e+01 5.659445000000000192e+01 2.128474999999999909e+03
1.800000000000000211e-02 1.847655000000000269e-01 1.823400000000000176e+01 5.992879999999999541e+01 2.129184999999999945e+03
1.900000000000000300e-02 1.848834999999999784e-01 1.925294999999999845e+01 6.380239999999999867e+01 2.130119999999999891e+03
2.000000000000000042e-02 1.850025000000000142e-01 2.000225000000000009e+01 6.719310000000000116e+01 2.131079999999999927e+03
2.100000000000000130e-02 1.850954999999999961e-01 2.024534999999999840e+01 6.919480000000000075e+01 2.131845000000000255e+03
2.200000000000000219e-02 1.851415000000000144e-01 1.990939999999999799e+01 6.937944999999999141e+01 2.132250000000000000e+03
2.299999999999999961e-02 1.851369999999999960e-01 1.909774999999999778e+01 6.792830000000000723e+01 2.132255000000000109e+03
2.400000000000000050e-02 1.850924999999999931e-01 1.802779999999999916e+01 6.549719999999999231e+01 2.131930000000000291e+03
2.500000000000000139e-02 1.850279999999999980e-01 1.693175000000000097e+01 6.290460000000000207e+01 2.131425000000000182e+03
2.600000000000000228e-02 1.849620000000000153e-01 1.596855000000000047e+01 6.080075000000000074e+01 2.130904999999999745e+03
2.700000000000000316e-02 1.849095000000000044e-01 1.518180000000000085e+01 5.946134999999999593e+01 2.130470000000000255e+03
2.800000000000000058e-02 1.848724999999999952e-01 1.451079999999999970e+01 5.876354999999999507e+01 2.130164999999999964e+03
2.900000000000000147e-02 1.848460000000000103e-01 1.383930000000000149e+01 5.831870000000000687e+01 2.129944999999999709e+03
3.000000000000000236e-02 1.848190000000000111e-01 1.305845000000000056e+01 5.768260000000000076e+01 2.129734999999999673e+03
3.099999999999999978e-02 1.847825000000000162e-01 1.211950000000000038e+01 5.655880000000000507e+01 2.129449999999999818e+03
3.200000000000000067e-02 1.847325000000000217e-01 1.106154499999999885e+01 5.492855000000000132e+01 2.129059999999999945e+03
3.300000000000000155e-02 1.846730000000000038e-01 1.000397500000000051e+01 5.306770000000000209e+01 2.128590000000000146e+03
3.400000000000000244e-02 1.846140000000000003e-01 9.109880000000000422e+00 5.145165000000000077e+01 2.128114999999999782e+03
3.500000000000000333e-02 1.845704999999999985e-01 8.532170000000000698e+00 5.058670000000000044e+01 2.127760000000000218e+03
3.600000000000000422e-02 1.845554999999999835e-01 8.363445000000000462e+00 5.083220000000000027e+01 2.127619999999999891e+03
3.700000000000000511e-02 1.845764999999999767e-01 8.606495000000000672e+00 5.227639999999999532e+01 2.127760000000000218e+03
3.799999999999999906e-02 1.846325000000000049e-01 9.172109999999999985e+00 5.470260000000000389e+01 2.128180000000000291e+03
3.899999999999999994e-02 1.847130000000000161e-01 9.901305000000000689e+00 5.764430000000000121e+01 2.128804999999999836e+03
4.000000000000000083e-02 1.848039999999999961e-01 1.060228499999999840e+01 6.050140000000000384e+01 2.129519999999999982e+03
4.100000000000000172e-02 1.848869999999999958e-01 1.108964999999999890e+01 6.267705000000000126e+01 2.130179999999999836e+03
4.200000000000000261e-02 1.849445000000000117e-01 1.121689999999999898e+01 6.369660000000000366e+01 2.130650000000000091e+03
4.300000000000000350e-02 1.849629999999999885e-01 1.089564999999999984e+01 6.328300000000000125e+01 2.130815000000000055e+03
4.400000000000000439e-02 1.849359999999999893e-01 1.010082999999999842e+01 6.138040000000000163e+01 2.130619999999999891e+03
4.499999999999999833e-02 1.848619999999999985e-01 8.862980000000000302e+00 5.812850000000000250e+01 2.130055000000000291e+03
4.599999999999999922e-02 1.847459999999999936e-01 7.253170000000000783e+00 5.380485000000000184e+01 2.129150000000000091e+03
4.700000000000000011e-02 1.845959999999999823e-01 5.365020000000000344e+00 4.875499999999999545e+01 2.127965000000000146e+03
4.800000000000000100e-02 1.844224999999999892e-01 3.299690000000000012e+00 4.332999999999999829e+01 2.126595000000000255e+03
4.900000000000000189e-02 1.842360000000000109e-01 1.155320000000000125e+00 3.784345000000000425e+01 2.125109999999999673e+03
5.000000000000000278e-02 1.840459999999999874e-01 -9.776549999999999407e-01 3.255325000000000557e+01 2.123599999999999909e+03
5.100000000000000366e-02 1.838609999999999967e-01 -3.016865000000000130e+00 2.766225000000000023e+01 2.122114999999999782e+03
5.200000000000000455e-02 1.836880000000000179e-01 -4.886190000000000033e+00 2.333230000000000004e+01 2.120734999999999673e+03
5.300000000000000544e-02 1.835335000000000161e-01 -6.513800000000000701e+00 1.970019999999999882e+01 2.119489999999999782e+03
5.399999999999999939e-02 1.834030000000000105e-01 -7.831659999999999400e+00 1.688980000000000103e+01 2.118440000000000055e+03
5.500000000000000028e-02 1.833020000000000205e-01 -8.777290000000000703e+00 1.501604999999999990e+01 2.117605000000000018e+03
5.600000000000000117e-02 1.832334999999999936e-01 -9.297219999999999374e+00 1.417975000000000030e+01 2.117039999999999964e+03
5.700000000000000205e-02 1.832024999999999904e-01 -9.351935000000000997e+00 1.445650000000000013e+01 2.116765000000000327e+03
5.800000000000000294e-02 1.832114999999999994e-01 -8.920284999999999798e+00 1.588329999999999842e+01 2.116800000000000182e+03
5.900000000000000383e-02 1.832610000000000072e-01 -8.002855000000000274e+00 1.844705000000000084e+01 2.117159999999999854e+03
6.000000000000000472e-02 1.833504999999999996e-01 -6.622914999999999885e+00 2.207975000000000065e+01 2.117835000000000036e+03
6.099999999999999867e-02 1.834770000000000012e-01 -4.825050000000000061e+00 2.665990000000000038e+01 2.118814999999999600e+03
6.199999999999999956e-02 1.836369999999999947e-01 -2.671559999999999935e+00 3.202235000000000298e+01 2.120065000000000055e+03
6.300000000000000044e-02 1.838245000000000018e-01 -2.375449999999998951e-01 3.797200000000000131e+01 2.121534999999999854e+03
6.400000000000000133e-02 1.840335000000000165e-01 2.394529999999999603e+00 4.429999999999999716e+01 2.123184999999999945e+03
6.500000000000000222e-02 1.842560000000000031e-01 5.140073499999999740e+00 5.079930000000000234e+01 2.124949999999999818e+03
6.600000000000000311e-02 1.844859999999999833e-01 7.916785000000000849e+00 5.727694999999999936e+01 2.126784999999999854e+03
6.700000000000000400e-02 1.847165000000000057e-01 1.064845500000000023e+01 6.356410000000000338e+01 2.128635000000000218e+03
6.800000000000000488e-02 1.849419999999999953e-01 1.326818499999999901e+01 6.952190000000000225e+01 2.130449999999999818e+03
6.900000000000000577e-02 1.851569999999999883e-01 1.572054999999999936e+01 7.504640000000000555e+01 2.132194999999999709e+03
7.000000000000000666e-02 1.853595000000000104e-01 1.796405000000000030e+01 8.007110000000000127e+01 2.133835000000000036e+03
7.100000000000000755e-02 1.855449999999999877e-01 1.997245000000000203e+01 8.456850000000000023e+01 2.135349999999999909e+03
7.200000000000000844e-02 1.857139999999999902e-01 2.173550000000000182e+01 8.854984999999999218e+01 2.136735000000000127e+03
7.300000000000000933e-02 1.858660000000000034e-01 2.325860000000000127e+01 9.206289999999999907e+01 2.137989999999999782e+03
7.399999999999999634e-02 1.860034999999999883e-01 2.456155000000000044e+01 9.518625000000000114e+01 2.139125000000000000e+03
7.499999999999999722e-02 1.861280000000000157e-01 2.567565000000000097e+01 9.802334999999999354e+01 2.140149999999999636e+03
7.599999999999999811e-02 1.862429999999999919e-01 2.664054999999999751e+01 1.006895499999999970e+02 2.141110000000000127e+03
7.699999999999999900e-02 1.863535000000000053e-01 2.750009999999999977e+01 1.033046999999999969e+02 2.142024999999999636e+03
7.799999999999999989e-02 1.864609999999999879e-01 2.829809999999999803e+01 1.059805000000000064e+02 2.142914999999999964e+03
7.900000000000000078e-02 1.865715000000000012e-01 2.907440000000000069e+01 1.088085000000000093e+02 2.143829999999999927e+03
8.000000000000000167e-02 1.866864999999999775e-01 2.986159999999999926e+01 1.118574999999999875e+02 2.144775000000000091e+03
8.100000000000000255e-02 1.868090000000000028e-01 3.068269999999999698e+01 1.151620000000000061e+02 2.145779999999999745e+03
8.200000000000000344e-02 1.869385000000000074e-01 3.154945000000000022e+01 1.187274999999999920e+02 2.146840000000000146e+03
8.300000000000000433e-02 1.870765000000000067e-01 3.246214999999999407e+01 1.225245000000000033e+02 2.147974999999999909e+03
8.400000000000000522e-02 1.872219999999999995e-01 3.341029999999999944e+01 1.264969999999999999e+02 2.149159999999999854e+03
8.500000000000000611e-02 1.873724999999999974e-01 3.437380000000000280e+01 1.305664999999999907e+02 2.150389999999999873e+03
8.600000000000000699e-02 1.875244999999999829e-01 3.532554999999999978e+01 1.346390000000000100e+02 2.151639999999999873e+03
8.700000000000000788e-02 1.876760000000000095e-01 3.623319999999999652e+01 1.386120000000000232e+02 2.152889999999999873e+03
8.800000000000000877e-02 1.878239999999999910e-01 3.706224999999999881e+01 1.423829999999999814e+02 2.154105000000000018e+03
8.899999999999999578e-02 1.879640000000000200e-01 3.777850000000000108e+01 1.458569999999999993e+02 2.155260000000000218e+03
8.999999999999999667e-02 1.880930000000000102e-01 3.835014999999999930e+01 1.489485000000000241e+02 2.156324999999999818e+03
9.099999999999999756e-02 1.882085000000000008e-01 3.875015000000000498e+01 1.515904999999999916e+02 2.157289999999999964e+03
9.199999999999999845e-02 1.883080000000000032e-01 3.895754999999999768e+01 1.537350000000000136e+02 2.158119999999999891e+03
9.299999999999999933e-02 1.883900000000000019e-01 3.895900000000000318e+01 1.553549999999999898e+02 2.158809999999999945e+03
9.400000000000000022e-02 1.884534999999999960e-01 3.874885000000000446e+01 1.564455000000000098e+02 2.159349999999999909e+03
9.500000000000000111e-02 1.884979999999999989e-01 3.832994999999999663e+01 1.570215000000000032e+02 2.159739999999999782e+03
9.600000000000000200e-02 1.885255000000000125e-01 3.771274999999999977e+01 1.571184999999999832e+02 2.159974999999999909e+03
9.700000000000000289e-02 1.885350000000000081e-01 3.691485000000000127e+01 1.567855000000000132e+02 2.160070000000000164e+03
9.800000000000000377e-02 1.885295000000000165e-01 3.595990000000000464e+01 1.560869999999999891e+02 2.160039999999999964e+03
9.900000000000000466e-02 1.885109999999999841e-01 3.487590000000000146e+01 1.550925000000000011e+02 2.159904999999999745e+03
1.000000000000000056e-01 1.884814999999999963e-01 3.369409999999999883e+01 1.538790000000000191e+02 2.159675000000000182e+03
1.010000000000000064e-01 1.884440000000000004e-01 3.244729999999999848e+01 1.525224999999999795e+02 2.159375000000000000e+03
1.020000000000000073e-01 1.884009999999999851e-01 3.116825000000000045e+01 1.510980000000000132e+02 2.159025000000000091e+03
1.030000000000000082e-01 1.883544999999999803e-01 2.988844999999999885e+01 1.496734999999999900e+02 2.158650000000000091e+03
1.040000000000000091e-01 1.883075000000000165e-01 2.863654999999999973e+01 1.483095000000000141e+02 2.158265000000000327e+03
1.050000000000000100e-01 1.882619999999999849e-01 2.743759999999999977e+01 1.470559999999999832e+02 2.157890000000000327e+03
1.059999999999999970e-01 1.882195000000000118e-01 2.631210000000000093e+01 1.459524999999999864e+02 2.157539999999999964e+03
1.069999999999999979e-01 1.881815000000000015e-01 2.527505000000000024e+01 1.450235000000000127e+02 2.157224999999999909e+03
1.079999999999999988e-01 1.881490000000000107e-01 2.433574999999999733e+01 1.442819999999999823e+02 2.156954999999999927e+03
1.089999999999999997e-01 1.881224999999999981e-01 2.349754999999999683e+01 1.437255000000000109e+02 2.156725000000000364e+03
1.100000000000000006e-01 1.881019999999999914e-01 2.275800000000000267e+01 1.433405000000000200e+02 2.156545000000000073e+03
1.110000000000000014e-01 1.880864999999999898e-01 2.210929999999999751e+01 1.431009999999999991e+02 2.156409999999999854e+03
1.120000000000000023e-01 1.880760000000000209e-01 2.153869999999999862e+01 1.429694999999999823e+02 2.156314999999999600e+03
1.130000000000000032e-01 1.880684999999999996e-01 2.102984999999999971e+01 1.429019999999999868e+02 2.156250000000000000e+03
1.140000000000000041e-01 1.880634999999999946e-01 2.056354999999999933e+01 1.428505000000000109e+02 2.156199999999999818e+03
1.150000000000000050e-01 1.880580000000000029e-01 2.011885000000000190e+01 1.427640000000000100e+02 2.156149999999999636e+03
1.160000000000000059e-01 1.880519999999999969e-01 1.967499999999999716e+01 1.425925000000000011e+02 2.156090000000000146e+03
1.170000000000000068e-01 1.880419999999999869e-01 1.921184999999999832e+01 1.422905000000000086e+02 2.156010000000000218e+03
1.180000000000000077e-01 1.880280000000000007e-01 1.871184999999999832e+01 1.418199999999999932e+02 2.155889999999999873e+03
1.190000000000000085e-01 1.880080000000000084e-01 1.816049999999999898e+01 1.411525000000000034e+02 2.155725000000000364e+03
1.200000000000000094e-01 1.879810000000000092e-01 1.754775000000000063e+01 1.402700000000000102e+02 2.155515000000000327e+03
1.209999999999999964e-01 1.879470000000000030e-01 1.686820000000000164e+01 1.391684999999999945e+02 2.155230000000000018e+03
1.219999999999999973e-01 1.879059999999999897e-01 1.612160000000000082e+01 1.378564999999999827e+02 2.154894999999999982e+03
1.229999999999999982e-01 1.878569999999999962e-01 1.531289999999999907e+01 1.363539999999999850e+02 2.154500000000000000e+03
1.239999999999999991e-01 1.878019999999999967e-01 1.445169999999999888e+01 1.346935000000000002e+02 2.154050000000000182e+03
1.250000000000000000e-01 1.877415000000000056e-01 1.355184999999999995e+01 1.329159999999999968e+02 2.153560000000000400e+03
1.260000000000000009e-01 1.876769999999999827e-01 1.263044999999999973e+01 1.310690000000000168e+02 2.153029999999999745e+03
1.270000000000000018e-01 1.876105000000000134e-01 1.170670499999999947e+01 1.292059999999999889e+02 2.152489999999999782e+03
1.280000000000000027e-01 1.875429999999999875e-01 1.080114000000000019e+01 1.273789999999999907e+02 2.151934999999999945e+03
1.290000000000000036e-01 1.874770000000000048e-01 9.934000000000001052e+00 1.256380000000000052e+02 2.151394999999999982e+03
1.300000000000000044e-01 1.874139999999999973e-01 9.124449999999999505e+00 1.240305000000000035e+02 2.150875000000000000e+03
1.310000000000000053e-01 1.873549999999999938e-01 8.389414999999999623e+00 1.225944999999999965e+02 2.150389999999999873e+03
1.320000000000000062e-01 1.873024999999999829e-01 7.742810000000000414e+00 1.213619999999999948e+02 2.149954999999999927e+03
1.330000000000000071e-01 1.872575000000000212e-01 7.194979999999999265e+00 1.203524999999999920e+02 2.149574999999999818e+03
1.340000000000000080e-01 1.872194999999999832e-01 6.752235000000000653e+00 1.195769999999999982e+02 2.149255000000000109e+03
1.350000000000000089e-01 1.871889999999999943e-01 6.416755000000000209e+00 1.190345000000000084e+02 2.149005000000000109e+03
1.360000000000000098e-01 1.871674999999999867e-01 6.186645000000000394e+00 1.187169999999999987e+02 2.148815000000000055e+03
1.370000000000000107e-01 1.871535000000000004e-01 6.056239999999999846e+00 1.186055000000000064e+02 2.148694999999999709e+03
1.380000000000000115e-01 1.871464999999999934e-01 6.016519999999999868e+00 1.186744999999999948e+02 2.148630000000000109e+03
1.390000000000000124e-01 1.871464999999999934e-01 6.055699999999999861e+00 1.188935000000000031e+02 2.148614999999999782e+03
1.400000000000000133e-01 1.871510000000000118e-01 6.159884999999999167e+00 1.192284999999999968e+02 2.148650000000000091e+03
1.410000000000000142e-01 1.871599999999999930e-01 6.313760000000000261e+00 1.196419999999999959e+02 2.148715000000000146e+03
1.420000000000000151e-01 1.871725000000000194e-01 6.501319999999999766e+00 1.200974999999999966e+02 2.148810000000000400e+03
1.430000000000000160e-01 1.871855000000000047e-01 6.706545000000000201e+00 1.205585000000000093e+02 2.148914999999999964e+03
1.440000000000000169e-01 1.872000000000000053e-01 6.914030000000000342e+00 1.209934999999999974e+02 2.149029999999999745e+03
1.450000000000000178e-01 1.872135000000000049e-01 7.109564999999999912e+00 1.213725000000000023e+02 2.149135000000000218e+03
1.459999999999999909e-01 1.872249999999999748e-01 7.280635000000000190e+00 1.216700000000000017e+02 2.149235000000000127e+03
1.469999999999999918e-01 1.872340000000000115e-01 7.416795000000000471e+00 1.218675000000000068e+02 2.149309999999999945e+03
1.479999999999999927e-01 1.872400000000000175e-01 7.509985000000000355e+00 1.219515000000000100e+02 2.149359999999999673e+03
1.489999999999999936e-01 1.872425000000000062e-01 7.554710000000000036e+00 1.219140000000000015e+02 2.149375000000000000e+03
1.499999999999999944e-01 1.872404999999999764e-01 7.548119999999999941e+00 1.217535000000000025e+02 2.149364999999999782e+03
1.509999999999999953e-01 1.872340000000000115e-01 7.489929999999999310e+00 1.214745000000000061e+02 2.149315000000000055e+03
1.519999999999999962e-01 1.872240000000000015e-01 7.382329999999999615e+00 1.210854999999999961e+02 2.149239999999999782e+03
1.529999999999999971e-01 1.872099999999999875e-01 7.229610000000000092e+00 1.206009999999999991e+02 2.149130000000000109e+03
1.539999999999999980e-01 1.871935000000000127e-01 7.037879999999999470e+00 1.200370000000000061e+02 2.148989999999999782e+03
1.549999999999999989e-01 1.871734999999999927e-01 6.814569999999999794e+00 1.194129999999999967e+02 2.148835000000000036e+03
1.559999999999999998e-01 1.871514999999999984e-01 6.567965000000000053e+00 1.187500000000000000e+02 2.148654999999999745e+03
1.570000000000000007e-01 1.871280000000000165e-01 6.306694999999999496e+00 1.180674999999999955e+02 2.148465000000000146e+03
1.580000000000000016e-01 1.871035000000000059e-01 6.039210000000000633e+00 1.173845000000000027e+02 2.148270000000000437e+03
1.590000000000000024e-01 1.870795000000000097e-01 5.773390000000000022e+00 1.167169999999999987e+02 2.148074999999999818e+03
