# t [s], A [cm^2], U [cm/s], P [cPa], c [cm/s]
1.000000000000000021e-03 1.318239999999999967e-01 2.369689999999999852e-01 8.910200000000000387e+01 1.976255000000000109e+03
2.000000000000000042e-03 1.317975000000000119e-01 1.573828499999999853e+00 8.634690000000000509e+01 1.975950000000000045e+03
3.000000000000000062e-03 1.317149999999999987e-01 3.241714999999999680e+00 8.255729999999999791e+01 1.975029999999999973e+03
4.000000000000000083e-03 1.315970000000000195e-01 5.115894950000000385e+00 7.829890000000000327e+01 1.973730000000000018e+03
5.000000000000000104e-03 1.314645000000000119e-01 7.145859999999999879e+00 7.432120000000000459e+01 1.972289999999999964e+03
6.000000000000000125e-03 1.313334999999999919e-01 9.211935000000000429e+00 7.098709999999999809e+01 1.970875000000000000e+03
7.000000000000000146e-03 1.312095000000000067e-01 1.113195499999999960e+01 6.819265000000000043e+01 1.969555000000000064e+03
8.000000000000000167e-03 1.310939999999999883e-01 1.278710499999999861e+01 6.568944999999999368e+01 1.968349999999999909e+03
9.000000000000001055e-03 1.309885000000000077e-01 1.418244999999999933e+01 6.343845000000000312e+01 1.967275000000000091e+03
1.000000000000000194e-02 1.308975000000000000e-01 1.535749999999999993e+01 6.152499999999999858e+01 1.966344999999999800e+03
1.099999999999999936e-02 1.308205000000000062e-01 1.633095000000000141e+01 5.997204999999999586e+01 1.965574999999999818e+03
1.200000000000000025e-02 1.307570000000000121e-01 1.711514999999999986e+01 5.874484999999999957e+01 1.964940000000000055e+03
1.300000000000000114e-02 1.307065000000000032e-01 1.771900000000000119e+01 5.778645000000000209e+01 1.964444999999999936e+03
1.400000000000000203e-02 1.306650000000000034e-01 1.814305000000000234e+01 5.700615000000000521e+01 1.964049999999999955e+03
1.499999999999999944e-02 1.306309999999999971e-01 1.840120000000000289e+01 5.631869999999999976e+01 1.963724999999999909e+03
1.600000000000000033e-02 1.306029999999999969e-01 1.855584999999999951e+01 5.574875000000000114e+01 1.963470000000000027e+03
1.700000000000000122e-02 1.305844999999999922e-01 1.871965000000000146e+01 5.548489999999999611e+01 1.963299999999999955e+03
1.800000000000000211e-02 1.305804999999999882e-01 1.901254999999999740e+01 5.580445000000000277e+01 1.963275000000000091e+03
1.900000000000000300e-02 1.305965000000000042e-01 1.950300000000000011e+01 5.690950000000000131e+01 1.963445000000000164e+03
2.000000000000000042e-02 1.306344999999999867e-01 2.017214999999999847e+01 5.878779999999999717e+01 1.963820000000000164e+03
2.100000000000000130e-02 1.306889999999999996e-01 2.092014999999999958e+01 6.117795000000000272e+01 1.964380000000000109e+03
2.200000000000000219e-02 1.307530000000000081e-01 2.160419999999999874e+01 6.364804999999999779e+01 1.965034999999999854e+03
2.299999999999999961e-02 1.308155000000000012e-01 2.208980000000000032e+01 6.573895000000000266e+01 1.965684999999999945e+03
2.400000000000000050e-02 1.308664999999999967e-01 2.229274999999999807e+01 6.710800000000000409e+01 1.966224999999999909e+03
2.500000000000000139e-02 1.309005000000000030e-01 2.219960000000000022e+01 6.762000000000000455e+01 1.966589999999999918e+03
2.600000000000000228e-02 1.309150000000000036e-01 2.186144999999999783e+01 6.736140000000000327e+01 1.966769999999999982e+03
2.700000000000000316e-02 1.309134999999999882e-01 2.136880000000000024e+01 6.658164999999999623e+01 1.966775000000000091e+03
2.800000000000000058e-02 1.309015000000000040e-01 2.081665000000000276e+01 6.559045000000000414e+01 1.966664999999999964e+03
2.900000000000000147e-02 1.308850000000000013e-01 2.027479999999999905e+01 6.465279999999999916e+01 1.966505000000000109e+03
3.000000000000000236e-02 1.308684999999999987e-01 1.977104999999999890e+01 6.391570000000000107e+01 1.966335000000000036e+03
3.099999999999999978e-02 1.308535000000000115e-01 1.929194999999999993e+01 6.338584999999999781e+01 1.966184999999999945e+03
3.200000000000000067e-02 1.308409999999999851e-01 1.879605000000000103e+01 6.295624999999999716e+01 1.966050000000000182e+03
3.300000000000000155e-02 1.308269999999999988e-01 1.823539999999999850e+01 6.246569999999999823e+01 1.965909999999999854e+03
3.400000000000000244e-02 1.308090000000000086e-01 1.757710000000000150e+01 6.176899999999999835e+01 1.965735000000000127e+03
3.500000000000000333e-02 1.307854999999999990e-01 1.681940000000000168e+01 6.079720000000000368e+01 1.965494999999999891e+03
3.600000000000000422e-02 1.307550000000000101e-01 1.599750000000000050e+01 5.959085000000000321e+01 1.965195000000000164e+03
3.700000000000000511e-02 1.307200000000000029e-01 1.517855000000000132e+01 5.829829999999999757e+01 1.964849999999999909e+03
3.799999999999999906e-02 1.306859999999999966e-01 1.444620000000000104e+01 5.714034999999999798e+01 1.964500000000000000e+03
3.899999999999999994e-02 1.306574999999999820e-01 1.388060000000000116e+01 5.635240000000000293e+01 1.964210000000000036e+03
4.000000000000000083e-02 1.306404999999999927e-01 1.353889999999999993e+01 5.612284999999999968e+01 1.964019999999999982e+03
4.100000000000000172e-02 1.306380000000000041e-01 1.344225000000000136e+01 5.654354999999999620e+01 1.963984999999999900e+03
4.200000000000000261e-02 1.306525000000000047e-01 1.357089999999999996e+01 5.758644999999999925e+01 1.964105000000000018e+03
4.300000000000000350e-02 1.306805000000000050e-01 1.386929999999999907e+01 5.910974999999999824e+01 1.964384999999999991e+03
4.400000000000000439e-02 1.307204999999999895e-01 1.425730000000000075e+01 6.088684999999999548e+01 1.964775000000000091e+03
4.499999999999999833e-02 1.307655000000000067e-01 1.464484999999999992e+01 6.265129999999999910e+01 1.965224999999999909e+03
4.599999999999999922e-02 1.308090000000000086e-01 1.494640000000000057e+01 6.414320000000000732e+01 1.965670000000000073e+03
4.700000000000000011e-02 1.308455000000000035e-01 1.509224999999999994e+01 6.514950000000000330e+01 1.966039999999999964e+03
4.800000000000000100e-02 1.308690000000000131e-01 1.503580000000000005e+01 6.552965000000000373e+01 1.966284999999999854e+03
4.900000000000000189e-02 1.308769999999999933e-01 1.475534999999999997e+01 6.522544999999999504e+01 1.966380000000000109e+03
5.000000000000000278e-02 1.308670000000000111e-01 1.425205000000000055e+01 6.425565000000000282e+01 1.966289999999999964e+03
5.100000000000000366e-02 1.308404999999999985e-01 1.354485000000000028e+01 6.269889999999999475e+01 1.966029999999999973e+03
5.200000000000000455e-02 1.307979999999999976e-01 1.266430000000000078e+01 6.067114999999999725e+01 1.965610000000000127e+03
5.300000000000000544e-02 1.307429999999999981e-01 1.164664499999999947e+01 5.830365000000000464e+01 1.965059999999999945e+03
5.399999999999999939e-02 1.306780000000000164e-01 1.052937000000000012e+01 5.572459999999999525e+01 1.964394999999999982e+03
5.500000000000000028e-02 1.306054999999999855e-01 9.348739999999999384e+00 5.304824999999999591e+01 1.963664999999999964e+03
5.600000000000000117e-02 1.305295000000000205e-01 8.138849999999999696e+00 5.037115000000000009e+01 1.962900000000000091e+03
5.700000000000000205e-02 1.304524999999999990e-01 6.932699999999999640e+00 4.777394999999999925e+01 1.962115000000000009e+03
5.800000000000000294e-02 1.303765000000000063e-01 5.762889999999999624e+00 4.532685000000000031e+01 1.961335000000000036e+03
5.900000000000000383e-02 1.303040000000000032e-01 4.663160000000000416e+00 4.309615000000000151e+01 1.960590000000000146e+03
6.000000000000000472e-02 1.302369999999999917e-01 3.668815000000000381e+00 4.114884999999999593e+01 1.959904999999999973e+03
6.099999999999999867e-02 1.301780000000000159e-01 2.816497999999999724e+00 3.955549999999999500e+01 1.959295000000000073e+03
6.199999999999999956e-02 1.301289999999999947e-01 2.143057499999999838e+00 3.838925000000000409e+01 1.958784999999999854e+03
6.300000000000000044e-02 1.300919999999999854e-01 1.683699499999999905e+00 3.772270000000000323e+01 1.958404999999999973e+03
6.400000000000000133e-02 1.300704999999999778e-01 1.469722999999999891e+00 3.762205000000000155e+01 1.958164999999999964e+03
6.500000000000000222e-02 1.300649999999999862e-01 1.526264999999999983e+00 3.814150000000000063e+01 1.958095000000000027e+03
6.600000000000000311e-02 1.300775000000000126e-01 1.870324999999999793e+00 3.931725000000000136e+01 1.958204999999999927e+03
6.700000000000000400e-02 1.301094999999999891e-01 2.509454999999999991e+00 4.116339999999999577e+01 1.958505000000000109e+03
6.800000000000000488e-02 1.301605000000000123e-01 3.441105000000000302e+00 4.367005000000000337e+01 1.959005000000000109e+03
6.900000000000000577e-02 1.302309999999999857e-01 4.652809999999999668e+00 4.680284999999999940e+01 1.959704999999999927e+03
7.000000000000000666e-02 1.303199999999999914e-01 6.122980000000000089e+00 5.050565000000000282e+01 1.960590000000000146e+03
7.100000000000000755e-02 1.304260000000000141e-01 7.822255000000000180e+00 5.470409999999999684e+01 1.961660000000000082e+03
7.200000000000000844e-02 1.305469999999999964e-01 9.715080000000000382e+00 5.931020000000000181e+01 1.962880000000000109e+03
7.300000000000000933e-02 1.306809999999999916e-01 1.176189500000000088e+01 6.422794999999999277e+01 1.964230000000000018e+03
7.399999999999999634e-02 1.308239999999999958e-01 1.392067499999999924e+01 6.935845000000000482e+01 1.965690000000000055e+03
7.499999999999999722e-02 1.309750000000000081e-01 1.614925000000000210e+01 7.460524999999999807e+01 1.967235000000000127e+03
7.599999999999999811e-02 1.311304999999999832e-01 1.840709999999999980e+01 7.987879999999999825e+01 1.968825000000000045e+03
7.699999999999999900e-02 1.312885000000000024e-01 2.065695000000000192e+01 8.510079999999999245e+01 1.970445000000000164e+03
7.799999999999999989e-02 1.314454999999999929e-01 2.286625000000000085e+01 9.020714999999999861e+01 1.972069999999999936e+03
7.900000000000000078e-02 1.316010000000000235e-01 2.500835000000000008e+01 9.515049999999999386e+01 1.973675000000000182e+03
8.000000000000000167e-02 1.317520000000000080e-01 2.706320000000000192e+01 9.990014999999999645e+01 1.975250000000000000e+03
8.100000000000000255e-02 1.318995000000000029e-01 2.901715000000000089e+01 1.044433500000000095e+02 1.976789999999999964e+03
8.200000000000000344e-02 1.320419999999999927e-01 3.086299999999999955e+01 1.087824999999999989e+02 1.978275000000000091e+03
8.300000000000000433e-02 1.321789999999999909e-01 3.259924999999999784e+01 1.129319999999999879e+02 1.979710000000000036e+03
8.400000000000000522e-02 1.323109999999999842e-01 3.422885000000000133e+01 1.169164999999999992e+02 1.981099999999999909e+03
8.500000000000000611e-02 1.324394999999999878e-01 3.575789999999999935e+01 1.207640000000000100e+02 1.982445000000000164e+03
8.600000000000000699e-02 1.325635000000000008e-01 3.719459999999999411e+01 1.245065000000000026e+02 1.983755000000000109e+03
8.700000000000000788e-02 1.326849999999999974e-01 3.854760000000000275e+01 1.281705000000000041e+02 1.985034999999999854e+03
8.800000000000000877e-02 1.328034999999999910e-01 3.982515000000000072e+01 1.317789999999999964e+02 1.986289999999999964e+03
8.899999999999999578e-02 1.329204999999999970e-01 4.103425000000000011e+01 1.353489999999999895e+02 1.987525000000000091e+03
8.999999999999999667e-02 1.330359999999999876e-01 4.217974999999999852e+01 1.388860000000000241e+02 1.988750000000000000e+03
9.099999999999999756e-02 1.331505000000000050e-01 4.326420000000000243e+01 1.423894999999999982e+02 1.989960000000000036e+03
9.199999999999999845e-02 1.332635000000000070e-01 4.428780000000000427e+01 1.458505000000000109e+02 1.991150000000000091e+03
9.299999999999999933e-02 1.333749999999999936e-01 4.524840000000000373e+01 1.492524999999999977e+02 1.992329999999999927e+03
9.400000000000000022e-02 1.334839999999999915e-01 4.614175000000000182e+01 1.525724999999999909e+02 1.993489999999999782e+03
9.500000000000000111e-02 1.335905000000000009e-01 4.696195000000000164e+01 1.557869999999999777e+02 1.994619999999999891e+03
9.600000000000000200e-02 1.336935000000000207e-01 4.770180000000000575e+01 1.588659999999999854e+02 1.995714999999999918e+03
9.700000000000000289e-02 1.337924999999999809e-01 4.835325000000000273e+01 1.617810000000000059e+02 1.996769999999999982e+03
9.800000000000000377e-02 1.338865000000000194e-01 4.890805000000000291e+01 1.645035000000000025e+02 1.997769999999999982e+03
9.900000000000000466e-02 1.339744999999999964e-01 4.935800000000000409e+01 1.670065000000000168e+02 1.998710000000000036e+03
1.000000000000000056e-01 1.340560000000000085e-01 4.969554999999999723e+01 1.692665000000000077e+02 1.999585000000000036e+03
1.010000000000000064e-01 1.341299999999999992e-01 4.991429999999999723e+01 1.712624999999999886e+02 2.000380000000000109e+03
1.020000000000000073e-01 1.341964999999999963e-01 5.000925000000000153e+01 1.729799999999999898e+02 2.001095000000000027e+03
1.030000000000000082e-01 1.342539999999999845e-01 4.997740000000000293e+01 1.744074999999999989e+02 2.001720000000000027e+03
1.040000000000000091e-01 1.343030000000000057e-01 4.981770000000000209e+01 1.755425000000000182e+02 2.002250000000000000e+03
1.050000000000000100e-01 1.343439999999999912e-01 4.953175000000000239e+01 1.763845000000000027e+02 2.002695000000000164e+03
1.059999999999999970e-01 1.343755000000000088e-01 4.912340000000000373e+01 1.769420000000000073e+02 2.003045000000000073e+03
1.069999999999999979e-01 1.343984999999999763e-01 4.859919999999999618e+01 1.772300000000000182e+02 2.003295000000000073e+03
1.079999999999999988e-01 1.344134999999999913e-01 4.796819999999999595e+01 1.772669999999999959e+02 2.003465000000000146e+03
1.089999999999999997e-01 1.344200000000000117e-01 4.724129999999999541e+01 1.770780000000000030e+02 2.003550000000000182e+03
1.100000000000000006e-01 1.344204999999999983e-01 4.643139999999999645e+01 1.766924999999999955e+02 2.003559999999999945e+03
1.110000000000000014e-01 1.344144999999999923e-01 4.555259999999999820e+01 1.761409999999999911e+02 2.003505000000000109e+03
1.120000000000000023e-01 1.344029999999999947e-01 4.461979999999999791e+01 1.754574999999999818e+02 2.003394999999999982e+03
1.130000000000000032e-01 1.343869999999999787e-01 4.364820000000000277e+01 1.746730000000000018e+02 2.003235000000000127e+03
1.140000000000000041e-01 1.343675000000000008e-01 4.265264999999999418e+01 1.738215000000000146e+02 2.003035000000000082e+03
1.150000000000000050e-01 1.343459999999999932e-01 4.164730000000000132e+01 1.729304999999999950e+02 2.002809999999999945e+03
1.160000000000000059e-01 1.343219999999999970e-01 4.064475000000000193e+01 1.720269999999999868e+02 2.002554999999999836e+03
1.170000000000000068e-01 1.342975000000000141e-01 3.965619999999999834e+01 1.711324999999999932e+02 2.002295000000000073e+03
1.180000000000000077e-01 1.342724999999999891e-01 3.869095000000000084e+01 1.702640000000000100e+02 2.002034999999999854e+03
1.190000000000000085e-01 1.342474999999999918e-01 3.775594999999999857e+01 1.694339999999999975e+02 2.001769999999999982e+03
1.200000000000000094e-01 1.342234999999999956e-01 3.685620000000000118e+01 1.686490000000000009e+02 2.001514999999999873e+03
1.209999999999999964e-01 1.341999999999999860e-01 3.599419999999999931e+01 1.679110000000000014e+02 2.001264999999999873e+03
1.219999999999999973e-01 1.341780000000000195e-01 3.517034999999999911e+01 1.672175000000000011e+02 2.001025000000000091e+03
1.229999999999999982e-01 1.341565000000000119e-01 3.438299999999999557e+01 1.665620000000000118e+02 2.000795000000000073e+03
1.239999999999999991e-01 1.341360000000000052e-01 3.362879999999999825e+01 1.659329999999999927e+02 2.000575000000000045e+03
1.250000000000000000e-01 1.341160000000000130e-01 3.290265000000000128e+01 1.653179999999999836e+02 2.000355000000000018e+03
1.260000000000000009e-01 1.340959999999999930e-01 3.219834999999999781e+01 1.647004999999999768e+02 2.000139999999999873e+03
1.270000000000000018e-01 1.340764999999999874e-01 3.150890000000000057e+01 1.640639999999999930e+02 1.999929999999999836e+03
1.280000000000000027e-01 1.340554999999999941e-01 3.082665000000000077e+01 1.633915000000000077e+02 1.999710000000000036e+03
1.290000000000000036e-01 1.340334999999999999e-01 3.014414999999999978e+01 1.626659999999999968e+02 1.999469999999999800e+03
1.300000000000000044e-01 1.340105000000000046e-01 2.945404999999999873e+01 1.618725000000000023e+02 1.999224999999999909e+03
1.310000000000000053e-01 1.339849999999999930e-01 2.874980000000000047e+01 1.609970000000000141e+02 1.998954999999999927e+03
1.320000000000000062e-01 1.339575000000000071e-01 2.802564999999999884e+01 1.600300000000000011e+02 1.998659999999999854e+03
1.330000000000000071e-01 1.339269999999999905e-01 2.727734999999999843e+01 1.589635000000000105e+02 1.998340000000000146e+03
1.340000000000000080e-01 1.338940000000000130e-01 2.650204999999999700e+01 1.577939999999999827e+02 1.997990000000000009e+03
1.350000000000000089e-01 1.338580000000000048e-01 2.569845000000000113e+01 1.565215000000000032e+02 1.997610000000000127e+03
1.360000000000000098e-01 1.338190000000000213e-01 2.486704999999999899e+01 1.551514999999999986e+02 1.997194999999999936e+03
1.370000000000000107e-01 1.337769999999999793e-01 2.401004999999999967e+01 1.536914999999999907e+02 1.996755000000000109e+03
1.380000000000000115e-01 1.337325000000000041e-01 2.313129999999999953e+01 1.521535000000000082e+02 1.996289999999999964e+03
1.390000000000000124e-01 1.336855000000000127e-01 2.223624999999999829e+01 1.505529999999999973e+02 1.995795000000000073e+03
1.400000000000000133e-01 1.336370000000000058e-01 2.133165000000000333e+01 1.489080000000000155e+02 1.995280000000000200e+03
1.410000000000000142e-01 1.335870000000000113e-01 2.042530000000000001e+01 1.472390000000000043e+02 1.994755000000000109e+03
1.420000000000000151e-01 1.335355000000000014e-01 1.952580000000000027e+01 1.455674999999999955e+02 1.994215000000000146e+03
1.430000000000000160e-01 1.334845000000000059e-01 1.864199999999999946e+01 1.439139999999999873e+02 1.993679999999999836e+03
1.440000000000000169e-01 1.334339999999999971e-01 1.778300000000000125e+01 1.423014999999999759e+02 1.993139999999999873e+03
1.450000000000000178e-01 1.333840000000000026e-01 1.695730000000000004e+01 1.407500000000000000e+02 1.992619999999999891e+03
1.459999999999999909e-01 1.333360000000000101e-01 1.617300000000000182e+01 1.392769999999999868e+02 1.992110000000000127e+03
1.469999999999999918e-01 1.332904999999999784e-01 1.543694999999999951e+01 1.378985000000000127e+02 1.991625000000000000e+03
1.479999999999999927e-01 1.332470000000000043e-01 1.475510000000000055e+01 1.366264999999999930e+02 1.991164999999999964e+03
1.489999999999999936e-01 1.332059999999999911e-01 1.413175000000000026e+01 1.354699999999999989e+02 1.990735000000000127e+03
1.499999999999999944e-01 1.331694999999999962e-01 1.356974999999999909e+01 1.344339999999999975e+02 1.990340000000000146e+03
1.509999999999999953e-01 1.331354999999999900e-01 1.307049999999999912e+01 1.335204999999999984e+02 1.989980000000000018e+03
1.519999999999999962e-01 1.331054999999999877e-01 1.263374999999999915e+01 1.327264999999999873e+02 1.989655000000000200e+03
1.529999999999999971e-01 1.330790000000000028e-01 1.225799999999999912e+01 1.320475000000000136e+02 1.989369999999999891e+03
1.539999999999999980e-01 1.330554999999999932e-01 1.194020000000000081e+01 1.314759999999999991e+02 1.989119999999999891e+03
1.549999999999999989e-01 1.330350000000000144e-01 1.167650000000000077e+01 1.310015000000000214e+02 1.988905000000000200e+03
1.559999999999999998e-01 1.330180000000000251e-01 1.146194999999999986e+01 1.306134999999999877e+02 1.988720000000000027e+03
1.570000000000000007e-01 1.330034999999999967e-01 1.129080000000000084e+01 1.302980000000000018e+02 1.988559999999999945e+03
1.580000000000000016e-01 1.329909999999999981e-01 1.115714999999999968e+01 1.300420000000000016e+02 1.988420000000000073e+03
1.590000000000000024e-01 1.329805000000000015e-01 1.105460000000000065e+01 1.298324999999999818e+02 1.988309999999999945e+03
