# t [s], A [cm^2], U [cm/s], P [cPa], c [cm/s]
1.000000000000000021e-03 6.488175000000000470e-01 5.271999999999998909e-03 1.073780000000000001e+02 1.715224999999999909e+03
2.000000000000000042e-03 6.488119999999999443e-01 7.710749999999999722e-03 1.073534999999999968e+02 1.715219999999999800e+03
3.000000000000000062e-03 6.488834999999999464e-01 1.428160499999999999e-01 1.075114999999999981e+02 1.715259999999999991e+03
4.000000000000000083e-03 6.489145000000000607e-01 2.179154999999999842e-01 1.076059999999999945e+02 1.715284999999999854e+03
5.000000000000000104e-03 6.488564999999999472e-01 1.352125000000000132e-01 1.074325000000000045e+02 1.715244999999999891e+03
6.000000000000000125e-03 6.487834999999999575e-01 1.560000000000000275e-02 1.071069999999999993e+02 1.715174999999999955e+03
7.000000000000000146e-03 6.486989999999999146e-01 -1.381299999999999750e-01 1.066594999999999942e+02 1.715075000000000045e+03
8.000000000000000167e-03 6.485454999999999970e-01 -4.383799999999999919e-01 1.059364999999999952e+02 1.714914999999999964e+03
9.000000000000001055e-03 6.483125000000000693e-01 -9.016349999999999643e-01 1.048609999999999900e+02 1.714675000000000182e+03
1.000000000000000194e-02 6.479865000000000208e-01 -1.541565000000000074e+00 1.033610500000000059e+02 1.714335000000000036e+03
1.099999999999999936e-02 6.475450000000000372e-01 -2.377240000000000020e+00 1.013484499999999997e+02 1.713875000000000000e+03
1.200000000000000025e-02 6.470164999999999944e-01 -3.325090000000000323e+00 9.887430000000000518e+01 1.713289999999999964e+03
1.300000000000000114e-02 6.464860000000000051e-01 -4.184454999999999814e+00 9.619230000000000302e+01 1.712639999999999873e+03
1.400000000000000203e-02 6.460414999999999353e-01 -4.745448500000000180e+00 9.363984999999999559e+01 1.711985000000000127e+03
1.499999999999999944e-02 6.457205000000000306e-01 -4.897031500000000648e+00 9.146784999999999854e+01 1.711394999999999982e+03
1.600000000000000033e-02 6.455020000000000202e-01 -4.658290000000000042e+00 8.974430000000000973e+01 1.710884999999999991e+03
1.700000000000000122e-02 6.453305000000000291e-01 -4.143679999999999808e+00 8.836500000000000909e+01 1.710444999999999936e+03
1.800000000000000211e-02 6.451409999999999645e-01 -3.500179999999999847e+00 8.712604999999999222e+01 1.710035000000000082e+03
1.900000000000000300e-02 6.448895000000000044e-01 -2.846298500000000065e+00 8.582089999999999463e+01 1.709625000000000000e+03
2.000000000000000042e-02 6.445639999999999148e-01 -2.234015000000000306e+00 8.432150000000000034e+01 1.709170000000000073e+03
2.100000000000000130e-02 6.441839999999999788e-01 -1.646585000000000187e+00 8.261209999999999809e+01 1.708674999999999955e+03
2.200000000000000219e-02 6.437855000000000105e-01 -1.029320000000000013e+00 8.076654999999999518e+01 1.708150000000000091e+03
2.299999999999999961e-02 6.433964999999999268e-01 -3.339850000000001984e-01 7.888845000000000596e+01 1.707615000000000009e+03
2.400000000000000050e-02 6.430274999999999741e-01 4.460399999999999920e-01 7.704775000000000773e+01 1.707074999999999818e+03
2.500000000000000139e-02 6.426650000000000418e-01 1.262399999999999967e+00 7.524089999999999634e+01 1.706539999999999964e+03
2.600000000000000228e-02 6.422760000000000691e-01 2.020520000000000316e+00 7.338360000000000127e+01 1.705994999999999891e+03
2.700000000000000316e-02 6.418189999999999173e-01 2.604000000000000092e+00 7.133375000000000909e+01 1.705405000000000200e+03
2.800000000000000058e-02 6.412590000000000234e-01 2.906244999999999745e+00 6.893534999999999968e+01 1.704750000000000000e+03
2.900000000000000147e-02 6.405779999999999808e-01 2.860405000000000530e+00 6.606945000000000334e+01 1.703990000000000009e+03
3.000000000000000236e-02 6.397804999999999742e-01 2.458685000000000453e+00 6.269740000000000180e+01 1.703119999999999891e+03
3.099999999999999978e-02 6.388979999999999659e-01 1.755080000000000418e+00 5.888240000000000407e+01 1.702139999999999873e+03
3.200000000000000067e-02 6.379779999999999340e-01 8.513000000000001677e-01 5.478204999999999814e+01 1.701090000000000146e+03
3.300000000000000155e-02 6.370759999999999756e-01 -1.275000000000003908e-01 5.061814999999999998e+01 1.700009999999999991e+03
3.400000000000000244e-02 6.362449999999999495e-01 -1.058419999999999916e+00 4.663549999999999329e+01 1.698960000000000036e+03
3.500000000000000333e-02 6.355264999999999942e-01 -1.839550000000000463e+00 4.306260000000000332e+01 1.697985000000000127e+03
3.600000000000000422e-02 6.349495000000000555e-01 -2.399884999999999824e+00 4.008259999999999934e+01 1.697144999999999982e+03
3.700000000000000511e-02 6.345285000000000508e-01 -2.700350000000000250e+00 3.781839999999999691e+01 1.696470000000000027e+03
3.799999999999999906e-02 6.342659999999999965e-01 -2.728079000000000143e+00 3.633115000000000094e+01 1.695974999999999909e+03
3.899999999999999994e-02 6.341565000000000119e-01 -2.487499999999999822e+00 3.562939999999999685e+01 1.695680000000000064e+03
4.000000000000000083e-02 6.341915000000000191e-01 -1.991064999999999863e+00 3.568395000000000294e+01 1.695579999999999927e+03
4.100000000000000172e-02 6.343594999999999651e-01 -1.252180000000000071e+00 3.644400000000000261e+01 1.695674999999999955e+03
4.200000000000000261e-02 6.346519999999999939e-01 -2.820000000000000284e-01 3.785030000000000427e+01 1.695940000000000055e+03
4.300000000000000350e-02 6.350580000000000114e-01 9.099900000000000766e-01 3.984215000000000373e+01 1.696365000000000009e+03
4.400000000000000439e-02 6.355679999999999108e-01 2.312654999999999905e+00 4.235900000000000176e+01 1.696940000000000055e+03
4.499999999999999833e-02 6.361710000000000420e-01 3.909099999999999575e+00 4.533760000000000190e+01 1.697644999999999982e+03
4.599999999999999922e-02 6.368515000000000148e-01 5.673489999999999256e+00 4.870835000000000292e+01 1.698465000000000146e+03
4.700000000000000011e-02 6.375919999999999366e-01 7.570342999999999378e+00 5.239270000000000493e+01 1.699380000000000109e+03
4.800000000000000100e-02 6.383745000000000669e-01 9.555717500000000086e+00 5.630320000000000391e+01 1.700369999999999891e+03
4.900000000000000189e-02 6.391780000000000239e-01 1.158071499999999965e+01 6.034704999999999586e+01 1.701404999999999973e+03
5.000000000000000278e-02 6.399829999999999686e-01 1.359577499999999972e+01 6.443094999999999573e+01 1.702470000000000027e+03
5.100000000000000366e-02 6.407730000000000370e-01 1.555524999999999913e+01 6.846840000000000259e+01 1.703539999999999964e+03
5.200000000000000455e-02 6.415334999999999788e-01 1.742079999999999984e+01 7.238560000000001082e+01 1.704595000000000027e+03
5.300000000000000544e-02 6.422559999999999381e-01 1.916410000000000124e+01 7.612690000000000623e+01 1.705619999999999891e+03
5.399999999999999939e-02 6.429359999999999520e-01 2.076749999999999829e+01 7.965735000000000809e+01 1.706599999999999909e+03
5.500000000000000028e-02 6.435735000000000205e-01 2.222384999999999877e+01 8.296339999999999293e+01 1.707530000000000200e+03
5.600000000000000117e-02 6.441719999999999668e-01 2.353515000000000157e+01 8.605119999999999436e+01 1.708414999999999964e+03
5.700000000000000205e-02 6.447365000000000457e-01 2.471085000000000065e+01 8.894360000000000355e+01 1.709250000000000000e+03
5.800000000000000294e-02 6.452765000000000306e-01 2.576559999999999917e+01 9.167574999999999363e+01 1.710045000000000073e+03
5.900000000000000383e-02 6.458000000000000407e-01 2.671770000000000067e+01 9.429120000000000346e+01 1.710804999999999836e+03
6.000000000000000472e-02 6.463164999999999605e-01 2.758695000000000164e+01 9.683674999999999500e+01 1.711545000000000073e+03
6.099999999999999867e-02 6.468350000000000488e-01 2.839349999999999952e+01 9.935900000000000887e+01 1.712275000000000091e+03
6.199999999999999956e-02 6.473630000000000217e-01 2.915589999999999904e+01 1.018997499999999974e+02 1.713005000000000109e+03
6.300000000000000044e-02 6.479055000000000231e-01 2.989014999999999844e+01 1.044937500000000057e+02 1.713744999999999891e+03
6.400000000000000133e-02 6.484670000000000156e-01 3.060800000000000054e+01 1.071650000000000063e+02 1.714500000000000000e+03
6.500000000000000222e-02 6.490480000000000693e-01 3.131649999999999778e+01 1.099249999999999972e+02 1.715279999999999973e+03
6.600000000000000311e-02 6.496470000000000855e-01 3.201715000000000089e+01 1.127704999999999984e+02 1.716074999999999818e+03
6.700000000000000400e-02 6.502594999999999903e-01 3.270600000000000307e+01 1.156864999999999952e+02 1.716889999999999873e+03
6.800000000000000488e-02 6.508774999999999977e-01 3.337415000000000020e+01 1.186450000000000102e+02 1.717715000000000146e+03
6.900000000000000577e-02 6.514945000000000874e-01 3.400849999999999795e+01 1.216080000000000041e+02 1.718545000000000073e+03
7.000000000000000666e-02 6.520995000000000541e-01 3.459349999999999881e+01 1.245300000000000011e+02 1.719365000000000009e+03
7.100000000000000755e-02 6.526829999999999021e-01 3.511209999999999809e+01 1.273614999999999924e+02 1.720170000000000073e+03
7.200000000000000844e-02 6.532344999999999402e-01 3.554749999999999943e+01 1.300544999999999902e+02 1.720940000000000055e+03
7.300000000000000933e-02 6.537465000000000082e-01 3.588425000000000153e+01 1.325629999999999882e+02 1.721664999999999964e+03
7.399999999999999634e-02 6.542110000000000980e-01 3.610949999999999704e+01 1.348474999999999966e+02 1.722340000000000146e+03
7.499999999999999722e-02 6.546229999999999549e-01 3.621370000000000289e+01 1.368764999999999930e+02 1.722945000000000164e+03
7.599999999999999811e-02 6.549780000000000602e-01 3.619119999999999493e+01 1.386289999999999907e+02 1.723480000000000018e+03
7.699999999999999900e-02 6.552750000000000519e-01 3.604050000000000153e+01 1.400935000000000059e+02 1.723944999999999936e+03
7.799999999999999989e-02 6.555150000000000698e-01 3.576429999999999865e+01 1.412690000000000055e+02 1.724325000000000045e+03
7.900000000000000078e-02 6.556999999999999496e-01 3.536925000000000097e+01 1.421650000000000205e+02 1.724634999999999991e+03
8.000000000000000167e-02 6.558345000000000979e-01 3.486565000000000225e+01 1.428009999999999877e+02 1.724875000000000000e+03
8.100000000000000255e-02 6.559239999999999515e-01 3.426695000000000135e+01 1.432024999999999864e+02 1.725045000000000073e+03
8.200000000000000344e-02 6.559745000000000159e-01 3.358915000000000362e+01 1.434010000000000105e+02 1.725154999999999973e+03
8.300000000000000433e-02 6.559939999999999660e-01 3.284980000000000189e+01 1.434325000000000045e+02 1.725214999999999918e+03
8.400000000000000522e-02 6.559900000000000730e-01 3.206759999999999877e+01 1.433360000000000127e+02 1.725235000000000127e+03
8.500000000000000611e-02 6.559699999999999420e-01 3.126104999999999734e+01 1.431494999999999891e+02 1.725220000000000027e+03
8.600000000000000699e-02 6.559405000000000374e-01 3.044804999999999851e+01 1.429095000000000084e+02 1.725184999999999945e+03
8.700000000000000788e-02 6.559085000000000054e-01 2.964474999999999838e+01 1.426510000000000105e+02 1.725134999999999991e+03
8.800000000000000877e-02 6.558789999999999898e-01 2.886504999999999654e+01 1.424014999999999986e+02 1.725085000000000036e+03
8.899999999999999578e-02 6.558565000000000644e-01 2.811974999999999980e+01 1.421845000000000141e+02 1.725039999999999964e+03
8.999999999999999667e-02 6.558429999999999538e-01 2.741629999999999967e+01 1.420144999999999982e+02 1.724994999999999891e+03
9.099999999999999756e-02 6.558390000000000608e-01 2.675880000000000081e+01 1.419010000000000105e+02 1.724965000000000146e+03
9.199999999999999845e-02 6.558455000000000812e-01 2.614754999999999896e+01 1.418444999999999823e+02 1.724945000000000164e+03
9.299999999999999933e-02 6.558595000000000397e-01 2.557970000000000255e+01 1.418385000000000105e+02 1.724934999999999945e+03
9.400000000000000022e-02 6.558794999999999487e-01 2.504939999999999856e+01 1.418720000000000141e+02 1.724940000000000055e+03
9.500000000000000111e-02 6.559004999999999974e-01 2.454854999999999876e+01 1.419270000000000209e+02 1.724944999999999936e+03
9.600000000000000200e-02 6.559189999999999188e-01 2.406719999999999970e+01 1.419839999999999804e+02 1.724949999999999818e+03
9.700000000000000289e-02 6.559299999999999020e-01 2.359450000000000003e+01 1.420205000000000268e+02 1.724960000000000036e+03
9.800000000000000377e-02 6.559304999999999719e-01 2.311915000000000120e+01 1.420124999999999886e+02 1.724954999999999927e+03
9.900000000000000466e-02 6.559144999999999559e-01 2.263040000000000163e+01 1.419389999999999930e+02 1.724934999999999945e+03
1.000000000000000056e-01 6.558789999999999898e-01 2.211840000000000117e+01 1.417794999999999845e+02 1.724894999999999982e+03
1.010000000000000064e-01 6.558209999999999873e-01 2.157515000000000072e+01 1.415184999999999889e+02 1.724835000000000036e+03
1.020000000000000073e-01 6.557394999999999197e-01 2.099450000000000216e+01 1.411444999999999936e+02 1.724740000000000009e+03
1.030000000000000082e-01 6.556325000000000625e-01 2.037310000000000088e+01 1.406504999999999939e+02 1.724615000000000009e+03
1.040000000000000091e-01 6.555014999999999592e-01 1.971020000000000039e+01 1.400374999999999943e+02 1.724465000000000146e+03
1.050000000000000100e-01 6.553480000000000416e-01 1.900805000000000078e+01 1.393095000000000141e+02 1.724279999999999973e+03
1.059999999999999970e-01 6.551744999999999930e-01 1.827165000000000106e+01 1.384784999999999968e+02 1.724065000000000055e+03
1.069999999999999979e-01 6.549850000000000394e-01 1.750844999999999985e+01 1.375614999999999952e+02 1.723835000000000036e+03
1.079999999999999988e-01 6.547834999999999628e-01 1.672830000000000084e+01 1.365794999999999959e+02 1.723575000000000045e+03
1.089999999999999997e-01 6.545765000000000056e-01 1.594265000000000043e+01 1.355570000000000164e+02 1.723305000000000064e+03
1.100000000000000006e-01 6.543680000000000607e-01 1.516430000000000078e+01 1.345210000000000150e+02 1.723030000000000200e+03
1.110000000000000014e-01 6.541645000000000376e-01 1.440626999999999924e+01 1.334985000000000070e+02 1.722755000000000109e+03
1.120000000000000023e-01 6.539719999999999978e-01 1.368163499999999999e+01 1.325190000000000055e+02 1.722485000000000127e+03
1.130000000000000032e-01 6.537950000000000150e-01 1.300261000000000067e+01 1.316069999999999993e+02 1.722230000000000018e+03
1.140000000000000041e-01 6.536370000000000235e-01 1.237995000000000090e+01 1.307849999999999966e+02 1.721994999999999891e+03
1.150000000000000050e-01 6.535024999999999862e-01 1.182250499999999960e+01 1.300715000000000146e+02 1.721784999999999854e+03
1.160000000000000059e-01 6.533925000000000427e-01 1.133689000000000036e+01 1.294809999999999945e+02 1.721605000000000018e+03
1.170000000000000068e-01 6.533094999999999875e-01 1.092698499999999839e+01 1.290210000000000150e+02 1.721460000000000036e+03
1.180000000000000077e-01 6.532529999999999726e-01 1.059416500000000028e+01 1.286945000000000050e+02 1.721345000000000027e+03
1.190000000000000085e-01 6.532219999999999693e-01 1.033712500000000034e+01 1.284979999999999905e+02 1.721264999999999873e+03
1.200000000000000094e-01 6.532145000000000312e-01 1.015223500000000101e+01 1.284254999999999995e+02 1.721215000000000146e+03
1.209999999999999964e-01 6.532279999999999198e-01 1.003361499999999928e+01 1.284629999999999939e+02 1.721200000000000045e+03
1.219999999999999973e-01 6.532594999999999930e-01 9.973880000000001189e+00 1.285970000000000084e+02 1.721215000000000146e+03
1.229999999999999982e-01 6.533044999999999547e-01 9.964359999999999218e+00 1.288084999999999809e+02 1.721250000000000000e+03
1.239999999999999991e-01 6.533599999999999408e-01 9.995570000000000732e+00 1.290794999999999959e+02 1.721300000000000182e+03
1.250000000000000000e-01 6.534214999999999884e-01 1.005781499999999973e+01 1.293905000000000030e+02 1.721365000000000009e+03
1.260000000000000009e-01 6.534864999999999702e-01 1.014152499999999968e+01 1.297230000000000132e+02 1.721440000000000055e+03
1.270000000000000018e-01 6.535509999999999931e-01 1.023763999999999896e+01 1.300609999999999786e+02 1.721519999999999982e+03
1.280000000000000027e-01 6.536124999999999297e-01 1.033795999999999893e+01 1.303880000000000052e+02 1.721599999999999909e+03
1.290000000000000036e-01 6.536684999999999857e-01 1.043531000000000120e+01 1.306939999999999884e+02 1.721680000000000064e+03
1.300000000000000044e-01 6.537184999999999802e-01 1.052378500000000017e+01 1.309689999999999941e+02 1.721750000000000000e+03
1.310000000000000053e-01 6.537604999999999666e-01 1.059878499999999946e+01 1.312065000000000055e+02 1.721815000000000055e+03
1.320000000000000062e-01 6.537945000000000562e-01 1.065708500000000036e+01 1.314035000000000082e+02 1.721875000000000000e+03
1.330000000000000071e-01 6.538205000000000267e-01 1.069677000000000078e+01 1.315589999999999975e+02 1.721920000000000073e+03
1.340000000000000080e-01 6.538390000000000590e-01 1.071711499999999972e+01 1.316750000000000114e+02 1.721954999999999927e+03
1.350000000000000089e-01 6.538515000000000299e-01 1.071860500000000016e+01 1.317554999999999836e+02 1.721980000000000018e+03
1.360000000000000098e-01 6.538585000000000091e-01 1.070270999999999972e+01 1.318054999999999950e+02 1.722005000000000109e+03
1.370000000000000107e-01 6.538610000000000255e-01 1.067156999999999911e+01 1.318315000000000055e+02 1.722014999999999873e+03
1.380000000000000115e-01 6.538615000000000954e-01 1.062809500000000007e+01 1.318414999999999964e+02 1.722025000000000091e+03
1.390000000000000124e-01 6.538610000000000255e-01 1.057554499999999997e+01 1.318419999999999845e+02 1.722029999999999973e+03
1.400000000000000133e-01 6.538610000000000255e-01 1.051730500000000035e+01 1.318404999999999916e+02 1.722039999999999964e+03
1.410000000000000142e-01 6.538625000000000131e-01 1.045683999999999969e+01 1.318455000000000155e+02 1.722039999999999964e+03
1.420000000000000151e-01 6.538669999999999760e-01 1.039735999999999905e+01 1.318614999999999782e+02 1.722045000000000073e+03
1.430000000000000160e-01 6.538760000000000128e-01 1.034173999999999971e+01 1.318940000000000055e+02 1.722059999999999945e+03
1.440000000000000169e-01 6.538889999999999425e-01 1.029234999999999900e+01 1.319470000000000027e+02 1.722074999999999818e+03
1.450000000000000178e-01 6.539070000000000160e-01 1.025095500000000115e+01 1.320219999999999914e+02 1.722089999999999918e+03
1.459999999999999909e-01 6.539300000000000113e-01 1.021853000000000122e+01 1.321200000000000045e+02 1.722119999999999891e+03
1.469999999999999918e-01 6.539565000000000516e-01 1.019548999999999950e+01 1.322400000000000091e+02 1.722150000000000091e+03
1.479999999999999927e-01 6.539880000000000138e-01 1.018161999999999878e+01 1.323799999999999955e+02 1.722184999999999945e+03
1.489999999999999936e-01 6.540219999999999922e-01 1.017605499999999985e+01 1.325364999999999895e+02 1.722224999999999909e+03
1.499999999999999944e-01 6.540580000000000283e-01 1.017745999999999995e+01 1.327055000000000007e+02 1.722269999999999982e+03
1.509999999999999953e-01 6.540950000000000930e-01 1.018426499999999990e+01 1.328820000000000050e+02 1.722320000000000164e+03
1.519999999999999962e-01 6.541330000000000755e-01 1.019467000000000034e+01 1.330610000000000070e+02 1.722365000000000009e+03
1.529999999999999971e-01 6.541700000000000292e-01 1.020683000000000007e+01 1.332384999999999877e+02 1.722414999999999964e+03
1.539999999999999980e-01 6.542045000000000776e-01 1.021889499999999984e+01 1.334085000000000036e+02 1.722460000000000036e+03
1.549999999999999989e-01 6.542369999999999575e-01 1.022947500000000076e+01 1.335689999999999884e+02 1.722505000000000109e+03
1.559999999999999998e-01 6.542669999999999320e-01 1.023722000000000065e+01 1.337164999999999964e+02 1.722550000000000182e+03
1.570000000000000007e-01 6.542934999999999723e-01 1.024129500000000093e+01 1.338495000000000061e+02 1.722585000000000036e+03
1.580000000000000016e-01 6.543174999999999963e-01 1.024130500000000055e+01 1.339669999999999845e+02 1.722615000000000009e+03
1.590000000000000024e-01 6.543379999999999752e-01 1.023712000000000089e+01 1.340695000000000050e+02 1.722650000000000091e+03
