# t [s], A [cm^2], U [cm/s], P [cPa], c [cm/s]
1.000000000000000021e-03 5.526689999999999658e-01 3.624149999999999594e-03 9.095024999999999693e+01 1.555990000000000009e+03
2.000000000000000042e-03 5.526604999999999990e-01 -2.021165000000000114e-03 9.093119999999998981e+01 1.555985000000000127e+03
3.000000000000000062e-03 5.526884999999999160e-01 4.964934999999999488e-02 9.098165000000000191e+01 1.556000000000000000e+03
4.000000000000000083e-03 5.527334999999999887e-01 1.371265500000000137e-01 9.108990000000000009e+01 1.556025000000000091e+03
5.000000000000000104e-03 5.527404999999999680e-01 1.608466000000000062e-01 9.111924999999999386e+01 1.556039999999999964e+03
6.000000000000000125e-03 5.527064999999999895e-01 1.069364999999999899e-01 9.102109999999998990e+01 1.556015000000000100e+03
7.000000000000000146e-03 5.526679999999999371e-01 4.120650000000000701e-02 9.085890000000000555e+01 1.555980000000000018e+03
8.000000000000000167e-03 5.526309999999999834e-01 -2.722349999999995607e-02 9.065555000000000518e+01 1.555930000000000064e+03
9.000000000000001055e-03 5.525694999999999357e-01 -1.518784999999999719e-01 9.035269999999999868e+01 1.555855000000000018e+03
1.000000000000000194e-02 5.524700000000000166e-01 -3.610849999999999893e-01 8.990019999999999811e+01 1.555744999999999891e+03
1.099999999999999936e-02 5.523255000000000248e-01 -6.657700000000000840e-01 8.926099999999999568e+01 1.555594999999999800e+03
1.200000000000000025e-02 5.521245000000000180e-01 -1.082119999999999971e+00 8.838884999999999081e+01 1.555380000000000109e+03
1.300000000000000114e-02 5.518640000000000212e-01 -1.606669999999999821e+00 8.725719999999999743e+01 1.555095000000000027e+03
1.400000000000000203e-02 5.515624999999999556e-01 -2.188695000000000057e+00 8.590055000000000973e+01 1.554750000000000000e+03
1.499999999999999944e-02 5.512539999999999107e-01 -2.740070000000000228e+00 8.441580000000000439e+01 1.554355000000000018e+03
1.600000000000000033e-02 5.509724999999999762e-01 -3.172066000000000052e+00 8.292345000000000255e+01 1.553949999999999818e+03
1.700000000000000122e-02 5.507355000000000445e-01 -3.427705999999999698e+00 8.152164999999999395e+01 1.553550000000000182e+03
1.800000000000000211e-02 5.505424999999999347e-01 -3.493463650000000253e+00 8.025945000000000107e+01 1.553170000000000073e+03
1.900000000000000300e-02 5.503789999999999516e-01 -3.392409999999999926e+00 7.913400000000000034e+01 1.552815000000000055e+03
2.000000000000000042e-02 5.502245000000000053e-01 -3.168036999999999992e+00 7.810415000000000418e+01 1.552474999999999909e+03
2.100000000000000130e-02 5.500589999999999646e-01 -2.866855500000000223e+00 7.711214999999999975e+01 1.552144999999999982e+03
2.200000000000000219e-02 5.498714999999999575e-01 -2.524643000000000193e+00 7.610429999999999495e+01 1.551809999999999945e+03
2.299999999999999961e-02 5.496579999999999799e-01 -2.159082500000000238e+00 7.504660000000001219e+01 1.551460000000000036e+03
2.400000000000000050e-02 5.494235000000000646e-01 -1.769610000000000127e+00 7.393125000000000568e+01 1.551095000000000027e+03
2.500000000000000139e-02 5.491779999999999440e-01 -1.343774999999999942e+00 7.277325000000000443e+01 1.550720000000000027e+03
2.600000000000000228e-02 5.489315000000000166e-01 -8.671799999999998398e-01 7.159935000000000116e+01 1.550340000000000146e+03
2.700000000000000316e-02 5.486904999999999699e-01 -3.332349999999999479e-01 7.043475000000000819e+01 1.549960000000000036e+03
2.800000000000000058e-02 5.484554999999999847e-01 2.504300000000001525e-01 6.929120000000000346e+01 1.549585000000000036e+03
2.900000000000000147e-02 5.482194999999999707e-01 8.603899999999997661e-01 6.816079999999999472e+01 1.549210000000000036e+03
3.000000000000000236e-02 5.479730000000000434e-01 1.460389999999999855e+00 6.701564999999999372e+01 1.548829999999999927e+03
3.099999999999999978e-02 5.477020000000000222e-01 2.007750000000000146e+00 6.581374999999999886e+01 1.548434999999999945e+03
3.200000000000000067e-02 5.473945000000000061e-01 2.461335000000000051e+00 6.450834999999999297e+01 1.548019999999999982e+03
3.300000000000000155e-02 5.470439999999999747e-01 2.789470000000000116e+00 6.305955000000000155e+01 1.547570000000000164e+03
3.400000000000000244e-02 5.466480000000000228e-01 2.975889999999999702e+00 6.144429999999999836e+01 1.547079999999999927e+03
3.500000000000000333e-02 5.462124999999999897e-01 3.022559999999999469e+00 5.966414999999999935e+01 1.546554999999999836e+03
3.600000000000000422e-02 5.457499999999999574e-01 2.948630000000000084e+00 5.774660000000000082e+01 1.545994999999999891e+03
3.700000000000000511e-02 5.452755000000000241e-01 2.786069999999999602e+00 5.574254999999999427e+01 1.545404999999999973e+03
3.799999999999999906e-02 5.448079999999999590e-01 2.573709999999999720e+00 5.371869999999999834e+01 1.544815000000000055e+03
3.899999999999999994e-02 5.443639999999999590e-01 2.350845000000000073e+00 5.174875000000000114e+01 1.544230000000000018e+03
4.000000000000000083e-02 5.439589999999999703e-01 2.152239999999999487e+00 4.990455000000000041e+01 1.543674999999999955e+03
4.100000000000000172e-02 5.436039999999999761e-01 2.005325000000000468e+00 4.824920000000000186e+01 1.543164999999999964e+03
4.200000000000000261e-02 5.433060000000000667e-01 1.929335000000000022e+00 4.683324999999999960e+01 1.542715000000000146e+03
4.300000000000000350e-02 5.430705000000000116e-01 1.936274999999999968e+00 4.569315000000000282e+01 1.542340000000000146e+03
4.400000000000000439e-02 5.428990000000000204e-01 2.032909999999999773e+00 4.485219999999999629e+01 1.542039999999999964e+03
4.499999999999999833e-02 5.427920000000000522e-01 2.223122000000000043e+00 4.432314999999999827e+01 1.541835000000000036e+03
4.599999999999999922e-02 5.427509999999999835e-01 2.510005000000000042e+00 4.411124999999999829e+01 1.541710000000000036e+03
4.700000000000000011e-02 5.427744999999999376e-01 2.897255000000000358e+00 4.421715000000000373e+01 1.541684999999999945e+03
4.800000000000000100e-02 5.428640000000000132e-01 3.389619999999999855e+00 4.463929999999999865e+01 1.541750000000000000e+03
4.900000000000000189e-02 5.430189999999999184e-01 3.992475000000000218e+00 4.537449999999999761e+01 1.541904999999999973e+03
5.000000000000000278e-02 5.432390000000000274e-01 4.710670000000000357e+00 4.641819999999999879e+01 1.542154999999999973e+03
5.100000000000000366e-02 5.435244999999999660e-01 5.547170000000000378e+00 4.776319999999999766e+01 1.542490000000000009e+03
5.200000000000000455e-02 5.438709999999999933e-01 6.501630000000000464e+00 4.939875000000000682e+01 1.542914999999999964e+03
5.300000000000000544e-02 5.442759999999999820e-01 7.569609999999999950e+00 5.130879999999999797e+01 1.543425000000000182e+03
5.399999999999999939e-02 5.447334999999999816e-01 8.741915000000000546e+00 5.347159999999999513e+01 1.544014999999999873e+03
5.500000000000000028e-02 5.452375000000000416e-01 1.000513499999999922e+01 5.585929999999999751e+01 1.544670000000000073e+03
5.600000000000000117e-02 5.457785000000000553e-01 1.134224500000000013e+01 5.843900000000000006e+01 1.545389999999999873e+03
5.700000000000000205e-02 5.463500000000000023e-01 1.273362999999999978e+01 6.117355000000000587e+01 1.546160000000000082e+03
5.800000000000000294e-02 5.469414999999999694e-01 1.415868500000000019e+01 6.402389999999999759e+01 1.546974999999999909e+03
5.900000000000000383e-02 5.475455000000000183e-01 1.559682000000000102e+01 6.695050000000000523e+01 1.547819999999999936e+03
6.000000000000000472e-02 5.481544999999999890e-01 1.702881000000000000e+01 6.991585000000000605e+01 1.548684999999999945e+03
6.099999999999999867e-02 5.487625000000000419e-01 1.843765000000000143e+01 7.288599999999999568e+01 1.549565000000000055e+03
6.199999999999999956e-02 5.493624999999999758e-01 1.980910000000000082e+01 7.583169999999999789e+01 1.550445000000000164e+03
6.300000000000000044e-02 5.499524999999999553e-01 2.113169999999999860e+01 7.872954999999998904e+01 1.551320000000000164e+03
6.400000000000000133e-02 5.505284999999999762e-01 2.239735000000000298e+01 8.156215000000000259e+01 1.552179999999999836e+03
6.500000000000000222e-02 5.510900000000000798e-01 2.360030000000000072e+01 8.431789999999999452e+01 1.553030000000000200e+03
6.600000000000000311e-02 5.516360000000000152e-01 2.473734999999999928e+01 8.699054999999999893e+01 1.553860000000000127e+03
6.700000000000000400e-02 5.521660000000000457e-01 2.580700000000000216e+01 8.957835000000000036e+01 1.554664999999999964e+03
6.800000000000000488e-02 5.526820000000000066e-01 2.680914999999999893e+01 9.208324999999999250e+01 1.555454999999999927e+03
6.900000000000000577e-02 5.531840000000000090e-01 2.774470000000000169e+01 9.450845000000001050e+01 1.556220000000000027e+03
7.000000000000000666e-02 5.536735000000000406e-01 2.861475000000000080e+01 9.686025000000000773e+01 1.556964999999999918e+03
7.100000000000000755e-02 5.541515000000000191e-01 2.942065000000000197e+01 9.914369999999999550e+01 1.557690000000000055e+03
7.200000000000000844e-02 5.546185000000000143e-01 3.016344999999999743e+01 1.013639000000000010e+02 1.558400000000000091e+03
7.300000000000000933e-02 5.550744999999999152e-01 3.084369999999999834e+01 1.035240500000000026e+02 1.559095000000000027e+03
7.399999999999999634e-02 5.555200000000000138e-01 3.146159999999999712e+01 1.056264999999999930e+02 1.559769999999999982e+03
7.499999999999999722e-02 5.559540000000000592e-01 3.201644999999999897e+01 1.076700000000000017e+02 1.560424999999999955e+03
7.599999999999999811e-02 5.563755000000000228e-01 3.250730000000000075e+01 1.096520000000000010e+02 1.561070000000000164e+03
7.699999999999999900e-02 5.567839999999999456e-01 3.293260000000000076e+01 1.115679999999999978e+02 1.561684999999999945e+03
7.799999999999999989e-02 5.571770000000000334e-01 3.329064999999999941e+01 1.134124999999999943e+02 1.562289999999999964e+03
7.900000000000000078e-02 5.575529999999999653e-01 3.357994999999999663e+01 1.151769999999999925e+02 1.562860000000000127e+03
8.000000000000000167e-02 5.579104999999999759e-01 3.379894999999999783e+01 1.168534999999999968e+02 1.563414999999999964e+03
8.100000000000000255e-02 5.582480000000000775e-01 3.394660000000000366e+01 1.184350000000000023e+02 1.563940000000000055e+03
8.200000000000000344e-02 5.585634999999999906e-01 3.402239999999999753e+01 1.199129999999999967e+02 1.564430000000000064e+03
8.300000000000000433e-02 5.588554999999999495e-01 3.402644999999999698e+01 1.212810000000000059e+02 1.564894999999999982e+03
8.400000000000000522e-02 5.591234999999999955e-01 3.395940000000000225e+01 1.225344999999999942e+02 1.565320000000000164e+03
8.500000000000000611e-02 5.593675000000000175e-01 3.382249999999999801e+01 1.236680000000000064e+02 1.565710000000000036e+03
8.600000000000000699e-02 5.595859999999999168e-01 3.361775000000000091e+01 1.246790000000000020e+02 1.566065000000000055e+03
8.700000000000000788e-02 5.597790000000000266e-01 3.334754999999999825e+01 1.255665000000000049e+02 1.566384999999999991e+03
8.800000000000000877e-02 5.599469999999999725e-01 3.301474999999999937e+01 1.263305000000000007e+02 1.566664999999999964e+03
8.899999999999999578e-02 5.600899999999999768e-01 3.262284999999999968e+01 1.269724999999999966e+02 1.566904999999999973e+03
8.999999999999999667e-02 5.602080000000000393e-01 3.217564999999999742e+01 1.274950000000000045e+02 1.567105000000000018e+03
9.099999999999999756e-02 5.603024999999999256e-01 3.167749999999999844e+01 1.279025000000000034e+02 1.567275000000000091e+03
9.199999999999999845e-02 5.603749999999999565e-01 3.113325000000000387e+01 1.282004999999999768e+02 1.567404999999999973e+03
9.299999999999999933e-02 5.604259999999999797e-01 3.054804999999999993e+01 1.283944999999999936e+02 1.567505000000000109e+03
9.400000000000000022e-02 5.604575000000000529e-01 2.992759999999999820e+01 1.284925000000000068e+02 1.567575000000000045e+03
9.500000000000000111e-02 5.604709999999999415e-01 2.927794999999999703e+01 1.285035000000000025e+02 1.567610000000000127e+03
9.600000000000000200e-02 5.604689999999999950e-01 2.860535000000000139e+01 1.284364999999999952e+02 1.567625000000000000e+03
9.700000000000000289e-02 5.604529999999999790e-01 2.791624999999999801e+01 1.283009999999999877e+02 1.567610000000000127e+03
9.800000000000000377e-02 5.604255000000000209e-01 2.721690000000000254e+01 1.281080000000000041e+02 1.567575000000000045e+03
9.900000000000000466e-02 5.603884999999999561e-01 2.651355000000000217e+01 1.278679999999999950e+02 1.567529999999999973e+03
1.000000000000000056e-01 5.603434999999999944e-01 2.581174999999999997e+01 1.275895000000000010e+02 1.567464999999999918e+03
1.010000000000000064e-01 5.602924999999999711e-01 2.511659999999999826e+01 1.272824999999999989e+02 1.567380000000000109e+03
1.020000000000000073e-01 5.602375000000000549e-01 2.443240000000000123e+01 1.269555000000000007e+02 1.567300000000000182e+03
1.030000000000000082e-01 5.601794999999999414e-01 2.376245000000000118e+01 1.266154999999999973e+02 1.567200000000000045e+03
1.040000000000000091e-01 5.601190000000000335e-01 2.310914999999999964e+01 1.262675000000000125e+02 1.567105000000000018e+03
1.050000000000000100e-01 5.600574999999999859e-01 2.247395000000000209e+01 1.259149999999999920e+02 1.567000000000000000e+03
1.059999999999999970e-01 5.599939999999999918e-01 2.185699999999999932e+01 1.255614999999999952e+02 1.566894999999999982e+03
1.069999999999999979e-01 5.599290000000000100e-01 2.125784999999999769e+01 1.252065000000000055e+02 1.566789999999999964e+03
1.079999999999999988e-01 5.598624999999999297e-01 2.067510000000000048e+01 1.248490000000000038e+02 1.566674999999999955e+03
1.089999999999999997e-01 5.597940000000000138e-01 2.010660000000000025e+01 1.244879999999999995e+02 1.566559999999999945e+03
1.100000000000000006e-01 5.597225000000000117e-01 1.954974999999999952e+01 1.241200000000000045e+02 1.566450000000000045e+03
1.110000000000000014e-01 5.596470000000000056e-01 1.900155000000000172e+01 1.237399999999999949e+02 1.566329999999999927e+03
1.120000000000000023e-01 5.595670000000000366e-01 1.845885000000000176e+01 1.233455000000000013e+02 1.566210000000000036e+03
1.130000000000000032e-01 5.594814999999999650e-01 1.791829999999999856e+01 1.229314999999999998e+02 1.566079999999999927e+03
1.140000000000000041e-01 5.593890000000000251e-01 1.737679999999999936e+01 1.224929999999999950e+02 1.565940000000000055e+03
1.150000000000000050e-01 5.592900000000000649e-01 1.683139999999999858e+01 1.220264999999999986e+02 1.565800000000000182e+03
1.160000000000000059e-01 5.591835000000000555e-01 1.627955000000000041e+01 1.215294999999999987e+02 1.565650000000000091e+03
1.170000000000000068e-01 5.590694999999999970e-01 1.571914999999999907e+01 1.209994999999999976e+02 1.565490000000000009e+03
1.180000000000000077e-01 5.589469999999999716e-01 1.514859999999999829e+01 1.204339999999999975e+02 1.565315000000000055e+03
1.190000000000000085e-01 5.588165000000000493e-01 1.456705000000000183e+01 1.198335000000000008e+02 1.565135000000000218e+03
1.200000000000000094e-01 5.586790000000000367e-01 1.397428500000000007e+01 1.191984999999999957e+02 1.564945000000000164e+03
1.209999999999999964e-01 5.585345000000000448e-01 1.337071500000000057e+01 1.185310000000000059e+02 1.564744999999999891e+03
1.219999999999999973e-01 5.583839999999999915e-01 1.275761499999999948e+01 1.178350000000000080e+02 1.564535000000000082e+03
1.229999999999999982e-01 5.582289999999999752e-01 1.213687999999999967e+01 1.171140000000000043e+02 1.564320000000000164e+03
1.239999999999999991e-01 5.580700000000000660e-01 1.151107499999999995e+01 1.163744999999999976e+02 1.564099999999999909e+03
1.250000000000000000e-01 5.579089999999999883e-01 1.088325999999999993e+01 1.156219999999999999e+02 1.563869999999999891e+03
1.260000000000000009e-01 5.577475000000000627e-01 1.025719499999999940e+01 1.148640000000000043e+02 1.563639999999999873e+03
1.270000000000000018e-01 5.575870000000000548e-01 9.636720000000000397e+00 1.141084999999999923e+02 1.563409999999999854e+03
1.280000000000000027e-01 5.574299999999999811e-01 9.026165000000000660e+00 1.133629999999999995e+02 1.563184999999999945e+03
1.290000000000000036e-01 5.572774999999999812e-01 8.429795000000000371e+00 1.126359999999999957e+02 1.562960000000000036e+03
1.300000000000000044e-01 5.571315000000000017e-01 7.851784999999999570e+00 1.119350000000000023e+02 1.562739999999999782e+03
1.310000000000000053e-01 5.569925000000000015e-01 7.296165000000000234e+00 1.112674999999999983e+02 1.562529999999999973e+03
1.320000000000000062e-01 5.568634999999999557e-01 6.766585000000000072e+00 1.106405000000000030e+02 1.562335000000000036e+03
1.330000000000000071e-01 5.567440000000000166e-01 6.266115000000000101e+00 1.100584999999999951e+02 1.562144999999999982e+03
1.340000000000000080e-01 5.566360000000000197e-01 5.797284999999999577e+00 1.095260000000000105e+02 1.561974999999999909e+03
1.350000000000000089e-01 5.565390000000000059e-01 5.361934999999999896e+00 1.090465000000000089e+02 1.561815000000000055e+03
1.360000000000000098e-01 5.564535000000000453e-01 4.961135000000000517e+00 1.086214999999999975e+02 1.561670000000000073e+03
1.370000000000000107e-01 5.563795000000000268e-01 4.595254999999999868e+00 1.082510000000000048e+02 1.561545000000000073e+03
1.380000000000000115e-01 5.563164999999999916e-01 4.263910000000000089e+00 1.079334999999999951e+02 1.561429999999999836e+03
1.390000000000000124e-01 5.562635000000000218e-01 3.966050000000000075e+00 1.076665000000000134e+02 1.561335000000000036e+03
1.400000000000000133e-01 5.562199999999999367e-01 3.700050000000000061e+00 1.074459999999999980e+02 1.561250000000000000e+03
1.410000000000000142e-01 5.561850000000000405e-01 3.463775000000000048e+00 1.072680000000000007e+02 1.561184999999999945e+03
1.420000000000000151e-01 5.561565000000000536e-01 3.254739999999999966e+00 1.071269999999999953e+02 1.561125000000000000e+03
1.430000000000000160e-01 5.561344999999999761e-01 3.070184999999999942e+00 1.070165000000000077e+02 1.561075000000000045e+03
1.440000000000000169e-01 5.561169999999999725e-01 2.907230000000000203e+00 1.069314999999999998e+02 1.561035000000000082e+03
1.450000000000000178e-01 5.561024999999999441e-01 2.762974999999999959e+00 1.068650000000000091e+02 1.561005000000000109e+03
1.459999999999999909e-01 5.560905000000000431e-01 2.634580000000000144e+00 1.068125000000000000e+02 1.560974999999999909e+03
1.469999999999999918e-01 5.560799999999999077e-01 2.519359999999999822e+00 1.067680000000000007e+02 1.560954999999999927e+03
1.479999999999999927e-01 5.560700000000000642e-01 2.414864999999999817e+00 1.067270000000000039e+02 1.560934999999999945e+03
1.489999999999999936e-01 5.560595000000000399e-01 2.318880000000000052e+00 1.066860000000000070e+02 1.560914999999999964e+03
1.499999999999999944e-01 5.560484999999999456e-01 2.229470000000000063e+00 1.066409999999999911e+02 1.560894999999999982e+03
1.509999999999999953e-01 5.560355000000000159e-01 2.145024999999999959e+00 1.065900000000000034e+02 1.560875000000000000e+03
1.519999999999999962e-01 5.560209999999999875e-01 2.064185000000000159e+00 1.065310000000000059e+02 1.560855000000000018e+03
1.529999999999999971e-01 5.560054999999999303e-01 1.985899999999999999e+00 1.064639999999999986e+02 1.560829999999999927e+03
1.539999999999999980e-01 5.559870000000000090e-01 1.909364999999999979e+00 1.063864999999999981e+02 1.560809999999999945e+03
1.549999999999999989e-01 5.559680000000000177e-01 1.834009999999999918e+00 1.062999999999999972e+02 1.560780000000000200e+03
1.559999999999999998e-01 5.559460000000000512e-01 1.759500000000000064e+00 1.062044999999999959e+02 1.560750000000000000e+03
1.570000000000000007e-01 5.559235000000000149e-01 1.685659999999999936e+00 1.061004999999999967e+02 1.560719999999999800e+03
1.580000000000000016e-01 5.558990000000000320e-01 1.612496000000000151e+00 1.059890000000000043e+02 1.560684999999999945e+03
1.590000000000000024e-01 5.558735000000000204e-01 1.540116000000000041e+00 1.058709999999999951e+02 1.560644999999999982e+03
