# t [s], A [cm^2], U [cm/s], P [cPa], c [cm/s]
1.000000000000000021e-03 1.468484999999999929e-01 2.117515000000000092e-01 8.838530000000000086e+01 1.882769999999999982e+03
2.000000000000000042e-03 1.468285000000000007e-01 1.467208999999999985e+00 8.587985000000000468e+01 1.882579999999999927e+03
3.000000000000000062e-03 1.467505000000000059e-01 3.028866999999999976e+00 8.256714999999999804e+01 1.881875000000000000e+03
4.000000000000000083e-03 1.466310000000000113e-01 4.769252849999999988e+00 7.879464999999999009e+01 1.880820000000000164e+03
5.000000000000000104e-03 1.464914999999999967e-01 6.646300000000000097e+00 7.516445000000000221e+01 1.879599999999999909e+03
6.000000000000000125e-03 1.463479999999999781e-01 8.579534999999999911e+00 7.203370000000001028e+01 1.878355000000000018e+03
7.000000000000000146e-03 1.462094999999999922e-01 1.043641500000000022e+01 6.941440000000000055e+01 1.877170000000000073e+03
8.000000000000000167e-03 1.460779999999999856e-01 1.210116499999999995e+01 6.712899999999999068e+01 1.876055000000000064e+03
9.000000000000001055e-03 1.459560000000000024e-01 1.354052499999999881e+01 6.507160000000000366e+01 1.875034999999999854e+03
1.000000000000000194e-02 1.458459999999999757e-01 1.477655000000000030e+01 6.326944999999999908e+01 1.874134999999999991e+03
1.099999999999999936e-02 1.457505000000000051e-01 1.582999999999999829e+01 6.176189999999999714e+01 1.873349999999999909e+03
1.200000000000000025e-02 1.456689999999999929e-01 1.670945000000000036e+01 6.053764999999999930e+01 1.872695000000000164e+03
1.300000000000000114e-02 1.456010000000000082e-01 1.741989999999999839e+01 5.955464999999999520e+01 1.872155000000000200e+03
1.400000000000000203e-02 1.455449999999999799e-01 1.796349999999999980e+01 5.875360000000000582e+01 1.871715000000000146e+03
1.499999999999999944e-02 1.454975000000000018e-01 1.834420000000000073e+01 5.806659999999999400e+01 1.871345000000000027e+03
1.600000000000000033e-02 1.454580000000000040e-01 1.858420000000000272e+01 5.745575000000000188e+01 1.871045000000000073e+03
1.700000000000000122e-02 1.454249999999999987e-01 1.873855000000000004e+01 5.696564999999999657e+01 1.870804999999999836e+03
1.800000000000000211e-02 1.454024999999999901e-01 1.888844999999999885e+01 5.673354999999999393e+01 1.870634999999999991e+03
1.900000000000000300e-02 1.453935000000000088e-01 1.911465000000000103e+01 5.693639999999999901e+01 1.870579999999999927e+03
2.000000000000000042e-02 1.454020000000000035e-01 1.946590000000000131e+01 5.770239999999999725e+01 1.870654999999999973e+03
2.100000000000000130e-02 1.454294999999999893e-01 1.994024999999999892e+01 5.903940000000000055e+01 1.870889999999999873e+03
2.200000000000000219e-02 1.454745000000000066e-01 2.048740000000000094e+01 6.081349999999999767e+01 1.871259999999999991e+03
2.299999999999999961e-02 1.455319999999999947e-01 2.102644999999999698e+01 6.278340000000000032e+01 1.871730000000000018e+03
2.400000000000000050e-02 1.455940000000000012e-01 2.147214999999999918e+01 6.466849999999999454e+01 1.872244999999999891e+03
2.500000000000000139e-02 1.456534999999999913e-01 2.175835000000000008e+01 6.622354999999998881e+01 1.872740000000000009e+03
2.600000000000000228e-02 1.457034999999999858e-01 2.185264999999999702e+01 6.729505000000000337e+01 1.873164999999999964e+03
2.700000000000000316e-02 1.457419999999999827e-01 2.175919999999999987e+01 6.784514999999998963e+01 1.873500000000000000e+03
2.800000000000000058e-02 1.457665000000000211e-01 2.151129999999999853e+01 6.794079999999999586e+01 1.873715000000000146e+03
2.900000000000000147e-02 1.457789999999999919e-01 2.115639999999999787e+01 6.771645000000000891e+01 1.873835000000000036e+03
3.000000000000000236e-02 1.457820000000000227e-01 2.074070000000000036e+01 6.732455000000000211e+01 1.873869999999999891e+03
3.099999999999999978e-02 1.457804999999999795e-01 2.029675000000000296e+01 6.689039999999999964e+01 1.873865000000000009e+03
3.200000000000000067e-02 1.457749999999999879e-01 1.983760000000000190e+01 6.648390000000000555e+01 1.873824999999999818e+03
3.300000000000000155e-02 1.457680000000000087e-01 1.935824999999999818e+01 6.611314999999999031e+01 1.873775000000000091e+03
3.400000000000000244e-02 1.457594999999999863e-01 1.884250000000000114e+01 6.573779999999999291e+01 1.873704999999999927e+03
3.500000000000000333e-02 1.457479999999999887e-01 1.827280000000000015e+01 6.529540000000000077e+01 1.873615000000000009e+03
3.600000000000000422e-02 1.457330000000000014e-01 1.763925000000000054e+01 6.473210000000000264e+01 1.873500000000000000e+03
3.700000000000000511e-02 1.457134999999999958e-01 1.694689999999999941e+01 6.402764999999999418e+01 1.873345000000000027e+03
3.799999999999999906e-02 1.456894999999999996e-01 1.621804999999999808e+01 6.320985000000000298e+01 1.873154999999999973e+03
3.899999999999999994e-02 1.456625000000000003e-01 1.549005000000000010e+01 6.235484999999999900e+01 1.872934999999999945e+03
4.000000000000000083e-02 1.456355000000000011e-01 1.480880000000000152e+01 6.157319999999999993e+01 1.872720000000000027e+03
4.100000000000000172e-02 1.456115000000000048e-01 1.422015000000000029e+01 6.098664999999999736e+01 1.872519999999999982e+03
4.200000000000000261e-02 1.455940000000000012e-01 1.376095000000000113e+01 6.070130000000000337e+01 1.872375000000000000e+03
4.300000000000000350e-02 1.455865000000000076e-01 1.345155000000000101e+01 6.078404999999999347e+01 1.872305000000000064e+03
4.400000000000000439e-02 1.455894999999999828e-01 1.329274999999999984e+01 6.124784999999999968e+01 1.872319999999999936e+03
4.499999999999999833e-02 1.456040000000000112e-01 1.326565000000000083e+01 6.204840000000000089e+01 1.872434999999999945e+03
4.599999999999999922e-02 1.456284999999999941e-01 1.333504999999999896e+01 6.309170000000000300e+01 1.872625000000000000e+03
4.700000000000000011e-02 1.456600000000000117e-01 1.345579999999999998e+01 6.425000000000000000e+01 1.872875000000000000e+03
4.800000000000000100e-02 1.456955000000000056e-01 1.357900000000000063e+01 6.538240000000000407e+01 1.873160000000000082e+03
4.900000000000000189e-02 1.457299999999999984e-01 1.365869999999999962e+01 6.635460000000000491e+01 1.873440000000000055e+03
5.000000000000000278e-02 1.457605000000000151e-01 1.365664999999999907e+01 6.705559999999999832e+01 1.873684999999999945e+03
5.100000000000000366e-02 1.457829999999999959e-01 1.354524999999999935e+01 6.740819999999999368e+01 1.873869999999999891e+03
5.200000000000000455e-02 1.457944999999999935e-01 1.330835000000000079e+01 6.737290000000000134e+01 1.873974999999999909e+03
5.300000000000000544e-02 1.457950000000000079e-01 1.294085000000000107e+01 6.694604999999999961e+01 1.873980000000000018e+03
5.399999999999999939e-02 1.457829999999999959e-01 1.244634999999999891e+01 6.615300000000000580e+01 1.873889999999999873e+03
5.500000000000000028e-02 1.457589999999999997e-01 1.183525000000000027e+01 6.503964999999999463e+01 1.873700000000000045e+03
5.600000000000000117e-02 1.457249999999999934e-01 1.112199999999999989e+01 6.366310000000000002e+01 1.873420000000000073e+03
5.700000000000000205e-02 1.456804999999999906e-01 1.032324000000000019e+01 6.208420000000000272e+01 1.873059999999999945e+03
5.800000000000000294e-02 1.456284999999999941e-01 9.456925000000000026e+00 6.036209999999999809e+01 1.872644999999999982e+03
5.900000000000000383e-02 1.455704999999999916e-01 8.541610000000000369e+00 5.855180000000000007e+01 1.872174999999999955e+03
6.000000000000000472e-02 1.455084999999999851e-01 7.596384999999999721e+00 5.670394999999999897e+01 1.871664999999999964e+03
6.099999999999999867e-02 1.454440000000000177e-01 6.641655000000000086e+00 5.486610000000000298e+01 1.871139999999999873e+03
6.199999999999999956e-02 1.453785000000000216e-01 5.699070000000000746e+00 5.308500000000000085e+01 1.870605000000000018e+03
6.300000000000000044e-02 1.453145000000000131e-01 4.792080000000000339e+00 5.140834999999999866e+01 1.870079999999999927e+03
6.400000000000000133e-02 1.452535000000000076e-01 3.945724999999999927e+00 4.988609999999999900e+01 1.869575000000000045e+03
6.500000000000000222e-02 1.451965000000000061e-01 3.186224999999999863e+00 4.857079999999999842e+01 1.869110000000000127e+03
6.600000000000000311e-02 1.451465000000000116e-01 2.540146500000000085e+00 4.751599999999999824e+01 1.868694999999999936e+03
6.700000000000000400e-02 1.451054999999999984e-01 2.033307999999999893e+00 4.677454999999999785e+01 1.868355000000000018e+03
6.800000000000000488e-02 1.450750000000000095e-01 1.689510000000000067e+00 4.639544999999999675e+01 1.868095000000000027e+03
6.900000000000000577e-02 1.450569999999999915e-01 1.529290000000000038e+00 4.642099999999999937e+01 1.867934999999999945e+03
7.000000000000000666e-02 1.450525000000000009e-01 1.568759999999999932e+00 4.688365000000000293e+01 1.867889999999999873e+03
7.100000000000000755e-02 1.450635000000000119e-01 1.818725000000000147e+00 4.780389999999999873e+01 1.867970000000000027e+03
7.200000000000000844e-02 1.450905000000000111e-01 2.284100000000000019e+00 4.918854999999999933e+01 1.868170000000000073e+03
7.300000000000000933e-02 1.451334999999999986e-01 2.963700000000000223e+00 5.103019999999999357e+01 1.868509999999999991e+03
7.399999999999999634e-02 1.451930000000000165e-01 3.850379999999999914e+00 5.330785000000000196e+01 1.868984999999999900e+03
7.499999999999999722e-02 1.452680000000000082e-01 4.931490000000000151e+00 5.598805000000000121e+01 1.869585000000000036e+03
7.599999999999999811e-02 1.453585000000000016e-01 6.189610000000000056e+00 5.902710000000000434e+01 1.870309999999999945e+03
7.699999999999999900e-02 1.454619999999999802e-01 7.603505000000000180e+00 6.237345000000000539e+01 1.871144999999999982e+03
7.799999999999999989e-02 1.455770000000000119e-01 9.149094999999999089e+00 6.597084999999999866e+01 1.872079999999999927e+03
7.900000000000000078e-02 1.457025000000000126e-01 1.080077999999999960e+01 6.976099999999999568e+01 1.873099999999999909e+03
8.000000000000000167e-02 1.458359999999999934e-01 1.253238499999999966e+01 7.368665000000000020e+01 1.874190000000000055e+03
8.100000000000000255e-02 1.459759999999999946e-01 1.431824999999999903e+01 7.769429999999999836e+01 1.875335000000000036e+03
8.200000000000000344e-02 1.461204999999999865e-01 1.613425000000000153e+01 8.173595000000000255e+01 1.876519999999999982e+03
8.300000000000000433e-02 1.462674999999999947e-01 1.795855000000000246e+01 8.577115000000000578e+01 1.877735000000000127e+03
8.400000000000000522e-02 1.464155000000000040e-01 1.977199999999999847e+01 8.976789999999999736e+01 1.878954999999999927e+03
8.500000000000000611e-02 1.465639999999999998e-01 2.155865000000000009e+01 9.370289999999999964e+01 1.880184999999999945e+03
8.600000000000000699e-02 1.467114999999999947e-01 2.330584999999999951e+01 9.756119999999999948e+01 1.881409999999999854e+03
8.700000000000000788e-02 1.468570000000000153e-01 2.500394999999999968e+01 1.013356499999999869e+02 1.882625000000000000e+03
8.800000000000000877e-02 1.470009999999999928e-01 2.664610000000000056e+01 1.050257000000000005e+02 1.883824999999999818e+03
8.899999999999999578e-02 1.471425000000000094e-01 2.822785000000000011e+01 1.086340000000000003e+02 1.885009999999999991e+03
8.999999999999999667e-02 1.472825000000000106e-01 2.974660000000000082e+01 1.121689999999999969e+02 1.886174999999999955e+03
9.099999999999999756e-02 1.474199999999999955e-01 3.120110000000000028e+01 1.156364999999999981e+02 1.887325000000000045e+03
9.199999999999999845e-02 1.475549999999999917e-01 3.259080000000000155e+01 1.190455000000000041e+02 1.888465000000000146e+03
9.299999999999999933e-02 1.476885000000000003e-01 3.391559999999999775e+01 1.224014999999999986e+02 1.889585000000000036e+03
9.400000000000000022e-02 1.478200000000000069e-01 3.517524999999999835e+01 1.257079999999999984e+02 1.890690000000000055e+03
9.500000000000000111e-02 1.479495000000000116e-01 3.636939999999999884e+01 1.289650000000000034e+02 1.891784999999999854e+03
9.600000000000000200e-02 1.480779999999999874e-01 3.749715000000000487e+01 1.321705000000000041e+02 1.892869999999999891e+03
9.700000000000000289e-02 1.482040000000000024e-01 3.855700000000000216e+01 1.353185000000000002e+02 1.893934999999999945e+03
9.800000000000000377e-02 1.483280000000000154e-01 3.954699999999999704e+01 1.384019999999999868e+02 1.894990000000000009e+03
9.900000000000000466e-02 1.484495000000000120e-01 4.046464999999999890e+01 1.414080000000000155e+02 1.896015000000000100e+03
1.000000000000000056e-01 1.485684999999999922e-01 4.130700000000000216e+01 1.443265000000000100e+02 1.897025000000000091e+03
1.010000000000000064e-01 1.486840000000000106e-01 4.207090000000000174e+01 1.471430000000000007e+02 1.898005000000000109e+03
1.020000000000000073e-01 1.487964999999999982e-01 4.275275000000000603e+01 1.498444999999999823e+02 1.898960000000000036e+03
1.030000000000000082e-01 1.489044999999999952e-01 4.334909999999999997e+01 1.524159999999999968e+02 1.899880000000000109e+03
1.040000000000000091e-01 1.490075000000000149e-01 4.385645000000000238e+01 1.548449999999999989e+02 1.900759999999999991e+03
1.050000000000000100e-01 1.491055000000000019e-01 4.427155000000000484e+01 1.571179999999999950e+02 1.901599999999999909e+03
1.059999999999999970e-01 1.491985000000000117e-01 4.459140000000000015e+01 1.592235000000000014e+02 1.902389999999999873e+03
1.069999999999999979e-01 1.492844999999999867e-01 4.481345000000000312e+01 1.611504999999999939e+02 1.903134999999999991e+03
1.079999999999999988e-01 1.493649999999999978e-01 4.493599999999999994e+01 1.628909999999999911e+02 1.903820000000000164e+03
1.089999999999999997e-01 1.494380000000000153e-01 4.495779999999999887e+01 1.644379999999999882e+02 1.904450000000000045e+03
1.100000000000000006e-01 1.495039999999999980e-01 4.487874999999999659e+01 1.657874999999999943e+02 1.905014999999999873e+03
1.110000000000000014e-01 1.495630000000000015e-01 4.469979999999999620e+01 1.669370000000000118e+02 1.905525000000000091e+03
1.120000000000000023e-01 1.496144999999999836e-01 4.442300000000000182e+01 1.678884999999999934e+02 1.905970000000000027e+03
1.130000000000000032e-01 1.496584999999999999e-01 4.405169999999999675e+01 1.686449999999999818e+02 1.906355000000000018e+03
1.140000000000000041e-01 1.496949999999999947e-01 4.359050000000000580e+01 1.692139999999999986e+02 1.906675000000000182e+03
1.150000000000000050e-01 1.497249999999999970e-01 4.304524999999999579e+01 1.696055000000000064e+02 1.906940000000000055e+03
1.160000000000000059e-01 1.497474999999999778e-01 4.242289999999999850e+01 1.698319999999999936e+02 1.907139999999999873e+03
1.170000000000000068e-01 1.497640000000000082e-01 4.173145000000000238e+01 1.699080000000000155e+02 1.907289999999999964e+03
1.180000000000000077e-01 1.497749999999999915e-01 4.097964999999999947e+01 1.698509999999999991e+02 1.907389999999999873e+03
1.190000000000000085e-01 1.497804999999999831e-01 4.017690000000000339e+01 1.696779999999999973e+02 1.907440000000000055e+03
1.200000000000000094e-01 1.497809999999999975e-01 3.933275000000000432e+01 1.694074999999999989e+02 1.907454999999999927e+03
1.209999999999999964e-01 1.497775000000000079e-01 3.845695000000000618e+01 1.690585000000000093e+02 1.907424999999999955e+03
1.219999999999999973e-01 1.497700000000000142e-01 3.755899999999999750e+01 1.686479999999999961e+02 1.907375000000000000e+03
1.229999999999999982e-01 1.497600000000000042e-01 3.664780000000000371e+01 1.681924999999999955e+02 1.907295000000000073e+03
1.239999999999999991e-01 1.497479999999999922e-01 3.573165000000000191e+01 1.677074999999999818e+02 1.907195000000000164e+03
1.250000000000000000e-01 1.497344999999999926e-01 3.481794999999999618e+01 1.672050000000000125e+02 1.907079999999999927e+03
1.260000000000000009e-01 1.497189999999999910e-01 3.391290000000000049e+01 1.666955000000000098e+02 1.906949999999999818e+03
1.270000000000000018e-01 1.497030000000000027e-01 3.302185000000000059e+01 1.661870000000000118e+02 1.906815000000000055e+03
1.280000000000000027e-01 1.496865000000000001e-01 3.214855000000000018e+01 1.656834999999999809e+02 1.906674999999999955e+03
1.290000000000000036e-01 1.496695000000000109e-01 3.129585000000000150e+01 1.651890000000000214e+02 1.906529999999999973e+03
1.300000000000000044e-01 1.496520000000000072e-01 3.046499999999999631e+01 1.647024999999999864e+02 1.906384999999999991e+03
1.310000000000000053e-01 1.496350000000000180e-01 2.965655000000000285e+01 1.642214999999999918e+02 1.906240000000000009e+03
1.320000000000000062e-01 1.496180000000000010e-01 2.886959999999999837e+01 1.637434999999999832e+02 1.906085000000000036e+03
1.330000000000000071e-01 1.496000000000000107e-01 2.810249999999999915e+01 1.632609999999999957e+02 1.905934999999999945e+03
1.340000000000000080e-01 1.495819999999999927e-01 2.735275000000000034e+01 1.627674999999999841e+02 1.905784999999999854e+03
1.350000000000000089e-01 1.495635000000000159e-01 2.661735000000000184e+01 1.622560000000000002e+02 1.905619999999999891e+03
1.360000000000000098e-01 1.495444999999999969e-01 2.589270000000000138e+01 1.617169999999999845e+02 1.905460000000000036e+03
1.370000000000000107e-01 1.495239999999999903e-01 2.517524999999999835e+01 1.611424999999999841e+02 1.905280000000000200e+03
1.380000000000000115e-01 1.495024999999999826e-01 2.446110000000000184e+01 1.605254999999999939e+02 1.905095000000000027e+03
1.390000000000000124e-01 1.494794999999999874e-01 2.374660000000000082e+01 1.598570000000000277e+02 1.904900000000000091e+03
1.400000000000000133e-01 1.494544999999999901e-01 2.302855000000000274e+01 1.591329999999999814e+02 1.904684999999999945e+03
1.410000000000000142e-01 1.494270000000000043e-01 2.230409999999999826e+01 1.583474999999999966e+02 1.904454999999999927e+03
1.420000000000000151e-01 1.493975000000000164e-01 2.157114999999999938e+01 1.574975000000000023e+02 1.904204999999999927e+03
1.430000000000000160e-01 1.493659999999999988e-01 2.082815000000000083e+01 1.565824999999999818e+02 1.903934999999999945e+03
1.440000000000000169e-01 1.493320000000000203e-01 2.007450000000000045e+01 1.556020000000000039e+02 1.903644999999999982e+03
1.450000000000000178e-01 1.492959999999999843e-01 1.931060000000000088e+01 1.545609999999999786e+02 1.903339999999999918e+03
1.459999999999999909e-01 1.492574999999999874e-01 1.853764999999999930e+01 1.534625000000000057e+02 1.903014999999999873e+03
1.469999999999999918e-01 1.492169999999999885e-01 1.775764999999999816e+01 1.523145000000000095e+02 1.902670000000000073e+03
1.479999999999999927e-01 1.491744999999999877e-01 1.697370000000000090e+01 1.511254999999999882e+02 1.902315000000000055e+03
1.489999999999999936e-01 1.491304999999999992e-01 1.618950000000000244e+01 1.499055000000000177e+02 1.901940000000000055e+03
1.499999999999999944e-01 1.490849999999999953e-01 1.540925000000000011e+01 1.486664999999999850e+02 1.901554999999999836e+03
1.509999999999999953e-01 1.490385000000000182e-01 1.463785000000000025e+01 1.474190000000000111e+02 1.901170000000000073e+03
1.519999999999999962e-01 1.489920000000000133e-01 1.388039999999999985e+01 1.461775000000000091e+02 1.900769999999999982e+03
1.529999999999999971e-01 1.489455000000000084e-01 1.314204999999999934e+01 1.449540000000000077e+02 1.900375000000000000e+03
1.539999999999999980e-01 1.488990000000000036e-01 1.242804999999999893e+01 1.437605000000000075e+02 1.899985000000000127e+03
1.549999999999999989e-01 1.488534999999999997e-01 1.174319999999999986e+01 1.426075000000000159e+02 1.899599999999999909e+03
1.559999999999999998e-01 1.488094999999999835e-01 1.109194499999999906e+01 1.415060000000000002e+02 1.899224999999999909e+03
1.570000000000000007e-01 1.487669999999999826e-01 1.047812500000000036e+01 1.404639999999999986e+02 1.898860000000000127e+03
1.580000000000000016e-01 1.487264999999999837e-01 9.905025000000000190e+00 1.394879999999999995e+02 1.898519999999999982e+03
1.590000000000000024e-01 1.486879999999999868e-01 9.374935000000000684e+00 1.385824999999999818e+02 1.898184999999999945e+03
