# t [s], A [cm^2], U [cm/s], P [cPa], c [cm/s]
1.000000000000000021e-03 5.528394999999999282e-01 3.238100000000000700e-03 9.255334999999999468e+01 1.495500000000000000e+03
2.000000000000000042e-03 5.528315000000000312e-01 -1.315820000000000097e-03 9.253605000000000302e+01 1.495490000000000009e+03
3.000000000000000062e-03 5.528610000000000468e-01 5.092325000000000323e-02 9.258445000000000391e+01 1.495500000000000000e+03
4.000000000000000083e-03 5.529074999999999962e-01 1.374431000000000125e-01 9.268774999999999409e+01 1.495529999999999973e+03
5.000000000000000104e-03 5.529159999999999631e-01 1.601574000000000053e-01 9.271620000000000061e+01 1.495539999999999964e+03
6.000000000000000125e-03 5.528819999999999846e-01 1.073235000000000022e-01 9.262440000000000850e+01 1.495525000000000091e+03
7.000000000000000146e-03 5.528425000000000145e-01 3.964499999999998581e-02 9.246620000000000061e+01 1.495490000000000009e+03
8.000000000000000167e-03 5.528030000000000443e-01 -3.203500000000003567e-02 9.226400000000001000e+01 1.495445000000000164e+03
9.000000000000001055e-03 5.527379999999999516e-01 -1.589174999999999893e-01 9.196394999999999698e+01 1.495380000000000109e+03
1.000000000000000194e-02 5.526329999999999298e-01 -3.698000000000000176e-01 9.151689999999999259e+01 1.495279999999999973e+03
1.099999999999999936e-02 5.524829999999999464e-01 -6.724100000000000632e-01 9.088989999999999725e+01 1.495144999999999982e+03
1.200000000000000025e-02 5.522765000000000590e-01 -1.079274999999999984e+00 9.004314999999999714e+01 1.494954999999999927e+03
1.300000000000000114e-02 5.520095000000000418e-01 -1.590370000000000061e+00 8.894819999999999993e+01 1.494699999999999818e+03
1.400000000000000203e-02 5.516940000000000177e-01 -2.165434999999999999e+00 8.762545000000000073e+01 1.494389999999999873e+03
1.499999999999999944e-02 5.513624999999999776e-01 -2.725735000000000241e+00 8.615424999999999045e+01 1.494034999999999854e+03
1.600000000000000033e-02 5.510485000000000522e-01 -3.183699999999999974e+00 8.464529999999999177e+01 1.493655000000000200e+03
1.700000000000000122e-02 5.507759999999999323e-01 -3.474710500000000035e+00 8.320040000000000191e+01 1.493279999999999973e+03
1.800000000000000211e-02 5.505499999999999838e-01 -3.573205499999999812e+00 8.188259999999999650e+01 1.492920000000000073e+03
1.900000000000000300e-02 5.503605000000000302e-01 -3.491186700000000087e+00 8.070685000000000286e+01 1.492579999999999927e+03
2.000000000000000042e-02 5.501884999999999692e-01 -3.265897000000000272e+00 7.964740000000000464e+01 1.492259999999999991e+03
2.100000000000000130e-02 5.500144999999999618e-01 -2.943955204999999964e+00 7.865420000000000300e+01 1.491950000000000045e+03
2.200000000000000219e-02 5.498229999999999507e-01 -2.566973000000000393e+00 7.767260000000000275e+01 1.491639999999999873e+03
2.299999999999999961e-02 5.496054999999999691e-01 -2.161737000000000020e+00 7.666009999999999991e+01 1.491325000000000045e+03
2.400000000000000050e-02 5.493649999999999922e-01 -1.736790000000000056e+00 7.559624999999999773e+01 1.491005000000000109e+03
2.500000000000000139e-02 5.491074999999999706e-01 -1.285809999999999897e+00 7.448444999999999538e+01 1.490664999999999964e+03
2.600000000000000228e-02 5.488444999999999574e-01 -7.958700000000000774e-01 7.334434999999999150e+01 1.490324999999999818e+03
2.700000000000000316e-02 5.485835000000000017e-01 -2.573549999999997784e-01 7.220045000000000357e+01 1.489974999999999909e+03
2.800000000000000058e-02 5.483275000000000787e-01 3.281900000000002038e-01 7.106960000000000832e+01 1.489634999999999991e+03
2.900000000000000147e-02 5.480734999999999912e-01 9.442800000000000082e-01 6.995275000000000887e+01 1.489289999999999964e+03
3.000000000000000236e-02 5.478129999999999944e-01 1.560344999999999871e+00 6.883185000000000286e+01 1.488944999999999936e+03
3.099999999999999978e-02 5.475330000000000474e-01 2.136449999999999960e+00 6.767239999999999611e+01 1.488594999999999800e+03
3.200000000000000067e-02 5.472209999999999575e-01 2.630379999999999718e+00 6.643064999999999998e+01 1.488224999999999909e+03
3.300000000000000155e-02 5.468660000000000743e-01 3.005465000000000053e+00 6.506380000000000052e+01 1.487829999999999927e+03
3.400000000000000244e-02 5.464634999999999909e-01 3.237409999999999677e+00 6.354005000000000081e+01 1.487400000000000091e+03
3.500000000000000333e-02 5.460150000000000281e-01 3.318780000000000285e+00 6.184745000000000203e+01 1.486930000000000064e+03
3.600000000000000422e-02 5.455295000000000005e-01 3.260149999999999881e+00 5.999869999999999948e+01 1.486429999999999836e+03
3.700000000000000511e-02 5.450209999999999777e-01 3.087764999999999649e+00 5.803114999999999668e+01 1.485900000000000091e+03
3.799999999999999906e-02 5.445079999999999920e-01 2.838680000000000092e+00 5.600265000000000271e+01 1.485355000000000018e+03
3.899999999999999994e-02 5.440095000000000347e-01 2.554659999999999709e+00 5.398400000000000176e+01 1.484804999999999836e+03
4.000000000000000083e-02 5.435434999999999572e-01 2.276510000000000034e+00 5.205024999999999835e+01 1.484275000000000091e+03
4.100000000000000172e-02 5.431255000000000388e-01 2.039505000000000123e+00 5.027295000000000158e+01 1.483775000000000091e+03
4.200000000000000261e-02 5.427675000000000693e-01 1.871259999999999923e+00 4.871410000000000196e+01 1.483325000000000045e+03
4.300000000000000350e-02 5.424759999999999582e-01 1.791135000000000144e+00 4.742244999999999777e+01 1.482940000000000055e+03
4.400000000000000439e-02 5.422575000000000589e-01 1.811245000000000216e+00 4.643269999999999698e+01 1.482625000000000000e+03
4.499999999999999833e-02 5.421124999999999972e-01 1.938390000000000057e+00 4.576640000000000441e+01 1.482394999999999982e+03
4.599999999999999922e-02 5.420424999999999827e-01 2.176245999999999903e+00 4.543435000000000201e+01 1.482244999999999891e+03
4.700000000000000011e-02 5.420464999999999867e-01 2.527289999999999814e+00 4.543914999999999793e+01 1.482190000000000055e+03
4.800000000000000100e-02 5.421249999999999680e-01 2.994069999999999787e+00 4.577859999999999729e+01 1.482220000000000027e+03
4.900000000000000189e-02 5.422765000000000502e-01 3.579674999999999940e+00 4.644735000000000014e+01 1.482340000000000146e+03
5.000000000000000278e-02 5.425004999999999411e-01 4.287379999999999747e+00 4.743829999999999814e+01 1.482550000000000182e+03
5.100000000000000366e-02 5.427960000000000562e-01 5.119679999999999787e+00 4.874230000000000018e+01 1.482844999999999800e+03
5.200000000000000455e-02 5.431599999999999762e-01 6.077090000000000103e+00 5.034805000000000064e+01 1.483224999999999909e+03
5.300000000000000544e-02 5.435894999999999477e-01 7.156954999999999956e+00 5.224074999999999847e+01 1.483684999999999945e+03
5.399999999999999939e-02 5.440800000000000081e-01 8.352845000000000297e+00 5.440129999999999200e+01 1.484220000000000027e+03
5.500000000000000028e-02 5.446254999999999846e-01 9.653959999999999653e+00 5.680559999999999832e+01 1.484825000000000045e+03
5.600000000000000117e-02 5.452185000000000503e-01 1.104556999999999967e+01 5.942464999999999975e+01 1.485500000000000000e+03
5.700000000000000205e-02 5.458505000000000162e-01 1.250987999999999900e+01 6.222520000000000095e+01 1.486224999999999909e+03
5.800000000000000294e-02 5.465119999999999978e-01 1.402673499999999862e+01 6.517079999999999984e+01 1.486994999999999891e+03
5.900000000000000383e-02 5.471949999999999870e-01 1.557521000000000022e+01 6.822339999999999804e+01 1.487799999999999955e+03
6.000000000000000472e-02 5.478905000000000580e-01 1.713455499999999887e+01 7.134524999999999295e+01 1.488640000000000100e+03
6.099999999999999867e-02 5.485910000000000508e-01 1.868544999999999945e+01 7.450069999999999482e+01 1.489494999999999891e+03
6.199999999999999956e-02 5.492894999999999861e-01 2.021079999999999899e+01 7.765744999999999720e+01 1.490360000000000127e+03
6.300000000000000044e-02 5.499804999999999833e-01 2.169620000000000104e+01 8.078799999999999670e+01 1.491224999999999909e+03
6.400000000000000133e-02 5.506609999999999561e-01 2.313040000000000163e+01 8.387035000000000196e+01 1.492085000000000036e+03
6.500000000000000222e-02 5.513270000000000115e-01 2.450500000000000256e+01 8.688830000000000098e+01 1.492934999999999945e+03
6.600000000000000311e-02 5.519775000000000098e-01 2.581429999999999936e+01 8.983145000000000380e+01 1.493769999999999982e+03
6.700000000000000400e-02 5.526124999999999510e-01 2.705525000000000091e+01 9.269370000000000687e+01 1.494595000000000027e+03
6.800000000000000488e-02 5.532319999999999460e-01 2.822670000000000101e+01 9.547509999999999764e+01 1.495400000000000091e+03
6.900000000000000577e-02 5.538359999999999950e-01 2.932884999999999920e+01 9.817740000000000578e+01 1.496180000000000064e+03
7.000000000000000666e-02 5.544275000000000730e-01 3.036315000000000097e+01 1.008054999999999950e+02 1.496950000000000045e+03
7.100000000000000755e-02 5.550064999999999582e-01 3.133149999999999835e+01 1.033659000000000106e+02 1.497700000000000045e+03
7.200000000000000844e-02 5.555749999999999300e-01 3.223600000000000421e+01 1.058659000000000106e+02 1.498434999999999945e+03
7.300000000000000933e-02 5.561340000000000172e-01 3.307869999999999777e+01 1.083110000000000070e+02 1.499154999999999973e+03
7.399999999999999634e-02 5.566834999999999978e-01 3.386110000000000042e+01 1.107065000000000055e+02 1.499860000000000127e+03
7.499999999999999722e-02 5.572250000000000814e-01 3.458414999999999395e+01 1.130560000000000116e+02 1.500554999999999836e+03
7.599999999999999811e-02 5.577570000000000583e-01 3.524814999999999543e+01 1.153594999999999970e+02 1.501235000000000127e+03
7.699999999999999900e-02 5.582795000000000396e-01 3.585250000000000625e+01 1.176159999999999997e+02 1.501909999999999854e+03
7.799999999999999989e-02 5.587904999999999678e-01 3.639580000000000126e+01 1.198215000000000003e+02 1.502565000000000055e+03
7.900000000000000078e-02 5.592889999999999251e-01 3.687635000000000218e+01 1.219695000000000107e+02 1.503204999999999927e+03
8.000000000000000167e-02 5.597725000000000062e-01 3.729184999999999661e+01 1.240519999999999925e+02 1.503829999999999927e+03
8.100000000000000255e-02 5.602390000000000425e-01 3.763984999999999559e+01 1.260595000000000141e+02 1.504429999999999836e+03
8.200000000000000344e-02 5.606854999999999478e-01 3.791805000000000092e+01 1.279830000000000041e+02 1.505014999999999873e+03
8.300000000000000433e-02 5.611099999999999977e-01 3.812425000000000352e+01 1.298109999999999786e+02 1.505569999999999936e+03
8.400000000000000522e-02 5.615105000000000235e-01 3.825679999999999836e+01 1.315335000000000036e+02 1.506094999999999800e+03
8.500000000000000611e-02 5.618849999999999678e-01 3.831459999999999866e+01 1.331430000000000007e+02 1.506595000000000027e+03
8.600000000000000699e-02 5.622320000000000650e-01 3.829724999999999824e+01 1.346305000000000121e+02 1.507065000000000055e+03
8.700000000000000788e-02 5.625504999999999534e-01 3.820510000000000161e+01 1.359904999999999973e+02 1.507494999999999891e+03
8.800000000000000877e-02 5.628389999999999782e-01 3.803909999999999769e+01 1.372179999999999893e+02 1.507884999999999991e+03
8.899999999999999578e-02 5.630969999999999587e-01 3.780119999999999436e+01 1.383114999999999952e+02 1.508240000000000009e+03
8.999999999999999667e-02 5.633254999999999235e-01 3.749379999999999313e+01 1.392685000000000173e+02 1.508559999999999945e+03
9.099999999999999756e-02 5.635234999999999550e-01 3.712030000000000030e+01 1.400919999999999845e+02 1.508840000000000146e+03
9.199999999999999845e-02 5.636925000000000407e-01 3.668460000000000321e+01 1.407835000000000036e+02 1.509079999999999927e+03
9.299999999999999933e-02 5.638334999999999875e-01 3.619134999999999991e+01 1.413480000000000132e+02 1.509284999999999854e+03
9.400000000000000022e-02 5.639469999999999761e-01 3.564574999999999960e+01 1.417919999999999732e+02 1.509454999999999927e+03
9.500000000000000111e-02 5.640359999999999818e-01 3.505375000000000085e+01 1.421229999999999905e+02 1.509590000000000146e+03
9.600000000000000200e-02 5.641019999999999923e-01 3.442154999999999632e+01 1.423495000000000061e+02 1.509695000000000164e+03
9.700000000000000289e-02 5.641469999999999541e-01 3.375594999999999857e+01 1.424819999999999993e+02 1.509764999999999873e+03
9.800000000000000377e-02 5.641730000000000356e-01 3.306395000000000550e+01 1.425304999999999893e+02 1.509815000000000055e+03
9.900000000000000466e-02 5.641834999999999489e-01 3.235264999999999702e+01 1.425070000000000050e+02 1.509840000000000146e+03
1.000000000000000056e-01 5.641804999999999737e-01 3.162904999999999944e+01 1.424230000000000018e+02 1.509845000000000027e+03
1.010000000000000064e-01 5.641669999999999741e-01 3.089999999999999858e+01 1.422899999999999920e+02 1.509829999999999927e+03
1.020000000000000073e-01 5.641450000000000076e-01 3.017184999999999917e+01 1.421200000000000045e+02 1.509805000000000064e+03
1.030000000000000082e-01 5.641160000000000618e-01 2.945025000000000048e+01 1.419225000000000136e+02 1.509764999999999873e+03
1.040000000000000091e-01 5.640834999999999599e-01 2.874010000000000176e+01 1.417074999999999818e+02 1.509720000000000027e+03
1.050000000000000100e-01 5.640479999999999938e-01 2.804540000000000077e+01 1.414830000000000041e+02 1.509664999999999964e+03
1.059999999999999970e-01 5.640110000000000401e-01 2.736890000000000356e+01 1.412549999999999955e+02 1.509605000000000018e+03
1.069999999999999979e-01 5.639739999999999753e-01 2.671249999999999858e+01 1.410289999999999964e+02 1.509550000000000182e+03
1.079999999999999988e-01 5.639365000000000627e-01 2.607679999999999865e+01 1.408075000000000045e+02 1.509485000000000127e+03
1.089999999999999997e-01 5.638994999999999980e-01 2.546144999999999925e+01 1.405919999999999845e+02 1.509430000000000064e+03
1.100000000000000006e-01 5.638615000000000155e-01 2.486500000000000199e+01 1.403814999999999884e+02 1.509369999999999891e+03
1.110000000000000014e-01 5.638229999999999631e-01 2.428539999999999921e+01 1.401750000000000114e+02 1.509305000000000064e+03
1.120000000000000023e-01 5.637830000000000341e-01 2.371979999999999933e+01 1.399689999999999941e+02 1.509244999999999891e+03
1.130000000000000032e-01 5.637404999999999777e-01 2.316489999999999938e+01 1.397590000000000146e+02 1.509184999999999945e+03
1.140000000000000041e-01 5.636935000000000695e-01 2.261695000000000277e+01 1.395409999999999968e+02 1.509119999999999891e+03
1.150000000000000050e-01 5.636430000000000051e-01 2.207235000000000014e+01 1.393089999999999975e+02 1.509050000000000182e+03
1.160000000000000059e-01 5.635864999999999903e-01 2.152720000000000056e+01 1.390589999999999975e+02 1.508980000000000018e+03
1.170000000000000068e-01 5.635229999999999961e-01 2.097814999999999941e+01 1.387860000000000014e+02 1.508894999999999982e+03
1.180000000000000077e-01 5.634525000000000228e-01 2.042195000000000249e+01 1.384859999999999900e+02 1.508815000000000055e+03
1.190000000000000085e-01 5.633740000000000414e-01 1.985604999999999976e+01 1.381555000000000177e+02 1.508720000000000027e+03
1.200000000000000094e-01 5.632874999999999410e-01 1.927824999999999989e+01 1.377920000000000016e+02 1.508619999999999891e+03
1.209999999999999964e-01 5.631930000000000547e-01 1.868715000000000259e+01 1.373949999999999818e+02 1.508509999999999991e+03
1.219999999999999973e-01 5.630899999999999794e-01 1.808210000000000051e+01 1.369639999999999986e+02 1.508389999999999873e+03
1.229999999999999982e-01 5.629794999999999661e-01 1.746320000000000050e+01 1.365004999999999882e+02 1.508264999999999873e+03
1.239999999999999991e-01 5.628619999999999735e-01 1.683125000000000071e+01 1.360065000000000168e+02 1.508130000000000109e+03
1.250000000000000000e-01 5.627394999999999481e-01 1.618779999999999930e+01 1.354864999999999782e+02 1.507990000000000009e+03
1.260000000000000009e-01 5.626120000000000010e-01 1.553514999999999979e+01 1.349454999999999814e+02 1.507840000000000146e+03
1.270000000000000018e-01 5.624820000000000375e-01 1.487614999999999910e+01 1.343880000000000052e+02 1.507690000000000055e+03
1.280000000000000027e-01 5.623504999999999754e-01 1.421425999999999945e+01 1.338215000000000146e+02 1.507529999999999973e+03
1.290000000000000036e-01 5.622194999999999832e-01 1.355328499999999892e+01 1.332535000000000025e+02 1.507369999999999891e+03
1.300000000000000044e-01 5.620899999999999785e-01 1.289747000000000199e+01 1.326915000000000191e+02 1.507215000000000146e+03
1.310000000000000053e-01 5.619650000000000478e-01 1.225102000000000046e+01 1.321425000000000125e+02 1.507054999999999836e+03
1.320000000000000062e-01 5.618454999999999977e-01 1.161836999999999875e+01 1.316140000000000043e+02 1.506905000000000200e+03
1.330000000000000071e-01 5.617330000000000378e-01 1.100371499999999969e+01 1.311144999999999925e+02 1.506759999999999991e+03
1.340000000000000080e-01 5.616295000000000037e-01 1.041103500000000004e+01 1.306499999999999773e+02 1.506625000000000000e+03
1.350000000000000089e-01 5.615360000000000351e-01 9.843920000000000670e+00 1.302255000000000109e+02 1.506500000000000000e+03
1.360000000000000098e-01 5.614529999999999799e-01 9.305474999999999497e+00 1.298470000000000084e+02 1.506384999999999991e+03
1.370000000000000107e-01 5.613820000000000476e-01 8.798135000000000261e+00 1.295174999999999841e+02 1.506284999999999854e+03
1.380000000000000115e-01 5.613230000000000164e-01 8.323790000000000688e+00 1.292394999999999925e+02 1.506194999999999936e+03
1.390000000000000124e-01 5.612759999999999971e-01 7.883594999999999686e+00 1.290144999999999982e+02 1.506119999999999891e+03
1.400000000000000133e-01 5.612405000000000310e-01 7.478010000000000268e+00 1.288414999999999964e+02 1.506054999999999836e+03
1.410000000000000142e-01 5.612174999999999248e-01 7.106779999999999653e+00 1.287194999999999823e+02 1.506009999999999991e+03
1.420000000000000151e-01 5.612044999999999950e-01 6.769025000000000070e+00 1.286460000000000150e+02 1.505980000000000018e+03
1.430000000000000160e-01 5.612010000000000609e-01 6.463300000000000267e+00 1.286165000000000020e+02 1.505960000000000036e+03
1.440000000000000169e-01 5.612070000000000114e-01 6.187654999999999461e+00 1.286270000000000095e+02 1.505944999999999936e+03
1.450000000000000178e-01 5.612200000000000522e-01 5.939750000000000085e+00 1.286724999999999852e+02 1.505945000000000164e+03
1.459999999999999909e-01 5.612384999999999735e-01 5.716990000000000016e+00 1.287464999999999975e+02 1.505954999999999927e+03
1.469999999999999918e-01 5.612624999999999975e-01 5.516550000000000509e+00 1.288439999999999941e+02 1.505974999999999909e+03
1.479999999999999927e-01 5.612894999999999968e-01 5.335570000000000590e+00 1.289585000000000150e+02 1.505990000000000009e+03
1.489999999999999936e-01 5.613185000000000535e-01 5.171179999999999666e+00 1.290840000000000032e+02 1.506025000000000091e+03
1.499999999999999944e-01 5.613485000000000280e-01 5.020599999999999952e+00 1.292160000000000082e+02 1.506049999999999955e+03
1.509999999999999953e-01 5.613789999999999614e-01 4.881190000000000140e+00 1.293485000000000014e+02 1.506079999999999927e+03
1.519999999999999962e-01 5.614084999999999770e-01 4.750524999999999665e+00 1.294780000000000086e+02 1.506115000000000009e+03
1.529999999999999971e-01 5.614354999999999762e-01 4.626405000000000101e+00 1.296000000000000227e+02 1.506144999999999982e+03
1.539999999999999980e-01 5.614605000000000290e-01 4.506874999999999964e+00 1.297119999999999891e+02 1.506174999999999955e+03
1.549999999999999989e-01 5.614824999999999955e-01 4.390229999999999855e+00 1.298109999999999786e+02 1.506199999999999818e+03
1.559999999999999998e-01 5.615010000000000279e-01 4.275055000000000049e+00 1.298960000000000150e+02 1.506220000000000027e+03
1.570000000000000007e-01 5.615164999999999740e-01 4.160140000000000171e+00 1.299639999999999986e+02 1.506244999999999891e+03
1.580000000000000016e-01 5.615280000000000271e-01 4.044545000000000279e+00 1.300159999999999911e+02 1.506259999999999991e+03
1.590000000000000024e-01 5.615354999999999652e-01 3.927560000000000162e+00 1.300500000000000114e+02 1.506269999999999982e+03
