# t [s], A [cm^2], U [cm/s], P [cPa], c [cm/s]
1.000000000000000021e-03 4.644004999999999939e-01 3.266499999999998571e-03 9.084434999999999150e+01 1.512825000000000045e+03
2.000000000000000042e-03 4.643935000000000146e-01 -1.499009500000000102e-03 9.082675000000000409e+01 1.512819999999999936e+03
3.000000000000000062e-03 4.644169999999999687e-01 5.010715000000000308e-02 9.087489999999999668e+01 1.512829999999999927e+03
4.000000000000000083e-03 4.644559999999999800e-01 1.366880500000000054e-01 9.097899999999999920e+01 1.512865000000000009e+03
5.000000000000000104e-03 4.644625000000000004e-01 1.602796499999999957e-01 9.100880000000000791e+01 1.512875000000000000e+03
6.000000000000000125e-03 4.644349999999999867e-01 1.073800000000000171e-01 9.091669999999999163e+01 1.512855000000000018e+03
7.000000000000000146e-03 4.644019999999999815e-01 3.953599999999998782e-02 9.075800000000000978e+01 1.512820000000000164e+03
8.000000000000000167e-03 4.643694999999999906e-01 -3.146799999999999597e-02 9.055645000000001232e+01 1.512769999999999982e+03
9.000000000000001055e-03 4.643165000000000209e-01 -1.564325000000000299e-01 9.025825000000000387e+01 1.512695000000000164e+03
1.000000000000000194e-02 4.642310000000000048e-01 -3.636749999999999705e-01 8.981489999999999441e+01 1.512595000000000027e+03
1.099999999999999936e-02 4.641085000000000349e-01 -6.615750000000001352e-01 8.919290000000000873e+01 1.512440000000000055e+03
1.200000000000000025e-02 4.639389999999999903e-01 -1.064165000000000028e+00 8.835085000000000832e+01 1.512230000000000018e+03
1.300000000000000114e-02 4.637195000000000067e-01 -1.571979999999999933e+00 8.725934999999999775e+01 1.511954999999999927e+03
1.400000000000000203e-02 4.634604999999999975e-01 -2.143480000000000274e+00 8.594079999999999586e+01 1.511619999999999891e+03
1.499999999999999944e-02 4.631895000000000318e-01 -2.697969999999999757e+00 8.447825000000000273e+01 1.511235000000000127e+03
1.600000000000000033e-02 4.629354999999999998e-01 -3.147110000000000074e+00 8.298545000000000016e+01 1.510829999999999927e+03
1.700000000000000122e-02 4.627169999999999894e-01 -3.427556000000000047e+00 8.156444999999999368e+01 1.510420000000000073e+03
1.800000000000000211e-02 4.625380000000000047e-01 -3.516586499999999837e+00 8.027549999999999386e+01 1.510029999999999973e+03
1.900000000000000300e-02 4.623875000000000068e-01 -3.429435499999999859e+00 7.912889999999998736e+01 1.509670000000000073e+03
2.000000000000000042e-02 4.622509999999999675e-01 -3.205795000000000172e+00 7.809399999999999409e+01 1.509325000000000045e+03
2.100000000000000130e-02 4.621089999999999920e-01 -2.893101950000000144e+00 7.711730000000000018e+01 1.508994999999999891e+03
2.200000000000000219e-02 4.619514999999999594e-01 -2.531935999999999964e+00 7.614294999999999902e+01 1.508664999999999964e+03
2.299999999999999961e-02 4.617715000000000014e-01 -2.146484000000000059e+00 7.512985000000000468e+01 1.508319999999999936e+03
2.400000000000000050e-02 4.615715000000000234e-01 -1.741884999999999906e+00 7.406119999999999948e+01 1.507965000000000146e+03
2.500000000000000139e-02 4.613599999999999923e-01 -1.308394999999999975e+00 7.294480000000000075e+01 1.507599999999999909e+03
2.600000000000000228e-02 4.611445000000000127e-01 -8.302950000000000053e-01 7.180495000000000516e+01 1.507220000000000027e+03
2.700000000000000316e-02 4.609330000000000371e-01 -2.960550000000001791e-01 7.066980000000000928e+01 1.506849999999999909e+03
2.800000000000000058e-02 4.607284999999999853e-01 2.938300000000000356e-01 6.955885000000000673e+01 1.506474999999999909e+03
2.900000000000000147e-02 4.605279999999999929e-01 9.233899999999999331e-01 6.847450000000000614e+01 1.506110000000000127e+03
3.000000000000000236e-02 4.603245000000000253e-01 1.562394999999999978e+00 6.739934999999999832e+01 1.505744999999999891e+03
3.099999999999999978e-02 4.601070000000000437e-01 2.171489999999999920e+00 6.629975000000000307e+01 1.505375000000000000e+03
3.200000000000000067e-02 4.598659999999999970e-01 2.709624999999999950e+00 6.513300000000000978e+01 1.504990000000000009e+03
3.300000000000000155e-02 4.595924999999999594e-01 3.142109999999999737e+00 6.385844999999999771e+01 1.504585000000000036e+03
3.400000000000000244e-02 4.592834999999999557e-01 3.447594999999999743e+00 6.244814999999999827e+01 1.504150000000000091e+03
3.500000000000000333e-02 4.589420000000000166e-01 3.622399999999999842e+00 6.089549999999999841e+01 1.503674999999999955e+03
3.600000000000000422e-02 4.585770000000000124e-01 3.681215000000000348e+00 5.921994999999999720e+01 1.503174999999999955e+03
3.700000000000000511e-02 4.582019999999999982e-01 3.654215000000000657e+00 5.746625000000000227e+01 1.502655000000000200e+03
3.799999999999999906e-02 4.578320000000000167e-01 3.581714999999999538e+00 5.569919999999999760e+01 1.502125000000000000e+03
3.899999999999999994e-02 4.574849999999999750e-01 3.507530000000000037e+00 5.399544999999999817e+01 1.501610000000000127e+03
4.000000000000000083e-02 4.571760000000000268e-01 3.473289999999999544e+00 5.243449999999999989e+01 1.501134999999999991e+03
4.100000000000000172e-02 4.569175000000000320e-01 3.514280000000000292e+00 5.109049999999999869e+01 1.500710000000000036e+03
4.200000000000000261e-02 4.567189999999999861e-01 3.657329999999999970e+00 5.002680000000000149e+01 1.500355000000000018e+03
4.300000000000000350e-02 4.565875000000000350e-01 3.920793499999999820e+00 4.929255000000000564e+01 1.500090000000000146e+03
4.400000000000000439e-02 4.565259999999999874e-01 4.315889999999999560e+00 4.892235000000000156e+01 1.499914999999999964e+03
4.499999999999999833e-02 4.565365000000000117e-01 4.848794999999999966e+00 4.893775000000000119e+01 1.499855000000000018e+03
4.599999999999999922e-02 4.566204999999999847e-01 5.522904999999999731e+00 4.934964999999999691e+01 1.499900000000000091e+03
4.700000000000000011e-02 4.567765000000000297e-01 6.340574999999999406e+00 5.016134999999999877e+01 1.500074999999999818e+03
4.800000000000000100e-02 4.570054999999999534e-01 7.304130000000000678e+00 5.137085000000000434e+01 1.500355000000000018e+03
4.900000000000000189e-02 4.573070000000000190e-01 8.416055000000000064e+00 5.297310000000000230e+01 1.500755000000000109e+03
5.000000000000000278e-02 4.576789999999999470e-01 9.678005000000000635e+00 5.495980000000000132e+01 1.501269999999999982e+03
5.100000000000000366e-02 4.581210000000000004e-01 1.108995499999999979e+01 5.731969999999999743e+01 1.501904999999999973e+03
5.200000000000000455e-02 4.586299999999999821e-01 1.264873499999999851e+01 6.003725000000000023e+01 1.502639999999999873e+03
5.300000000000000544e-02 4.592014999999999847e-01 1.434691000000000116e+01 6.309165000000000134e+01 1.503490000000000009e+03
5.399999999999999939e-02 4.598299999999999610e-01 1.617226000000000141e+01 6.645600000000000307e+01 1.504429999999999836e+03
5.500000000000000028e-02 4.605090000000000017e-01 1.810785500000000070e+01 7.009699999999999420e+01 1.505460000000000036e+03
5.600000000000000117e-02 4.612304999999999877e-01 2.013262999999999892e+01 7.397549999999999670e+01 1.506574999999999818e+03
5.700000000000000205e-02 4.619845000000000201e-01 2.222234999999999872e+01 7.804755000000000109e+01 1.507750000000000000e+03
5.800000000000000294e-02 4.627625000000000210e-01 2.435094999999999743e+01 8.226630000000000109e+01 1.508984999999999900e+03
5.900000000000000383e-02 4.635564999999999825e-01 2.649224999999999852e+01 8.658344999999999914e+01 1.510259999999999991e+03
6.000000000000000472e-02 4.643565000000000054e-01 2.862069999999999936e+01 9.095250000000000057e+01 1.511565000000000055e+03
6.099999999999999867e-02 4.651549999999999851e-01 3.071310000000000073e+01 9.532974999999999000e+01 1.512880000000000109e+03
6.199999999999999956e-02 4.659464999999999857e-01 3.274884999999999735e+01 9.967645000000000266e+01 1.514204999999999927e+03
6.300000000000000044e-02 4.667255000000000154e-01 3.471099999999999852e+01 1.039589499999999873e+02 1.515519999999999982e+03
6.400000000000000133e-02 4.674874999999999448e-01 3.658599999999999852e+01 1.081510999999999996e+02 1.516820000000000164e+03
6.500000000000000222e-02 4.682294999999999652e-01 3.836375000000000313e+01 1.122337500000000006e+02 1.518099999999999909e+03
6.600000000000000311e-02 4.689510000000000067e-01 4.003739999999999810e+01 1.161945000000000050e+02 1.519349999999999909e+03
6.700000000000000400e-02 4.696510000000000407e-01 4.160294999999999987e+01 1.200244999999999891e+02 1.520569999999999936e+03
6.800000000000000488e-02 4.703295000000000115e-01 4.305870000000000175e+01 1.237235000000000014e+02 1.521755000000000109e+03
6.900000000000000577e-02 4.709870000000000445e-01 4.440484999999999616e+01 1.272934999999999945e+02 1.522904999999999973e+03
7.000000000000000666e-02 4.716249999999999609e-01 4.564294999999999902e+01 1.307400000000000091e+02 1.524025000000000091e+03
7.100000000000000755e-02 4.722439999999999971e-01 4.677540000000000475e+01 1.340679999999999836e+02 1.525110000000000127e+03
7.200000000000000844e-02 4.728455000000000297e-01 4.780519999999999925e+01 1.372874999999999943e+02 1.526164999999999964e+03
7.300000000000000933e-02 4.734315000000000051e-01 4.873530000000000229e+01 1.404045000000000130e+02 1.527190000000000055e+03
7.399999999999999634e-02 4.740010000000000057e-01 4.956855000000000189e+01 1.434244999999999948e+02 1.528184999999999945e+03
7.499999999999999722e-02 4.745550000000000601e-01 5.030734999999999957e+01 1.463524999999999920e+02 1.529150000000000091e+03
7.599999999999999811e-02 4.750944999999999752e-01 5.095354999999999990e+01 1.491904999999999859e+02 1.530095000000000027e+03
7.699999999999999900e-02 4.756175000000000264e-01 5.150829999999999842e+01 1.519379999999999882e+02 1.531005000000000109e+03
7.799999999999999989e-02 4.761234999999999773e-01 5.197244999999999493e+01 1.545919999999999845e+02 1.531889999999999873e+03
7.900000000000000078e-02 4.766115000000000212e-01 5.234619999999999607e+01 1.571480000000000246e+02 1.532744999999999891e+03
8.000000000000000167e-02 4.770804999999999629e-01 5.262959999999999638e+01 1.595995000000000061e+02 1.533565000000000055e+03
8.100000000000000255e-02 4.775285000000000224e-01 5.282264999999999588e+01 1.619384999999999764e+02 1.534355000000000018e+03
8.200000000000000344e-02 4.779535000000000311e-01 5.292549999999999955e+01 1.641574999999999989e+02 1.535105000000000018e+03
8.300000000000000433e-02 4.783555000000000446e-01 5.293874999999999886e+01 1.662484999999999786e+02 1.535820000000000164e+03
8.400000000000000522e-02 4.787314999999999765e-01 5.286324999999999363e+01 1.682035000000000196e+02 1.536490000000000009e+03
8.500000000000000611e-02 4.790809999999999791e-01 5.270060000000000144e+01 1.700165000000000077e+02 1.537119999999999891e+03
8.600000000000000699e-02 4.794034999999999824e-01 5.245279999999999632e+01 1.716820000000000164e+02 1.537704999999999927e+03
8.700000000000000788e-02 4.796985000000000277e-01 5.212254999999999683e+01 1.731970000000000027e+02 1.538240000000000009e+03
8.800000000000000877e-02 4.799649999999999750e-01 5.171330000000000382e+01 1.745590000000000259e+02 1.538730000000000018e+03
8.899999999999999578e-02 4.802035000000000053e-01 5.122879999999999967e+01 1.757685000000000173e+02 1.539170000000000073e+03
8.999999999999999667e-02 4.804144999999999666e-01 5.067359999999999332e+01 1.768269999999999982e+02 1.539555000000000064e+03
9.099999999999999756e-02 4.805985000000000396e-01 5.005270000000000152e+01 1.777390000000000043e+02 1.539904999999999973e+03
9.199999999999999845e-02 4.807559999999999611e-01 4.937170000000000414e+01 1.785074999999999932e+02 1.540204999999999927e+03
9.299999999999999933e-02 4.808890000000000109e-01 4.863665000000000305e+01 1.791409999999999911e+02 1.540454999999999927e+03
9.400000000000000022e-02 4.809984999999999955e-01 4.785410000000000252e+01 1.796469999999999914e+02 1.540664999999999964e+03
9.500000000000000111e-02 4.810864999999999725e-01 4.703090000000000259e+01 1.800344999999999800e+02 1.540840000000000146e+03
9.600000000000000200e-02 4.811545000000000405e-01 4.617435000000000400e+01 1.803145000000000095e+02 1.540970000000000027e+03
9.700000000000000289e-02 4.812049999999999939e-01 4.529180000000000206e+01 1.804984999999999786e+02 1.541075000000000045e+03
9.800000000000000377e-02 4.812400000000000011e-01 4.439065000000000083e+01 1.805985000000000014e+02 1.541144999999999982e+03
9.900000000000000466e-02 4.812619999999999676e-01 4.347809999999999775e+01 1.806250000000000000e+02 1.541184999999999945e+03
1.000000000000000056e-01 4.812724999999999920e-01 4.256095000000000539e+01 1.805925000000000011e+02 1.541204999999999927e+03
1.010000000000000064e-01 4.812734999999999652e-01 4.164544999999999675e+01 1.805104999999999791e+02 1.541210000000000036e+03
1.020000000000000073e-01 4.812674999999999592e-01 4.073699999999999477e+01 1.803894999999999982e+02 1.541195000000000164e+03
1.030000000000000082e-01 4.812549999999999883e-01 3.984000000000000341e+01 1.802395000000000209e+02 1.541164999999999964e+03
1.040000000000000091e-01 4.812385000000000135e-01 3.895780000000000598e+01 1.800674999999999955e+02 1.541125000000000000e+03
1.050000000000000100e-01 4.812174999999999647e-01 3.809230000000000160e+01 1.798790000000000191e+02 1.541079999999999927e+03
1.059999999999999970e-01 4.811934999999999962e-01 3.724445000000000050e+01 1.796779999999999973e+02 1.541025000000000091e+03
1.069999999999999979e-01 4.811659999999999826e-01 3.641389999999999816e+01 1.794655000000000200e+02 1.540965000000000146e+03
1.079999999999999988e-01 4.811349999999999794e-01 3.559909999999999997e+01 1.792419999999999902e+02 1.540900000000000091e+03
1.089999999999999997e-01 4.810999999999999721e-01 3.479769999999999897e+01 1.790045000000000073e+02 1.540824999999999818e+03
1.100000000000000006e-01 4.810600000000000431e-01 3.400665000000000049e+01 1.787504999999999882e+02 1.540750000000000000e+03
1.110000000000000014e-01 4.810150000000000259e-01 3.322214999999999918e+01 1.784749999999999943e+02 1.540664999999999964e+03
1.120000000000000023e-01 4.809630000000000294e-01 3.244030000000000058e+01 1.781730000000000018e+02 1.540570000000000164e+03
1.130000000000000032e-01 4.809035000000000393e-01 3.165704999999999814e+01 1.778389999999999986e+02 1.540464999999999918e+03
1.140000000000000041e-01 4.808359999999999856e-01 3.086845000000000283e+01 1.774670000000000130e+02 1.540349999999999909e+03
1.150000000000000050e-01 4.807584999999999775e-01 3.007085000000000008e+01 1.770520000000000209e+02 1.540230000000000018e+03
1.160000000000000059e-01 4.806715000000000293e-01 2.926099999999999923e+01 1.765899999999999750e+02 1.540090000000000146e+03
1.170000000000000068e-01 4.805745000000000156e-01 2.843629999999999924e+01 1.760780000000000030e+02 1.539934999999999945e+03
1.180000000000000077e-01 4.804669999999999774e-01 2.759485000000000099e+01 1.755130000000000052e+02 1.539764999999999873e+03
1.190000000000000085e-01 4.803485000000000116e-01 2.673530000000000229e+01 1.748944999999999936e+02 1.539579999999999927e+03
1.200000000000000094e-01 4.802204999999999391e-01 2.585725000000000051e+01 1.742220000000000084e+02 1.539380000000000109e+03
1.209999999999999964e-01 4.800824999999999676e-01 2.496090000000000231e+01 1.734979999999999905e+02 1.539159999999999854e+03
1.219999999999999973e-01 4.799350000000000005e-01 2.404729999999999990e+01 1.727245000000000061e+02 1.538930000000000064e+03
1.229999999999999982e-01 4.797799999999999843e-01 2.311820000000000164e+01 1.719060000000000059e+02 1.538680000000000064e+03
1.239999999999999991e-01 4.796170000000000155e-01 2.217584999999999695e+01 1.710475000000000136e+02 1.538424999999999955e+03
1.250000000000000000e-01 4.794485000000000552e-01 2.122334999999999994e+01 1.701539999999999964e+02 1.538154999999999973e+03
1.260000000000000009e-01 4.792755000000000210e-01 2.026409999999999911e+01 1.692330000000000041e+02 1.537875000000000000e+03
1.270000000000000018e-01 4.790989999999999971e-01 1.930205000000000126e+01 1.682909999999999968e+02 1.537590000000000146e+03
1.280000000000000027e-01 4.789205000000000267e-01 1.834140000000000015e+01 1.673355000000000246e+02 1.537295000000000073e+03
1.290000000000000036e-01 4.787414999999999865e-01 1.738654999999999973e+01 1.663745000000000118e+02 1.537000000000000000e+03
1.300000000000000044e-01 4.785635000000000305e-01 1.644209999999999994e+01 1.654150000000000205e+02 1.536699999999999818e+03
1.310000000000000053e-01 4.783874999999999655e-01 1.551262499999999989e+01 1.644644999999999868e+02 1.536409999999999854e+03
1.320000000000000062e-01 4.782159999999999744e-01 1.460257000000000005e+01 1.635300000000000011e+02 1.536115000000000009e+03
1.330000000000000071e-01 4.780484999999999873e-01 1.371614000000000111e+01 1.626189999999999998e+02 1.535824999999999818e+03
1.340000000000000080e-01 4.778870000000000062e-01 1.285733499999999907e+01 1.617355000000000018e+02 1.535545000000000073e+03
1.350000000000000089e-01 4.777320000000000455e-01 1.202965999999999980e+01 1.608865000000000123e+02 1.535275000000000091e+03
1.360000000000000098e-01 4.775844999999999674e-01 1.123601999999999990e+01 1.600749999999999886e+02 1.535009999999999991e+03
1.370000000000000107e-01 4.774454999999999671e-01 1.047886499999999899e+01 1.593045000000000186e+02 1.534759999999999991e+03
1.380000000000000115e-01 4.773134999999999462e-01 9.759999999999999787e+00 1.585774999999999864e+02 1.534525000000000091e+03
1.390000000000000124e-01 4.771904999999999619e-01 9.080619999999999692e+00 1.578944999999999936e+02 1.534295000000000073e+03
1.400000000000000133e-01 4.770750000000000268e-01 8.441114999999999924e+00 1.572549999999999955e+02 1.534079999999999927e+03
1.410000000000000142e-01 4.769679999999999476e-01 7.841359999999999886e+00 1.566589999999999918e+02 1.533880000000000109e+03
1.420000000000000151e-01 4.768674999999999997e-01 7.280590000000000117e+00 1.561030000000000086e+02 1.533690000000000055e+03
1.430000000000000160e-01 4.767744999999999900e-01 6.757614999999999483e+00 1.555854999999999961e+02 1.533514999999999873e+03
1.440000000000000169e-01 4.766865000000000130e-01 6.270725000000000549e+00 1.551024999999999920e+02 1.533345000000000027e+03
1.450000000000000178e-01 4.766044999999999865e-01 5.817909999999999471e+00 1.546494999999999891e+02 1.533190000000000055e+03
1.459999999999999909e-01 4.765264999999999640e-01 5.396925000000000416e+00 1.542224999999999966e+02 1.533039999999999964e+03
1.469999999999999918e-01 4.764519999999999866e-01 5.005419999999999980e+00 1.538179999999999836e+02 1.532894999999999982e+03
1.479999999999999927e-01 4.763804999999999845e-01 4.640990000000000393e+00 1.534304999999999950e+02 1.532759999999999991e+03
1.489999999999999936e-01 4.763109999999999844e-01 4.301285000000000025e+00 1.530575000000000045e+02 1.532634999999999991e+03
1.499999999999999944e-01 4.762435000000000418e-01 3.984059999999999935e+00 1.526940000000000168e+02 1.532505000000000109e+03
1.509999999999999953e-01 4.761765000000000025e-01 3.687205000000000066e+00 1.523385000000000105e+02 1.532384999999999991e+03
1.519999999999999962e-01 4.761104999999999920e-01 3.408794999999999575e+00 1.519875000000000114e+02 1.532264999999999873e+03
1.529999999999999971e-01 4.760444999999999816e-01 3.147064999999999557e+00 1.516390000000000100e+02 1.532144999999999982e+03
1.539999999999999980e-01 4.759790000000000409e-01 2.900399999999999867e+00 1.512920000000000016e+02 1.532029999999999973e+03
1.549999999999999989e-01 4.759134999999999893e-01 2.667340000000000266e+00 1.509449999999999932e+02 1.531914999999999964e+03
1.559999999999999998e-01 4.758475000000000343e-01 2.446483999999999881e+00 1.505969999999999800e+02 1.531799999999999955e+03
1.570000000000000007e-01 4.757810000000000095e-01 2.236524999999999874e+00 1.502479999999999905e+02 1.531684999999999945e+03
1.580000000000000016e-01 4.757144999999999846e-01 2.036167999999999978e+00 1.498969999999999914e+02 1.531570000000000164e+03
1.590000000000000024e-01 4.756475000000000009e-01 1.844126999999999850e+00 1.495434999999999945e+02 1.531454999999999927e+03
