# t [s], A [cm^2], U [cm/s], P [cPa], c [cm/s]
1.000000000000000021e-03 1.214044999999999985e-01 3.167609999999999593e-01 8.876265000000000782e+01 1.912554999999999836e+03
2.000000000000000042e-03 1.213779999999999998e-01 1.765269500000000047e+00 8.581794999999999618e+01 1.912230000000000018e+03
3.000000000000000062e-03 1.212965000000000015e-01 3.528146499999999630e+00 8.187869999999999493e+01 1.911279999999999973e+03
4.000000000000000083e-03 1.211804999999999966e-01 5.488747500000000556e+00 7.759399999999999409e+01 1.909944999999999936e+03
5.000000000000000104e-03 1.210514999999999924e-01 7.593160000000000132e+00 7.371659999999999968e+01 1.908474999999999909e+03
6.000000000000000125e-03 1.209244999999999903e-01 9.707195000000000462e+00 7.054144999999999754e+01 1.907049999999999955e+03
7.000000000000000146e-03 1.208044999999999952e-01 1.164625000000000021e+01 6.789724999999999966e+01 1.905714999999999918e+03
8.000000000000000167e-03 1.206935000000000091e-01 1.330872000000000099e+01 6.552994999999999948e+01 1.904494999999999891e+03
9.000000000000001055e-03 1.205924999999999914e-01 1.471294999999999931e+01 6.341929999999999268e+01 1.903410000000000082e+03
1.000000000000000194e-02 1.205045000000000005e-01 1.589869999999999983e+01 6.164515000000000100e+01 1.902474999999999909e+03
1.099999999999999936e-02 1.204304999999999959e-01 1.688129999999999953e+01 6.021130000000000848e+01 1.901695000000000164e+03
1.200000000000000025e-02 1.203694999999999904e-01 1.767229999999999990e+01 5.907240000000000180e+01 1.901059999999999945e+03
1.300000000000000114e-02 1.203199999999999964e-01 1.828239999999999910e+01 5.817305000000000348e+01 1.900545000000000073e+03
1.400000000000000203e-02 1.202795000000000114e-01 1.871574999999999989e+01 5.743384999999999962e+01 1.900139999999999873e+03
1.499999999999999944e-02 1.202459999999999918e-01 1.899064999999999870e+01 5.678610000000000468e+01 1.899809999999999945e+03
1.600000000000000033e-02 1.202190000000000064e-01 1.917239999999999966e+01 5.626914999999999623e+01 1.899545000000000073e+03
1.700000000000000122e-02 1.202004999999999879e-01 1.937304999999999922e+01 5.607654999999999745e+01 1.899375000000000000e+03
1.800000000000000211e-02 1.201969999999999983e-01 1.970840000000000103e+01 5.647684999999999889e+01 1.899355000000000018e+03
1.900000000000000300e-02 1.202124999999999999e-01 2.024030000000000129e+01 5.765384999999999849e+01 1.899525000000000091e+03
2.000000000000000042e-02 1.202485000000000082e-01 2.094384999999999764e+01 5.957489999999999952e+01 1.899909999999999854e+03
2.100000000000000130e-02 1.203015000000000057e-01 2.171334999999999837e+01 6.196344999999999459e+01 1.900465000000000146e+03
2.200000000000000219e-02 1.203624999999999973e-01 2.240214999999999890e+01 6.438054999999999950e+01 1.901125000000000000e+03
2.299999999999999961e-02 1.204215000000000008e-01 2.287334999999999852e+01 6.636834999999999241e+01 1.901764999999999873e+03
2.400000000000000050e-02 1.204699999999999938e-01 2.304175000000000040e+01 6.759149999999999636e+01 1.902299999999999955e+03
2.500000000000000139e-02 1.205005000000000104e-01 2.289450000000000074e+01 6.792640000000000100e+01 1.902650000000000091e+03
2.600000000000000228e-02 1.205124999999999946e-01 2.248579999999999757e+01 6.747299999999999898e+01 1.902804999999999836e+03
2.700000000000000316e-02 1.205080000000000040e-01 2.191075000000000017e+01 6.649504999999999200e+01 1.902775000000000091e+03
2.800000000000000058e-02 1.204919999999999880e-01 2.127049999999999841e+01 6.531595000000000084e+01 1.902625000000000000e+03
2.900000000000000147e-02 1.204719999999999958e-01 2.064170000000000016e+01 6.421314999999999884e+01 1.902414999999999964e+03
3.000000000000000236e-02 1.204515000000000030e-01 2.005920000000000059e+01 6.334485000000000809e+01 1.902200000000000045e+03
3.099999999999999978e-02 1.204339999999999855e-01 1.951549999999999940e+01 6.272745000000000459e+01 1.902014999999999873e+03
3.200000000000000067e-02 1.204189999999999983e-01 1.897370000000000090e+01 6.226189999999999714e+01 1.901849999999999909e+03
3.300000000000000155e-02 1.204044999999999976e-01 1.838839999999999719e+01 6.179164999999999708e+01 1.901700000000000045e+03
3.400000000000000244e-02 1.203879999999999950e-01 1.772640000000000171e+01 6.117090000000000316e+01 1.901525000000000091e+03
3.500000000000000333e-02 1.203670000000000018e-01 1.698199999999999932e+01 6.032235000000000014e+01 1.901305000000000064e+03
3.600000000000000422e-02 1.203410000000000035e-01 1.618445000000000178e+01 5.926995000000000147e+01 1.901034999999999854e+03
3.700000000000000511e-02 1.203114999999999879e-01 1.539299999999999891e+01 5.813939999999999486e+01 1.900724999999999909e+03
3.799999999999999906e-02 1.202820000000000000e-01 1.468444999999999823e+01 5.712720000000000198e+01 1.900414999999999964e+03
3.899999999999999994e-02 1.202575000000000033e-01 1.413429999999999964e+01 5.644915000000000305e+01 1.900150000000000091e+03
4.000000000000000083e-02 1.202420000000000017e-01 1.379855000000000054e+01 5.628239999999999554e+01 1.899980000000000018e+03
4.100000000000000172e-02 1.202399999999999858e-01 1.369995000000000118e+01 5.671855000000000047e+01 1.899944999999999936e+03
4.200000000000000261e-02 1.202524999999999983e-01 1.382260000000000133e+01 5.773839999999999861e+01 1.900059999999999945e+03
4.300000000000000350e-02 1.202789999999999970e-01 1.411469999999999914e+01 5.921359999999999957e+01 1.900324999999999818e+03
4.400000000000000439e-02 1.203154999999999919e-01 1.449845000000000006e+01 6.093144999999999811e+01 1.900700000000000045e+03
4.499999999999999833e-02 1.203569999999999918e-01 1.488349999999999973e+01 6.263455000000000439e+01 1.901139999999999873e+03
4.599999999999999922e-02 1.203984999999999916e-01 1.518094999999999928e+01 6.406520000000000437e+01 1.901574999999999818e+03
4.700000000000000011e-02 1.204324999999999979e-01 1.531550000000000011e+01 6.500479999999998881e+01 1.901940000000000055e+03
4.800000000000000100e-02 1.204550000000000065e-01 1.523310000000000031e+01 6.530100000000000193e+01 1.902190000000000055e+03
4.900000000000000189e-02 1.204619999999999858e-01 1.490484999999999971e+01 6.488065000000000282e+01 1.902269999999999982e+03
5.000000000000000278e-02 1.204504999999999881e-01 1.432584999999999908e+01 6.374805000000000632e+01 1.902154999999999973e+03
5.100000000000000366e-02 1.204215000000000008e-01 1.351164999999999949e+01 6.197150000000000603e+01 1.901855000000000018e+03
5.200000000000000455e-02 1.203754999999999964e-01 1.249255000000000138e+01 5.966370000000000573e+01 1.901380000000000109e+03
5.300000000000000544e-02 1.203150000000000053e-01 1.130781999999999954e+01 5.696014999999999873e+01 1.900739999999999782e+03
5.399999999999999939e-02 1.202430000000000027e-01 1.000059999999999860e+01 5.400019999999999953e+01 1.899980000000000018e+03
5.500000000000000028e-02 1.201630000000000059e-01 8.614494999999999791e+00 5.091445000000000221e+01 1.899130000000000109e+03
5.600000000000000117e-02 1.200779999999999903e-01 7.191749999999999865e+00 4.781740000000000634e+01 1.898230000000000018e+03
5.700000000000000205e-02 1.199904999999999999e-01 5.772714999999999819e+00 4.480665000000000475e+01 1.897304999999999836e+03
5.800000000000000294e-02 1.199044999999999972e-01 4.396214999999999762e+00 4.196569999999999823e+01 1.896384999999999991e+03
5.900000000000000383e-02 1.198214999999999975e-01 3.100205500000000391e+00 3.936854999999999905e+01 1.895494999999999891e+03
6.000000000000000472e-02 1.197445000000000037e-01 1.922165000000000123e+00 3.708395000000000152e+01 1.894674999999999955e+03
6.099999999999999867e-02 1.196755000000000041e-01 8.989599999999999813e-01 3.517849999999999966e+01 1.893925000000000182e+03
6.199999999999999956e-02 1.196165000000000145e-01 6.601999999999996760e-02 3.371659999999999968e+01 1.893289999999999964e+03
6.300000000000000044e-02 1.195700000000000096e-01 -5.440699999999999426e-01 3.275870000000000459e+01 1.892779999999999973e+03
6.400000000000000133e-02 1.195365000000000039e-01 -9.033503999999999978e-01 3.235770000000000124e+01 1.892414999999999964e+03
6.500000000000000222e-02 1.195195000000000007e-01 -9.903990000000000293e-01 3.255384999999999707e+01 1.892215000000000146e+03
6.600000000000000311e-02 1.195190000000000002e-01 -7.919300000000000228e-01 3.337069999999999936e+01 1.892195000000000164e+03
6.700000000000000400e-02 1.195364999999999900e-01 -3.039759999999999684e-01 3.481134999999999735e+01 1.892355000000000018e+03
6.800000000000000488e-02 1.195714999999999972e-01 4.676799999999999846e-01 3.685684999999999434e+01 1.892710000000000036e+03
6.900000000000000577e-02 1.196234999999999937e-01 1.507725999999999900e+00 3.946665000000000134e+01 1.893244999999999891e+03
7.000000000000000666e-02 1.196924999999999933e-01 2.792235750000000127e+00 4.258055000000000234e+01 1.893954999999999927e+03
7.100000000000000755e-02 1.197759999999999936e-01 4.290063499999999586e+00 4.612250000000000227e+01 1.894829999999999927e+03
7.200000000000000844e-02 1.198725000000000068e-01 5.964599999999999902e+00 5.000544999999999618e+01 1.895849999999999909e+03
7.300000000000000933e-02 1.199805000000000038e-01 7.775665000000000049e+00 5.413615000000000066e+01 1.896980000000000018e+03
7.399999999999999634e-02 1.200959999999999944e-01 9.681359999999999744e+00 5.842040000000000077e+01 1.898210000000000036e+03
7.499999999999999722e-02 1.202175000000000049e-01 1.164011999999999958e+01 6.276735000000000042e+01 1.899505000000000109e+03
7.599999999999999811e-02 1.203420000000000045e-01 1.361207999999999885e+01 6.709390000000000498e+01 1.900829999999999927e+03
7.699999999999999900e-02 1.204680000000000056e-01 1.556094999999999828e+01 7.132775000000000887e+01 1.902184999999999945e+03
7.799999999999999989e-02 1.205925000000000052e-01 1.745504999999999995e+01 7.541009999999999991e+01 1.903519999999999982e+03
7.900000000000000078e-02 1.207140000000000019e-01 1.926849999999999952e+01 7.929749999999999943e+01 1.904835000000000036e+03
8.000000000000000167e-02 1.208314999999999945e-01 2.098195000000000121e+01 8.296269999999999811e+01 1.906105000000000018e+03
8.100000000000000255e-02 1.209434999999999955e-01 2.258290000000000219e+01 8.639504999999999768e+01 1.907324999999999818e+03
8.200000000000000344e-02 1.210499999999999909e-01 2.406540000000000035e+01 8.959915000000000873e+01 1.908485000000000127e+03
8.300000000000000433e-02 1.211510000000000087e-01 2.543014999999999759e+01 9.259340000000000259e+01 1.909590000000000146e+03
8.400000000000000522e-02 1.212469999999999937e-01 2.668299999999999983e+01 9.540715000000000146e+01 1.910634999999999991e+03
8.500000000000000611e-02 1.213374999999999870e-01 2.783425000000000082e+01 9.807680000000000575e+01 1.911634999999999991e+03
8.600000000000000699e-02 1.214249999999999913e-01 2.889724999999999966e+01 1.006438499999999863e+02 1.912590000000000146e+03
8.700000000000000788e-02 1.215085000000000054e-01 2.988680000000000092e+01 1.031490000000000009e+02 1.913509999999999991e+03
8.800000000000000877e-02 1.215910000000000046e-01 3.081810000000000116e+01 1.056304999999999978e+02 1.914414999999999964e+03
8.899999999999999578e-02 1.216720000000000024e-01 3.170504999999999995e+01 1.081200000000000045e+02 1.915305000000000064e+03
8.999999999999999667e-02 1.217524999999999996e-01 3.255969999999999942e+01 1.106415000000000077e+02 1.916195000000000164e+03
9.099999999999999756e-02 1.218334999999999974e-01 3.339095000000000368e+01 1.132085000000000008e+02 1.917090000000000146e+03
9.199999999999999845e-02 1.219159999999999966e-01 3.420450000000000301e+01 1.158255000000000052e+02 1.917994999999999891e+03
9.299999999999999933e-02 1.219989999999999963e-01 3.500244999999999607e+01 1.184865000000000066e+02 1.918905000000000200e+03
9.400000000000000022e-02 1.220824999999999966e-01 3.578294999999999959e+01 1.211749999999999972e+02 1.919825000000000045e+03
9.500000000000000111e-02 1.221669999999999978e-01 3.654135000000000133e+01 1.238689999999999998e+02 1.920759999999999991e+03
9.600000000000000200e-02 1.222514999999999991e-01 3.726975000000000193e+01 1.265380000000000109e+02 1.921679999999999836e+03
9.700000000000000289e-02 1.223349999999999993e-01 3.795815000000000339e+01 1.291485000000000127e+02 1.922605000000000018e+03
9.800000000000000377e-02 1.224164999999999975e-01 3.859485000000000099e+01 1.316639999999999873e+02 1.923500000000000000e+03
9.900000000000000466e-02 1.224949999999999928e-01 3.916729999999999734e+01 1.340484999999999900e+02 1.924369999999999891e+03
1.000000000000000056e-01 1.225704999999999989e-01 3.966275000000000261e+01 1.362665000000000077e+02 1.925199999999999818e+03
1.010000000000000064e-01 1.226410000000000000e-01 4.006895000000000095e+01 1.382849999999999966e+02 1.925980000000000018e+03
1.020000000000000073e-01 1.227054999999999951e-01 4.037480000000000047e+01 1.400760000000000218e+02 1.926700000000000045e+03
1.030000000000000082e-01 1.227640000000000120e-01 4.057089999999999463e+01 1.416175000000000068e+02 1.927345000000000027e+03
1.040000000000000091e-01 1.228149999999999936e-01 4.064995000000000402e+01 1.428919999999999959e+02 1.927920000000000073e+03
1.050000000000000100e-01 1.228585000000000094e-01 4.060734999999999673e+01 1.438894999999999982e+02 1.928409999999999854e+03
1.059999999999999970e-01 1.228945000000000037e-01 4.044115000000000038e+01 1.446070000000000277e+02 1.928809999999999945e+03
1.069999999999999979e-01 1.229220000000000035e-01 4.015250000000000341e+01 1.450484999999999900e+02 1.929125000000000000e+03
1.079999999999999988e-01 1.229415000000000091e-01 3.974535000000000196e+01 1.452239999999999895e+02 1.929349999999999909e+03
1.089999999999999997e-01 1.229524999999999924e-01 3.922659999999999769e+01 1.451510000000000105e+02 1.929490000000000009e+03
1.100000000000000006e-01 1.229569999999999969e-01 3.860580000000000211e+01 1.448520000000000039e+02 1.929545000000000073e+03
1.110000000000000014e-01 1.229544999999999944e-01 3.789464999999999861e+01 1.443539999999999850e+02 1.929525000000000091e+03
1.120000000000000023e-01 1.229454999999999854e-01 3.710665000000000191e+01 1.436870000000000118e+02 1.929434999999999945e+03
1.130000000000000032e-01 1.229309999999999847e-01 3.625665000000000049e+01 1.428840000000000146e+02 1.929289999999999964e+03
1.140000000000000041e-01 1.229124999999999940e-01 3.536010000000000275e+01 1.419789999999999850e+02 1.929089999999999918e+03
1.150000000000000050e-01 1.228899999999999992e-01 3.443274999999999864e+01 1.410029999999999859e+02 1.928849999999999909e+03
1.160000000000000059e-01 1.228655000000000025e-01 3.348980000000000246e+01 1.399890000000000043e+02 1.928579999999999927e+03
1.170000000000000068e-01 1.228385000000000032e-01 3.254579999999999984e+01 1.389650000000000034e+02 1.928289999999999964e+03
1.180000000000000077e-01 1.228110000000000035e-01 3.161359999999999815e+01 1.379565000000000055e+02 1.927990000000000009e+03
1.190000000000000085e-01 1.227830000000000032e-01 3.070450000000000301e+01 1.369834999999999923e+02 1.927684999999999945e+03
1.200000000000000094e-01 1.227560000000000040e-01 2.982775000000000176e+01 1.360620000000000118e+02 1.927384999999999991e+03
1.209999999999999964e-01 1.227294999999999914e-01 2.899025000000000318e+01 1.352040000000000077e+02 1.927095000000000027e+03
1.219999999999999973e-01 1.227040000000000075e-01 2.819655000000000200e+01 1.344134999999999991e+02 1.926815000000000055e+03
1.229999999999999982e-01 1.226804999999999979e-01 2.744875000000000043e+01 1.336915000000000191e+02 1.926550000000000182e+03
1.239999999999999991e-01 1.226585000000000036e-01 2.674654999999999916e+01 1.330335000000000036e+02 1.926305000000000064e+03
1.250000000000000000e-01 1.226374999999999965e-01 2.608765000000000001e+01 1.324304999999999950e+02 1.926069999999999936e+03
1.260000000000000009e-01 1.226185000000000053e-01 2.546764999999999901e+01 1.318704999999999927e+02 1.925849999999999909e+03
1.270000000000000018e-01 1.225999999999999868e-01 2.488040000000000163e+01 1.313365000000000009e+02 1.925650000000000091e+03
1.280000000000000027e-01 1.225825000000000109e-01 2.431879999999999953e+01 1.308125000000000000e+02 1.925454999999999927e+03
1.290000000000000036e-01 1.225649999999999934e-01 2.377465000000000117e+01 1.302785000000000082e+02 1.925255000000000109e+03
1.300000000000000044e-01 1.225475000000000037e-01 2.323930000000000007e+01 1.297154999999999916e+02 1.925059999999999945e+03
1.310000000000000053e-01 1.225289999999999990e-01 2.270425000000000182e+01 1.291055000000000064e+02 1.924855000000000018e+03
1.320000000000000062e-01 1.225094999999999934e-01 2.216124999999999901e+01 1.284319999999999879e+02 1.924639999999999873e+03
1.330000000000000071e-01 1.224879999999999997e-01 2.160289999999999822e+01 1.276804999999999950e+02 1.924400000000000091e+03
1.340000000000000080e-01 1.224645000000000039e-01 2.102324999999999733e+01 1.268389999999999986e+02 1.924139999999999873e+03
1.350000000000000089e-01 1.224385000000000057e-01 2.041750000000000043e+01 1.259014999999999986e+02 1.923855000000000018e+03
1.360000000000000098e-01 1.224099999999999910e-01 1.978275000000000006e+01 1.248644999999999925e+02 1.923545000000000073e+03
1.370000000000000107e-01 1.223789999999999878e-01 1.911799999999999855e+01 1.237289999999999992e+02 1.923200000000000045e+03
1.380000000000000115e-01 1.223450000000000093e-01 1.842415000000000092e+01 1.225010000000000048e+02 1.922829999999999927e+03
1.390000000000000124e-01 1.223085000000000006e-01 1.770394999999999897e+01 1.211905000000000001e+02 1.922430000000000064e+03
1.400000000000000133e-01 1.222690000000000027e-01 1.696219999999999928e+01 1.198114999999999952e+02 1.922005000000000109e+03
1.410000000000000142e-01 1.222280000000000033e-01 1.620514999999999972e+01 1.183815000000000026e+02 1.921554999999999836e+03
1.420000000000000151e-01 1.221855000000000024e-01 1.544050000000000011e+01 1.169205000000000041e+02 1.921089999999999918e+03
1.430000000000000160e-01 1.221420000000000006e-01 1.467694999999999794e+01 1.154490000000000123e+02 1.920619999999999891e+03
1.440000000000000169e-01 1.220979999999999843e-01 1.392389999999999972e+01 1.139915000000000020e+02 1.920134999999999991e+03
1.450000000000000178e-01 1.220539999999999958e-01 1.319099999999999895e+01 1.125699999999999932e+02 1.919654999999999973e+03
1.459999999999999909e-01 1.220114999999999950e-01 1.248760000000000048e+01 1.112049999999999983e+02 1.919184999999999945e+03
1.469999999999999918e-01 1.219699999999999951e-01 1.182289000000000101e+01 1.099184999999999945e+02 1.918724999999999909e+03
1.479999999999999927e-01 1.219300000000000106e-01 1.120478500000000111e+01 1.087265000000000015e+02 1.918295000000000073e+03
1.489999999999999936e-01 1.218935000000000018e-01 1.064029999999999987e+01 1.076440000000000055e+02 1.917884999999999991e+03
1.499999999999999944e-01 1.218589999999999951e-01 1.013486499999999957e+01 1.066814999999999998e+02 1.917509999999999991e+03
1.509999999999999953e-01 1.218279999999999919e-01 9.692454999999998932e+00 1.058455000000000013e+02 1.917164999999999964e+03
1.519999999999999962e-01 1.218005000000000060e-01 9.315334999999999255e+00 1.051400000000000006e+02 1.916860000000000127e+03
1.529999999999999971e-01 1.217769999999999964e-01 9.004089999999999705e+00 1.045635000000000048e+02 1.916599999999999909e+03
1.539999999999999980e-01 1.217570000000000041e-01 8.757704999999999629e+00 1.041119999999999948e+02 1.916369999999999891e+03
1.549999999999999989e-01 1.217400000000000010e-01 8.573760000000000048e+00 1.037794999999999987e+02 1.916184999999999945e+03
1.559999999999999998e-01 1.217270000000000019e-01 8.448370000000000601e+00 1.035545000000000044e+02 1.916039999999999964e+03
1.570000000000000007e-01 1.217175000000000062e-01 8.376635000000000275e+00 1.034265000000000043e+02 1.915924999999999955e+03
1.580000000000000016e-01 1.217104999999999992e-01 8.352724999999999511e+00 1.033820000000000050e+02 1.915845000000000027e+03
1.590000000000000024e-01 1.217064999999999952e-01 8.370194999999998942e+00 1.034064999999999941e+02 1.915789999999999964e+03
