# t [s], A [cm^2], U [cm/s], P [cPa], c [cm/s]
1.000000000000000021e-03 1.679260000000000197e-01 4.483649499999999843e-01 8.752564999999999884e+01 2.068454999999999927e+03
2.000000000000000042e-03 1.678749999999999964e-01 2.018628500000000159e+00 8.392605000000000359e+01 2.067980000000000018e+03
3.000000000000000062e-03 1.677490000000000092e-01 3.887679999999999580e+00 7.921285000000000309e+01 2.066835000000000036e+03
4.000000000000000083e-03 1.675854999999999984e-01 5.972985999999999684e+00 7.451300000000000523e+01 2.065360000000000127e+03
5.000000000000000104e-03 1.674164999999999959e-01 8.175224999999999298e+00 7.066675000000000750e+01 2.063854999999999563e+03
6.000000000000000125e-03 1.672565000000000024e-01 1.025767500000000076e+01 6.764625000000000909e+01 2.062445000000000164e+03
7.000000000000000146e-03 1.671080000000000065e-01 1.202893999999999863e+01 6.500515000000000043e+01 2.061159999999999854e+03
8.000000000000000167e-03 1.669740000000000113e-01 1.349248500000000028e+01 6.263089999999999691e+01 2.060024999999999636e+03
9.000000000000001055e-03 1.668584999999999929e-01 1.470805000000000007e+01 6.065455000000000041e+01 2.059050000000000182e+03
1.000000000000000194e-02 1.667619999999999936e-01 1.569265000000000043e+01 5.907914999999999850e+01 2.058255000000000109e+03
1.099999999999999936e-02 1.666834999999999845e-01 1.645785000000000053e+01 5.782824999999999704e+01 2.057610000000000127e+03
1.200000000000000025e-02 1.666205000000000047e-01 1.701545000000000130e+01 5.681974999999999909e+01 2.057105000000000018e+03
1.300000000000000114e-02 1.665685000000000082e-01 1.737219999999999942e+01 5.594074999999999420e+01 2.056689999999999600e+03
1.400000000000000203e-02 1.665245000000000197e-01 1.757825000000000060e+01 5.515555000000000518e+01 2.056344999999999800e+03
1.499999999999999944e-02 1.664915000000000145e-01 1.776930000000000121e+01 5.467889999999999873e+01 2.056095000000000255e+03
1.600000000000000033e-02 1.664785000000000015e-01 1.812460000000000093e+01 5.494405000000000427e+01 2.056005000000000109e+03
1.700000000000000122e-02 1.664970000000000061e-01 1.876219999999999999e+01 5.632200000000000273e+01 2.056164999999999964e+03
1.800000000000000211e-02 1.665504999999999902e-01 1.965914999999999679e+01 5.881844999999999857e+01 2.056610000000000127e+03
1.900000000000000300e-02 1.666320000000000023e-01 2.065005000000000024e+01 6.197690000000000055e+01 2.057295000000000073e+03
2.000000000000000042e-02 1.667260000000000131e-01 2.149799999999999756e+01 6.503640000000000043e+01 2.058079999999999927e+03
2.100000000000000130e-02 1.668105000000000004e-01 2.199145000000000039e+01 6.723160000000000025e+01 2.058809999999999945e+03
2.200000000000000219e-02 1.668689999999999896e-01 2.202094999999999914e+01 6.807810000000000628e+01 2.059324999999999818e+03
2.299999999999999961e-02 1.668910000000000116e-01 2.160665000000000191e+01 6.752094999999999914e+01 2.059539999999999964e+03
2.400000000000000050e-02 1.668784999999999852e-01 2.087319999999999709e+01 6.590144999999999698e+01 2.059460000000000036e+03
2.500000000000000139e-02 1.668405000000000027e-01 1.998939999999999984e+01 6.377899999999999636e+01 2.059159999999999854e+03
2.600000000000000228e-02 1.667905000000000082e-01 1.910240000000000293e+01 6.170064999999999600e+01 2.058755000000000109e+03
2.700000000000000316e-02 1.667399999999999993e-01 1.829429999999999978e+01 6.001810000000000400e+01 2.058329999999999927e+03
2.800000000000000058e-02 1.666960000000000108e-01 1.757175000000000153e+01 5.881345000000000312e+01 2.057960000000000036e+03
2.900000000000000147e-02 1.666595000000000160e-01 1.688629999999999853e+01 5.793945000000000078e+01 2.057645000000000437e+03
3.000000000000000236e-02 1.666265000000000107e-01 1.617114999999999725e+01 5.713510000000000133e+01 2.057369999999999891e+03
3.099999999999999978e-02 1.665920000000000178e-01 1.537919999999999909e+01 5.616270000000000095e+01 2.057079999999999927e+03
3.200000000000000067e-02 1.665520000000000056e-01 1.450939999999999941e+01 5.491740000000000066e+01 2.056755000000000109e+03
3.300000000000000155e-02 1.665059999999999873e-01 1.361469999999999914e+01 5.347674999999999557e+01 2.056369999999999891e+03
3.400000000000000244e-02 1.664589999999999959e-01 1.278930000000000078e+01 5.208044999999999902e+01 2.055974999999999909e+03
3.500000000000000333e-02 1.664164999999999950e-01 1.214150000000000063e+01 5.105089999999999861e+01 2.055614999999999782e+03
3.600000000000000422e-02 1.663880000000000081e-01 1.176024999999999920e+01 5.068529999999999802e+01 2.055369999999999891e+03
3.700000000000000511e-02 1.663804999999999867e-01 1.168795000000000073e+01 5.115545000000000186e+01 2.055295000000000073e+03
3.799999999999999906e-02 1.663979999999999904e-01 1.190579999999999927e+01 5.244750000000000512e+01 2.055414999999999964e+03
3.899999999999999994e-02 1.664375000000000160e-01 1.233654999999999902e+01 5.435585000000000377e+01 2.055734999999999673e+03
4.000000000000000083e-02 1.664935000000000165e-01 1.286015000000000086e+01 5.652734999999999843e+01 2.056184999999999945e+03
4.100000000000000172e-02 1.665544999999999942e-01 1.333774999999999977e+01 5.853764999999999930e+01 2.056694999999999709e+03
4.200000000000000261e-02 1.666094999999999937e-01 1.363674999999999926e+01 5.997660000000000480e+01 2.057149999999999636e+03
4.300000000000000350e-02 1.666469999999999896e-01 1.365080000000000027e+01 6.051970000000000027e+01 2.057474999999999909e+03
4.400000000000000439e-02 1.666580000000000006e-01 1.331279999999999930e+01 5.997419999999999618e+01 2.057569999999999709e+03
4.499999999999999833e-02 1.666365000000000207e-01 1.259815000000000040e+01 5.829210000000000491e+01 2.057404999999999745e+03
4.599999999999999922e-02 1.665810000000000068e-01 1.152121999999999957e+01 5.555579999999999785e+01 2.056954999999999927e+03
4.700000000000000011e-02 1.664934999999999887e-01 1.012670999999999921e+01 5.194420000000000215e+01 2.056235000000000127e+03
4.800000000000000100e-02 1.663784999999999847e-01 8.479189999999999117e+00 4.769134999999999991e+01 2.055280000000000200e+03
4.900000000000000189e-02 1.662420000000000009e-01 6.653169999999999362e+00 4.304795000000000016e+01 2.054144999999999982e+03
5.000000000000000278e-02 1.660909999999999886e-01 4.725973500000000271e+00 3.825329999999999586e+01 2.052885000000000218e+03
5.100000000000000366e-02 1.659329999999999972e-01 2.773299999999999876e+00 3.351975000000000193e+01 2.051565000000000055e+03
5.200000000000000455e-02 1.657744999999999913e-01 8.671600000000001529e-01 2.902850000000000108e+01 2.050239999999999782e+03
5.300000000000000544e-02 1.656215000000000048e-01 -9.244349999999998957e-01 2.493294999999999817e+01 2.048954999999999927e+03
5.399999999999999939e-02 1.654795000000000016e-01 -2.537434999999999885e+00 2.136585000000000178e+01 2.047755000000000109e+03
5.500000000000000028e-02 1.653530000000000000e-01 -3.912033499999999719e+00 1.844405000000000072e+01 2.046690000000000055e+03
5.600000000000000117e-02 1.652470000000000050e-01 -4.993915000000000326e+00 1.627134999999999820e+01 2.045789999999999964e+03
5.700000000000000205e-02 1.651654999999999929e-01 -5.736345000000000027e+00 1.493619999999999948e+01 2.045090000000000146e+03
5.800000000000000294e-02 1.651114999999999944e-01 -6.102990000000000137e+00 1.450600000000000023e+01 2.044619999999999891e+03
5.900000000000000383e-02 1.650869999999999838e-01 -6.070714999999999861e+00 1.502015000000000100e+01 2.044394999999999982e+03
6.000000000000000472e-02 1.650944999999999774e-01 -5.631870000000000154e+00 1.648294999999999888e+01 2.044434999999999945e+03
6.099999999999999867e-02 1.651340000000000030e-01 -4.795560000000000045e+00 1.885974999999999824e+01 2.044734999999999900e+03
6.199999999999999956e-02 1.652045000000000041e-01 -3.587384999999999824e+00 2.207604999999999862e+01 2.045300000000000182e+03
6.300000000000000044e-02 1.653034999999999921e-01 -2.047934999999999839e+00 2.602159999999999940e+01 2.046105000000000018e+03
6.400000000000000133e-02 1.654284999999999783e-01 -2.299799999999998512e-01 3.055780000000000030e+01 2.047125000000000000e+03
6.500000000000000222e-02 1.655739999999999990e-01 1.805060000000000109e+00 3.552745000000000175e+01 2.048329999999999927e+03
6.600000000000000311e-02 1.657365000000000088e-01 3.990954000000000335e+00 4.076599999999999824e+01 2.049670000000000073e+03
6.700000000000000400e-02 1.659094999999999875e-01 6.260460000000000136e+00 4.611169999999999902e+01 2.051114999999999782e+03
6.800000000000000488e-02 1.660889999999999866e-01 8.548764999999999503e+00 5.141505000000000081e+01 2.052619999999999891e+03
6.900000000000000577e-02 1.662695000000000145e-01 1.079662000000000077e+01 5.654600000000000648e+01 2.054130000000000109e+03
7.000000000000000666e-02 1.664460000000000106e-01 1.295244499999999910e+01 6.139915000000000589e+01 2.055625000000000000e+03
7.100000000000000755e-02 1.666159999999999863e-01 1.497480000000000011e+01 6.589749999999999375e+01 2.057065000000000055e+03
7.200000000000000844e-02 1.667759999999999798e-01 1.683340000000000103e+01 6.999429999999999552e+01 2.058430000000000291e+03
7.300000000000000933e-02 1.669249999999999901e-01 1.851004999999999967e+01 7.367359999999999332e+01 2.059699999999999818e+03
7.399999999999999634e-02 1.670615000000000017e-01 1.999869999999999948e+01 7.694854999999999734e+01 2.060864999999999782e+03
7.499999999999999722e-02 1.671854999999999869e-01 2.130514999999999759e+01 7.985914999999999964e+01 2.061934999999999945e+03
7.599999999999999811e-02 1.672980000000000023e-01 2.244525000000000148e+01 8.246729999999999450e+01 2.062904999999999745e+03
7.699999999999999900e-02 1.674010000000000220e-01 2.344324999999999903e+01 8.485110000000000241e+01 2.063795000000000073e+03
7.799999999999999989e-02 1.674964999999999926e-01 2.432949999999999946e+01 8.709809999999998809e+01 2.064630000000000109e+03
7.900000000000000078e-02 1.675880000000000147e-01 2.513730000000000331e+01 8.929779999999999518e+01 2.065420000000000073e+03
8.000000000000000167e-02 1.676765000000000061e-01 2.590024999999999977e+01 9.153450000000000841e+01 2.066190000000000055e+03
8.100000000000000255e-02 1.677659999999999985e-01 2.664965000000000117e+01 9.388079999999999359e+01 2.066960000000000036e+03
8.200000000000000344e-02 1.678589999999999804e-01 2.741199999999999903e+01 9.639240000000000919e+01 2.067760000000000218e+03
8.300000000000000433e-02 1.679554999999999798e-01 2.820714999999999861e+01 9.910399999999999920e+01 2.068590000000000146e+03
8.400000000000000522e-02 1.680579999999999852e-01 2.904724999999999824e+01 1.020287000000000006e+02 2.069475000000000364e+03
8.500000000000000611e-02 1.681670000000000109e-01 2.993609999999999971e+01 1.051550000000000011e+02 2.070404999999999745e+03
8.600000000000000699e-02 1.682819999999999871e-01 3.086914999999999765e+01 1.084525000000000006e+02 2.071390000000000327e+03
8.700000000000000788e-02 1.684014999999999818e-01 3.183435000000000059e+01 1.118704999999999927e+02 2.072420000000000073e+03
8.800000000000000877e-02 1.685250000000000081e-01 3.281334999999999980e+01 1.153464999999999918e+02 2.073480000000000018e+03
8.899999999999999578e-02 1.686505000000000087e-01 3.378289999999999793e+01 1.188069999999999879e+02 2.074554999999999836e+03
8.999999999999999667e-02 1.687750000000000083e-01 3.471675000000000466e+01 1.221754999999999995e+02 2.075630000000000109e+03
9.099999999999999756e-02 1.688969999999999916e-01 3.558719999999999573e+01 1.253750000000000000e+02 2.076670000000000073e+03
9.199999999999999845e-02 1.690125000000000099e-01 3.636724999999999852e+01 1.283344999999999914e+02 2.077675000000000182e+03
9.299999999999999933e-02 1.691210000000000213e-01 3.703184999999999860e+01 1.309919999999999902e+02 2.078614999999999782e+03
9.400000000000000022e-02 1.692194999999999949e-01 3.755965000000000487e+01 1.332964999999999804e+02 2.079465000000000146e+03
9.500000000000000111e-02 1.693064999999999987e-01 3.793384999999999962e+01 1.352110000000000127e+02 2.080224999999999909e+03
9.600000000000000200e-02 1.693804999999999894e-01 3.814320000000000022e+01 1.367144999999999868e+02 2.080869999999999891e+03
9.700000000000000289e-02 1.694404999999999939e-01 3.818234999999999957e+01 1.378014999999999759e+02 2.081404999999999745e+03
9.800000000000000377e-02 1.694869999999999988e-01 3.805194999999999794e+01 1.384809999999999945e+02 2.081814999999999600e+03
9.900000000000000466e-02 1.695194999999999896e-01 3.775865000000000293e+01 1.387764999999999986e+02 2.082110000000000127e+03
1.000000000000000056e-01 1.695395000000000096e-01 3.731465000000000032e+01 1.387230000000000132e+02 2.082289999999999964e+03
1.010000000000000064e-01 1.695464999999999889e-01 3.673654999999999404e+01 1.383665000000000020e+02 2.082364999999999782e+03
1.020000000000000073e-01 1.695429999999999993e-01 3.604505000000000337e+01 1.377590000000000146e+02 2.082345000000000255e+03
1.030000000000000082e-01 1.695300000000000140e-01 3.526340000000000430e+01 1.369574999999999818e+02 2.082244999999999891e+03
1.040000000000000091e-01 1.695095000000000074e-01 3.441644999999999754e+01 1.360225000000000080e+02 2.082085000000000036e+03
1.050000000000000100e-01 1.694839999999999958e-01 3.352949999999999875e+01 1.350110000000000241e+02 2.081864999999999782e+03
1.059999999999999970e-01 1.694550000000000223e-01 3.262720000000000198e+01 1.339774999999999920e+02 2.081625000000000000e+03
1.069999999999999979e-01 1.694239999999999913e-01 3.173235000000000028e+01 1.329714999999999918e+02 2.081364999999999782e+03
1.079999999999999988e-01 1.693930000000000158e-01 3.086505000000000010e+01 1.320339999999999918e+02 2.081095000000000255e+03
1.089999999999999997e-01 1.693635000000000002e-01 3.004210000000000136e+01 1.311974999999999909e+02 2.080840000000000146e+03
1.100000000000000006e-01 1.693359999999999865e-01 2.927615000000000123e+01 1.304844999999999970e+02 2.080605000000000018e+03
1.110000000000000014e-01 1.693125000000000047e-01 2.857549999999999812e+01 1.299064999999999941e+02 2.080394999999999982e+03
1.120000000000000023e-01 1.692919999999999980e-01 2.794384999999999764e+01 1.294655000000000200e+02 2.080215000000000146e+03
1.130000000000000032e-01 1.692760000000000098e-01 2.738064999999999927e+01 1.291504999999999939e+02 2.080069999999999709e+03
1.140000000000000041e-01 1.692629999999999968e-01 2.688090000000000046e+01 1.289449999999999932e+02 2.079960000000000036e+03
1.150000000000000050e-01 1.692540000000000155e-01 2.643605000000000160e+01 1.288230000000000075e+02 2.079875000000000000e+03
1.160000000000000059e-01 1.692470000000000085e-01 2.603459999999999752e+01 1.287510000000000048e+02 2.079815000000000055e+03
1.170000000000000068e-01 1.692425000000000179e-01 2.566239999999999810e+01 1.286949999999999932e+02 2.079765000000000327e+03
1.180000000000000077e-01 1.692379999999999995e-01 2.530434999999999945e+01 1.286150000000000091e+02 2.079715000000000146e+03
1.190000000000000085e-01 1.692325000000000079e-01 2.494454999999999956e+01 1.284745000000000061e+02 2.079670000000000073e+03
1.200000000000000094e-01 1.692250000000000143e-01 2.456770000000000209e+01 1.282375000000000114e+02 2.079605000000000018e+03
1.209999999999999964e-01 1.692150000000000043e-01 2.415964999999999918e+01 1.278729999999999905e+02 2.079515000000000327e+03
1.219999999999999973e-01 1.692005000000000037e-01 2.370859999999999701e+01 1.273560000000000088e+02 2.079394999999999982e+03
1.229999999999999982e-01 1.691814999999999847e-01 2.320539999999999736e+01 1.266705000000000041e+02 2.079230000000000018e+03
1.239999999999999991e-01 1.691570000000000018e-01 2.264410000000000167e+01 1.258075000000000045e+02 2.079014999999999873e+03
1.250000000000000000e-01 1.691269999999999996e-01 2.202270000000000039e+01 1.247680000000000007e+02 2.078765000000000327e+03
1.260000000000000009e-01 1.690905000000000047e-01 2.134270000000000067e+01 1.235625000000000000e+02 2.078454999999999927e+03
1.270000000000000018e-01 1.690490000000000048e-01 2.060944999999999894e+01 1.222085000000000008e+02 2.078100000000000364e+03
1.280000000000000027e-01 1.690024999999999999e-01 1.983169999999999789e+01 1.207344999999999970e+02 2.077699999999999818e+03
1.290000000000000036e-01 1.689519999999999911e-01 1.902114999999999867e+01 1.191724999999999994e+02 2.077270000000000437e+03
1.300000000000000044e-01 1.688985000000000070e-01 1.819160000000000110e+01 1.175600000000000023e+02 2.076810000000000400e+03
1.310000000000000053e-01 1.688425000000000065e-01 1.735880000000000223e+01 1.159379999999999882e+02 2.076335000000000036e+03
1.320000000000000062e-01 1.687865000000000060e-01 1.653880000000000194e+01 1.143464999999999918e+02 2.075850000000000364e+03
1.330000000000000071e-01 1.687305000000000055e-01 1.574804999999999922e+01 1.128255000000000052e+02 2.075375000000000000e+03
1.340000000000000080e-01 1.686765000000000070e-01 1.500175000000000125e+01 1.114115000000000038e+02 2.074909999999999854e+03
1.350000000000000089e-01 1.686265000000000125e-01 1.431384999999999863e+01 1.101349999999999909e+02 2.074474999999999909e+03
1.360000000000000098e-01 1.685800000000000076e-01 1.369594999999999985e+01 1.090225000000000080e+02 2.074074999999999818e+03
1.370000000000000107e-01 1.685395000000000088e-01 1.315714999999999968e+01 1.080914999999999964e+02 2.073715000000000146e+03
1.380000000000000115e-01 1.685039999999999871e-01 1.270345000000000013e+01 1.073530000000000086e+02 2.073409999999999854e+03
1.390000000000000124e-01 1.684749999999999859e-01 1.233794999999999931e+01 1.068104999999999905e+02 2.073159999999999854e+03
1.400000000000000133e-01 1.684525000000000050e-01 1.206060000000000088e+01 1.064590000000000032e+02 2.072954999999999927e+03
1.410000000000000142e-01 1.684364999999999890e-01 1.186839999999999939e+01 1.062890000000000015e+02 2.072809999999999945e+03
1.420000000000000151e-01 1.684269999999999934e-01 1.175564999999999927e+01 1.062824999999999989e+02 2.072725000000000364e+03
1.430000000000000160e-01 1.684225000000000028e-01 1.171444999999999936e+01 1.064194999999999993e+02 2.072680000000000291e+03
1.440000000000000169e-01 1.684229999999999894e-01 1.173499999999999943e+01 1.066749999999999972e+02 2.072680000000000291e+03
1.450000000000000178e-01 1.684279999999999944e-01 1.180630000000000024e+01 1.070219999999999914e+02 2.072715000000000146e+03
1.459999999999999909e-01 1.684364999999999890e-01 1.191649999999999920e+01 1.074329999999999927e+02 2.072780000000000200e+03
1.469999999999999918e-01 1.684470000000000134e-01 1.205344999999999978e+01 1.078795000000000073e+02 2.072869999999999891e+03
1.479999999999999927e-01 1.684605000000000130e-01 1.220520000000000138e+01 1.083379999999999939e+02 2.072980000000000018e+03
1.489999999999999936e-01 1.684740000000000126e-01 1.236064999999999969e+01 1.087820000000000107e+02 2.073090000000000146e+03
1.499999999999999944e-01 1.684869999999999979e-01 1.250935000000000130e+01 1.091919999999999931e+02 2.073204999999999927e+03
1.509999999999999953e-01 1.684999999999999831e-01 1.264270000000000138e+01 1.095510000000000019e+02 2.073309999999999945e+03
1.519999999999999962e-01 1.685119999999999951e-01 1.275335000000000107e+01 1.098465000000000060e+02 2.073409999999999854e+03
1.529999999999999971e-01 1.685214999999999907e-01 1.283590000000000053e+01 1.100695000000000050e+02 2.073494999999999891e+03
1.539999999999999980e-01 1.685289999999999844e-01 1.288684999999999903e+01 1.102154999999999916e+02 2.073564999999999600e+03
1.549999999999999989e-01 1.685345000000000037e-01 1.290450000000000053e+01 1.102849999999999966e+02 2.073604999999999563e+03
1.559999999999999998e-01 1.685375000000000068e-01 1.288905000000000101e+01 1.102810000000000059e+02 2.073640000000000327e+03
1.570000000000000007e-01 1.685384999999999800e-01 1.284215000000000018e+01 1.102115000000000009e+02 2.073644999999999982e+03
1.580000000000000016e-01 1.685369999999999924e-01 1.276725000000000065e+01 1.100859999999999985e+02 2.073635000000000218e+03
1.590000000000000024e-01 1.685335000000000027e-01 1.266859999999999964e+01 1.099175000000000040e+02 2.073610000000000127e+03
