# t [s], A [cm^2], U [cm/s], P [cPa], c [cm/s]
1.000000000000000021e-03 1.851140000000000008e-01 1.469774999999999832e-01 9.614195000000000846e+01 2.180440000000000055e+03
2.000000000000000042e-03 1.850740000000000163e-01 1.431545500000000137e+00 9.330960000000000321e+01 2.180085000000000036e+03
3.000000000000000062e-03 1.849580000000000113e-01 3.109677000000000024e+00 8.915434999999999377e+01 2.179114999999999782e+03
4.000000000000000083e-03 1.847940000000000138e-01 5.037981499999999890e+00 8.433664999999999168e+01 2.177774999999999636e+03
5.000000000000000104e-03 1.846145000000000147e-01 7.151259999999999728e+00 7.975355000000000416e+01 2.176315000000000055e+03
6.000000000000000125e-03 1.844410000000000216e-01 9.304560000000000386e+00 7.586879999999999313e+01 2.174920000000000073e+03
7.000000000000000146e-03 1.842785000000000117e-01 1.127331500000000020e+01 7.256874999999999432e+01 2.173640000000000327e+03
8.000000000000000167e-03 1.841285000000000005e-01 1.292703500000000005e+01 6.959964999999999691e+01 2.172485000000000127e+03
9.000000000000001055e-03 1.839959999999999929e-01 1.428284500000000001e+01 6.698170000000000357e+01 2.171480000000000018e+03
1.000000000000000194e-02 1.838850000000000207e-01 1.538194999999999979e+01 6.482144999999999868e+01 2.170640000000000327e+03
1.099999999999999936e-02 1.837944999999999995e-01 1.624810000000000088e+01 6.313429999999999609e+01 2.169980000000000018e+03
1.200000000000000025e-02 1.837249999999999994e-01 1.690269999999999939e+01 6.188119999999999976e+01 2.169470000000000255e+03
1.300000000000000114e-02 1.836720000000000019e-01 1.735140000000000171e+01 6.096484999999999843e+01 2.169085000000000036e+03
1.400000000000000203e-02 1.836305000000000021e-01 1.759234999999999971e+01 6.023109999999999786e+01 2.168800000000000182e+03
1.499999999999999944e-02 1.835974999999999968e-01 1.766949999999999932e+01 5.960580000000000211e+01 2.168574999999999818e+03
1.600000000000000033e-02 1.835749999999999882e-01 1.770595000000000141e+01 5.924615000000000009e+01 2.168430000000000291e+03
1.700000000000000122e-02 1.835735000000000006e-01 1.786390000000000100e+01 5.950700000000000500e+01 2.168430000000000291e+03
1.800000000000000211e-02 1.835999999999999854e-01 1.825860000000000127e+01 6.071770000000000067e+01 2.168635000000000218e+03
1.900000000000000300e-02 1.836595000000000033e-01 1.889314999999999856e+01 6.294069999999999965e+01 2.169074999999999818e+03
2.000000000000000042e-02 1.837439999999999907e-01 1.965399999999999991e+01 6.587805000000000177e+01 2.169715000000000146e+03
2.100000000000000130e-02 1.838409999999999767e-01 2.036265000000000214e+01 6.896720000000000539e+01 2.170454999999999927e+03
2.200000000000000219e-02 1.839319999999999844e-01 2.085000000000000142e+01 7.159494999999999720e+01 2.171164999999999964e+03
2.299999999999999961e-02 1.840040000000000009e-01 2.101695000000000135e+01 7.331574999999999420e+01 2.171739999999999782e+03
2.400000000000000050e-02 1.840479999999999894e-01 2.085974999999999824e+01 7.398310000000000741e+01 2.172100000000000364e+03
2.500000000000000139e-02 1.840650000000000064e-01 2.045625000000000071e+01 7.375489999999999213e+01 2.172260000000000218e+03
2.600000000000000228e-02 1.840614999999999890e-01 1.992454999999999998e+01 7.298969999999999914e+01 2.172250000000000000e+03
2.700000000000000316e-02 1.840469999999999884e-01 1.937355000000000160e+01 7.208654999999998836e+01 2.172149999999999636e+03
2.800000000000000058e-02 1.840304999999999858e-01 1.886565000000000225e+01 7.133780000000000143e+01 2.172025000000000091e+03
2.900000000000000147e-02 1.840169999999999861e-01 1.840210000000000079e+01 7.084375000000000000e+01 2.171920000000000073e+03
3.000000000000000236e-02 1.840054999999999885e-01 1.793314999999999770e+01 7.051069999999999993e+01 2.171829999999999927e+03
3.099999999999999978e-02 1.839935000000000043e-01 1.738579999999999970e+01 7.011875000000000568e+01 2.171735000000000127e+03
3.200000000000000067e-02 1.839724999999999833e-01 1.669825000000000159e+01 6.943000000000000682e+01 2.171585000000000036e+03
3.300000000000000155e-02 1.839399999999999924e-01 1.584980000000000011e+01 6.829740000000001032e+01 2.171350000000000364e+03
3.400000000000000244e-02 1.838945000000000163e-01 1.487659999999999982e+01 6.673955000000000837e+01 2.171010000000000218e+03
3.500000000000000333e-02 1.838394999999999890e-01 1.386785000000000068e+01 6.495635000000000048e+01 2.170599999999999909e+03
3.600000000000000422e-02 1.837845000000000173e-01 1.294355000000000011e+01 6.327985000000000326e+01 2.170180000000000291e+03
3.700000000000000511e-02 1.837384999999999990e-01 1.222145000000000081e+01 6.207835000000000036e+01 2.169819999999999709e+03
3.799999999999999906e-02 1.837119999999999864e-01 1.178514999999999979e+01 6.164900000000000091e+01 2.169600000000000364e+03
3.899999999999999994e-02 1.837110000000000132e-01 1.166310000000000002e+01 6.213339999999999463e+01 2.169574999999999818e+03
4.000000000000000083e-02 1.837369999999999837e-01 1.182369999999999877e+01 6.348120000000000118e+01 2.169750000000000000e+03
4.100000000000000172e-02 1.837860000000000049e-01 1.218534999999999968e+01 6.546684999999999377e+01 2.170105000000000018e+03
4.200000000000000261e-02 1.838505000000000000e-01 1.263684999999999903e+01 6.774689999999999657e+01 2.170579999999999927e+03
4.300000000000000350e-02 1.839189999999999992e-01 1.306109999999999971e+01 6.993774999999999409e+01 2.171099999999999909e+03
4.400000000000000439e-02 1.839810000000000056e-01 1.335585000000000022e+01 7.169165000000000987e+01 2.171574999999999818e+03
4.499999999999999833e-02 1.840275000000000105e-01 1.344855000000000089e+01 7.275440000000000396e+01 2.171940000000000055e+03
4.599999999999999922e-02 1.840519999999999934e-01 1.330170000000000030e+01 7.299469999999999459e+01 2.172139999999999873e+03
4.700000000000000011e-02 1.840510000000000201e-01 1.291124999999999901e+01 7.240344999999999231e+01 2.172149999999999636e+03
4.800000000000000100e-02 1.840255000000000085e-01 1.229834999999999923e+01 7.107019999999999982e+01 2.171969999999999800e+03
4.900000000000000189e-02 1.839784999999999893e-01 1.149904499999999885e+01 6.914430000000000121e+01 2.171625000000000000e+03
5.000000000000000278e-02 1.839129999999999932e-01 1.055400000000000027e+01 6.679560000000000741e+01 2.171135000000000218e+03
5.100000000000000366e-02 1.838350000000000262e-01 9.501425000000001120e+00 6.418170000000000641e+01 2.170545000000000073e+03
5.200000000000000455e-02 1.837469999999999937e-01 8.373529999999998807e+00 6.142940000000000111e+01 2.169880000000000109e+03
5.300000000000000544e-02 1.836544999999999983e-01 7.196914999999999729e+00 5.863075000000000614e+01 2.169170000000000073e+03
5.399999999999999939e-02 1.835589999999999999e-01 5.995260000000000034e+00 5.585020000000000095e+01 2.168440000000000055e+03
5.500000000000000028e-02 1.834629999999999872e-01 4.792925000000000324e+00 5.313845000000000596e+01 2.167704999999999927e+03
5.600000000000000117e-02 1.833690000000000042e-01 3.618391499999999983e+00 5.054724999999999824e+01 2.166989999999999782e+03
5.700000000000000205e-02 1.832794999999999841e-01 2.506056000000000061e+00 4.814095000000000368e+01 2.166295000000000073e+03
5.800000000000000294e-02 1.831969999999999987e-01 1.496216999999999908e+00 4.600114999999999554e+01 2.165654999999999745e+03
5.900000000000000383e-02 1.831240000000000090e-01 6.331600000000000561e-01 4.422554999999999836e+01 2.165095000000000255e+03
6.000000000000000472e-02 1.830649999999999777e-01 -3.817000000000003723e-02 4.291989999999999839e+01 2.164630000000000109e+03
6.099999999999999867e-02 1.830235000000000056e-01 -4.761429999999999829e-01 4.218715000000000259e+01 2.164295000000000073e+03
6.199999999999999956e-02 1.830025000000000124e-01 -6.463790000000000369e-01 4.211489999999999867e+01 2.164114999999999782e+03
6.300000000000000044e-02 1.830040000000000000e-01 -5.248785000000000256e-01 4.276545000000000130e+01 2.164110000000000127e+03
6.400000000000000133e-02 1.830304999999999849e-01 -1.000529999999999475e-01 4.416804999999999382e+01 2.164284999999999854e+03
6.500000000000000222e-02 1.830825000000000091e-01 6.265549999999999731e-01 4.631600000000000250e+01 2.164659999999999854e+03
6.600000000000000311e-02 1.831595000000000029e-01 1.640771500000000049e+00 4.916764999999999475e+01 2.165230000000000018e+03
6.700000000000000400e-02 1.832600000000000062e-01 2.917165999999999926e+00 5.265075000000000216e+01 2.165975000000000364e+03
6.800000000000000488e-02 1.833814999999999751e-01 4.421204999999999607e+00 5.666890000000000072e+01 2.166890000000000327e+03
6.900000000000000577e-02 1.835209999999999897e-01 6.111755000000000493e+00 6.110979999999999279e+01 2.167940000000000055e+03
7.000000000000000666e-02 1.836745000000000183e-01 7.943860000000000809e+00 6.585365000000000180e+01 2.169105000000000018e+03
7.100000000000000755e-02 1.838385000000000158e-01 9.871439999999999770e+00 7.078164999999999907e+01 2.170349999999999909e+03
7.200000000000000844e-02 1.840090000000000059e-01 1.185024500000000103e+01 7.578364999999999441e+01 2.171655000000000200e+03
7.300000000000000933e-02 1.841824999999999990e-01 1.383992500000000092e+01 8.076460000000000150e+01 2.172985000000000127e+03
7.399999999999999634e-02 1.843560000000000199e-01 1.580604999999999905e+01 8.564990000000000236e+01 2.174324999999999818e+03
7.499999999999999722e-02 1.845269999999999966e-01 1.772144999999999726e+01 9.038765000000000782e+01 2.175649999999999636e+03
7.599999999999999811e-02 1.846935000000000104e-01 1.956654999999999944e+01 9.494919999999999050e+01 2.176949999999999818e+03
7.699999999999999900e-02 1.848555000000000059e-01 2.132920000000000016e+01 9.932775000000000887e+01 2.178210000000000036e+03
7.799999999999999989e-02 1.850129999999999830e-01 2.300345000000000084e+01 1.035333500000000129e+02 2.179434999999999945e+03
7.900000000000000078e-02 1.851650000000000240e-01 2.458850000000000335e+01 1.075876999999999981e+02 2.180625000000000000e+03
8.000000000000000167e-02 1.853124999999999911e-01 2.608664999999999878e+01 1.115190000000000055e+02 2.181779999999999745e+03
8.100000000000000255e-02 1.854569999999999830e-01 2.750189999999999912e+01 1.153559999999999945e+02 2.182909999999999854e+03
8.200000000000000344e-02 1.855979999999999852e-01 2.883859999999999957e+01 1.191204999999999927e+02 2.184019999999999982e+03
8.300000000000000433e-02 1.857364999999999988e-01 3.010014999999999930e+01 1.228299999999999841e+02 2.185105000000000018e+03
8.400000000000000522e-02 1.858734999999999971e-01 3.128880000000000194e+01 1.264899999999999949e+02 2.186184999999999945e+03
8.500000000000000611e-02 1.860084999999999933e-01 3.240500000000000114e+01 1.300995000000000061e+02 2.187250000000000000e+03
8.600000000000000699e-02 1.861410000000000009e-01 3.344790000000000418e+01 1.336479999999999961e+02 2.188295000000000073e+03
8.700000000000000788e-02 1.862719999999999931e-01 3.441510000000000247e+01 1.371195000000000164e+02 2.189324999999999818e+03
8.800000000000000877e-02 1.863994999999999957e-01 3.530325000000000557e+01 1.404939999999999998e+02 2.190324999999999818e+03
8.899999999999999578e-02 1.865224999999999800e-01 3.610800000000000409e+01 1.437475000000000023e+02 2.191304999999999836e+03
8.999999999999999667e-02 1.866420000000000023e-01 3.682455000000000211e+01 1.468559999999999945e+02 2.192244999999999891e+03
9.099999999999999756e-02 1.867554999999999910e-01 3.744729999999999848e+01 1.497944999999999993e+02 2.193150000000000091e+03
9.199999999999999845e-02 1.868630000000000013e-01 3.797060000000000457e+01 1.525395000000000039e+02 2.193994999999999891e+03
9.299999999999999933e-02 1.869639999999999913e-01 3.838830000000000098e+01 1.550659999999999741e+02 2.194795000000000073e+03
9.400000000000000022e-02 1.870560000000000000e-01 3.869454999999999956e+01 1.573514999999999873e+02 2.195534999999999854e+03
9.500000000000000111e-02 1.871400000000000008e-01 3.888405000000000200e+01 1.593750000000000000e+02 2.196204999999999927e+03
9.600000000000000200e-02 1.872145000000000059e-01 3.895204999999999984e+01 1.611195000000000164e+02 2.196795000000000073e+03
9.700000000000000289e-02 1.872785000000000144e-01 3.889560000000000173e+01 1.625705000000000098e+02 2.197314999999999600e+03
9.800000000000000377e-02 1.873329999999999995e-01 3.871354999999999791e+01 1.637200000000000273e+02 2.197755000000000109e+03
9.900000000000000466e-02 1.873759999999999870e-01 3.840725000000000477e+01 1.645664999999999907e+02 2.198105000000000018e+03
1.000000000000000056e-01 1.874089999999999923e-01 3.798060000000000258e+01 1.651159999999999854e+02 2.198375000000000000e+03
1.010000000000000064e-01 1.874315000000000009e-01 3.744055000000000177e+01 1.653824999999999932e+02 2.198565000000000055e+03
1.020000000000000073e-01 1.874439999999999995e-01 3.679670000000000130e+01 1.653865000000000123e+02 2.198675000000000182e+03
1.030000000000000082e-01 1.874470000000000025e-01 3.606104999999999450e+01 1.651564999999999941e+02 2.198704999999999927e+03
1.040000000000000091e-01 1.874425000000000119e-01 3.524774999999999636e+01 1.647259999999999991e+02 2.198680000000000291e+03
1.050000000000000100e-01 1.874304999999999999e-01 3.437199999999999989e+01 1.641304999999999836e+02 2.198595000000000255e+03
1.059999999999999970e-01 1.874129999999999963e-01 3.345000000000000284e+01 1.634085000000000036e+02 2.198465000000000146e+03
1.069999999999999979e-01 1.873910000000000020e-01 3.249779999999999802e+01 1.625980000000000132e+02 2.198295000000000073e+03
1.079999999999999988e-01 1.873655000000000181e-01 3.153079999999999927e+01 1.617330000000000041e+02 2.198100000000000364e+03
1.089999999999999997e-01 1.873380000000000045e-01 3.056330000000000169e+01 1.608464999999999918e+02 2.197885000000000218e+03
1.100000000000000006e-01 1.873090000000000033e-01 2.960804999999999865e+01 1.599655000000000200e+02 2.197659999999999854e+03
1.110000000000000014e-01 1.872805000000000164e-01 2.867539999999999978e+01 1.591100000000000136e+02 2.197434999999999945e+03
1.120000000000000023e-01 1.872520000000000018e-01 2.777374999999999972e+01 1.582969999999999970e+02 2.197210000000000036e+03
1.130000000000000032e-01 1.872245000000000159e-01 2.690869999999999962e+01 1.575345000000000084e+02 2.196989999999999782e+03
1.140000000000000041e-01 1.871984999999999899e-01 2.608340000000000103e+01 1.568260000000000218e+02 2.196784999999999854e+03
1.150000000000000050e-01 1.871740000000000070e-01 2.529824999999999946e+01 1.561670000000000016e+02 2.196590000000000146e+03
1.160000000000000059e-01 1.871504999999999974e-01 2.455140000000000100e+01 1.555490000000000066e+02 2.196404999999999745e+03
1.170000000000000068e-01 1.871289999999999898e-01 2.383870000000000289e+01 1.549579999999999984e+02 2.196225000000000364e+03
1.180000000000000077e-01 1.871069999999999955e-01 2.315404999999999802e+01 1.543760000000000048e+02 2.196050000000000182e+03
1.190000000000000085e-01 1.870850000000000013e-01 2.249014999999999986e+01 1.537829999999999870e+02 2.195875000000000000e+03
1.200000000000000094e-01 1.870629999999999793e-01 2.183879999999999910e+01 1.531574999999999989e+02 2.195694999999999709e+03
1.209999999999999964e-01 1.870390000000000108e-01 2.119134999999999991e+01 1.524764999999999873e+02 2.195510000000000218e+03
1.219999999999999973e-01 1.870124999999999982e-01 2.053950000000000031e+01 1.517214999999999918e+02 2.195300000000000182e+03
1.229999999999999982e-01 1.869844999999999979e-01 1.987559999999999860e+01 1.508740000000000236e+02 2.195074999999999818e+03
1.239999999999999991e-01 1.869524999999999937e-01 1.919350000000000023e+01 1.499205000000000041e+02 2.194824999999999818e+03
1.250000000000000000e-01 1.869164999999999854e-01 1.848825000000000074e+01 1.488530000000000086e+02 2.194545000000000073e+03
1.260000000000000009e-01 1.868770000000000153e-01 1.775735000000000241e+01 1.476675000000000182e+02 2.194235000000000127e+03
1.270000000000000018e-01 1.868334999999999857e-01 1.700014999999999787e+01 1.463669999999999902e+02 2.193894999999999982e+03
1.280000000000000027e-01 1.867864999999999942e-01 1.621849999999999881e+01 1.449599999999999795e+02 2.193525000000000091e+03
1.290000000000000036e-01 1.867354999999999987e-01 1.541635000000000133e+01 1.434619999999999891e+02 2.193130000000000109e+03
1.300000000000000044e-01 1.866815000000000002e-01 1.459970000000000034e+01 1.418899999999999864e+02 2.192710000000000036e+03
1.310000000000000053e-01 1.866254999999999997e-01 1.377645000000000053e+01 1.402694999999999936e+02 2.192269999999999982e+03
1.320000000000000062e-01 1.865674999999999972e-01 1.295575000000000010e+01 1.386264999999999930e+02 2.191819999999999709e+03
1.330000000000000071e-01 1.865094999999999947e-01 1.214767000000000152e+01 1.369884999999999877e+02 2.191364999999999782e+03
1.340000000000000080e-01 1.864514999999999922e-01 1.136265999999999998e+01 1.353849999999999909e+02 2.190909999999999854e+03
1.350000000000000089e-01 1.863949999999999774e-01 1.061087500000000006e+01 1.338425000000000011e+02 2.190465000000000146e+03
1.360000000000000098e-01 1.863404999999999923e-01 9.901804999999999524e+00 1.323849999999999909e+02 2.190029999999999745e+03
1.370000000000000107e-01 1.862889999999999824e-01 9.243745000000000545e+00 1.310339999999999918e+02 2.189625000000000000e+03
1.380000000000000115e-01 1.862409999999999899e-01 8.643489999999999895e+00 1.298050000000000068e+02 2.189250000000000000e+03
1.390000000000000124e-01 1.861975000000000158e-01 8.105900000000000105e+00 1.287085000000000150e+02 2.188899999999999636e+03
1.400000000000000133e-01 1.861574999999999758e-01 7.634129999999999860e+00 1.277514999999999930e+02 2.188590000000000146e+03
1.410000000000000142e-01 1.861234999999999973e-01 7.229340000000000543e+00 1.269339999999999975e+02 2.188310000000000400e+03
1.420000000000000151e-01 1.860934999999999950e-01 6.890905000000000058e+00 1.262530000000000143e+02 2.188069999999999709e+03
1.430000000000000160e-01 1.860680000000000112e-01 6.616579999999999906e+00 1.257000000000000028e+02 2.187864999999999782e+03
1.440000000000000169e-01 1.860469999999999902e-01 6.402730000000000032e+00 1.252655000000000030e+02 2.187695000000000164e+03
1.450000000000000178e-01 1.860300000000000009e-01 6.244600000000000151e+00 1.249364999999999952e+02 2.187555000000000291e+03
1.459999999999999909e-01 1.860165000000000013e-01 6.136565000000000047e+00 1.246990000000000123e+02 2.187449999999999818e+03
1.469999999999999918e-01 1.860060000000000047e-01 6.072400000000000020e+00 1.245384999999999991e+02 2.187359999999999673e+03
1.479999999999999927e-01 1.859989999999999977e-01 6.045510000000000161e+00 1.244395000000000095e+02 2.187300000000000182e+03
1.489999999999999936e-01 1.859939999999999927e-01 6.049165000000000347e+00 1.243880000000000052e+02 2.187255000000000109e+03
1.499999999999999944e-01 1.859899999999999887e-01 6.076660000000000394e+00 1.243695000000000022e+02 2.187220000000000255e+03
1.509999999999999953e-01 1.859875000000000000e-01 6.121514999999999596e+00 1.243710000000000093e+02 2.187199999999999818e+03
1.519999999999999962e-01 1.859860000000000124e-01 6.177624999999999922e+00 1.243815000000000026e+02 2.187184999999999945e+03
1.529999999999999971e-01 1.859850000000000114e-01 6.239364999999999384e+00 1.243894999999999982e+02 2.187175000000000182e+03
1.539999999999999980e-01 1.859839999999999827e-01 6.301734999999999864e+00 1.243870000000000005e+02 2.187164999999999964e+03
1.549999999999999989e-01 1.859830000000000094e-01 6.360459999999999781e+00 1.243659999999999997e+02 2.187154999999999745e+03
1.559999999999999998e-01 1.859804999999999930e-01 6.412034999999999485e+00 1.243220000000000027e+02 2.187140000000000327e+03
1.570000000000000007e-01 1.859780000000000044e-01 6.453789999999999694e+00 1.242495000000000118e+02 2.187119999999999891e+03
1.580000000000000016e-01 1.859750000000000014e-01 6.483919999999999462e+00 1.241490000000000009e+02 2.187095000000000255e+03
1.590000000000000024e-01 1.859709999999999974e-01 6.501454999999999984e+00 1.240190000000000055e+02 2.187059999999999945e+03
