# t [s], A [cm^2], U [cm/s], P [cPa], c [cm/s]
1.000000000000000021e-03 6.969305000000000083e-01 7.158649999999995572e-03 9.967374999999999829e+01 1.732000000000000000e+03
2.000000000000000042e-03 6.969159999999999799e-01 -6.651920000000000402e-03 9.963755000000000450e+01 1.731994999999999891e+03
3.000000000000000062e-03 6.969650000000000567e-01 7.691629999999999301e-02 9.973380000000000223e+01 1.732014999999999873e+03
4.000000000000000083e-03 6.970195000000000141e-01 1.827413999999999983e-01 9.987165000000000248e+01 1.732039999999999964e+03
5.000000000000000104e-03 6.969950000000000312e-01 1.693314999999999959e-01 9.982335000000000491e+01 1.732035000000000082e+03
6.000000000000000125e-03 6.969205000000000538e-01 6.934149999999997260e-02 9.958764999999999645e+01 1.731985000000000127e+03
7.000000000000000146e-03 6.968665000000000553e-01 -3.804499999999988447e-03 9.932419999999999050e+01 1.731929999999999836e+03
8.000000000000000167e-03 6.967859999999999054e-01 -1.341574999999999851e-01 9.895305000000000462e+01 1.731845000000000027e+03
9.000000000000001055e-03 6.966470000000000162e-01 -3.876900000000000901e-01 9.837014999999999532e+01 1.731724999999999909e+03
1.000000000000000194e-02 6.964474999999999971e-01 -7.639299999999999979e-01 9.754019999999999868e+01 1.731550000000000182e+03
1.099999999999999936e-02 6.961665000000000214e-01 -1.292124999999999968e+00 9.638589999999999236e+01 1.731304999999999836e+03
1.200000000000000025e-02 6.957904999999999784e-01 -1.982589999999999852e+00 9.484229999999999450e+01 1.730974999999999909e+03
1.300000000000000114e-02 6.953595000000000192e-01 -2.743784999999999918e+00 9.298454999999999870e+01 1.730565000000000055e+03
1.400000000000000203e-02 6.949499999999999567e-01 -3.407248000000000054e+00 9.102764999999999418e+01 1.730119999999999891e+03
1.499999999999999944e-02 6.946259999999999657e-01 -3.824893499999999946e+00 8.920400000000000773e+01 1.729684999999999945e+03
1.600000000000000033e-02 6.943989999999999885e-01 -3.937612000000000112e+00 8.764695000000000391e+01 1.729295000000000073e+03
1.700000000000000122e-02 6.942384999999999806e-01 -3.780039999999999623e+00 8.635304999999999609e+01 1.728944999999999936e+03
1.800000000000000211e-02 6.940899999999999848e-01 -3.443335000000000257e+00 8.521414999999998940e+01 1.728619999999999891e+03
1.900000000000000300e-02 6.939049999999999940e-01 -3.026914999999999800e+00 8.408190000000000452e+01 1.728300000000000182e+03
2.000000000000000042e-02 6.936554999999999804e-01 -2.599637720000000041e+00 8.283324999999999250e+01 1.727960000000000036e+03
2.100000000000000130e-02 6.933435000000000015e-01 -2.181070500000000134e+00 8.141400000000000148e+01 1.727579999999999927e+03
2.200000000000000219e-02 6.929920000000000524e-01 -1.745654999999999735e+00 7.984884999999999877e+01 1.727170000000000073e+03
2.299999999999999961e-02 6.926350000000000007e-01 -1.245205000000000117e+00 7.821864999999999668e+01 1.726739999999999782e+03
2.400000000000000050e-02 6.923004999999999853e-01 -6.386249999999999982e-01 7.661775000000000091e+01 1.726315000000000055e+03
2.500000000000000139e-02 6.919990000000000308e-01 8.390999999999992909e-02 7.511099999999999000e+01 1.725904999999999973e+03
2.600000000000000228e-02 6.917204999999999604e-01 8.901000000000001133e-01 7.370589999999999975e+01 1.725509999999999991e+03
2.700000000000000316e-02 6.914385000000000669e-01 1.709294999999999787e+00 7.234569999999999368e+01 1.725135000000000218e+03
2.800000000000000058e-02 6.911160000000000636e-01 2.447824999999999918e+00 7.092350000000000421e+01 1.724744999999999891e+03
2.900000000000000147e-02 6.907194999999999308e-01 3.011359999999999815e+00 6.931185000000000684e+01 1.724320000000000164e+03
3.000000000000000236e-02 6.902264999999999651e-01 3.328809999999999825e+00 6.740035000000000309e+01 1.723845000000000027e+03
3.099999999999999978e-02 6.896339999999999693e-01 3.371089999999999698e+00 6.513105000000000189e+01 1.723289999999999964e+03
3.200000000000000067e-02 6.889619999999999633e-01 3.158180000000000209e+00 6.252055000000000007e+01 1.722670000000000073e+03
3.300000000000000155e-02 6.882475000000000120e-01 2.751955000000000151e+00 5.965930000000000177e+01 1.721985000000000127e+03
3.400000000000000244e-02 6.875354999999999661e-01 2.238140000000000018e+00 5.669160000000000110e+01 1.721275000000000091e+03
3.500000000000000333e-02 6.868689999999999518e-01 1.705280000000000129e+00 5.378435000000000343e+01 1.720570000000000164e+03
3.600000000000000422e-02 6.862805000000000710e-01 1.228015000000000523e+00 5.109660000000000224e+01 1.719905000000000200e+03
3.700000000000000511e-02 6.857910000000000394e-01 8.580600000000000449e-01 4.875695000000000334e+01 1.719309999999999945e+03
3.799999999999999906e-02 6.854109999999999925e-01 6.228650000000000020e-01 4.685299999999999443e+01 1.718804999999999836e+03
3.899999999999999994e-02 6.851395000000000124e-01 5.300699999999998191e-01 4.543030000000000257e+01 1.718409999999999854e+03
4.000000000000000083e-02 6.849715000000000664e-01 5.750450000000000284e-01 4.449970000000000425e+01 1.718130000000000109e+03
4.100000000000000172e-02 6.848999999999999533e-01 7.491910000000000514e-01 4.404905000000000115e+01 1.717965000000000146e+03
4.200000000000000261e-02 6.849184999999999857e-01 1.046869999999999967e+00 4.405615000000000236e+01 1.717909999999999854e+03
4.300000000000000350e-02 6.850255000000000649e-01 1.469493500000000008e+00 4.449934999999999974e+01 1.717965000000000146e+03
4.400000000000000439e-02 6.852199999999999402e-01 2.025895499999999849e+00 4.536364999999999981e+01 1.718125000000000000e+03
4.499999999999999833e-02 6.855050000000000310e-01 2.729446000000000261e+00 4.664130000000000109e+01 1.718389999999999873e+03
4.599999999999999922e-02 6.858805000000000041e-01 3.593125500000000194e+00 4.832800000000000296e+01 1.718759999999999991e+03
4.700000000000000011e-02 6.863464999999999705e-01 4.624390000000000001e+00 5.041595000000000226e+01 1.719230000000000018e+03
4.800000000000000100e-02 6.868980000000000086e-01 5.821231000000000044e+00 5.288835000000000264e+01 1.719789999999999964e+03
4.900000000000000189e-02 6.875259999999999705e-01 7.170658999999999672e+00 5.571450000000000102e+01 1.720440000000000055e+03
5.000000000000000278e-02 6.882165000000000088e-01 8.649020000000000152e+00 5.884874999999999545e+01 1.721175000000000182e+03
5.100000000000000366e-02 6.889555000000000540e-01 1.022456999999999994e+01 6.223224999999999341e+01 1.721970000000000027e+03
5.200000000000000455e-02 6.897250000000000325e-01 1.186092999999999975e+01 6.579725000000000534e+01 1.722829999999999927e+03
5.300000000000000544e-02 6.905084999999999695e-01 1.352091499999999868e+01 6.947235000000000582e+01 1.723720000000000027e+03
5.399999999999999939e-02 6.912925000000000875e-01 1.517002000000000095e+01 7.318899999999999295e+01 1.724625000000000000e+03
5.500000000000000028e-02 6.920640000000000125e-01 1.677902999999999878e+01 7.688654999999999973e+01 1.725545000000000073e+03
5.600000000000000117e-02 6.928160000000000984e-01 1.832545000000000002e+01 8.051579999999999870e+01 1.726450000000000045e+03
5.700000000000000205e-02 6.935430000000000206e-01 1.979370000000000118e+01 8.404115000000000180e+01 1.727340000000000146e+03
5.800000000000000294e-02 6.942425000000000956e-01 2.117480000000000118e+01 8.744069999999999254e+01 1.728214999999999918e+03
5.900000000000000383e-02 6.949155000000000193e-01 2.246495000000000175e+01 9.070599999999998886e+01 1.729055000000000064e+03
6.000000000000000472e-02 6.955629999999999313e-01 2.366454999999999842e+01 9.383689999999999998e+01 1.729865000000000009e+03
6.099999999999999867e-02 6.961895000000000167e-01 2.477655000000000030e+01 9.684350000000000591e+01 1.730650000000000091e+03
6.199999999999999956e-02 6.967965000000000408e-01 2.580564999999999998e+01 9.973930000000000007e+01 1.731409999999999854e+03
6.300000000000000044e-02 6.973884999999999668e-01 2.675724999999999909e+01 1.025408999999999935e+02 1.732144999999999982e+03
6.400000000000000133e-02 6.979690000000000616e-01 2.763635000000000019e+01 1.052643500000000074e+02 1.732860000000000127e+03
6.500000000000000222e-02 6.985390000000000210e-01 2.844720000000000226e+01 1.079235000000000042e+02 1.733559999999999945e+03
6.600000000000000311e-02 6.991009999999999724e-01 2.919255000000000067e+01 1.105284999999999940e+02 1.734244999999999891e+03
6.700000000000000400e-02 6.996535000000000393e-01 2.987330000000000041e+01 1.130845000000000056e+02 1.734914999999999964e+03
6.800000000000000488e-02 7.001969999999999583e-01 3.048850000000000193e+01 1.155884999999999962e+02 1.735579999999999927e+03
6.900000000000000577e-02 7.007269999999999888e-01 3.103529999999999944e+01 1.180355000000000132e+02 1.736224999999999909e+03
7.000000000000000666e-02 7.012410000000000032e-01 3.150959999999999894e+01 1.204115000000000038e+02 1.736849999999999909e+03
7.100000000000000755e-02 7.017354999999999565e-01 3.190654999999999930e+01 1.227014999999999958e+02 1.737460000000000036e+03
7.200000000000000844e-02 7.022055000000000380e-01 3.222129999999999939e+01 1.248859999999999957e+02 1.738039999999999964e+03
7.300000000000000933e-02 7.026479999999999393e-01 3.244939999999999714e+01 1.269470000000000027e+02 1.738589999999999918e+03
7.399999999999999634e-02 7.030585000000000306e-01 3.258780000000000143e+01 1.288675000000000068e+02 1.739110000000000127e+03
7.499999999999999722e-02 7.034344999999999626e-01 3.263439999999999941e+01 1.306304999999999836e+02 1.739595000000000027e+03
7.599999999999999811e-02 7.037740000000000107e-01 3.258885000000000076e+01 1.322244999999999777e+02 1.740035000000000082e+03
7.699999999999999900e-02 7.040754999999999653e-01 3.245190000000000197e+01 1.336409999999999911e+02 1.740429999999999836e+03
7.799999999999999989e-02 7.043384999999999785e-01 3.222560000000000002e+01 1.348735000000000070e+02 1.740780000000000200e+03
7.900000000000000078e-02 7.045620000000000216e-01 3.191310000000000002e+01 1.359205000000000041e+02 1.741079999999999927e+03
8.000000000000000167e-02 7.047470000000000123e-01 3.151845000000000141e+01 1.367819999999999823e+02 1.741339999999999918e+03
8.100000000000000255e-02 7.048940000000000206e-01 3.104670000000000130e+01 1.374624999999999773e+02 1.741549999999999955e+03
8.200000000000000344e-02 7.050054999999999517e-01 3.050410000000000110e+01 1.379689999999999941e+02 1.741710000000000036e+03
8.300000000000000433e-02 7.050819999999999865e-01 2.989779999999999660e+01 1.383104999999999905e+02 1.741835000000000036e+03
8.400000000000000522e-02 7.051279999999999770e-01 2.923615000000000208e+01 1.384995000000000118e+02 1.741920000000000073e+03
8.500000000000000611e-02 7.051454999999999806e-01 2.852870000000000061e+01 1.385509999999999877e+02 1.741960000000000036e+03
8.600000000000000699e-02 7.051395000000000302e-01 2.778585000000000349e+01 1.384830000000000041e+02 1.741970000000000027e+03
8.700000000000000788e-02 7.051129999999999898e-01 2.701865000000000094e+01 1.383139999999999930e+02 1.741950000000000045e+03
8.800000000000000877e-02 7.050715000000000732e-01 2.623845000000000027e+01 1.380635000000000048e+02 1.741910000000000082e+03
8.899999999999999578e-02 7.050184999999999924e-01 2.545619999999999905e+01 1.377539999999999907e+02 1.741849999999999909e+03
8.999999999999999667e-02 7.049585000000000434e-01 2.468215000000000003e+01 1.374039999999999964e+02 1.741775000000000091e+03
9.099999999999999756e-02 7.048950000000000493e-01 2.392520000000000024e+01 1.370319999999999823e+02 1.741690000000000055e+03
9.199999999999999845e-02 7.048305000000000264e-01 2.319245000000000090e+01 1.366529999999999916e+02 1.741599999999999909e+03
9.299999999999999933e-02 7.047680000000000611e-01 2.248890000000000100e+01 1.362794999999999845e+02 1.741509999999999991e+03
9.400000000000000022e-02 7.047069999999999723e-01 2.181739999999999924e+01 1.359205000000000041e+02 1.741414999999999964e+03
9.500000000000000111e-02 7.046494999999999287e-01 2.117859999999999943e+01 1.355785000000000196e+02 1.741329999999999927e+03
9.600000000000000200e-02 7.045939999999999426e-01 2.057114999999999938e+01 1.352555000000000121e+02 1.741244999999999891e+03
9.700000000000000289e-02 7.045399999999999441e-01 1.999174999999999969e+01 1.349480000000000075e+02 1.741159999999999854e+03
9.800000000000000377e-02 7.044854999999999867e-01 1.943605000000000160e+01 1.346494999999999891e+02 1.741074999999999818e+03
9.900000000000000466e-02 7.044285000000000130e-01 1.889829999999999899e+01 1.343524999999999920e+02 1.741000000000000000e+03
1.000000000000000056e-01 7.043669999999999654e-01 1.837230000000000274e+01 1.340465000000000089e+02 1.740920000000000073e+03
1.010000000000000064e-01 7.042990000000000084e-01 1.785159999999999769e+01 1.337224999999999966e+02 1.740829999999999927e+03
1.020000000000000073e-01 7.042220000000000146e-01 1.732985000000000042e+01 1.333689999999999998e+02 1.740740000000000009e+03
1.030000000000000082e-01 7.041349999999999554e-01 1.680105000000000004e+01 1.329774999999999920e+02 1.740639999999999873e+03
1.040000000000000091e-01 7.040359999999999951e-01 1.626014999999999944e+01 1.325399999999999920e+02 1.740525000000000091e+03
1.050000000000000100e-01 7.039245000000000640e-01 1.570284999999999975e+01 1.320500000000000114e+02 1.740400000000000091e+03
1.059999999999999970e-01 7.037995000000000223e-01 1.512654999999999994e+01 1.315040000000000191e+02 1.740269999999999982e+03
1.069999999999999979e-01 7.036624999999999686e-01 1.452955000000000041e+01 1.309019999999999868e+02 1.740119999999999891e+03
1.079999999999999988e-01 7.035130000000000550e-01 1.391224000000000061e+01 1.302445000000000164e+02 1.739960000000000036e+03
1.089999999999999997e-01 7.033540000000000347e-01 1.327632000000000012e+01 1.295384999999999991e+02 1.739785000000000082e+03
1.100000000000000006e-01 7.031864999999999366e-01 1.262514999999999965e+01 1.287914999999999850e+02 1.739599999999999909e+03
1.110000000000000014e-01 7.030134999999999579e-01 1.196347499999999897e+01 1.280140000000000100e+02 1.739410000000000082e+03
1.120000000000000023e-01 7.028389999999999915e-01 1.129724000000000039e+01 1.272184999999999917e+02 1.739210000000000036e+03
1.130000000000000032e-01 7.026649999999999840e-01 1.063323499999999910e+01 1.264200000000000017e+02 1.739009999999999991e+03
1.140000000000000041e-01 7.024954999999999394e-01 9.978839999999999932e+00 1.256345000000000027e+02 1.738809999999999945e+03
1.150000000000000050e-01 7.023345000000000837e-01 9.341784999999999783e+00 1.248764999999999930e+02 1.738619999999999891e+03
1.160000000000000059e-01 7.021844999999999892e-01 8.729359999999999786e+00 1.241614999999999895e+02 1.738434999999999945e+03
1.170000000000000068e-01 7.020485000000000753e-01 8.148585000000000633e+00 1.235045000000000073e+02 1.738259999999999991e+03
1.180000000000000077e-01 7.019290000000000251e-01 7.605585000000000484e+00 1.229159999999999968e+02 1.738105000000000018e+03
1.190000000000000085e-01 7.018275000000000485e-01 7.105394999999999683e+00 1.224069999999999965e+02 1.737970000000000027e+03
1.200000000000000094e-01 7.017454999999999110e-01 6.651735000000000397e+00 1.219840000000000089e+02 1.737855000000000018e+03
1.209999999999999964e-01 7.016830000000000567e-01 6.246920000000000250e+00 1.216504999999999939e+02 1.737755000000000109e+03
1.219999999999999973e-01 7.016405000000000003e-01 5.891780000000000683e+00 1.214074999999999989e+02 1.737679999999999836e+03
1.229999999999999982e-01 7.016164999999999763e-01 5.585720000000000240e+00 1.212530000000000001e+02 1.737625000000000000e+03
1.239999999999999991e-01 7.016094999999999970e-01 5.326774999999999594e+00 1.211809999999999974e+02 1.737590000000000146e+03
1.250000000000000000e-01 7.016169999999999352e-01 5.111845000000000638e+00 1.211839999999999975e+02 1.737579999999999927e+03
1.260000000000000009e-01 7.016379999999999839e-01 4.936899999999999622e+00 1.212539999999999907e+02 1.737585000000000036e+03
1.270000000000000018e-01 7.016694999999999460e-01 4.797225000000000072e+00 1.213780000000000001e+02 1.737605000000000018e+03
1.280000000000000027e-01 7.017090000000000272e-01 4.687725000000000364e+00 1.215459999999999923e+02 1.737634999999999991e+03
1.290000000000000036e-01 7.017545000000000588e-01 4.603120000000000545e+00 1.217450000000000045e+02 1.737674999999999955e+03
1.300000000000000044e-01 7.018020000000000369e-01 4.538220000000000809e+00 1.219654999999999916e+02 1.737720000000000027e+03
1.310000000000000053e-01 7.018515000000000725e-01 4.488059999999999938e+00 1.221949999999999932e+02 1.737775000000000091e+03
1.320000000000000062e-01 7.018999999999999684e-01 4.448045000000000471e+00 1.224254999999999995e+02 1.737824999999999818e+03
1.330000000000000071e-01 7.019459999999999589e-01 4.414054999999999396e+00 1.226479999999999961e+02 1.737880000000000109e+03
1.340000000000000080e-01 7.019884999999999042e-01 4.382469999999999644e+00 1.228565000000000111e+02 1.737925000000000182e+03
1.350000000000000089e-01 7.020264999999999977e-01 4.350189999999999557e+00 1.230450000000000017e+02 1.737974999999999909e+03
1.360000000000000098e-01 7.020594999999999475e-01 4.314674999999999372e+00 1.232100000000000080e+02 1.738014999999999873e+03
1.370000000000000107e-01 7.020865000000000578e-01 4.273884999999999934e+00 1.233490000000000038e+02 1.738050000000000182e+03
1.380000000000000115e-01 7.021074999999999955e-01 4.226325000000000109e+00 1.234600000000000080e+02 1.738079999999999927e+03
1.390000000000000124e-01 7.021235000000000115e-01 4.170975000000000321e+00 1.235425000000000040e+02 1.738105000000000018e+03
1.400000000000000133e-01 7.021325000000000482e-01 4.107310000000000016e+00 1.235970000000000084e+02 1.738119999999999891e+03
1.410000000000000142e-01 7.021370000000000111e-01 4.035249999999999559e+00 1.236250000000000000e+02 1.738130000000000109e+03
1.420000000000000151e-01 7.021364999999999412e-01 3.955135000000000289e+00 1.236274999999999977e+02 1.738134999999999991e+03
1.430000000000000160e-01 7.021310000000000606e-01 3.867639999999999745e+00 1.236064999999999969e+02 1.738135000000000218e+03
1.440000000000000169e-01 7.021219999999999128e-01 3.773744999999999905e+00 1.235660000000000025e+02 1.738130000000000109e+03
1.450000000000000178e-01 7.021094999999999420e-01 3.674624999999999808e+00 1.235080000000000098e+02 1.738119999999999891e+03
1.459999999999999909e-01 7.020939999999999959e-01 3.571569999999999467e+00 1.234344999999999999e+02 1.738099999999999909e+03
1.469999999999999918e-01 7.020764999999999922e-01 3.465899999999999537e+00 1.233495000000000061e+02 1.738079999999999927e+03
1.479999999999999927e-01 7.020575000000000010e-01 3.358855000000000146e+00 1.232545000000000073e+02 1.738065000000000055e+03
1.489999999999999936e-01 7.020370000000000221e-01 3.251535000000000508e+00 1.231519999999999868e+02 1.738034999999999854e+03
1.499999999999999944e-01 7.020154999999999035e-01 3.144840000000000302e+00 1.230430000000000064e+02 1.738009999999999991e+03
1.509999999999999953e-01 7.019929999999999781e-01 3.039444999999999730e+00 1.229284999999999997e+02 1.737985000000000127e+03
1.519999999999999962e-01 7.019690000000000651e-01 2.935740000000000016e+00 1.228085000000000093e+02 1.737954999999999927e+03
1.529999999999999971e-01 7.019444999999999713e-01 2.833904999999999674e+00 1.226835000000000093e+02 1.737925000000000182e+03
1.539999999999999980e-01 7.019174999999999720e-01 2.733915000000000095e+00 1.225515000000000043e+02 1.737889999999999873e+03
1.549999999999999989e-01 7.018900000000000139e-01 2.635609999999999786e+00 1.224120000000000061e+02 1.737859999999999900e+03
1.559999999999999998e-01 7.018595000000000805e-01 2.538755000000000095e+00 1.222644999999999982e+02 1.737824999999999818e+03
1.570000000000000007e-01 7.018265000000000198e-01 2.443150000000000155e+00 1.221065000000000111e+02 1.737779999999999973e+03
1.580000000000000016e-01 7.017915000000000125e-01 2.348689999999999944e+00 1.219369999999999976e+02 1.737740000000000009e+03
1.590000000000000024e-01 7.017530000000000712e-01 2.255434999999999857e+00 1.217555000000000121e+02 1.737695000000000164e+03
