# t [s], A [cm^2], U [cm/s], P [cPa], c [cm/s]
1.000000000000000021e-03 7.226974999999999927e-01 6.832000000000004736e-03 9.566304999999999836e+01 1.744744999999999891e+03
2.000000000000000042e-03 7.226850000000000218e-01 -2.485105000000000040e-03 9.562574999999999648e+01 1.744735000000000127e+03
3.000000000000000062e-03 7.227539999999998965e-01 1.190309000000000089e-01 9.576550000000000296e+01 1.744764999999999873e+03
4.000000000000000083e-03 7.227995000000000392e-01 2.177395999999999776e-01 9.588550000000000750e+01 1.744789999999999964e+03
5.000000000000000104e-03 7.227399999999999380e-01 1.523054999999999826e-01 9.573760000000000048e+01 1.744760000000000218e+03
6.000000000000000125e-03 7.226544999999999774e-01 3.506299999999995531e-02 9.542480000000000473e+01 1.744700000000000045e+03
7.000000000000000146e-03 7.225775000000000947e-01 -7.962749999999996220e-02 9.504994999999999550e+01 1.744625000000000000e+03
8.000000000000000167e-03 7.224355000000000082e-01 -3.241649999999999254e-01 9.445064999999999600e+01 1.744509999999999991e+03
9.000000000000001055e-03 7.222159999999999691e-01 -7.232300000000001505e-01 9.354980000000000473e+01 1.744335000000000036e+03
1.000000000000000194e-02 7.219124999999999570e-01 -1.279839999999999867e+00 9.229685000000000628e+01 1.744090000000000146e+03
1.099999999999999936e-02 7.214939999999999687e-01 -2.030950000000000255e+00 9.058995000000000175e+01 1.743755000000000109e+03
1.200000000000000025e-02 7.209760000000000613e-01 -2.928465000000000096e+00 8.843229999999999791e+01 1.743320000000000164e+03
1.300000000000000114e-02 7.204445000000000432e-01 -3.789980000000000349e+00 8.604110000000000014e+01 1.742825000000000045e+03
1.400000000000000203e-02 7.200005000000000432e-01 -4.399015999999999593e+00 8.374520000000001119e+01 1.742324999999999818e+03
1.499999999999999944e-02 7.196930000000000271e-01 -4.628237500000000004e+00 8.179974999999998886e+01 1.741875000000000000e+03
1.600000000000000033e-02 7.195015000000000160e-01 -4.483484999999999943e+00 8.027805000000000746e+01 1.741500000000000000e+03
1.700000000000000122e-02 7.193605000000000693e-01 -4.072280000000000122e+00 7.907609999999999673e+01 1.741174999999999955e+03
1.800000000000000211e-02 7.191965000000000163e-01 -3.539464999999999861e+00 7.798975000000000080e+01 1.740875000000000000e+03
1.900000000000000300e-02 7.189585000000000559e-01 -3.003710000000000324e+00 7.681465000000000032e+01 1.740565000000000055e+03
2.000000000000000042e-02 7.186339999999999950e-01 -2.516100499999999851e+00 7.542994999999999095e+01 1.740215000000000146e+03
2.100000000000000130e-02 7.182500000000000551e-01 -2.054384999999999906e+00 7.383480000000000132e+01 1.739825000000000045e+03
2.200000000000000219e-02 7.178520000000000456e-01 -1.552704999999999780e+00 7.212514999999999077e+01 1.739420000000000073e+03
2.299999999999999961e-02 7.174795000000000478e-01 -9.488550000000002260e-01 7.042924999999999613e+01 1.739005000000000109e+03
2.400000000000000050e-02 7.171494999999999953e-01 -2.243200000000000749e-01 6.883719999999999573e+01 1.738609999999999900e+03
2.500000000000000139e-02 7.168464999999999421e-01 5.780300000000000438e-01 6.735490000000000066e+01 1.738230000000000018e+03
2.600000000000000228e-02 7.165295000000000414e-01 1.360494999999999788e+00 6.589345000000000141e+01 1.737860000000000127e+03
2.700000000000000316e-02 7.161474999999999369e-01 1.995104999999999906e+00 6.429279999999999973e+01 1.737465000000000146e+03
2.800000000000000058e-02 7.156514999999999960e-01 2.358285000000000409e+00 6.236905000000000143e+01 1.737014999999999873e+03
2.900000000000000147e-02 7.150144999999999973e-01 2.366110000000000380e+00 5.997344999999999970e+01 1.736474999999999909e+03
3.000000000000000236e-02 7.142394999999999161e-01 1.999680000000000124e+00 5.704449999999999932e+01 1.735840000000000146e+03
3.099999999999999978e-02 7.133614999999999817e-01 1.310875000000000234e+00 5.363564999999999827e+01 1.735099999999999909e+03
3.200000000000000067e-02 7.124380000000000157e-01 4.066399999999994463e-01 4.990715000000000146e+01 1.734299999999999955e+03
3.300000000000000155e-02 7.115350000000000286e-01 -5.804850000000003618e-01 4.608955000000000268e+01 1.733460000000000036e+03
3.400000000000000244e-02 7.107120000000000104e-01 -1.522349999999999870e+00 4.243489999999999895e+01 1.732644999999999982e+03
3.500000000000000333e-02 7.100139999999999230e-01 -2.317314999999999348e+00 3.917170000000000130e+01 1.731894999999999982e+03
3.600000000000000422e-02 7.094675000000000287e-01 -2.899700000000000166e+00 3.647509999999999764e+01 1.731250000000000000e+03
3.700000000000000511e-02 7.090819999999999901e-01 -3.239024999999999821e+00 3.445400000000000063e+01 1.730744999999999891e+03
3.799999999999999906e-02 7.088555000000000827e-01 -3.331922999999999746e+00 3.315330000000000155e+01 1.730384999999999991e+03
3.899999999999999994e-02 7.087764999999999205e-01 -3.190529999999999866e+00 3.256719999999999970e+01 1.730174999999999955e+03
4.000000000000000083e-02 7.088335000000000052e-01 -2.830955000000000332e+00 3.265845000000000198e+01 1.730125000000000000e+03
4.100000000000000172e-02 7.090164999999999385e-01 -2.264833499999999944e+00 3.337760000000000105e+01 1.730210000000000036e+03
4.200000000000000261e-02 7.093184999999999629e-01 -1.495850000000000124e+00 3.467640000000000100e+01 1.730434999999999945e+03
4.300000000000000350e-02 7.097344999999999349e-01 -5.214799999999999436e-01 3.651469999999999771e+01 1.730784999999999854e+03
4.400000000000000439e-02 7.102610000000000312e-01 6.614849999999998786e-01 3.885764999999999958e+01 1.731244999999999891e+03
4.499999999999999833e-02 7.108909999999999396e-01 2.050275000000000514e+00 4.166960000000000264e+01 1.731825000000000045e+03
4.599999999999999922e-02 7.116149999999999975e-01 3.630914999999999893e+00 4.490585000000000093e+01 1.732509999999999991e+03
4.700000000000000011e-02 7.124170000000000780e-01 5.375840000000000174e+00 4.850714999999999577e+01 1.733269999999999982e+03
4.800000000000000100e-02 7.132770000000000499e-01 7.244970000000000354e+00 5.239770000000000039e+01 1.734115000000000009e+03
4.900000000000000189e-02 7.141714999999999591e-01 9.189344399999999524e+00 5.648845000000000027e+01 1.735005000000000109e+03
5.000000000000000278e-02 7.150790000000000202e-01 1.115625499999999981e+01 6.068295000000000528e+01 1.735934999999999945e+03
5.100000000000000366e-02 7.159770000000000856e-01 1.309464999999999968e+01 6.488545000000000584e+01 1.736880000000000109e+03
5.200000000000000455e-02 7.168490000000000695e-01 1.495983499999999999e+01 6.900929999999999609e+01 1.737819999999999936e+03
5.300000000000000544e-02 7.176804999999999435e-01 1.671659000000000006e+01 7.298319999999999652e+01 1.738740000000000009e+03
5.399999999999999939e-02 7.184644999999999504e-01 1.834049999999999869e+01 7.675579999999999359e+01 1.739619999999999891e+03
5.500000000000000028e-02 7.191974999999999341e-01 1.981784999999999997e+01 8.029699999999999704e+01 1.740465000000000146e+03
5.600000000000000117e-02 7.198814999999999520e-01 2.114440000000000097e+01 8.359700000000000841e+01 1.741259999999999991e+03
5.700000000000000205e-02 7.205194999999999794e-01 2.232354999999999734e+01 8.666360000000000241e+01 1.742005000000000109e+03
5.800000000000000294e-02 7.211184999999999956e-01 2.336439999999999984e+01 8.951869999999999550e+01 1.742704999999999927e+03
5.900000000000000383e-02 7.216860000000000497e-01 2.428034999999999854e+01 9.219400000000000261e+01 1.743365000000000009e+03
6.000000000000000472e-02 7.222300000000000386e-01 2.508709999999999951e+01 9.472759999999999536e+01 1.743984999999999900e+03
6.099999999999999867e-02 7.227600000000000691e-01 2.580145000000000266e+01 9.715909999999999513e+01 1.744590000000000146e+03
6.199999999999999956e-02 7.232830000000000092e-01 2.644020000000000081e+01 9.952770000000001005e+01 1.745170000000000073e+03
6.300000000000000044e-02 7.238055000000001016e-01 2.701820000000000022e+01 1.018666000000000054e+02 1.745750000000000000e+03
6.400000000000000133e-02 7.243310000000000581e-01 2.754745000000000132e+01 1.042014999999999958e+02 1.746319999999999936e+03
6.500000000000000222e-02 7.248620000000000063e-01 2.803594999999999970e+01 1.065465000000000089e+02 1.746884999999999991e+03
6.600000000000000311e-02 7.253975000000000284e-01 2.848695000000000022e+01 1.089054999999999893e+02 1.747454999999999927e+03
6.700000000000000400e-02 7.259329999999999394e-01 2.889900000000000091e+01 1.112684999999999889e+02 1.748019999999999982e+03
6.800000000000000488e-02 7.264630000000000809e-01 2.926650000000000063e+01 1.136154999999999973e+02 1.748589999999999918e+03
6.900000000000000577e-02 7.269805000000000295e-01 2.958055000000000234e+01 1.159170000000000016e+02 1.749139999999999873e+03
7.000000000000000666e-02 7.274765000000000814e-01 2.983064999999999856e+01 1.181364999999999981e+02 1.749674999999999955e+03
7.100000000000000755e-02 7.279430000000000067e-01 3.000560000000000116e+01 1.202379999999999995e+02 1.750190000000000055e+03
7.200000000000000844e-02 7.283720000000000194e-01 3.009495000000000076e+01 1.221829999999999927e+02 1.750670000000000073e+03
7.300000000000000933e-02 7.287565000000000293e-01 3.008995000000000175e+01 1.239379999999999882e+02 1.751110000000000127e+03
7.399999999999999634e-02 7.290915000000000035e-01 2.998409999999999798e+01 1.254749999999999943e+02 1.751500000000000000e+03
7.499999999999999722e-02 7.293735000000000079e-01 2.977355000000000018e+01 1.267729999999999961e+02 1.751840000000000146e+03
7.599999999999999811e-02 7.295994999999999564e-01 2.945735000000000170e+01 1.278195000000000050e+02 1.752119999999999891e+03
7.699999999999999900e-02 7.297694999999999599e-01 2.903744999999999976e+01 1.286080000000000041e+02 1.752344999999999800e+03
7.799999999999999989e-02 7.298850000000000060e-01 2.851845000000000141e+01 1.291419999999999959e+02 1.752509999999999991e+03
7.900000000000000078e-02 7.299489999999999590e-01 2.790780000000000172e+01 1.294325000000000045e+02 1.752615000000000009e+03
8.000000000000000167e-02 7.299649999999999750e-01 2.721545000000000059e+01 1.294950000000000045e+02 1.752670000000000073e+03
8.100000000000000255e-02 7.299385000000000456e-01 2.645364999999999966e+01 1.293534999999999968e+02 1.752675000000000182e+03
8.200000000000000344e-02 7.298759999999999692e-01 2.563629999999999853e+01 1.290345000000000084e+02 1.752630000000000109e+03
8.300000000000000433e-02 7.297835000000000294e-01 2.477890000000000015e+01 1.285709999999999980e+02 1.752554999999999836e+03
8.400000000000000522e-02 7.296694999999999709e-01 2.389780000000000015e+01 1.279955000000000069e+02 1.752444999999999936e+03
8.500000000000000611e-02 7.295409999999999950e-01 2.300914999999999822e+01 1.273425000000000011e+02 1.752315000000000055e+03
8.600000000000000699e-02 7.294049999999999701e-01 2.212870000000000203e+01 1.266460000000000150e+02 1.752170000000000073e+03
8.700000000000000788e-02 7.292680000000000273e-01 2.127045000000000030e+01 1.259375000000000000e+02 1.752014999999999873e+03
8.800000000000000877e-02 7.291345000000000187e-01 2.044655000000000200e+01 1.252429999999999950e+02 1.751860000000000127e+03
8.899999999999999578e-02 7.290110000000000756e-01 1.966615000000000180e+01 1.245870000000000033e+02 1.751710000000000036e+03
8.999999999999999667e-02 7.288980000000000459e-01 1.893544999999999945e+01 1.239844999999999970e+02 1.751559999999999945e+03
9.099999999999999756e-02 7.287980000000000569e-01 1.825724999999999909e+01 1.234459999999999980e+02 1.751434999999999945e+03
9.199999999999999845e-02 7.287114999999999565e-01 1.763134999999999764e+01 1.229745000000000061e+02 1.751315000000000055e+03
9.299999999999999933e-02 7.286365000000000203e-01 1.705420000000000158e+01 1.225674999999999955e+02 1.751210000000000036e+03
9.400000000000000022e-02 7.285705000000000098e-01 1.651989999999999981e+01 1.222175000000000011e+02 1.751115000000000009e+03
9.500000000000000111e-02 7.285110000000000197e-01 1.602035000000000053e+01 1.219099999999999966e+02 1.751029999999999973e+03
9.600000000000000200e-02 7.284539999999999349e-01 1.554600000000000115e+01 1.216289999999999907e+02 1.750960000000000036e+03
9.700000000000000289e-02 7.283954999999999735e-01 1.508609999999999829e+01 1.213564999999999969e+02 1.750884999999999991e+03
9.800000000000000377e-02 7.283310000000000617e-01 1.463000000000000078e+01 1.210724999999999909e+02 1.750815000000000055e+03
9.900000000000000466e-02 7.282560000000000144e-01 1.416679999999999851e+01 1.207574999999999932e+02 1.750735000000000127e+03
1.000000000000000056e-01 7.281684999999999963e-01 1.368690000000000140e+01 1.203930000000000007e+02 1.750650000000000091e+03
1.010000000000000064e-01 7.280645000000000033e-01 1.318190500000000043e+01 1.199639999999999986e+02 1.750549999999999955e+03
1.020000000000000073e-01 7.279419999999999780e-01 1.264541000000000004e+01 1.194590000000000032e+02 1.750430000000000064e+03
1.030000000000000082e-01 7.278005000000000724e-01 1.207330999999999932e+01 1.188714999999999975e+02 1.750300000000000182e+03
1.040000000000000091e-01 7.276400000000000645e-01 1.146415999999999968e+01 1.181980000000000075e+02 1.750150000000000091e+03
1.050000000000000100e-01 7.274629999999999708e-01 1.081918999999999897e+01 1.174430000000000121e+02 1.749985000000000127e+03
1.059999999999999970e-01 7.272700000000000831e-01 1.014245999999999981e+01 1.166144999999999925e+02 1.749800000000000182e+03
1.069999999999999979e-01 7.270659999999999901e-01 9.440450000000000230e+00 1.157255000000000109e+02 1.749599999999999909e+03
1.079999999999999988e-01 7.268550000000000288e-01 8.721769999999999357e+00 1.147940000000000111e+02 1.749394999999999982e+03
1.089999999999999997e-01 7.266420000000000101e-01 7.996924999999999173e+00 1.138414999999999964e+02 1.749174999999999955e+03
1.100000000000000006e-01 7.264319999999999666e-01 7.277330000000000076e+00 1.128915000000000077e+02 1.748960000000000036e+03
1.110000000000000014e-01 7.262310000000000709e-01 6.575114999999999377e+00 1.119680000000000035e+02 1.748744999999999891e+03
1.120000000000000023e-01 7.260444999999999816e-01 5.902144999999999087e+00 1.110955000000000013e+02 1.748539999999999964e+03
1.130000000000000032e-01 7.258759999999999657e-01 5.269600000000000506e+00 1.102955000000000041e+02 1.748349999999999909e+03
1.140000000000000041e-01 7.257305000000000561e-01 4.687319999999999709e+00 1.095889999999999986e+02 1.748179999999999836e+03
1.150000000000000050e-01 7.256099999999999772e-01 4.163370000000000459e+00 1.089904999999999973e+02 1.748029999999999973e+03
1.160000000000000059e-01 7.255169999999999675e-01 3.703615000000000101e+00 1.085114999999999981e+02 1.747904999999999973e+03
1.170000000000000068e-01 7.254515000000000269e-01 3.311535000000000117e+00 1.081574999999999989e+02 1.747804999999999836e+03
1.180000000000000077e-01 7.254140000000000033e-01 2.988105000000000011e+00 1.079300000000000068e+02 1.747740000000000009e+03
1.190000000000000085e-01 7.254024999999999501e-01 2.731875000000000053e+00 1.078239999999999981e+02 1.747694999999999936e+03
1.200000000000000094e-01 7.254140000000000033e-01 2.539139999999999731e+00 1.078309999999999889e+02 1.747680000000000064e+03
1.209999999999999964e-01 7.254460000000000353e-01 2.404244999999999965e+00 1.079369999999999976e+02 1.747684999999999945e+03
1.219999999999999973e-01 7.254939999999999722e-01 2.319995000000000029e+00 1.081260000000000048e+02 1.747715000000000146e+03
1.229999999999999982e-01 7.255549999999999500e-01 2.278064999999999785e+00 1.083795000000000073e+02 1.747755000000000109e+03
1.239999999999999991e-01 7.256225000000000591e-01 2.269490000000000229e+00 1.086784999999999997e+02 1.747815000000000055e+03
1.250000000000000000e-01 7.256945000000000201e-01 2.285054999999999836e+00 1.090030000000000001e+02 1.747880000000000109e+03
1.260000000000000009e-01 7.257660000000000222e-01 2.315735000000000099e+00 1.093349999999999937e+02 1.747950000000000045e+03
1.270000000000000018e-01 7.258329999999999504e-01 2.353010000000000268e+00 1.096554999999999893e+02 1.748014999999999873e+03
1.280000000000000027e-01 7.258940000000000392e-01 2.389170000000000016e+00 1.099505000000000052e+02 1.748079999999999927e+03
1.290000000000000036e-01 7.259450000000000625e-01 2.417510000000000048e+00 1.102079999999999984e+02 1.748140000000000100e+03
1.300000000000000044e-01 7.259849999999999914e-01 2.432500000000000107e+00 1.104164999999999992e+02 1.748184999999999945e+03
1.310000000000000053e-01 7.260130000000000194e-01 2.429859999999999687e+00 1.105705000000000098e+02 1.748224999999999909e+03
1.320000000000000062e-01 7.260275000000000478e-01 2.406590000000000007e+00 1.106655000000000086e+02 1.748250000000000000e+03
1.330000000000000071e-01 7.260294999999999943e-01 2.361010000000000275e+00 1.107005000000000052e+02 1.748264999999999873e+03
1.340000000000000080e-01 7.260189999999999699e-01 2.292650000000000077e+00 1.106760000000000019e+02 1.748264999999999873e+03
1.350000000000000089e-01 7.259970000000000034e-01 2.202189999999999870e+00 1.105964999999999918e+02 1.748255000000000109e+03
1.360000000000000098e-01 7.259649999999999714e-01 2.091330000000000133e+00 1.104664999999999964e+02 1.748230000000000018e+03
1.370000000000000107e-01 7.259240000000000137e-01 1.962594999999999867e+00 1.102925000000000040e+02 1.748194999999999936e+03
1.380000000000000115e-01 7.258765000000000356e-01 1.819205999999999879e+00 1.100825000000000102e+02 1.748154999999999973e+03
1.390000000000000124e-01 7.258240000000000247e-01 1.664786499999999947e+00 1.098439999999999941e+02 1.748105000000000018e+03
1.400000000000000133e-01 7.257679999999999687e-01 1.503192000000000084e+00 1.095865000000000009e+02 1.748049999999999955e+03
1.410000000000000142e-01 7.257109999999999950e-01 1.338264500000000190e+00 1.093164999999999907e+02 1.747990000000000009e+03
1.420000000000000151e-01 7.256525000000000336e-01 1.173617499999999980e+00 1.090420000000000016e+02 1.747930000000000064e+03
1.430000000000000160e-01 7.255959999999999077e-01 1.012460499999999985e+00 1.087680000000000007e+02 1.747869999999999891e+03
1.440000000000000169e-01 7.255409999999999915e-01 8.574370499999999229e-01 1.085000000000000000e+02 1.747815000000000055e+03
1.450000000000000178e-01 7.254880000000000217e-01 7.105639000000000260e-01 1.082404999999999973e+02 1.747750000000000000e+03
1.459999999999999909e-01 7.254374999999999574e-01 5.731505000000000072e-01 1.079904999999999973e+02 1.747694999999999936e+03
1.469999999999999918e-01 7.253884999999999916e-01 4.458394999999999442e-01 1.077505000000000024e+02 1.747634999999999991e+03
1.479999999999999927e-01 7.253414999999999724e-01 3.286700000000000177e-01 1.075190000000000055e+02 1.747579999999999927e+03
1.489999999999999936e-01 7.252950000000000230e-01 2.211679999999999757e-01 1.072934999999999945e+02 1.747525000000000091e+03
1.499999999999999944e-01 7.252490000000000325e-01 1.224854999999999694e-01 1.070709999999999980e+02 1.747474999999999909e+03
1.509999999999999953e-01 7.252020000000000133e-01 3.154549999999997634e-02 1.068474999999999966e+02 1.747425000000000182e+03
1.519999999999999962e-01 7.251535000000000064e-01 -5.282000000000000584e-02 1.066189999999999998e+02 1.747365000000000009e+03
1.529999999999999971e-01 7.251030000000000530e-01 -1.317425000000000124e-01 1.063830000000000098e+02 1.747309999999999945e+03
1.539999999999999980e-01 7.250494999999999024e-01 -2.062114999999999920e-01 1.061370000000000005e+02 1.747250000000000000e+03
1.549999999999999989e-01 7.249929999999999986e-01 -2.770070000000000032e-01 1.058780000000000001e+02 1.747190000000000055e+03
1.559999999999999998e-01 7.249335000000000084e-01 -3.446519999999999584e-01 1.056055000000000064e+02 1.747125000000000000e+03
1.570000000000000007e-01 7.248704999999999732e-01 -4.093994999999999718e-01 1.053195000000000050e+02 1.747059999999999945e+03
1.580000000000000016e-01 7.248045000000000737e-01 -4.712544999999999651e-01 1.050210000000000008e+02 1.746994999999999891e+03
1.590000000000000024e-01 7.247364999999998947e-01 -5.299625000000000030e-01 1.047110000000000127e+02 1.746920000000000073e+03
