# t [s], A [cm^2], U [cm/s], P [cPa], c [cm/s]
1.000000000000000021e-03 5.973610000000000309e-01 5.000099999999993439e-03 9.826169999999999050e+01 1.561324999999999818e+03
2.000000000000000042e-03 5.973500000000000476e-01 -3.077080000000000266e-03 9.823449999999999704e+01 1.561309999999999945e+03
3.000000000000000062e-03 5.973990000000000133e-01 8.506910000000000860e-02 9.832335000000000491e+01 1.561340000000000146e+03
4.000000000000000083e-03 5.974490000000000078e-01 1.851037999999999850e-01 9.844249999999999545e+01 1.561369999999999891e+03
5.000000000000000104e-03 5.974300000000000166e-01 1.718860999999999861e-01 9.840465000000000373e+01 1.561364999999999782e+03
6.000000000000000125e-03 5.973644999999999650e-01 7.195450000000000457e-02 9.819780000000000086e+01 1.561315000000000055e+03
7.000000000000000146e-03 5.973060000000000036e-01 -2.233699999999999575e-02 9.793054999999999666e+01 1.561250000000000000e+03
8.000000000000000167e-03 5.972244999999999360e-01 -1.693014999999999937e-01 9.755535000000000423e+01 1.561159999999999854e+03
9.000000000000001055e-03 5.970860000000000056e-01 -4.354999999999999982e-01 9.697745000000000459e+01 1.561019999999999982e+03
1.000000000000000194e-02 5.968900000000000317e-01 -8.189850000000000740e-01 9.616230000000000189e+01 1.560820000000000164e+03
1.099999999999999936e-02 5.966255000000000308e-01 -1.329945000000000155e+00 9.506305000000000405e+01 1.560554999999999836e+03
1.200000000000000025e-02 5.962724999999999831e-01 -1.986934999999999896e+00 9.361709999999999354e+01 1.560195000000000164e+03
1.300000000000000114e-02 5.958444999999999991e-01 -2.746075000000000266e+00 9.183405000000000484e+01 1.559740000000000009e+03
1.400000000000000203e-02 5.953950000000000076e-01 -3.479330000000000034e+00 8.984704999999999586e+01 1.559220000000000027e+03
1.499999999999999944e-02 5.949910000000000476e-01 -4.030246999999999247e+00 8.786449999999999250e+01 1.558684999999999945e+03
1.600000000000000033e-02 5.946744999999999948e-01 -4.287555150000000204e+00 8.607410000000000139e+01 1.558170000000000073e+03
1.700000000000000122e-02 5.944494999999999640e-01 -4.222704000000000235e+00 8.457239999999998759e+01 1.557710000000000036e+03
1.800000000000000211e-02 5.942844999999999933e-01 -3.884437999999999835e+00 8.334619999999999607e+01 1.557305000000000064e+03
1.900000000000000300e-02 5.941340000000000510e-01 -3.367849500000000162e+00 8.229640000000000555e+01 1.556940000000000055e+03
2.000000000000000042e-02 5.939529999999999532e-01 -2.775848499999999941e+00 8.128520000000000323e+01 1.556590000000000146e+03
2.100000000000000130e-02 5.937149999999999928e-01 -2.185329499999999925e+00 8.018784999999999741e+01 1.556214999999999918e+03
2.200000000000000219e-02 5.934139999999999970e-01 -1.627519999999999856e+00 7.893290000000000362e+01 1.555809999999999945e+03
2.299999999999999961e-02 5.930670000000000108e-01 -1.088205000000000089e+00 7.751775000000000659e+01 1.555375000000000000e+03
2.400000000000000050e-02 5.927009999999999224e-01 -5.262500000000001066e-01 7.599580000000000268e+01 1.554904999999999973e+03
2.500000000000000139e-02 5.923414999999999653e-01 9.939499999999990010e-02 7.444355000000000189e+01 1.554420000000000073e+03
2.600000000000000228e-02 5.920030000000000570e-01 8.061449999999998894e-01 7.292464999999999975e+01 1.553940000000000055e+03
2.700000000000000316e-02 5.916814999999999714e-01 1.575430000000000108e+00 7.146250000000000568e+01 1.553470000000000027e+03
2.800000000000000058e-02 5.913604999999999556e-01 2.353080000000000283e+00 7.002934999999999377e+01 1.553009999999999991e+03
2.900000000000000147e-02 5.910109999999999530e-01 3.059975000000000112e+00 6.855159999999999343e+01 1.552534999999999854e+03
3.000000000000000236e-02 5.906029999999999891e-01 3.609275000000000233e+00 6.692804999999999893e+01 1.552035000000000082e+03
3.099999999999999978e-02 5.901115000000000110e-01 3.926014999999999588e+00 6.505620000000000402e+01 1.551474999999999909e+03
3.200000000000000067e-02 5.895249999999999657e-01 3.964670000000000361e+00 6.286084999999999923e+01 1.550845000000000027e+03
3.300000000000000155e-02 5.888480000000000381e-01 3.720174999999999788e+00 6.031709999999999638e+01 1.550125000000000000e+03
3.400000000000000244e-02 5.881024999999999725e-01 3.229205000000000325e+00 5.746184999999999832e+01 1.549324999999999818e+03
3.500000000000000333e-02 5.873230000000000395e-01 2.561479999999999535e+00 5.439000000000000057e+01 1.548474999999999909e+03
3.600000000000000422e-02 5.865500000000000158e-01 1.805310000000000414e+00 5.123859999999999815e+01 1.547590000000000146e+03
3.700000000000000511e-02 5.858219999999999539e-01 1.050945000000000462e+00 4.816389999999999816e+01 1.546720000000000027e+03
3.799999999999999906e-02 5.851735000000000131e-01 3.778249999999996334e-01 4.531900000000000261e+01 1.545889999999999873e+03
3.899999999999999994e-02 5.846274999999999666e-01 -1.537200000000003008e-01 4.283525000000000205e+01 1.545144999999999982e+03
4.000000000000000083e-02 5.841999999999999416e-01 -5.049649999999998862e-01 4.081109999999999616e+01 1.544509999999999991e+03
4.100000000000000172e-02 5.838950000000000529e-01 -6.571699999999998099e-01 3.930774999999999864e+01 1.544009999999999991e+03
4.200000000000000261e-02 5.837140000000000661e-01 -6.069049999999998057e-01 3.835119999999999862e+01 1.543654999999999973e+03
4.300000000000000350e-02 5.836494999999999322e-01 -3.601149999999999629e-01 3.793869999999999720e+01 1.543450000000000045e+03
4.400000000000000439e-02 5.836959999999999926e-01 7.356550000000000589e-02 3.804784999999999684e+01 1.543389999999999873e+03
4.499999999999999833e-02 5.838444999999999885e-01 6.851300000000001278e-01 3.864560000000000173e+01 1.543474999999999909e+03
4.599999999999999922e-02 5.840889999999999693e-01 1.468195000000000139e+00 3.969549999999999557e+01 1.543694999999999936e+03
4.700000000000000011e-02 5.844245000000000134e-01 2.418714999999999726e+00 4.116185000000000116e+01 1.544039999999999964e+03
4.800000000000000100e-02 5.848439999999999195e-01 3.532890000000000086e+00 4.301040000000000418e+01 1.544494999999999891e+03
4.900000000000000189e-02 5.853410000000000002e-01 4.804255000000000386e+00 4.520695000000000618e+01 1.545059999999999945e+03
5.000000000000000278e-02 5.859084999999999432e-01 6.221047999999999689e+00 4.771459999999999724e+01 1.545715000000000146e+03
5.100000000000000366e-02 5.865354999999999874e-01 7.764639499999999472e+00 5.049099999999999966e+01 1.546465000000000146e+03
5.200000000000000455e-02 5.872100000000000097e-01 9.409565000000000623e+00 5.348749999999999716e+01 1.547280000000000200e+03
5.300000000000000544e-02 5.879174999999999818e-01 1.112446499999999894e+01 5.664900000000000091e+01 1.548150000000000091e+03
5.399999999999999939e-02 5.886439999999999451e-01 1.287474500000000077e+01 5.991655000000000086e+01 1.549070000000000164e+03
5.500000000000000028e-02 5.893749999999999822e-01 1.462497499999999917e+01 6.323014999999999475e+01 1.550005000000000109e+03
5.600000000000000117e-02 5.900980000000000114e-01 1.634196999999999989e+01 6.653260000000000218e+01 1.550954999999999927e+03
5.700000000000000205e-02 5.908025000000000082e-01 1.799694999999999823e+01 6.977355000000000018e+01 1.551900000000000091e+03
5.800000000000000294e-02 5.914810000000000345e-01 1.956725000000000136e+01 7.291210000000000946e+01 1.552824999999999818e+03
5.900000000000000383e-02 5.921285000000000576e-01 2.103694999999999737e+01 7.591904999999999859e+01 1.553724999999999909e+03
6.000000000000000472e-02 5.927434999999999787e-01 2.239705000000000013e+01 7.877764999999999418e+01 1.554590000000000146e+03
6.099999999999999867e-02 5.933260000000000201e-01 2.364484999999999815e+01 8.148290000000000077e+01 1.555420000000000073e+03
6.199999999999999956e-02 5.938795000000000046e-01 2.478280000000000172e+01 8.404070000000000107e+01 1.556210000000000036e+03
6.300000000000000044e-02 5.944085000000000063e-01 2.581749999999999901e+01 8.646549999999999159e+01 1.556965000000000146e+03
6.400000000000000133e-02 5.949174999999999880e-01 2.675854999999999961e+01 8.877830000000000155e+01 1.557694999999999936e+03
6.500000000000000222e-02 5.954129999999999701e-01 2.761744999999999806e+01 9.100454999999999472e+01 1.558389999999999873e+03
6.600000000000000311e-02 5.958999999999999853e-01 2.840684999999999860e+01 9.317150000000000887e+01 1.559075000000000045e+03
6.700000000000000400e-02 5.963855000000000128e-01 2.913964999999999961e+01 9.530625000000000568e+01 1.559744999999999891e+03
6.800000000000000488e-02 5.968740000000000157e-01 2.982789999999999964e+01 9.743455000000000155e+01 1.560409999999999854e+03
6.900000000000000577e-02 5.973690000000000389e-01 3.048250000000000171e+01 9.957779999999999632e+01 1.561075000000000045e+03
7.000000000000000666e-02 5.978744999999999754e-01 3.111214999999999975e+01 1.017529000000000110e+02 1.561750000000000000e+03
7.100000000000000755e-02 5.983914999999999651e-01 3.172279999999999944e+01 1.039687500000000000e+02 1.562430000000000064e+03
7.200000000000000844e-02 5.989189999999999792e-01 3.231725000000000136e+01 1.062289999999999992e+02 1.563119999999999891e+03
7.300000000000000933e-02 5.994554999999999190e-01 3.289484999999999815e+01 1.085279999999999916e+02 1.563825000000000045e+03
7.399999999999999634e-02 5.999965000000000437e-01 3.345159999999999911e+01 1.108534999999999968e+02 1.564530000000000200e+03
7.499999999999999722e-02 6.005374999999999464e-01 3.398069999999999879e+01 1.131864999999999952e+02 1.565244999999999891e+03
7.599999999999999811e-02 6.010725000000000096e-01 3.447284999999999400e+01 1.155014999999999930e+02 1.565950000000000045e+03
7.699999999999999900e-02 6.015950000000001019e-01 3.491745000000000232e+01 1.177710000000000008e+02 1.566650000000000091e+03
7.799999999999999989e-02 6.020970000000001043e-01 3.530304999999999893e+01 1.199645000000000010e+02 1.567325000000000045e+03
7.900000000000000078e-02 6.025719999999999965e-01 3.561845000000000283e+01 1.220515000000000043e+02 1.567980000000000018e+03
8.000000000000000167e-02 6.030149999999999677e-01 3.585345000000000226e+01 1.240035000000000025e+02 1.568594999999999800e+03
8.100000000000000255e-02 6.034204999999999153e-01 3.599939999999999429e+01 1.257955000000000041e+02 1.569170000000000073e+03
8.200000000000000344e-02 6.037829999999999586e-01 3.604975000000000307e+01 1.274064999999999941e+02 1.569695000000000164e+03
8.300000000000000433e-02 6.041014999999999580e-01 3.600024999999999409e+01 1.288220000000000027e+02 1.570160000000000082e+03
8.400000000000000522e-02 6.043739999999999668e-01 3.584940000000000282e+01 1.300324999999999989e+02 1.570569999999999936e+03
8.500000000000000611e-02 6.045994999999999564e-01 3.559805000000000064e+01 1.310335000000000036e+02 1.570920000000000073e+03
8.600000000000000699e-02 6.047795000000000254e-01 3.524980000000000047e+01 1.318290000000000077e+02 1.571210000000000036e+03
8.700000000000000788e-02 6.049170000000000380e-01 3.481060000000000088e+01 1.324265000000000043e+02 1.571440000000000055e+03
8.800000000000000877e-02 6.050139999999999407e-01 3.428860000000000241e+01 1.328389999999999986e+02 1.571615000000000009e+03
8.899999999999999578e-02 6.050754999999999884e-01 3.369369999999999976e+01 1.330829999999999984e+02 1.571735000000000127e+03
8.999999999999999667e-02 6.051060000000000327e-01 3.303744999999999976e+01 1.331804999999999950e+02 1.571815000000000055e+03
9.099999999999999756e-02 6.051100000000000367e-01 3.233220000000000027e+01 1.331530000000000200e+02 1.571849999999999909e+03
9.199999999999999845e-02 6.050940000000000207e-01 3.159125000000000227e+01 1.330250000000000057e+02 1.571849999999999909e+03
9.299999999999999933e-02 6.050619999999999887e-01 3.082779999999999987e+01 1.328215000000000146e+02 1.571819999999999936e+03
9.400000000000000022e-02 6.050200000000000022e-01 3.005484999999999829e+01 1.325660000000000025e+02 1.571769999999999982e+03
9.500000000000000111e-02 6.049729999999999830e-01 2.928439999999999799e+01 1.322814999999999941e+02 1.571710000000000036e+03
9.600000000000000200e-02 6.049250000000000460e-01 2.852725000000000222e+01 1.319890000000000043e+02 1.571640000000000100e+03
9.700000000000000289e-02 6.048795000000000144e-01 2.779254999999999853e+01 1.317044999999999959e+02 1.571565000000000055e+03
9.800000000000000377e-02 6.048385000000000566e-01 2.708729999999999905e+01 1.314424999999999955e+02 1.571494999999999891e+03
9.900000000000000466e-02 6.048044999999999671e-01 2.641644999999999754e+01 1.312115000000000009e+02 1.571430000000000064e+03
1.000000000000000056e-01 6.047774999999999679e-01 2.578249999999999886e+01 1.310180000000000007e+02 1.571369999999999891e+03
1.010000000000000064e-01 6.047580000000000178e-01 2.518580000000000041e+01 1.308614999999999782e+02 1.571319999999999936e+03
1.020000000000000073e-01 6.047439999999999483e-01 2.462444999999999951e+01 1.307400000000000091e+02 1.571275000000000091e+03
1.030000000000000082e-01 6.047350000000000225e-01 2.409470000000000312e+01 1.306469999999999914e+02 1.571240000000000009e+03
1.040000000000000091e-01 6.047274999999999734e-01 2.359114999999999895e+01 1.305720000000000027e+02 1.571210000000000036e+03
1.050000000000000100e-01 6.047190000000000065e-01 2.310730000000000217e+01 1.305039999999999907e+02 1.571184999999999945e+03
1.059999999999999970e-01 6.047065000000000357e-01 2.263560000000000016e+01 1.304285000000000139e+02 1.571155000000000200e+03
1.069999999999999979e-01 6.046875000000000444e-01 2.216844999999999999e+01 1.303325000000000102e+02 1.571125000000000000e+03
1.079999999999999988e-01 6.046579999999999178e-01 2.169790000000000063e+01 1.302019999999999982e+02 1.571085000000000036e+03
1.089999999999999997e-01 6.046160000000000423e-01 2.121654999999999802e+01 1.300219999999999914e+02 1.571034999999999854e+03
1.100000000000000006e-01 6.045579999999999288e-01 2.071775000000000233e+01 1.297824999999999989e+02 1.570960000000000036e+03
1.110000000000000014e-01 6.044829999999999925e-01 2.019599999999999795e+01 1.294724999999999966e+02 1.570875000000000000e+03
1.120000000000000023e-01 6.043905000000000527e-01 1.964710000000000178e+01 1.290854999999999961e+02 1.570769999999999982e+03
1.130000000000000032e-01 6.042784999999999407e-01 1.906840000000000046e+01 1.286175000000000068e+02 1.570634999999999991e+03
1.140000000000000041e-01 6.041475000000000595e-01 1.845925000000000082e+01 1.280680000000000121e+02 1.570485000000000127e+03
1.150000000000000050e-01 6.039995000000000225e-01 1.782050000000000267e+01 1.274389999999999930e+02 1.570305000000000064e+03
1.160000000000000059e-01 6.038354999999999695e-01 1.715514999999999901e+01 1.267359999999999900e+02 1.570109999999999900e+03
1.170000000000000068e-01 6.036580000000000279e-01 1.646774999999999878e+01 1.259699999999999989e+02 1.569889999999999873e+03
1.180000000000000077e-01 6.034694999999999920e-01 1.576445000000000007e+01 1.251519999999999868e+02 1.569664999999999964e+03
1.190000000000000085e-01 6.032750000000000057e-01 1.505269999999999975e+01 1.242964999999999947e+02 1.569414999999999964e+03
1.200000000000000094e-01 6.030765000000000153e-01 1.434096500000000063e+01 1.234200000000000017e+02 1.569159999999999854e+03
1.209999999999999964e-01 6.028800000000000825e-01 1.363839499999999916e+01 1.225404999999999944e+02 1.568904999999999973e+03
1.219999999999999973e-01 6.026880000000000015e-01 1.295445499999999939e+01 1.216750000000000114e+02 1.568650000000000091e+03
1.229999999999999982e-01 6.025044999999999984e-01 1.229840499999999892e+01 1.208425000000000011e+02 1.568400000000000091e+03
1.239999999999999991e-01 6.023344999999999949e-01 1.167901499999999970e+01 1.200585000000000093e+02 1.568159999999999854e+03
1.250000000000000000e-01 6.021794999999999787e-01 1.110422999999999938e+01 1.193384999999999962e+02 1.567934999999999945e+03
1.260000000000000009e-01 6.020429999999999948e-01 1.058082500000000081e+01 1.186955000000000098e+02 1.567735000000000127e+03
1.270000000000000018e-01 6.019265000000000310e-01 1.011406500000000008e+01 1.181390000000000100e+02 1.567555000000000064e+03
1.280000000000000027e-01 6.018314999999999637e-01 9.707679999999999865e+00 1.176760000000000019e+02 1.567394999999999982e+03
1.290000000000000036e-01 6.017585000000000850e-01 9.363709999999999312e+00 1.173110000000000070e+02 1.567269999999999982e+03
1.300000000000000044e-01 6.017069999999999919e-01 9.082300000000000040e+00 1.170439999999999969e+02 1.567164999999999964e+03
1.310000000000000053e-01 6.016770000000000174e-01 8.862140000000000128e+00 1.168719999999999999e+02 1.567094999999999800e+03
1.320000000000000062e-01 6.016654999999999642e-01 8.700210000000000221e+00 1.167895000000000039e+02 1.567050000000000182e+03
1.330000000000000071e-01 6.016710000000000669e-01 8.592290000000000205e+00 1.167884999999999991e+02 1.567025000000000091e+03
1.340000000000000080e-01 6.016909999999999759e-01 8.532965000000000799e+00 1.168594999999999970e+02 1.567025000000000091e+03
1.350000000000000089e-01 6.017235000000000777e-01 8.516069999999999141e+00 1.169909999999999997e+02 1.567039999999999964e+03
1.360000000000000098e-01 6.017654999999999532e-01 8.534884999999999167e+00 1.171700000000000017e+02 1.567075000000000045e+03
1.370000000000000107e-01 6.018140000000000711e-01 8.582470000000000709e+00 1.173850000000000051e+02 1.567119999999999891e+03
1.380000000000000115e-01 6.018660000000000121e-01 8.651880000000000237e+00 1.176235000000000070e+02 1.567179999999999836e+03
1.390000000000000124e-01 6.019200000000000106e-01 8.736435000000000173e+00 1.178735000000000070e+02 1.567239999999999782e+03
1.400000000000000133e-01 6.019729999999999803e-01 8.829920000000001323e+00 1.181260000000000048e+02 1.567305000000000064e+03
1.410000000000000142e-01 6.020240000000000036e-01 8.926719999999999544e+00 1.183710000000000093e+02 1.567369999999999891e+03
1.420000000000000151e-01 6.020710000000000228e-01 9.021969999999999601e+00 1.186015000000000015e+02 1.567434999999999945e+03
1.430000000000000160e-01 6.021130000000000093e-01 9.111589999999999634e+00 1.188120000000000118e+02 1.567494999999999891e+03
1.440000000000000169e-01 6.021505000000000329e-01 9.192389999999999617e+00 1.189985000000000070e+02 1.567545000000000073e+03
1.450000000000000178e-01 6.021815000000000362e-01 9.261929999999999552e+00 1.191599999999999966e+02 1.567595000000000027e+03
1.459999999999999909e-01 6.022065000000000889e-01 9.318729999999998626e+00 1.192939999999999969e+02 1.567640000000000100e+03
1.469999999999999918e-01 6.022264999999999979e-01 9.361920000000001352e+00 1.194025000000000034e+02 1.567675000000000182e+03
1.479999999999999927e-01 6.022414999999999852e-01 9.391545000000000698e+00 1.194865000000000066e+02 1.567704999999999927e+03
1.489999999999999936e-01 6.022525000000000794e-01 9.408120000000000260e+00 1.195494999999999948e+02 1.567730000000000018e+03
1.499999999999999944e-01 6.022600000000000176e-01 9.412704999999998989e+00 1.195945000000000107e+02 1.567744999999999891e+03
1.509999999999999953e-01 6.022644999999999804e-01 9.406805000000000305e+00 1.196269999999999953e+02 1.567759999999999991e+03
1.519999999999999962e-01 6.022685000000000954e-01 9.392279999999999518e+00 1.196490000000000009e+02 1.567769999999999982e+03
1.529999999999999971e-01 6.022715000000000707e-01 9.371130000000000848e+00 1.196659999999999968e+02 1.567775000000000091e+03
1.539999999999999980e-01 6.022749999999998938e-01 9.345520000000000493e+00 1.196830000000000069e+02 1.567784999999999854e+03
1.549999999999999989e-01 6.022799999999999265e-01 9.317479999999999762e+00 1.197019999999999982e+02 1.567795000000000073e+03
1.559999999999999998e-01 6.022870000000000168e-01 9.288954999999999629e+00 1.197280000000000086e+02 1.567804999999999836e+03
1.570000000000000007e-01 6.022959999999999425e-01 9.261755000000000848e+00 1.197630000000000052e+02 1.567820000000000164e+03
1.580000000000000016e-01 6.023079999999999545e-01 9.237334999999999852e+00 1.198085000000000093e+02 1.567835000000000036e+03
1.590000000000000024e-01 6.023235000000000117e-01 9.216844999999999288e+00 1.198670000000000044e+02 1.567855000000000018e+03
