# t [s], A [cm^2], U [cm/s], P [cPa], c [cm/s]
1.000000000000000021e-03 2.108654999999999835e-01 3.693267000000000078e-01 9.133234999999999104e+01 2.220819999999999709e+03
2.000000000000000042e-03 2.107934999999999948e-01 1.923503999999999881e+00 8.761294999999999789e+01 2.220340000000000146e+03
3.000000000000000062e-03 2.106270000000000087e-01 3.835541000000000089e+00 8.245024999999999693e+01 2.219260000000000218e+03
4.000000000000000083e-03 2.104155000000000053e-01 6.008999000000000201e+00 7.716984999999999673e+01 2.217904999999999745e+03
5.000000000000000104e-03 2.102054999999999896e-01 8.322235000000000937e+00 7.280604999999999905e+01 2.216565000000000055e+03
6.000000000000000125e-03 2.100110000000000032e-01 1.047771999999999970e+01 6.933924999999999272e+01 2.215349999999999909e+03
7.000000000000000146e-03 2.098325000000000051e-01 1.224784999999999968e+01 6.625405000000000655e+01 2.214260000000000218e+03
8.000000000000000167e-03 2.096764999999999879e-01 1.366267999999999994e+01 6.352104999999999535e+01 2.213319999999999709e+03
9.000000000000001055e-03 2.095470000000000110e-01 1.479170000000000051e+01 6.132150000000000034e+01 2.212554999999999836e+03
1.000000000000000194e-02 2.094444999999999779e-01 1.565765000000000029e+01 5.964050000000000296e+01 2.211954999999999927e+03
1.099999999999999936e-02 2.093654999999999822e-01 1.628885000000000005e+01 5.840579999999999927e+01 2.211500000000000000e+03
1.200000000000000025e-02 2.093065000000000064e-01 1.669514999999999816e+01 5.749204999999999899e+01 2.211170000000000073e+03
1.300000000000000114e-02 2.092600000000000016e-01 1.688439999999999941e+01 5.671405000000000030e+01 2.210914999999999964e+03
1.400000000000000203e-02 2.092235000000000067e-01 1.695994999999999919e+01 5.610299999999999443e+01 2.210715000000000146e+03
1.499999999999999944e-02 2.092080000000000051e-01 1.714395000000000024e+01 5.611045000000000016e+01 2.210639999999999873e+03
1.600000000000000033e-02 2.092315000000000147e-01 1.765429999999999922e+01 5.735739999999999839e+01 2.210784999999999854e+03
1.700000000000000122e-02 2.093050000000000188e-01 1.854544999999999888e+01 6.011580000000000013e+01 2.211220000000000255e+03
1.800000000000000211e-02 2.094225000000000114e-01 1.965095000000000169e+01 6.398035000000000139e+01 2.211914999999999964e+03
1.900000000000000300e-02 2.095584999999999809e-01 2.065810000000000102e+01 6.797015000000000384e+01 2.212734999999999673e+03
2.000000000000000042e-02 2.096800000000000053e-01 2.125549999999999784e+01 7.095889999999999986e+01 2.213475000000000364e+03
2.100000000000000130e-02 2.097574999999999856e-01 2.126845000000000141e+01 7.216544999999999277e+01 2.213974999999999909e+03
2.200000000000000219e-02 2.097779999999999923e-01 2.071934999999999860e+01 7.145709999999999695e+01 2.214125000000000000e+03
2.299999999999999961e-02 2.097459999999999880e-01 1.979489999999999839e+01 6.933934999999999604e+01 2.213960000000000036e+03
2.400000000000000050e-02 2.096810000000000063e-01 1.874560000000000315e+01 6.666764999999999475e+01 2.213595000000000255e+03
2.500000000000000139e-02 2.096079999999999888e-01 1.777414999999999878e+01 6.424920000000000186e+01 2.213154999999999745e+03
2.600000000000000228e-02 2.095440000000000080e-01 1.696525000000000105e+01 6.253195000000000192e+01 2.212764999999999873e+03
2.700000000000000316e-02 2.094960000000000155e-01 1.627894999999999825e+01 6.150104999999999933e+01 2.212470000000000255e+03
2.800000000000000058e-02 2.094590000000000063e-01 1.559725000000000072e+01 6.078589999999999804e+01 2.212239999999999782e+03
2.900000000000000147e-02 2.094214999999999827e-01 1.479649999999999999e+01 5.989574999999999960e+01 2.212014999999999873e+03
3.000000000000000236e-02 2.093720000000000026e-01 1.381459999999999866e+01 5.847424999999999784e+01 2.211720000000000255e+03
3.099999999999999978e-02 2.093049999999999911e-01 1.268984999999999985e+01 5.647849999999999682e+01 2.211329999999999927e+03
3.200000000000000067e-02 2.092269999999999963e-01 1.155754500000000107e+01 5.422090000000000032e+01 2.210864999999999782e+03
3.300000000000000155e-02 2.091510000000000036e-01 1.060735999999999990e+01 5.226344999999999885e+01 2.210404999999999745e+03
3.400000000000000244e-02 2.090964999999999907e-01 1.001767999999999859e+01 5.121030000000000371e+01 2.210065000000000055e+03
3.500000000000000333e-02 2.090785000000000005e-01 9.894034999999998803e+00 5.148389999999999844e+01 2.209934999999999945e+03
3.600000000000000422e-02 2.091065000000000007e-01 1.023334000000000010e+01 5.317005000000000337e+01 2.210079999999999927e+03
3.700000000000000511e-02 2.091764999999999874e-01 1.092373999999999867e+01 5.598154999999999859e+01 2.210480000000000018e+03
3.799999999999999906e-02 2.092760000000000176e-01 1.177499999999999858e+01 5.933709999999999951e+01 2.211060000000000400e+03
3.899999999999999994e-02 2.093849999999999878e-01 1.256524999999999892e+01 6.251500000000000057e+01 2.211704999999999927e+03
4.000000000000000083e-02 2.094794999999999852e-01 1.308859999999999957e+01 6.482519999999999527e+01 2.212274999999999636e+03
4.100000000000000172e-02 2.095400000000000040e-01 1.319200000000000017e+01 6.575000000000000000e+01 2.212654999999999745e+03
4.200000000000000261e-02 2.095515000000000017e-01 1.279374999999999929e+01 6.502450000000000330e+01 2.212744999999999891e+03
4.300000000000000350e-02 2.095075000000000132e-01 1.188487499999999919e+01 6.264759999999999707e+01 2.212500000000000000e+03
4.400000000000000439e-02 2.094099999999999850e-01 1.051568500000000128e+01 5.883469999999999800e+01 2.211930000000000291e+03
4.499999999999999833e-02 2.092649999999999788e-01 8.775005000000000166e+00 5.393725000000000591e+01 2.211079999999999927e+03
4.599999999999999922e-02 2.090845000000000065e-01 6.769000000000000128e+00 4.835559999999999548e+01 2.210000000000000000e+03
4.700000000000000011e-02 2.088809999999999834e-01 4.604759999999999742e+00 4.246920000000000073e+01 2.208779999999999745e+03
4.800000000000000100e-02 2.086660000000000181e-01 2.381305000000000227e+00 3.659714999999999918e+01 2.207494999999999891e+03
4.900000000000000189e-02 2.084504999999999830e-01 1.873350000000000293e-01 3.098854999999999649e+01 2.206194999999999709e+03
5.000000000000000278e-02 2.082430000000000114e-01 -1.896559999999999802e+00 2.583500000000000085e+01 2.204939999999999600e+03
5.100000000000000366e-02 2.080509999999999859e-01 -3.794331099999999957e+00 2.129299999999999926e+01 2.203779999999999745e+03
5.200000000000000455e-02 2.078814999999999968e-01 -5.432109999999999772e+00 1.750420000000000087e+01 2.202744999999999891e+03
5.300000000000000544e-02 2.077394999999999936e-01 -6.738500000000000156e+00 1.460649000000000086e+01 2.201880000000000109e+03
5.399999999999999939e-02 2.076319999999999832e-01 -7.647800000000000153e+00 1.273251499999999936e+01 2.201210000000000036e+03
5.500000000000000028e-02 2.075635000000000119e-01 -8.105389999999999873e+00 1.199795500000000104e+01 2.200774999999999636e+03
5.600000000000000117e-02 2.075380000000000003e-01 -8.073714999999999975e+00 1.248414999999999964e+01 2.200595000000000255e+03
5.700000000000000205e-02 2.075584999999999791e-01 -7.537244999999999528e+00 1.422119999999999962e+01 2.200690000000000055e+03
5.800000000000000294e-02 2.076254999999999906e-01 -6.505160000000000053e+00 1.717699999999999960e+01 2.201060000000000400e+03
5.900000000000000383e-02 2.077370000000000050e-01 -5.011155000000000470e+00 2.125469999999999970e+01 2.201704999999999927e+03
6.000000000000000472e-02 2.078899999999999915e-01 -3.110599999999999810e+00 2.629999999999999716e+01 2.202605000000000018e+03
6.099999999999999867e-02 2.080779999999999852e-01 -8.757699999999999374e-01 3.211459999999999582e+01 2.203710000000000036e+03
6.199999999999999956e-02 2.082944999999999935e-01 1.609815000000000218e+00 3.847375000000000256e+01 2.205000000000000000e+03
6.300000000000000044e-02 2.085305000000000075e-01 4.257024499999999989e+00 4.514405000000000001e+01 2.206409999999999854e+03
6.400000000000000133e-02 2.087795000000000067e-01 6.976345000000000240e+00 5.189865000000000350e+01 2.207904999999999745e+03
6.500000000000000222e-02 2.090319999999999956e-01 9.682430000000000092e+00 5.853029999999999688e+01 2.209430000000000291e+03
6.600000000000000311e-02 2.092809999999999948e-01 1.229819499999999977e+01 6.486079999999999757e+01 2.210940000000000055e+03
6.700000000000000400e-02 2.095199999999999840e-01 1.475864999999999938e+01 7.074969999999999004e+01 2.212394999999999982e+03
6.800000000000000488e-02 2.097445000000000004e-01 1.701399999999999935e+01 7.610050000000001091e+01 2.213765000000000327e+03
6.900000000000000577e-02 2.099504999999999844e-01 1.903200000000000003e+01 8.086519999999998731e+01 2.215024999999999636e+03
7.000000000000000666e-02 2.101365000000000038e-01 2.079954999999999998e+01 8.504570000000001073e+01 2.216175000000000182e+03
7.100000000000000755e-02 2.103025000000000033e-01 2.232220000000000226e+01 8.869174999999999898e+01 2.217204999999999927e+03
7.200000000000000844e-02 2.104504999999999848e-01 2.362214999999999776e+01 9.189410000000000878e+01 2.218125000000000000e+03
7.300000000000000933e-02 2.105845000000000078e-01 2.473545000000000016e+01 9.477369999999999095e+01 2.218960000000000036e+03
7.399999999999999634e-02 2.107069999999999776e-01 2.570674999999999955e+01 9.746834999999998672e+01 2.219725000000000364e+03
7.499999999999999722e-02 2.108240000000000114e-01 2.658514999999999873e+01 1.001179000000000059e+02 2.220454999999999927e+03
7.599999999999999811e-02 2.109405000000000030e-01 2.741819999999999879e+01 1.028500500000000102e+02 2.221170000000000073e+03
7.699999999999999900e-02 2.110595000000000110e-01 2.824864999999999782e+01 1.057699999999999960e+02 2.221904999999999745e+03
7.799999999999999989e-02 2.111850000000000116e-01 2.910999999999999943e+01 1.089495000000000005e+02 2.222680000000000291e+03
7.900000000000000078e-02 2.113194999999999935e-01 3.002469999999999928e+01 1.124240000000000066e+02 2.223510000000000218e+03
8.000000000000000167e-02 2.114634999999999987e-01 3.100295000000000201e+01 1.161940000000000026e+02 2.224394999999999982e+03
8.100000000000000255e-02 2.116175000000000139e-01 3.204260000000000019e+01 1.202224999999999966e+02 2.225335000000000036e+03
8.200000000000000344e-02 2.117799999999999960e-01 3.313029999999999831e+01 1.244440000000000026e+02 2.226329999999999927e+03
8.300000000000000433e-02 2.119480000000000253e-01 3.424320000000000164e+01 1.287725000000000080e+02 2.227360000000000127e+03
8.400000000000000522e-02 2.121184999999999876e-01 3.535119999999999862e+01 1.331044999999999732e+02 2.228404999999999745e+03
8.500000000000000611e-02 2.122884999999999911e-01 3.641960000000000264e+01 1.373305000000000007e+02 2.229449999999999818e+03
8.600000000000000699e-02 2.124535000000000173e-01 3.741179999999999950e+01 1.413430000000000177e+02 2.230470000000000255e+03
8.700000000000000788e-02 2.126099999999999934e-01 3.829194999999999993e+01 1.450420000000000016e+02 2.231429999999999836e+03
8.800000000000000877e-02 2.127539999999999987e-01 3.902740000000000009e+01 1.483400000000000034e+02 2.232324999999999818e+03
8.899999999999999578e-02 2.128829999999999889e-01 3.959074999999999989e+01 1.511694999999999993e+02 2.233125000000000000e+03
8.999999999999999667e-02 2.129939999999999889e-01 3.996165000000000589e+01 1.534834999999999923e+02 2.233819999999999709e+03
9.099999999999999756e-02 2.130859999999999976e-01 4.012789999999999679e+01 1.552584999999999980e+02 2.234400000000000091e+03
9.199999999999999845e-02 2.131574999999999998e-01 4.008599999999999852e+01 1.564964999999999975e+02 2.234855000000000018e+03
9.299999999999999933e-02 2.132094999999999962e-01 3.984130000000000393e+01 1.572205000000000155e+02 2.235190000000000055e+03
9.400000000000000022e-02 2.132425000000000015e-01 3.940729999999999933e+01 1.574739999999999895e+02 2.235404999999999745e+03
9.500000000000000111e-02 2.132580000000000031e-01 3.880474999999999852e+01 1.573180000000000121e+02 2.235514999999999873e+03
9.600000000000000200e-02 2.132580000000000031e-01 3.806010000000000559e+01 1.568245000000000005e+02 2.235525000000000091e+03
9.700000000000000289e-02 2.132455000000000045e-01 3.720380000000000109e+01 1.560740000000000123e+02 2.235454999999999927e+03
9.800000000000000377e-02 2.132229999999999959e-01 3.626874999999999716e+01 1.551494999999999891e+02 2.235329999999999927e+03
9.900000000000000466e-02 2.131939999999999946e-01 3.528844999999999743e+01 1.541320000000000050e+02 2.235154999999999745e+03
1.000000000000000056e-01 2.131609999999999894e-01 3.429514999999999958e+01 1.530980000000000132e+02 2.234960000000000036e+03
1.010000000000000064e-01 2.131270000000000109e-01 3.331875000000000142e+01 1.521144999999999925e+02 2.234755000000000109e+03
1.020000000000000073e-01 2.130940000000000056e-01 3.238500000000000512e+01 1.512384999999999877e+02 2.234550000000000182e+03
1.030000000000000082e-01 2.130644999999999900e-01 3.151480000000000103e+01 1.505115000000000123e+02 2.234364999999999782e+03
1.040000000000000091e-01 2.130400000000000071e-01 3.072315000000000040e+01 1.499605000000000246e+02 2.234210000000000036e+03
1.050000000000000100e-01 2.130210000000000159e-01 3.001879999999999882e+01 1.495980000000000132e+02 2.234095000000000255e+03
1.059999999999999970e-01 2.130084999999999895e-01 2.940380000000000038e+01 1.494195000000000277e+02 2.234015000000000327e+03
1.069999999999999979e-01 2.130024999999999835e-01 2.887395000000000067e+01 1.494050000000000011e+02 2.233965000000000146e+03
1.079999999999999988e-01 2.130009999999999959e-01 2.841910000000000025e+01 1.495224999999999795e+02 2.233954999999999927e+03
1.089999999999999997e-01 2.130044999999999855e-01 2.802389999999999759e+01 1.497249999999999943e+02 2.233970000000000255e+03
1.100000000000000006e-01 2.130099999999999771e-01 2.766935000000000144e+01 1.499615000000000009e+02 2.234000000000000000e+03
1.110000000000000014e-01 2.130164999999999975e-01 2.733364999999999867e+01 1.501740000000000066e+02 2.234034999999999854e+03
1.120000000000000023e-01 2.130219999999999891e-01 2.699399999999999977e+01 1.503029999999999973e+02 2.234059999999999945e+03
1.130000000000000032e-01 2.130229999999999901e-01 2.662829999999999941e+01 1.502939999999999827e+02 2.234070000000000164e+03
1.140000000000000041e-01 2.130194999999999728e-01 2.621630000000000038e+01 1.500980000000000132e+02 2.234050000000000182e+03
1.150000000000000050e-01 2.130090000000000039e-01 2.574119999999999919e+01 1.496789999999999736e+02 2.233984999999999673e+03
1.160000000000000059e-01 2.129894999999999983e-01 2.519075000000000131e+01 1.490099999999999909e+02 2.233869999999999891e+03
1.170000000000000068e-01 2.129614999999999980e-01 2.455805000000000149e+01 1.480819999999999936e+02 2.233699999999999818e+03
1.180000000000000077e-01 2.129240000000000022e-01 2.384194999999999709e+01 1.469000000000000057e+02 2.233470000000000255e+03
1.190000000000000085e-01 2.128774999999999973e-01 2.304729999999999990e+01 1.454850000000000136e+02 2.233184999999999945e+03
1.200000000000000094e-01 2.128220000000000112e-01 2.218444999999999823e+01 1.438709999999999809e+02 2.232855000000000018e+03
1.209999999999999964e-01 2.127600000000000047e-01 2.126875000000000071e+01 1.421055000000000064e+02 2.232474999999999909e+03
1.219999999999999973e-01 2.126925000000000066e-01 2.031944999999999979e+01 1.402429999999999950e+02 2.232064999999999600e+03
1.229999999999999982e-01 2.126214999999999911e-01 1.935855000000000103e+01 1.383445000000000107e+02 2.231630000000000109e+03
1.239999999999999991e-01 2.125495000000000023e-01 1.840934999999999988e+01 1.364730000000000132e+02 2.231184999999999945e+03
1.250000000000000000e-01 2.124790000000000012e-01 1.749530000000000030e+01 1.346884999999999764e+02 2.230750000000000000e+03
1.260000000000000009e-01 2.124114999999999753e-01 1.663834999999999908e+01 1.330475000000000136e+02 2.230335000000000036e+03
1.270000000000000018e-01 2.123490000000000100e-01 1.585790000000000077e+01 1.315949999999999989e+02 2.229949999999999818e+03
1.280000000000000027e-01 2.122939999999999827e-01 1.517009999999999970e+01 1.303700000000000045e+02 2.229605000000000018e+03
1.290000000000000036e-01 2.122465000000000046e-01 1.458644999999999925e+01 1.293969999999999914e+02 2.229315000000000055e+03
1.300000000000000044e-01 2.122094999999999954e-01 1.411425000000000018e+01 1.286879999999999882e+02 2.229074999999999818e+03
1.310000000000000053e-01 2.121814999999999951e-01 1.375570000000000093e+01 1.282439999999999998e+02 2.228900000000000091e+03
1.320000000000000062e-01 2.121625000000000039e-01 1.350854999999999961e+01 1.280525000000000091e+02 2.228775000000000091e+03
1.330000000000000071e-01 2.121540000000000092e-01 1.336629999999999896e+01 1.280939999999999941e+02 2.228710000000000036e+03
1.340000000000000080e-01 2.121529999999999805e-01 1.331864999999999988e+01 1.283389999999999986e+02 2.228704999999999927e+03
1.350000000000000089e-01 2.121600000000000152e-01 1.335255000000000081e+01 1.287504999999999882e+02 2.228739999999999782e+03
1.360000000000000098e-01 2.121730000000000005e-01 1.345265000000000022e+01 1.292909999999999968e+02 2.228809999999999945e+03
1.370000000000000107e-01 2.121915000000000051e-01 1.360234999999999950e+01 1.299180000000000064e+02 2.228920000000000073e+03
1.380000000000000115e-01 2.122124999999999984e-01 1.378460000000000107e+01 1.305914999999999964e+02 2.229045000000000073e+03
1.390000000000000124e-01 2.122360000000000080e-01 1.398269999999999946e+01 1.312715000000000032e+02 2.229179999999999836e+03
1.400000000000000133e-01 2.122594999999999898e-01 1.418079999999999963e+01 1.319234999999999900e+02 2.229329999999999927e+03
1.410000000000000142e-01 2.122819999999999985e-01 1.436490000000000045e+01 1.325174999999999841e+02 2.229465000000000146e+03
1.420000000000000151e-01 2.123030000000000195e-01 1.452299999999999969e+01 1.330285000000000082e+02 2.229595000000000255e+03
1.430000000000000160e-01 2.123214999999999963e-01 1.464559999999999995e+01 1.334384999999999764e+02 2.229704999999999927e+03
1.440000000000000169e-01 2.123359999999999970e-01 1.472619999999999862e+01 1.337375000000000114e+02 2.229800000000000182e+03
1.450000000000000178e-01 2.123470000000000080e-01 1.476085000000000136e+01 1.339194999999999993e+02 2.229864999999999782e+03
1.459999999999999909e-01 2.123535000000000006e-01 1.474859999999999971e+01 1.339895000000000209e+02 2.229909999999999854e+03
1.469999999999999918e-01 2.123565000000000036e-01 1.469144999999999968e+01 1.339549999999999841e+02 2.229929999999999836e+03
1.479999999999999927e-01 2.123555000000000026e-01 1.459339999999999904e+01 1.338305000000000007e+02 2.229925000000000182e+03
1.489999999999999936e-01 2.123510000000000120e-01 1.446065000000000111e+01 1.336329999999999814e+02 2.229904999999999745e+03
1.499999999999999944e-01 2.123450000000000060e-01 1.430089999999999861e+01 1.333845000000000027e+02 2.229864999999999782e+03
1.509999999999999953e-01 2.123364999999999836e-01 1.412265000000000015e+01 1.331069999999999993e+02 2.229814999999999600e+03
1.519999999999999962e-01 2.123275000000000023e-01 1.393469999999999942e+01 1.328220000000000027e+02 2.229765000000000327e+03
1.529999999999999971e-01 2.123174999999999923e-01 1.374575000000000102e+01 1.325489999999999782e+02 2.229704999999999927e+03
1.539999999999999980e-01 2.123079999999999967e-01 1.356344999999999956e+01 1.323075000000000045e+02 2.229649999999999636e+03
1.549999999999999989e-01 2.122999999999999887e-01 1.339440000000000097e+01 1.321094999999999970e+02 2.229600000000000364e+03
1.559999999999999998e-01 2.122934999999999961e-01 1.324365000000000059e+01 1.319644999999999868e+02 2.229560000000000400e+03
1.570000000000000007e-01 2.122884999999999911e-01 1.311449999999999960e+01 1.318770000000000095e+02 2.229529999999999745e+03
1.580000000000000016e-01 2.122855000000000159e-01 1.300835000000000008e+01 1.318480000000000132e+02 2.229505000000000109e+03
1.590000000000000024e-01 2.122844999999999871e-01 1.292510000000000048e+01 1.318714999999999975e+02 2.229500000000000000e+03
