# t [s], A [cm^2], U [cm/s], P [cPa], c [cm/s]
1.000000000000000021e-03 8.147599999999999287e-01 6.548500000000005705e-03 9.060909999999999798e+01 1.736220000000000027e+03
2.000000000000000042e-03 8.147435000000000649e-01 -6.843165000000000012e-03 9.057240000000000180e+01 1.736210000000000036e+03
3.000000000000000062e-03 8.148024999999999851e-01 8.194334999999999813e-02 9.067240000000001032e+01 1.736230000000000018e+03
4.000000000000000083e-03 8.148649999999999505e-01 1.885520499999999988e-01 9.080840000000000600e+01 1.736255000000000109e+03
5.000000000000000104e-03 8.148314999999999308e-01 1.701681999999999917e-01 9.074994999999999834e+01 1.736250000000000000e+03
6.000000000000000125e-03 8.147435000000000649e-01 6.852649999999999020e-02 9.050825000000000387e+01 1.736200000000000045e+03
7.000000000000000146e-03 8.146800000000000708e-01 -6.747500000000017373e-03 9.023924999999999841e+01 1.736144999999999982e+03
8.000000000000000167e-03 8.145809999999999995e-01 -1.460670000000000024e-01 8.985309999999999775e+01 1.736070000000000164e+03
9.000000000000001055e-03 8.144109999999999960e-01 -4.125100000000000433e-01 8.924739999999999895e+01 1.735954999999999927e+03
1.000000000000000194e-02 8.141685000000000727e-01 -8.067100000000000382e-01 8.838540000000000418e+01 1.735785000000000082e+03
1.099999999999999936e-02 8.138275000000000370e-01 -1.359559999999999658e+00 8.718795000000000073e+01 1.735549999999999955e+03
1.200000000000000025e-02 8.133759999999999879e-01 -2.075764999999999638e+00 8.559899999999998954e+01 1.735235000000000127e+03
1.300000000000000114e-02 8.128670000000000062e-01 -2.855089999999999684e+00 8.370994999999999209e+01 1.734855000000000018e+03
1.400000000000000203e-02 8.123925000000000729e-01 -3.525951000000000057e+00 8.174739999999999895e+01 1.734445000000000164e+03
1.499999999999999944e-02 8.120229999999999393e-01 -3.944631049999999917e+00 7.994464999999999577e+01 1.734049999999999955e+03
1.600000000000000033e-02 8.117704999999999504e-01 -4.059750499999999818e+00 7.842814999999998804e+01 1.733694999999999936e+03
1.700000000000000122e-02 8.115935000000000787e-01 -3.912399999999999878e+00 7.718574999999999875e+01 1.733384999999999991e+03
1.800000000000000211e-02 8.114299999999999846e-01 -3.596650000000000347e+00 7.610280000000000200e+01 1.733099999999999909e+03
1.900000000000000300e-02 8.112230000000000274e-01 -3.211130000000000262e+00 7.502899999999999636e+01 1.732825000000000045e+03
2.000000000000000042e-02 8.109439999999999982e-01 -2.821316999999999631e+00 7.384360000000000923e+01 1.732519999999999982e+03
2.100000000000000130e-02 8.105955000000000243e-01 -2.442331999999999947e+00 7.249710000000000321e+01 1.732194999999999936e+03
2.200000000000000219e-02 8.102080000000000393e-01 -2.044929999999999914e+00 7.101885000000000048e+01 1.731835000000000036e+03
2.299999999999999961e-02 8.098199999999999843e-01 -1.579820000000000002e+00 6.949115000000000464e+01 1.731470000000000027e+03
2.400000000000000050e-02 8.094609999999999861e-01 -1.008300000000000196e+00 6.800419999999999732e+01 1.731105000000000018e+03
2.500000000000000139e-02 8.091399999999999704e-01 -3.258950000000000458e-01 6.661324999999999363e+01 1.730755000000000109e+03
2.600000000000000228e-02 8.088409999999999211e-01 4.285200000000002341e-01 6.531225000000000591e+01 1.730425000000000182e+03
2.700000000000000316e-02 8.085284999999999833e-01 1.178695000000000048e+00 6.403085000000000093e+01 1.730099999999999909e+03
2.800000000000000058e-02 8.081579999999999320e-01 1.828534999999999799e+00 6.265189999999999770e+01 1.729759999999999991e+03
2.900000000000000147e-02 8.076915000000000067e-01 2.285934999999999828e+00 6.104470000000000596e+01 1.729380000000000109e+03
3.000000000000000236e-02 8.071055000000000312e-01 2.486989999999999590e+00 5.910434999999999661e+01 1.728940000000000055e+03
3.099999999999999978e-02 8.064029999999999809e-01 2.413380000000000081e+00 5.678650000000000375e+01 1.728424999999999955e+03
3.200000000000000067e-02 8.056129999999999125e-01 2.096654999999999713e+00 5.412560000000000571e+01 1.727845000000000027e+03
3.300000000000000155e-02 8.047824999999999562e-01 1.608080000000000176e+00 5.122979999999999734e+01 1.727215000000000146e+03
3.400000000000000244e-02 8.039650000000000407e-01 1.038734999999999964e+00 4.825685000000000002e+01 1.726565000000000055e+03
3.500000000000000333e-02 8.032105000000000494e-01 4.783050000000002022e-01 4.538100000000000023e+01 1.725920000000000073e+03
3.600000000000000422e-02 8.025565000000000060e-01 -6.599999999998829026e-04 4.276245000000000118e+01 1.725324999999999818e+03
3.700000000000000511e-02 8.020245000000000291e-01 -3.502849999999999575e-01 4.052674999999999983e+01 1.724795000000000073e+03
3.799999999999999906e-02 8.016235000000000444e-01 -5.472150000000000070e-01 3.875540000000000163e+01 1.724365000000000009e+03
3.899999999999999994e-02 8.013525000000000231e-01 -5.870699999999999807e-01 3.748745000000000260e+01 1.724029999999999973e+03
4.000000000000000083e-02 8.012029999999999985e-01 -4.762649999999999384e-01 3.672840000000000060e+01 1.723809999999999945e+03
4.100000000000000172e-02 8.011684999999999501e-01 -2.235370000000000135e-01 3.646294999999999931e+01 1.723699999999999818e+03
4.200000000000000261e-02 8.012420000000000098e-01 1.665800000000000058e-01 3.666830000000000211e+01 1.723695000000000164e+03
4.300000000000000350e-02 8.014215000000000089e-01 6.969999999999998419e-01 3.732394999999999641e+01 1.723789999999999964e+03
4.400000000000000439e-02 8.017084999999999351e-01 1.377530000000000143e+00 3.841660000000000252e+01 1.723990000000000009e+03
4.499999999999999833e-02 8.021034999999999693e-01 2.221150000000000180e+00 3.993914999999999793e+01 1.724284999999999854e+03
4.599999999999999922e-02 8.026084999999999470e-01 3.238770000000000149e+00 4.188620000000000232e+01 1.724674999999999955e+03
4.700000000000000011e-02 8.032215000000000327e-01 4.434289999999999843e+00 4.424665000000000248e+01 1.725164999999999964e+03
4.800000000000000100e-02 8.039339999999999264e-01 5.801160000000000316e+00 4.699849999999999994e+01 1.725744999999999891e+03
4.900000000000000189e-02 8.047340000000000604e-01 7.321542499999999620e+00 5.010474999999999568e+01 1.726404999999999973e+03
5.000000000000000278e-02 8.056039999999999868e-01 8.967591499999999272e+00 5.351370000000000005e+01 1.727139999999999873e+03
5.100000000000000366e-02 8.065260000000000762e-01 1.070426499999999947e+01 5.716140000000000043e+01 1.727934999999999945e+03
5.200000000000000455e-02 8.074795000000000167e-01 1.249308499999999889e+01 6.097674999999999557e+01 1.728775000000000091e+03
5.300000000000000544e-02 8.084450000000000802e-01 1.429637499999999939e+01 6.488729999999999620e+01 1.729639999999999873e+03
5.399999999999999939e-02 8.094079999999999053e-01 1.608014000000000010e+01 6.882564999999999600e+01 1.730525000000000091e+03
5.500000000000000028e-02 8.103549999999999365e-01 1.781654999999999944e+01 7.273400000000000887e+01 1.731420000000000073e+03
5.600000000000000117e-02 8.112779999999999436e-01 1.948505000000000109e+01 7.656749999999999545e+01 1.732299999999999955e+03
5.700000000000000205e-02 8.121730000000000338e-01 2.107205000000000084e+01 8.029560000000000741e+01 1.733164999999999964e+03
5.800000000000000294e-02 8.130380000000000384e-01 2.257034999999999769e+01 8.390160000000000196e+01 1.734009999999999991e+03
5.900000000000000383e-02 8.138754999999999740e-01 2.397779999999999845e+01 8.738095000000001278e+01 1.734829999999999927e+03
6.000000000000000472e-02 8.146875000000000089e-01 2.529614999999999725e+01 9.073904999999999177e+01 1.735630000000000109e+03
6.099999999999999867e-02 8.154784999999999950e-01 2.652944999999999709e+01 9.398845000000000027e+01 1.736400000000000091e+03
6.199999999999999956e-02 8.162530000000000063e-01 2.768319999999999936e+01 9.714515000000000100e+01 1.737159999999999854e+03
6.300000000000000044e-02 8.170144999999999769e-01 2.876330000000000098e+01 1.002280999999999977e+02 1.737894999999999982e+03
6.400000000000000133e-02 8.177680000000000504e-01 2.977519999999999811e+01 1.032537499999999966e+02 1.738619999999999891e+03
6.500000000000000222e-02 8.185145000000000337e-01 3.072294999999999732e+01 1.062357499999999959e+02 1.739335000000000036e+03
6.600000000000000311e-02 8.192559999999999842e-01 3.160895000000000010e+01 1.091834999999999951e+02 1.740039999999999964e+03
6.700000000000000400e-02 8.199914999999999843e-01 3.243345000000000056e+01 1.120989999999999895e+02 1.740735000000000127e+03
6.800000000000000488e-02 8.207185000000000175e-01 3.319415000000000049e+01 1.149774999999999920e+02 1.741430000000000064e+03
6.900000000000000577e-02 8.214330000000000798e-01 3.388729999999999620e+01 1.178094999999999999e+02 1.742110000000000127e+03
7.000000000000000666e-02 8.221304999999999863e-01 3.450735000000000241e+01 1.205780000000000030e+02 1.742769999999999982e+03
7.100000000000000755e-02 8.228050000000000086e-01 3.504820000000000135e+01 1.232644999999999982e+02 1.743420000000000073e+03
7.200000000000000844e-02 8.234520000000000728e-01 3.550395000000000323e+01 1.258460000000000036e+02 1.744045000000000073e+03
7.300000000000000933e-02 8.240650000000000475e-01 3.586930000000000263e+01 1.283019999999999925e+02 1.744639999999999873e+03
7.399999999999999634e-02 8.246404999999999985e-01 3.614025000000000176e+01 1.306129999999999995e+02 1.745210000000000036e+03
7.499999999999999722e-02 8.251749999999999918e-01 3.631430000000000291e+01 1.327604999999999791e+02 1.745744999999999891e+03
7.599999999999999811e-02 8.256639999999999535e-01 3.639025000000000176e+01 1.347325000000000159e+02 1.746235000000000127e+03
7.699999999999999900e-02 8.261074999999999946e-01 3.636860000000000070e+01 1.365169999999999959e+02 1.746679999999999836e+03
7.799999999999999989e-02 8.265035000000000576e-01 3.625095000000000312e+01 1.381100000000000136e+02 1.747090000000000146e+03
7.900000000000000078e-02 8.268514999999999615e-01 3.603999999999999915e+01 1.395074999999999932e+02 1.747454999999999927e+03
8.000000000000000167e-02 8.271519999999999984e-01 3.573969999999999914e+01 1.407100000000000080e+02 1.747769999999999982e+03
8.100000000000000255e-02 8.274070000000000036e-01 3.535505000000000564e+01 1.417220000000000084e+02 1.748034999999999854e+03
8.200000000000000344e-02 8.276170000000000471e-01 3.489229999999999876e+01 1.425504999999999995e+02 1.748264999999999873e+03
8.300000000000000433e-02 8.277849999999999930e-01 3.435904999999999632e+01 1.432065000000000055e+02 1.748454999999999927e+03
8.400000000000000522e-02 8.279159999999999853e-01 3.376425000000000409e+01 1.437019999999999982e+02 1.748599999999999909e+03
8.500000000000000611e-02 8.280119999999999703e-01 3.311789999999999878e+01 1.440545000000000186e+02 1.748714999999999918e+03
8.600000000000000699e-02 8.280794999999999684e-01 3.243115000000000236e+01 1.442814999999999941e+02 1.748795000000000073e+03
8.700000000000000788e-02 8.281229999999999425e-01 3.171580000000000155e+01 1.444039999999999964e+02 1.748844999999999800e+03
8.800000000000000877e-02 8.281475000000000364e-01 3.098364999999999725e+01 1.444435000000000002e+02 1.748875000000000000e+03
8.899999999999999578e-02 8.281594999999999374e-01 3.024615000000000009e+01 1.444205000000000041e+02 1.748889999999999873e+03
8.999999999999999667e-02 8.281614999999999949e-01 2.951370000000000005e+01 1.443555000000000064e+02 1.748889999999999873e+03
9.099999999999999756e-02 8.281605000000000771e-01 2.879514999999999958e+01 1.442669999999999959e+02 1.748880000000000109e+03
9.199999999999999845e-02 8.281570000000000320e-01 2.809750000000000014e+01 1.441694999999999993e+02 1.748865000000000009e+03
9.299999999999999933e-02 8.281534999999999869e-01 2.742549999999999955e+01 1.440740000000000123e+02 1.748849999999999909e+03
9.400000000000000022e-02 8.281524999999999581e-01 2.678150000000000119e+01 1.439875000000000114e+02 1.748829999999999927e+03
9.500000000000000111e-02 8.281530000000000280e-01 2.616584999999999894e+01 1.439130000000000109e+02 1.748815000000000055e+03
9.600000000000000200e-02 8.281540000000000568e-01 2.557679999999999865e+01 1.438495000000000061e+02 1.748800000000000182e+03
9.700000000000000289e-02 8.281534999999999869e-01 2.501084999999999781e+01 1.437925000000000182e+02 1.748779999999999973e+03
9.800000000000000377e-02 8.281505000000000116e-01 2.446330000000000027e+01 1.437350000000000136e+02 1.748764999999999873e+03
9.900000000000000466e-02 8.281420000000000448e-01 2.392839999999999989e+01 1.436670000000000016e+02 1.748744999999999891e+03
1.000000000000000056e-01 8.281250000000000000e-01 2.340005000000000024e+01 1.435790000000000077e+02 1.748724999999999909e+03
1.010000000000000064e-01 8.280980000000000008e-01 2.287174999999999869e+01 1.434594999999999914e+02 1.748694999999999936e+03
1.020000000000000073e-01 8.280570000000000430e-01 2.233739999999999881e+01 1.432989999999999782e+02 1.748659999999999854e+03
1.030000000000000082e-01 8.280009999999999870e-01 2.179135000000000133e+01 1.430869999999999891e+02 1.748610000000000127e+03
1.040000000000000091e-01 8.279285000000000672e-01 2.122885000000000133e+01 1.428165000000000191e+02 1.748554999999999836e+03
1.050000000000000100e-01 8.278384999999999216e-01 2.064625000000000199e+01 1.424809999999999945e+02 1.748480000000000018e+03
1.059999999999999970e-01 8.277304999999999247e-01 2.004124999999999801e+01 1.420790000000000077e+02 1.748389999999999873e+03
1.069999999999999979e-01 8.276054999999999939e-01 1.941325000000000145e+01 1.416100000000000136e+02 1.748285000000000082e+03
1.079999999999999988e-01 8.274639999999999773e-01 1.876304999999999978e+01 1.410769999999999982e+02 1.748170000000000073e+03
1.089999999999999997e-01 8.273094999999999200e-01 1.809345000000000070e+01 1.404870000000000232e+02 1.748039999999999964e+03
1.100000000000000006e-01 8.271439999999999904e-01 1.740859999999999985e+01 1.398499999999999943e+02 1.747900000000000091e+03
1.110000000000000014e-01 8.269714999999999705e-01 1.671399999999999864e+01 1.391779999999999973e+02 1.747750000000000000e+03
1.120000000000000023e-01 8.267949999999999466e-01 1.601640000000000086e+01 1.384844999999999970e+02 1.747590000000000146e+03
1.130000000000000032e-01 8.266204999999999803e-01 1.532339999999999947e+01 1.377864999999999895e+02 1.747434999999999945e+03
1.140000000000000041e-01 8.264510000000000467e-01 1.464279999999999937e+01 1.371005000000000109e+02 1.747275000000000091e+03
1.150000000000000050e-01 8.262909999999999977e-01 1.398277000000000037e+01 1.364429999999999836e+02 1.747119999999999891e+03
1.160000000000000059e-01 8.261439999999999895e-01 1.335083500000000001e+01 1.358294999999999959e+02 1.746974999999999909e+03
1.170000000000000068e-01 8.260134999999999561e-01 1.275403000000000020e+01 1.352744999999999891e+02 1.746840000000000146e+03
1.180000000000000077e-01 8.259019999999999140e-01 1.219824000000000019e+01 1.347895000000000039e+02 1.746720000000000027e+03
1.190000000000000085e-01 8.258119999999999905e-01 1.168803499999999929e+01 1.343840000000000146e+02 1.746619999999999891e+03
1.200000000000000094e-01 8.257440000000000335e-01 1.122654999999999959e+01 1.340635000000000048e+02 1.746535000000000082e+03
1.209999999999999964e-01 8.256980000000000430e-01 1.081528499999999937e+01 1.338315000000000055e+02 1.746470000000000027e+03
1.219999999999999973e-01 8.256734999999999491e-01 1.045426499999999947e+01 1.336860000000000070e+02 1.746424999999999955e+03
1.229999999999999982e-01 8.256689999999999863e-01 1.014179999999999993e+01 1.336234999999999786e+02 1.746394999999999982e+03
1.239999999999999991e-01 8.256820000000000270e-01 9.875045000000000073e+00 1.336370000000000005e+02 1.746389999999999873e+03
1.250000000000000000e-01 8.257105000000000139e-01 9.649955000000000283e+00 1.337175000000000011e+02 1.746394999999999982e+03
1.260000000000000009e-01 8.257514999999999716e-01 9.461615000000000109e+00 1.338534999999999968e+02 1.746414999999999964e+03
1.270000000000000018e-01 8.258014999999999661e-01 9.304735000000000866e+00 1.340335000000000036e+02 1.746444999999999936e+03
1.280000000000000027e-01 8.258575000000000221e-01 9.173655000000000115e+00 1.342445000000000164e+02 1.746485000000000127e+03
1.290000000000000036e-01 8.259165000000000534e-01 9.062834999999999752e+00 1.344749999999999943e+02 1.746529999999999973e+03
1.300000000000000044e-01 8.259769999999999612e-01 8.967005000000000337e+00 1.347135000000000105e+02 1.746579999999999927e+03
1.310000000000000053e-01 8.260349999999999637e-01 8.881350000000001188e+00 1.349499999999999886e+02 1.746635000000000218e+03
1.320000000000000062e-01 8.260894999999999211e-01 8.801625000000001364e+00 1.351770000000000209e+02 1.746680000000000064e+03
1.330000000000000071e-01 8.261399999999999855e-01 8.724235000000000184e+00 1.353865000000000123e+02 1.746724999999999909e+03
1.340000000000000080e-01 8.261840000000000295e-01 8.646245000000000402e+00 1.355749999999999886e+02 1.746764999999999873e+03
1.350000000000000089e-01 8.262214999999999421e-01 8.565395000000000536e+00 1.357369999999999948e+02 1.746809999999999945e+03
1.360000000000000098e-01 8.262530000000000152e-01 8.480034999999999101e+00 1.358729999999999905e+02 1.746840000000000146e+03
1.370000000000000107e-01 8.262770000000000392e-01 8.389105000000000700e+00 1.359814999999999827e+02 1.746865000000000009e+03
1.380000000000000115e-01 8.262955000000000716e-01 8.292065000000000907e+00 1.360634999999999764e+02 1.746889999999999873e+03
1.390000000000000124e-01 8.263080000000000425e-01 8.188824999999999577e+00 1.361200000000000045e+02 1.746904999999999973e+03
1.400000000000000133e-01 8.263145000000000628e-01 8.079695000000000960e+00 1.361535000000000082e+02 1.746914999999999964e+03
1.410000000000000142e-01 8.263175000000000381e-01 7.965324999999999989e+00 1.361664999999999850e+02 1.746920000000000073e+03
1.420000000000000151e-01 8.263165000000000093e-01 7.846579999999999444e+00 1.361630000000000109e+02 1.746924999999999955e+03
1.430000000000000160e-01 8.263120000000000465e-01 7.724529999999999674e+00 1.361449999999999818e+02 1.746920000000000073e+03
1.440000000000000169e-01 8.263059999999999850e-01 7.600309999999999455e+00 1.361159999999999854e+02 1.746920000000000073e+03
1.450000000000000178e-01 8.262979999999999769e-01 7.475080000000000169e+00 1.360779999999999745e+02 1.746909999999999854e+03
1.459999999999999909e-01 8.262879999999999114e-01 7.349895000000000067e+00 1.360344999999999800e+02 1.746904999999999973e+03
1.469999999999999918e-01 8.262785000000000268e-01 7.225715000000000998e+00 1.359869999999999948e+02 1.746889999999999873e+03
1.479999999999999927e-01 8.262680000000000025e-01 7.103275000000000006e+00 1.359354999999999905e+02 1.746884999999999991e+03
1.489999999999999936e-01 8.262570000000000192e-01 6.983100000000000307e+00 1.358824999999999932e+02 1.746869999999999891e+03
1.499999999999999944e-01 8.262454999999999661e-01 6.865489999999999426e+00 1.358274999999999864e+02 1.746860000000000127e+03
1.509999999999999953e-01 8.262335000000000651e-01 6.750500000000000611e+00 1.357690000000000055e+02 1.746845000000000027e+03
1.519999999999999962e-01 8.262199999999999545e-01 6.637999999999999901e+00 1.357075000000000102e+02 1.746835000000000036e+03
1.529999999999999971e-01 8.262054999999999261e-01 6.527705000000000091e+00 1.356405000000000030e+02 1.746820000000000164e+03
1.539999999999999980e-01 8.261884999999999923e-01 6.419249999999999901e+00 1.355679999999999836e+02 1.746800000000000182e+03
1.549999999999999989e-01 8.261695000000000011e-01 6.312255000000000393e+00 1.354859999999999900e+02 1.746780000000000200e+03
1.559999999999999998e-01 8.261479999999999935e-01 6.206400000000000361e+00 1.353954999999999984e+02 1.746765000000000100e+03
1.570000000000000007e-01 8.261240000000000805e-01 6.101454999999999629e+00 1.352939999999999827e+02 1.746739999999999782e+03
1.580000000000000016e-01 8.260965000000000114e-01 5.997415000000000163e+00 1.351809999999999832e+02 1.746714999999999918e+03
1.590000000000000024e-01 8.260659999999999670e-01 5.894440000000000346e+00 1.350564999999999998e+02 1.746690000000000055e+03
