# t [s], A [cm^2], U [cm/s], P [cPa], c [cm/s]
1.000000000000000021e-03 2.118439999999999768e-01 3.889084000000000430e-01 1.027334999999999923e+02 2.102349999999999909e+03
2.000000000000000042e-03 2.117780000000000218e-01 2.080871500000000207e+00 9.901634999999998854e+01 2.101909999999999854e+03
3.000000000000000062e-03 2.116075000000000039e-01 4.141799499999999412e+00 9.393285000000000196e+01 2.100820000000000164e+03
4.000000000000000083e-03 2.113789999999999836e-01 6.447051499999999713e+00 8.857564999999999600e+01 2.099375000000000000e+03
5.000000000000000104e-03 2.111395000000000077e-01 8.897100000000000009e+00 8.394995000000000118e+01 2.097869999999999891e+03
6.000000000000000125e-03 2.109119999999999884e-01 1.125999499999999998e+01 8.025199999999999534e+01 2.096460000000000036e+03
7.000000000000000146e-03 2.107014999999999860e-01 1.330178500000000064e+01 7.710984999999999445e+01 2.095180000000000291e+03
8.000000000000000167e-03 2.105124999999999913e-01 1.497530000000000072e+01 7.432654999999999745e+01 2.094050000000000182e+03
9.000000000000001055e-03 2.103504999999999958e-01 1.633814999999999884e+01 7.200915000000000532e+01 2.093100000000000364e+03
1.000000000000000194e-02 2.102180000000000160e-01 1.742354999999999876e+01 7.020659999999999457e+01 2.092329999999999927e+03
1.099999999999999936e-02 2.101129999999999942e-01 1.825059999999999860e+01 6.886095000000000255e+01 2.091730000000000018e+03
1.200000000000000025e-02 2.100330000000000252e-01 1.883684999999999832e+01 6.788400000000000034e+01 2.091279999999999745e+03
1.300000000000000114e-02 2.099719999999999920e-01 1.918970000000000198e+01 6.714364999999999384e+01 2.090945000000000164e+03
1.400000000000000203e-02 2.099239999999999995e-01 1.934359999999999857e+01 6.653894999999999982e+01 2.090694999999999709e+03
1.499999999999999944e-02 2.098909999999999942e-01 1.941069999999999851e+01 6.617595000000000027e+01 2.090524999999999636e+03
1.600000000000000033e-02 2.098800000000000110e-01 1.956439999999999912e+01 6.640784999999999627e+01 2.090475000000000364e+03
1.700000000000000122e-02 2.099050000000000082e-01 1.995185000000000031e+01 6.763075000000000614e+01 2.090635000000000218e+03
1.800000000000000211e-02 2.099725000000000064e-01 2.060620000000000118e+01 6.998824999999999363e+01 2.091029999999999745e+03
1.900000000000000300e-02 2.100779999999999870e-01 2.142105000000000103e+01 7.320810000000000173e+01 2.091654999999999745e+03
2.000000000000000042e-02 2.102054999999999896e-01 2.219620000000000104e+01 7.666875000000000284e+01 2.092409999999999854e+03
2.100000000000000130e-02 2.103320000000000189e-01 2.272270000000000323e+01 7.963550000000000750e+01 2.093170000000000073e+03
2.200000000000000219e-02 2.104344999999999966e-01 2.286099999999999710e+01 8.153374999999999773e+01 2.093795000000000073e+03
2.299999999999999961e-02 2.104989999999999917e-01 2.258384999999999820e+01 8.213654999999999973e+01 2.094199999999999818e+03
2.400000000000000050e-02 2.105215000000000003e-01 2.196989999999999910e+01 8.160060000000000002e+01 2.094364999999999782e+03
2.500000000000000139e-02 2.105110000000000037e-01 2.115859999999999985e+01 8.035365000000000180e+01 2.094324999999999818e+03
2.600000000000000228e-02 2.104794999999999860e-01 2.029005000000000081e+01 7.889869999999999095e+01 2.094154999999999745e+03
2.700000000000000316e-02 2.104424999999999768e-01 1.945589999999999975e+01 7.762389999999999191e+01 2.093940000000000055e+03
2.800000000000000058e-02 2.104084999999999983e-01 1.867900000000000205e+01 7.669254999999999711e+01 2.093735000000000127e+03
2.900000000000000147e-02 2.103800000000000114e-01 1.792334999999999923e+01 7.603709999999999525e+01 2.093565000000000055e+03
3.000000000000000236e-02 2.103534999999999988e-01 1.712440000000000140e+01 7.544159999999999400e+01 2.093405000000000200e+03
3.099999999999999978e-02 2.103225000000000233e-01 1.622725000000000151e+01 7.466639999999999588e+01 2.093224999999999909e+03
3.200000000000000067e-02 2.102829999999999977e-01 1.521715000000000018e+01 7.356710000000001060e+01 2.093000000000000000e+03
3.300000000000000155e-02 2.102320000000000022e-01 1.413475000000000037e+01 7.216920000000000357e+01 2.092704999999999927e+03
3.400000000000000244e-02 2.101750000000000007e-01 1.307035000000000124e+01 7.067615000000000691e+01 2.092369999999999891e+03
3.500000000000000333e-02 2.101204999999999878e-01 1.214075000000000060e+01 6.941204999999999359e+01 2.092045000000000073e+03
3.600000000000000422e-02 2.100795000000000023e-01 1.145544999999999902e+01 6.872010000000000218e+01 2.091800000000000182e+03
3.700000000000000511e-02 2.100635000000000141e-01 1.108559999999999945e+01 6.885394999999999754e+01 2.091690000000000055e+03
3.799999999999999906e-02 2.100785000000000013e-01 1.104335000000000022e+01 6.989645000000000152e+01 2.091760000000000218e+03
3.899999999999999994e-02 2.101254999999999928e-01 1.127810000000000024e+01 7.173024999999999807e+01 2.092019999999999982e+03
4.000000000000000083e-02 2.101974999999999816e-01 1.168819999999999837e+01 7.406299999999998818e+01 2.092430000000000291e+03
4.100000000000000172e-02 2.102839999999999987e-01 1.214250000000000007e+01 7.649299999999999500e+01 2.092935000000000400e+03
4.200000000000000261e-02 2.103704999999999881e-01 1.250634999999999941e+01 7.859430000000000405e+01 2.093440000000000055e+03
4.300000000000000350e-02 2.104420000000000179e-01 1.266319999999999979e+01 7.999654999999999916e+01 2.093864999999999782e+03
4.400000000000000439e-02 2.104860000000000064e-01 1.253054999999999986e+01 8.044239999999999213e+01 2.094140000000000327e+03
4.499999999999999833e-02 2.104949999999999877e-01 1.206599999999999895e+01 7.981479999999999109e+01 2.094199999999999818e+03
4.599999999999999922e-02 2.104639999999999844e-01 1.126597500000000096e+01 7.813269999999999982e+01 2.094029999999999745e+03
4.700000000000000011e-02 2.103939999999999977e-01 1.015798999999999985e+01 7.552365000000000350e+01 2.093630000000000109e+03
4.800000000000000100e-02 2.102890000000000037e-01 8.790770000000000195e+00 7.218369999999998754e+01 2.093019999999999982e+03
4.900000000000000189e-02 2.101554999999999951e-01 7.224105000000000665e+00 6.833689999999999998e+01 2.092239999999999782e+03
5.000000000000000278e-02 2.100019999999999942e-01 5.521219999999999573e+00 6.420279999999999632e+01 2.091335000000000036e+03
5.100000000000000366e-02 2.098345000000000071e-01 3.744391999999999943e+00 5.997705000000000553e+01 2.090349999999999909e+03
5.200000000000000455e-02 2.096620000000000150e-01 1.953275000000000095e+00 5.582489999999999952e+01 2.089329999999999927e+03
5.300000000000000544e-02 2.094909999999999828e-01 2.053099999999998815e-01 5.188490000000000180e+01 2.088319999999999709e+03
5.399999999999999939e-02 2.093260000000000121e-01 -1.443169999999999842e+00 4.827710000000000434e+01 2.087345000000000255e+03
5.500000000000000028e-02 2.091744999999999854e-01 -2.936220000000000052e+00 4.511199999999999477e+01 2.086434999999999945e+03
5.600000000000000117e-02 2.090400000000000036e-01 -4.218639999999999723e+00 4.249555000000000149e+01 2.085630000000000109e+03
5.700000000000000205e-02 2.089274999999999882e-01 -5.237624999999999531e+00 4.053010000000000446e+01 2.084954999999999927e+03
5.800000000000000294e-02 2.088419999999999999e-01 -5.945520000000000138e+00 3.930979999999999563e+01 2.084435000000000400e+03
5.900000000000000383e-02 2.087879999999999736e-01 -6.303214999999999790e+00 3.891275000000000261e+01 2.084090000000000146e+03
6.000000000000000472e-02 2.087680000000000091e-01 -6.283400000000000318e+00 3.939225000000000421e+01 2.083954999999999927e+03
6.099999999999999867e-02 2.087835000000000107e-01 -5.873160000000000380e+00 4.076890000000000214e+01 2.084025000000000091e+03
6.199999999999999956e-02 2.088364999999999805e-01 -5.075359999999999872e+00 4.302554999999999552e+01 2.084315000000000055e+03
6.300000000000000044e-02 2.089260000000000006e-01 -3.908700000000000063e+00 4.610670000000000357e+01 2.084819999999999709e+03
6.400000000000000133e-02 2.090494999999999992e-01 -2.406425999999999732e+00 4.992164999999999964e+01 2.085524999999999636e+03
6.500000000000000222e-02 2.092030000000000001e-01 -6.140199999999997882e-01 5.435084999999999411e+01 2.086414999999999964e+03
6.600000000000000311e-02 2.093835000000000002e-01 1.413815000000000266e+00 5.925499999999999545e+01 2.087465000000000146e+03
6.700000000000000400e-02 2.095835000000000059e-01 3.616492500000000110e+00 6.448435000000000628e+01 2.088640000000000327e+03
6.800000000000000488e-02 2.097984999999999989e-01 5.930925000000000225e+00 6.988850000000000762e+01 2.089904999999999745e+03
6.900000000000000577e-02 2.100225000000000009e-01 8.294859999999999900e+00 7.532505000000000450e+01 2.091230000000000018e+03
7.000000000000000666e-02 2.102495000000000058e-01 1.064967500000000022e+01 8.066705000000000325e+01 2.092569999999999709e+03
7.100000000000000755e-02 2.104745000000000088e-01 1.294341499999999812e+01 8.580910000000000082e+01 2.093909999999999854e+03
7.200000000000000844e-02 2.106930000000000192e-01 1.513260000000000005e+01 9.067210000000000036e+01 2.095220000000000255e+03
7.300000000000000933e-02 2.109024999999999928e-01 1.718414999999999893e+01 9.520529999999999404e+01 2.096474999999999909e+03
7.399999999999999634e-02 2.110994999999999955e-01 1.907610000000000028e+01 9.938819999999999766e+01 2.097664999999999964e+03
7.499999999999999722e-02 2.112844999999999862e-01 2.079775000000000063e+01 1.032282999999999902e+02 2.098780000000000200e+03
7.599999999999999811e-02 2.114564999999999917e-01 2.234895000000000209e+01 1.067565000000000026e+02 2.099824999999999818e+03
7.699999999999999900e-02 2.116175000000000139e-01 2.373864999999999981e+01 1.100245000000000033e+02 2.100800000000000182e+03
7.799999999999999989e-02 2.117680000000000118e-01 2.498270000000000124e+01 1.130964999999999918e+02 2.101720000000000255e+03
7.900000000000000078e-02 2.119115000000000026e-01 2.610175000000000267e+01 1.160399999999999920e+02 2.102599999999999909e+03
8.000000000000000167e-02 2.120500000000000163e-01 2.711834999999999951e+01 1.189244999999999948e+02 2.103439999999999600e+03
8.100000000000000255e-02 2.121865000000000001e-01 2.805489999999999995e+01 1.218075000000000045e+02 2.104269999999999982e+03
8.200000000000000344e-02 2.123214999999999963e-01 2.893140000000000001e+01 1.247359999999999900e+02 2.105100000000000364e+03
8.300000000000000433e-02 2.124590000000000090e-01 2.976384999999999792e+01 1.277404999999999973e+02 2.105930000000000291e+03
8.400000000000000522e-02 2.125980000000000092e-01 3.056325000000000003e+01 1.308315000000000055e+02 2.106775000000000091e+03
8.500000000000000611e-02 2.127404999999999990e-01 3.133494999999999919e+01 1.340049999999999955e+02 2.107644999999999982e+03
8.600000000000000699e-02 2.128849999999999909e-01 3.207869999999999777e+01 1.372375000000000114e+02 2.108519999999999982e+03
8.700000000000000788e-02 2.130319999999999991e-01 3.278894999999999982e+01 1.404934999999999832e+02 2.109414999999999964e+03
8.800000000000000877e-02 2.131784999999999930e-01 3.345565000000000566e+01 1.437264999999999873e+02 2.110305000000000291e+03
8.899999999999999578e-02 2.133234999999999992e-01 3.406544999999999845e+01 1.468820000000000050e+02 2.111190000000000055e+03
8.999999999999999667e-02 2.134649999999999881e-01 3.460229999999999961e+01 1.499060000000000059e+02 2.112050000000000182e+03
9.099999999999999756e-02 2.136004999999999987e-01 3.504925000000000068e+01 1.527395000000000209e+02 2.112875000000000000e+03
9.199999999999999845e-02 2.137280000000000013e-01 3.538944999999999652e+01 1.553310000000000173e+02 2.113654999999999745e+03
9.299999999999999933e-02 2.138454999999999939e-01 3.560710000000000264e+01 1.576349999999999909e+02 2.114369999999999891e+03
9.400000000000000022e-02 2.139504999999999879e-01 3.568869999999999720e+01 1.596109999999999900e+02 2.115015000000000327e+03
9.500000000000000111e-02 2.140420000000000100e-01 3.562375000000000114e+01 1.612330000000000041e+02 2.115579999999999927e+03
9.600000000000000200e-02 2.141180000000000028e-01 3.540554999999999808e+01 1.624830000000000041e+02 2.116055000000000291e+03
9.700000000000000289e-02 2.141784999999999939e-01 3.503190000000000026e+01 1.633555000000000064e+02 2.116430000000000291e+03
9.800000000000000377e-02 2.142235000000000111e-01 3.450489999999999924e+01 1.638575000000000159e+02 2.116715000000000146e+03
9.900000000000000466e-02 2.142525000000000124e-01 3.383129999999999882e+01 1.640074999999999932e+02 2.116904999999999745e+03
1.000000000000000056e-01 2.142669999999999852e-01 3.302230000000000132e+01 1.638324999999999818e+02 2.117005000000000109e+03
1.010000000000000064e-01 2.142674999999999996e-01 3.209274999999999523e+01 1.633704999999999927e+02 2.117010000000000218e+03
1.020000000000000073e-01 2.142550000000000010e-01 3.106105000000000160e+01 1.626650000000000205e+02 2.116949999999999818e+03
1.030000000000000082e-01 2.142324999999999924e-01 2.994769999999999754e+01 1.617635000000000218e+02 2.116820000000000164e+03
1.040000000000000091e-01 2.142010000000000025e-01 2.877495000000000047e+01 1.607169999999999845e+02 2.116639999999999873e+03
1.050000000000000100e-01 2.141629999999999923e-01 2.756539999999999679e+01 1.595760000000000218e+02 2.116414999999999964e+03
1.059999999999999970e-01 2.141200000000000048e-01 2.634134999999999849e+01 1.583890000000000100e+02 2.116154999999999745e+03
1.069999999999999979e-01 2.140745000000000009e-01 2.512384999999999735e+01 1.571980000000000075e+02 2.115885000000000218e+03
1.079999999999999988e-01 2.140274999999999817e-01 2.393175000000000097e+01 1.560420000000000016e+02 2.115605000000000018e+03
1.089999999999999997e-01 2.139814999999999912e-01 2.278125000000000000e+01 1.549509999999999934e+02 2.115324999999999818e+03
1.100000000000000006e-01 2.139375000000000027e-01 2.168524999999999991e+01 1.539474999999999909e+02 2.115055000000000291e+03
1.110000000000000014e-01 2.138960000000000028e-01 2.065305000000000035e+01 1.530444999999999993e+02 2.114800000000000182e+03
1.120000000000000023e-01 2.138579999999999925e-01 1.969000000000000128e+01 1.522464999999999975e+02 2.114564999999999600e+03
1.130000000000000032e-01 2.138234999999999997e-01 1.879780000000000229e+01 1.515504999999999995e+02 2.114355000000000018e+03
1.140000000000000041e-01 2.137930000000000108e-01 1.797429999999999950e+01 1.509445000000000050e+02 2.114159999999999854e+03
1.150000000000000050e-01 2.137649999999999828e-01 1.721424999999999983e+01 1.504089999999999918e+02 2.113989999999999782e+03
1.160000000000000059e-01 2.137404999999999999e-01 1.650929999999999964e+01 1.499214999999999804e+02 2.113835000000000036e+03
1.170000000000000068e-01 2.137165000000000037e-01 1.584900000000000020e+01 1.494519999999999982e+02 2.113684999999999945e+03
1.180000000000000077e-01 2.136939999999999951e-01 1.522135000000000105e+01 1.489714999999999918e+02 2.113545000000000073e+03
1.190000000000000085e-01 2.136704999999999854e-01 1.461360000000000170e+01 1.484490000000000123e+02 2.113389999999999873e+03
1.200000000000000094e-01 2.136450000000000016e-01 1.401279999999999859e+01 1.478550000000000182e+02 2.113235000000000127e+03
1.209999999999999964e-01 2.136160000000000003e-01 1.340700000000000003e+01 1.471634999999999991e+02 2.113059999999999945e+03
1.219999999999999973e-01 2.135839999999999961e-01 1.278565000000000040e+01 1.463534999999999968e+02 2.112859999999999673e+03
1.229999999999999982e-01 2.135465000000000002e-01 1.214020000000000010e+01 1.454099999999999966e+02 2.112635000000000218e+03
1.239999999999999991e-01 2.135035000000000127e-01 1.146498000000000062e+01 1.443249999999999886e+02 2.112375000000000000e+03
1.250000000000000000e-01 2.134555000000000202e-01 1.075693500000000036e+01 1.430974999999999966e+02 2.112085000000000036e+03
1.260000000000000009e-01 2.134014999999999940e-01 1.001652999999999949e+01 1.417364999999999782e+02 2.111755000000000109e+03
1.270000000000000018e-01 2.133419999999999761e-01 9.247164999999998969e+00 1.402570000000000050e+02 2.111400000000000091e+03
1.280000000000000027e-01 2.132775000000000087e-01 8.455289999999999750e+00 1.386810000000000116e+02 2.111010000000000218e+03
1.290000000000000036e-01 2.132094999999999962e-01 7.650160000000000515e+00 1.370375000000000227e+02 2.110599999999999909e+03
1.300000000000000044e-01 2.131385000000000085e-01 6.842990000000000350e+00 1.353575000000000159e+02 2.110170000000000073e+03
1.310000000000000053e-01 2.130654999999999910e-01 6.046660000000001034e+00 1.336784999999999854e+02 2.109730000000000018e+03
1.320000000000000062e-01 2.129935000000000023e-01 5.274865000000000137e+00 1.320349999999999966e+02 2.109295000000000073e+03
1.330000000000000071e-01 2.129220000000000002e-01 4.541425000000000267e+00 1.304629999999999939e+02 2.108859999999999673e+03
1.340000000000000080e-01 2.128539999999999877e-01 3.859544999999999781e+00 1.289954999999999927e+02 2.108444999999999709e+03
1.350000000000000089e-01 2.127895000000000203e-01 3.241184999999999761e+00 1.276599999999999966e+02 2.108055000000000291e+03
1.360000000000000098e-01 2.127310000000000034e-01 2.696419999999999817e+00 1.264805000000000064e+02 2.107694999999999709e+03
1.370000000000000107e-01 2.126779999999999782e-01 2.233058499999999835e+00 1.254729999999999990e+02 2.107375000000000000e+03
1.380000000000000115e-01 2.126325000000000021e-01 1.856249999999999956e+00 1.246465000000000032e+02 2.107094999999999800e+03
1.390000000000000124e-01 2.125940000000000052e-01 1.568369999999999820e+00 1.240049999999999955e+02 2.106859999999999673e+03
1.400000000000000133e-01 2.125634999999999886e-01 1.368970000000000020e+00 1.235425000000000040e+02 2.106670000000000073e+03
1.410000000000000142e-01 2.125405000000000211e-01 1.254895000000000094e+00 1.232500000000000000e+02 2.106519999999999982e+03
1.420000000000000151e-01 2.125239999999999907e-01 1.220546000000000131e+00 1.231119999999999948e+02 2.106414999999999964e+03
1.430000000000000160e-01 2.125140000000000085e-01 1.258179000000000158e+00 1.231075000000000017e+02 2.106350000000000364e+03
1.440000000000000169e-01 2.125099999999999767e-01 1.358354999999999979e+00 1.232139999999999986e+02 2.106319999999999709e+03
1.450000000000000178e-01 2.125104999999999911e-01 1.510365000000000180e+00 1.234060000000000059e+02 2.106315000000000055e+03
1.459999999999999909e-01 2.125150000000000095e-01 1.702739999999999920e+00 1.236570000000000107e+02 2.106340000000000146e+03
1.469999999999999918e-01 2.125225000000000031e-01 1.923680000000000057e+00 1.239429999999999978e+02 2.106375000000000000e+03
1.479999999999999927e-01 2.125314999999999843e-01 2.161545000000000272e+00 1.242379999999999995e+02 2.106430000000000291e+03
1.489999999999999936e-01 2.125410000000000077e-01 2.405244999999999855e+00 1.245204999999999984e+02 2.106484999999999673e+03
1.499999999999999944e-01 2.125509999999999899e-01 2.644589999999999996e+00 1.247719999999999914e+02 2.106539999999999964e+03
1.509999999999999953e-01 2.125589999999999979e-01 2.870600000000000041e+00 1.249749999999999943e+02 2.106590000000000146e+03
1.519999999999999962e-01 2.125659999999999772e-01 3.075714999999999755e+00 1.251179999999999950e+02 2.106630000000000109e+03
1.529999999999999971e-01 2.125710000000000099e-01 3.253969999999999807e+00 1.251920000000000073e+02 2.106659999999999854e+03
1.539999999999999980e-01 2.125730000000000119e-01 3.401050000000000129e+00 1.251924999999999955e+02 2.106675000000000182e+03
1.549999999999999989e-01 2.125724999999999976e-01 3.514334999999999987e+00 1.251175000000000068e+02 2.106675000000000182e+03
1.559999999999999998e-01 2.125690000000000079e-01 3.592824999999999935e+00 1.249694999999999965e+02 2.106655000000000200e+03
1.570000000000000007e-01 2.125624999999999876e-01 3.637014999999999887e+00 1.247535000000000025e+02 2.106614999999999782e+03
1.580000000000000016e-01 2.125535000000000063e-01 3.648744999999999905e+00 1.244765000000000015e+02 2.106565000000000055e+03
1.590000000000000024e-01 2.125420000000000087e-01 3.630945000000000089e+00 1.241479999999999961e+02 2.106494999999999891e+03
