# t [s], A [cm^2], U [cm/s], P [cPa], c [cm/s]
1.000000000000000021e-03 1.578509999999999913e-01 3.244349999999999734e-01 9.410184999999999889e+01 1.878494999999999891e+03
2.000000000000000042e-03 1.578169999999999851e-01 1.851943499999999965e+00 9.106659999999999400e+01 1.878170000000000073e+03
3.000000000000000062e-03 1.577069999999999861e-01 3.714557499999999735e+00 8.702344999999999686e+01 1.877174999999999955e+03
4.000000000000000083e-03 1.575475000000000070e-01 5.783871000000000429e+00 8.258529999999998950e+01 1.875764999999999873e+03
5.000000000000000104e-03 1.573684999999999945e-01 8.004160000000000608e+00 7.851139999999999475e+01 1.874190000000000055e+03
6.000000000000000125e-03 1.571909999999999974e-01 1.024555999999999933e+01 7.512684999999999036e+01 1.872639999999999873e+03
7.000000000000000146e-03 1.570214999999999805e-01 1.232733999999999952e+01 7.230225000000000080e+01 1.871184999999999945e+03
8.000000000000000167e-03 1.568625000000000158e-01 1.413817000000000057e+01 6.979200000000000159e+01 1.869844999999999800e+03
9.000000000000001055e-03 1.567179999999999962e-01 1.568254999999999910e+01 6.754664999999999964e+01 1.868639999999999873e+03
1.000000000000000194e-02 1.565909999999999802e-01 1.699790000000000134e+01 6.563374999999999204e+01 1.867590000000000146e+03
1.099999999999999936e-02 1.564829999999999832e-01 1.810210000000000008e+01 6.406579999999999586e+01 1.866710000000000036e+03
1.200000000000000025e-02 1.563920000000000032e-01 1.900590000000000046e+01 6.280174999999999841e+01 1.865974999999999909e+03
1.300000000000000114e-02 1.563174999999999981e-01 1.972095000000000198e+01 6.178879999999999484e+01 1.865384999999999991e+03
1.400000000000000203e-02 1.562564999999999926e-01 2.025294999999999845e+01 6.095544999999999902e+01 1.864904999999999973e+03
1.499999999999999944e-02 1.562060000000000115e-01 2.061655000000000015e+01 6.023170000000000357e+01 1.864514999999999873e+03
1.600000000000000033e-02 1.561635000000000106e-01 2.086394999999999911e+01 5.962715000000000032e+01 1.864199999999999818e+03
1.700000000000000122e-02 1.561330000000000218e-01 2.109270000000000067e+01 5.928714999999999691e+01 1.863970000000000027e+03
1.800000000000000211e-02 1.561190000000000078e-01 2.141474999999999795e+01 5.944835000000000491e+01 1.863869999999999891e+03
1.900000000000000300e-02 1.561285000000000034e-01 2.190630000000000166e+01 6.031029999999999802e+01 1.863960000000000036e+03
2.000000000000000042e-02 1.561644999999999839e-01 2.257059999999999889e+01 6.190689999999999316e+01 1.864255000000000109e+03
2.100000000000000130e-02 1.562235000000000151e-01 2.333330000000000126e+01 6.405414999999999281e+01 1.864744999999999891e+03
2.200000000000000219e-02 1.562985000000000069e-01 2.406985000000000241e+01 6.639424999999999955e+01 1.865359999999999900e+03
2.299999999999999961e-02 1.563764999999999739e-01 2.464824999999999733e+01 6.850675000000001091e+01 1.866014999999999873e+03
2.400000000000000050e-02 1.564464999999999884e-01 2.496969999999999956e+01 7.003579999999999472e+01 1.866605000000000018e+03
2.500000000000000139e-02 1.564979999999999982e-01 2.499459999999999837e+01 7.078594999999999970e+01 1.867050000000000182e+03
2.600000000000000228e-02 1.565269999999999995e-01 2.474620000000000175e+01 7.075905000000000200e+01 1.867315000000000055e+03
2.700000000000000316e-02 1.565340000000000065e-01 2.429500000000000171e+01 7.012659999999999627e+01 1.867394999999999982e+03
2.800000000000000058e-02 1.565239999999999965e-01 2.373114999999999952e+01 6.915520000000000778e+01 1.867329999999999927e+03
2.900000000000000147e-02 1.565034999999999898e-01 2.313584999999999781e+01 6.811500000000000909e+01 1.867174999999999955e+03
3.000000000000000236e-02 1.564794999999999936e-01 2.256090000000000018e+01 6.720320000000000960e+01 1.866985000000000127e+03
3.099999999999999978e-02 1.564564999999999984e-01 2.202080000000000126e+01 6.650350000000000250e+01 1.866799999999999955e+03
3.200000000000000067e-02 1.564365000000000061e-01 2.149859999999999971e+01 6.598730000000000473e+01 1.866634999999999991e+03
3.300000000000000155e-02 1.564184999999999881e-01 2.095955000000000013e+01 6.554894999999999072e+01 1.866490000000000009e+03
3.400000000000000244e-02 1.564004999999999979e-01 2.036919999999999931e+01 6.505849999999999511e+01 1.866335000000000036e+03
3.500000000000000333e-02 1.563780000000000170e-01 1.970915000000000106e+01 6.441479999999999961e+01 1.866154999999999973e+03
3.600000000000000422e-02 1.563505000000000034e-01 1.898680000000000234e+01 6.358554999999999779e+01 1.865934999999999945e+03
3.700000000000000511e-02 1.563174999999999981e-01 1.823760000000000048e+01 6.262350000000000705e+01 1.865674999999999955e+03
3.799999999999999906e-02 1.562830000000000052e-01 1.751905000000000001e+01 6.165749999999999886e+01 1.865384999999999991e+03
3.899999999999999994e-02 1.562494999999999856e-01 1.689759999999999707e+01 6.086084999999999923e+01 1.865115000000000009e+03
4.000000000000000083e-02 1.562235000000000151e-01 1.643384999999999962e+01 6.040715000000000146e+01 1.864894999999999982e+03
4.100000000000000172e-02 1.562100000000000155e-01 1.616810000000000258e+01 6.042609999999999815e+01 1.864775000000000091e+03
4.200000000000000261e-02 1.562125000000000041e-01 1.611120000000000019e+01 6.097005000000000052e+01 1.864784999999999854e+03
4.300000000000000350e-02 1.562319999999999820e-01 1.624159999999999826e+01 6.199915000000000020e+01 1.864934999999999945e+03
4.400000000000000439e-02 1.562665000000000026e-01 1.650914999999999822e+01 6.338725000000000165e+01 1.865204999999999927e+03
4.499999999999999833e-02 1.563125000000000209e-01 1.684369999999999834e+01 6.494445000000000334e+01 1.865575000000000045e+03
4.599999999999999922e-02 1.563640000000000030e-01 1.716649999999999920e+01 6.645050000000000523e+01 1.865985000000000127e+03
4.700000000000000011e-02 1.564134999999999831e-01 1.740124999999999744e+01 6.768935000000000457e+01 1.866389999999999873e+03
4.800000000000000100e-02 1.564534999999999954e-01 1.748409999999999798e+01 6.848015000000000896e+01 1.866724999999999909e+03
4.900000000000000189e-02 1.564794999999999936e-01 1.736925000000000097e+01 6.869810000000001082e+01 1.866940000000000055e+03
5.000000000000000278e-02 1.564865000000000006e-01 1.703200000000000003e+01 6.828360000000000696e+01 1.867009999999999991e+03
5.100000000000000366e-02 1.564730000000000010e-01 1.646795000000000186e+01 6.724084999999999468e+01 1.866904999999999973e+03
5.200000000000000455e-02 1.564375000000000071e-01 1.569010000000000105e+01 6.562654999999999461e+01 1.866625000000000000e+03
5.300000000000000544e-02 1.563815000000000066e-01 1.472414999999999985e+01 6.353500000000000369e+01 1.866175000000000182e+03
5.399999999999999939e-02 1.563084999999999891e-01 1.360410000000000075e+01 6.108084999999999809e+01 1.865579999999999927e+03
5.500000000000000028e-02 1.562204999999999844e-01 1.236795500000000025e+01 5.838419999999999987e+01 1.864869999999999891e+03
5.600000000000000117e-02 1.561230000000000118e-01 1.105519999999999925e+01 5.555995000000000061e+01 1.864065000000000055e+03
5.700000000000000205e-02 1.560179999999999900e-01 9.704699999999998994e+00 5.271210000000000662e+01 1.863210000000000036e+03
5.800000000000000294e-02 1.559109999999999940e-01 8.354364999999999597e+00 4.993184999999999718e+01 1.862329999999999927e+03
5.900000000000000383e-02 1.558039999999999980e-01 7.041069999999999496e+00 4.729919999999999902e+01 1.861454999999999927e+03
6.000000000000000472e-02 1.557010000000000061e-01 5.800894999999999690e+00 4.488615000000000066e+01 1.860599999999999909e+03
6.099999999999999867e-02 1.556045000000000067e-01 4.669484999999999886e+00 4.275945000000000107e+01 1.859805000000000064e+03
6.199999999999999956e-02 1.555179999999999896e-01 3.681591000000000058e+00 4.098279999999999745e+01 1.859090000000000146e+03
6.300000000000000044e-02 1.554435000000000122e-01 2.870492999999999739e+00 3.961695000000000277e+01 1.858470000000000027e+03
6.400000000000000133e-02 1.553844999999999810e-01 2.266769000000000034e+00 3.871814999999999429e+01 1.857974999999999909e+03
6.500000000000000222e-02 1.553419999999999801e-01 1.896826499999999971e+00 3.833554999999999779e+01 1.857615000000000009e+03
6.600000000000000311e-02 1.553200000000000136e-01 1.781340000000000146e+00 3.850724999999999909e+01 1.857409999999999854e+03
6.700000000000000400e-02 1.553180000000000116e-01 1.933825000000000127e+00 3.925674999999999670e+01 1.857380000000000109e+03
6.800000000000000488e-02 1.553380000000000039e-01 2.359625000000000306e+00 4.059010000000000673e+01 1.857529999999999973e+03
6.900000000000000577e-02 1.553809999999999913e-01 3.055385000000000240e+00 4.249415000000000475e+01 1.857860000000000127e+03
7.000000000000000666e-02 1.554455000000000142e-01 4.009149999999999991e+00 4.493665000000000020e+01 1.858369999999999891e+03
7.100000000000000755e-02 1.555314999999999892e-01 5.200994999999999813e+00 4.786755000000000138e+01 1.859059999999999945e+03
7.200000000000000844e-02 1.556369999999999976e-01 6.604180000000000383e+00 5.122194999999999965e+01 1.859909999999999854e+03
7.300000000000000933e-02 1.557600000000000096e-01 8.186624999999999375e+00 5.492405000000000115e+01 1.860900000000000091e+03
7.399999999999999634e-02 1.558970000000000078e-01 9.912469999999999004e+00 5.889130000000000109e+01 1.862019999999999982e+03
7.499999999999999722e-02 1.560465000000000046e-01 1.174399499999999996e+01 6.303889999999999816e+01 1.863240000000000009e+03
7.599999999999999811e-02 1.562040000000000095e-01 1.364321499999999965e+01 6.728419999999999845e+01 1.864530000000000200e+03
7.699999999999999900e-02 1.563680000000000070e-01 1.557334999999999958e+01 7.155035000000000878e+01 1.865880000000000109e+03
7.799999999999999989e-02 1.565340000000000065e-01 1.750049999999999883e+01 7.576930000000000121e+01 1.867255000000000109e+03
7.900000000000000078e-02 1.567009999999999792e-01 1.939460000000000051e+01 7.988470000000000937e+01 1.868634999999999991e+03
8.000000000000000167e-02 1.568654999999999911e-01 2.123055000000000092e+01 8.385325000000000273e+01 1.870005000000000109e+03
8.100000000000000255e-02 1.570265000000000133e-01 2.298884999999999934e+01 8.764589999999999748e+01 1.871349999999999909e+03
8.200000000000000344e-02 1.571819999999999884e-01 2.465590000000000259e+01 9.124790000000000134e+01 1.872650000000000091e+03
8.300000000000000433e-02 1.573315000000000130e-01 2.622415000000000163e+01 9.465850000000000364e+01 1.873904999999999973e+03
8.400000000000000522e-02 1.574754999999999905e-01 2.769144999999999968e+01 9.788835000000000264e+01 1.875115000000000009e+03
8.500000000000000611e-02 1.576130000000000031e-01 2.906094999999999828e+01 1.009592999999999989e+02 1.876275000000000091e+03
8.600000000000000699e-02 1.577449999999999963e-01 3.033964999999999890e+01 1.039004999999999939e+02 1.877389999999999873e+03
8.700000000000000788e-02 1.578729999999999856e-01 3.153775000000000261e+01 1.067445000000000022e+02 1.878470000000000027e+03
8.800000000000000877e-02 1.579964999999999842e-01 3.266700000000000159e+01 1.095264999999999986e+02 1.879519999999999982e+03
8.899999999999999578e-02 1.581175000000000219e-01 3.374020000000000152e+01 1.122789999999999964e+02 1.880549999999999955e+03
8.999999999999999667e-02 1.582374999999999754e-01 3.476914999999999623e+01 1.150320000000000107e+02 1.881570000000000164e+03
9.099999999999999756e-02 1.583569999999999978e-01 3.576460000000000150e+01 1.178064999999999998e+02 1.882579999999999927e+03
9.199999999999999845e-02 1.584770000000000068e-01 3.673470000000000368e+01 1.206175000000000068e+02 1.883599999999999909e+03
9.299999999999999933e-02 1.585979999999999890e-01 3.768484999999999729e+01 1.234710000000000036e+02 1.884619999999999891e+03
9.400000000000000022e-02 1.587195000000000134e-01 3.861749999999999972e+01 1.263629999999999995e+02 1.885659999999999854e+03
9.500000000000000111e-02 1.588424999999999976e-01 3.953164999999999907e+01 1.292830000000000155e+02 1.886700000000000045e+03
9.600000000000000200e-02 1.589654999999999818e-01 4.042345000000000255e+01 1.322110000000000127e+02 1.887750000000000000e+03
9.700000000000000289e-02 1.590894999999999948e-01 4.128605000000000302e+01 1.351220000000000141e+02 1.888795000000000073e+03
9.800000000000000377e-02 1.592115000000000058e-01 4.211064999999999969e+01 1.379864999999999782e+02 1.889840000000000146e+03
9.900000000000000466e-02 1.593319999999999736e-01 4.288670000000000471e+01 1.407704999999999984e+02 1.890869999999999891e+03
1.000000000000000056e-01 1.594499999999999806e-01 4.360249999999999915e+01 1.434415000000000191e+02 1.891869999999999891e+03
1.010000000000000064e-01 1.595624999999999960e-01 4.424615000000000009e+01 1.459655000000000200e+02 1.892835000000000036e+03
1.020000000000000073e-01 1.596704999999999930e-01 4.480575000000000330e+01 1.483120000000000118e+02 1.893755000000000109e+03
1.030000000000000082e-01 1.597715000000000107e-01 4.527040000000000219e+01 1.504519999999999982e+02 1.894619999999999891e+03
1.040000000000000091e-01 1.598640000000000061e-01 4.563049999999999784e+01 1.523619999999999948e+02 1.895420000000000073e+03
1.050000000000000100e-01 1.599490000000000078e-01 4.587829999999999586e+01 1.540240000000000009e+02 1.896150000000000091e+03
1.059999999999999970e-01 1.600234999999999852e-01 4.600804999999999723e+01 1.554254999999999995e+02 1.896795000000000073e+03
1.069999999999999979e-01 1.600880000000000081e-01 4.601659999999999684e+01 1.565589999999999975e+02 1.897360000000000127e+03
1.079999999999999988e-01 1.601425000000000209e-01 4.590330000000000155e+01 1.574245000000000232e+02 1.897829999999999927e+03
1.089999999999999997e-01 1.601865000000000094e-01 4.567029999999999745e+01 1.580279999999999916e+02 1.898215000000000146e+03
1.100000000000000006e-01 1.602200000000000013e-01 4.532214999999999350e+01 1.583810000000000002e+02 1.898515000000000100e+03
1.110000000000000014e-01 1.602434999999999832e-01 4.486610000000000298e+01 1.585000000000000000e+02 1.898724999999999909e+03
1.120000000000000023e-01 1.602574999999999972e-01 4.431140000000000612e+01 1.584064999999999941e+02 1.898855000000000018e+03
1.130000000000000032e-01 1.602625000000000022e-01 4.366934999999999434e+01 1.581254999999999882e+02 1.898910000000000082e+03
1.140000000000000041e-01 1.602600000000000136e-01 4.295275000000000176e+01 1.576845000000000141e+02 1.898894999999999982e+03
1.150000000000000050e-01 1.602504999999999902e-01 4.217525000000000546e+01 1.571134999999999877e+02 1.898824999999999818e+03
1.160000000000000059e-01 1.602350000000000163e-01 4.135110000000000241e+01 1.564415000000000191e+02 1.898699999999999818e+03
1.170000000000000068e-01 1.602149999999999963e-01 4.049455000000000382e+01 1.556979999999999791e+02 1.898539999999999964e+03
1.180000000000000077e-01 1.601910000000000001e-01 3.961950000000000216e+01 1.549105000000000132e+02 1.898335000000000036e+03
1.190000000000000085e-01 1.601650000000000018e-01 3.873874999999999602e+01 1.541044999999999732e+02 1.898119999999999891e+03
1.200000000000000094e-01 1.601370000000000016e-01 3.786390000000000100e+01 1.533009999999999877e+02 1.897884999999999991e+03
1.209999999999999964e-01 1.601080000000000003e-01 3.700500000000000256e+01 1.525190000000000055e+02 1.897634999999999991e+03
1.219999999999999973e-01 1.600794999999999857e-01 3.617010000000000502e+01 1.517715000000000032e+02 1.897389999999999873e+03
1.229999999999999982e-01 1.600509999999999988e-01 3.536534999999999940e+01 1.510674999999999955e+02 1.897154999999999973e+03
1.239999999999999991e-01 1.600239999999999996e-01 3.459465000000000146e+01 1.504114999999999895e+02 1.896914999999999964e+03
1.250000000000000000e-01 1.599980000000000013e-01 3.385979999999999990e+01 1.498045000000000186e+02 1.896695000000000164e+03
1.260000000000000009e-01 1.599730000000000041e-01 3.316075000000000017e+01 1.492415000000000020e+02 1.896480000000000018e+03
1.270000000000000018e-01 1.599499999999999811e-01 3.249540000000000362e+01 1.487160000000000082e+02 1.896279999999999973e+03
1.280000000000000027e-01 1.599280000000000146e-01 3.185994999999999777e+01 1.482164999999999964e+02 1.896090000000000146e+03
1.290000000000000036e-01 1.599065000000000070e-01 3.124929999999999808e+01 1.477305000000000064e+02 1.895904999999999973e+03
1.300000000000000044e-01 1.598849999999999993e-01 3.065724999999999767e+01 1.472420000000000186e+02 1.895719999999999800e+03
1.310000000000000053e-01 1.598640000000000061e-01 3.007690000000000197e+01 1.467365000000000066e+02 1.895534999999999854e+03
1.320000000000000062e-01 1.598419999999999841e-01 2.950079999999999814e+01 1.461965000000000146e+02 1.895344999999999800e+03
1.330000000000000071e-01 1.598185000000000022e-01 2.892159999999999798e+01 1.456069999999999993e+02 1.895140000000000100e+03
1.340000000000000080e-01 1.597939999999999916e-01 2.833239999999999981e+01 1.449544999999999959e+02 1.894925000000000182e+03
1.350000000000000089e-01 1.597665000000000057e-01 2.772680000000000078e+01 1.442255000000000109e+02 1.894690000000000055e+03
1.360000000000000098e-01 1.597359999999999891e-01 2.709949999999999903e+01 1.434120000000000061e+02 1.894434999999999945e+03
1.370000000000000107e-01 1.597029999999999839e-01 2.644630000000000081e+01 1.425060000000000002e+02 1.894154999999999973e+03
1.380000000000000115e-01 1.596655000000000157e-01 2.576465000000000316e+01 1.415055000000000121e+02 1.893840000000000146e+03
1.390000000000000124e-01 1.596259999999999901e-01 2.505339999999999989e+01 1.404099999999999966e+02 1.893500000000000000e+03
1.400000000000000133e-01 1.595814999999999872e-01 2.431325000000000003e+01 1.392255000000000109e+02 1.893125000000000000e+03
1.410000000000000142e-01 1.595344999999999958e-01 2.354645000000000010e+01 1.379590000000000032e+02 1.892724999999999909e+03
1.420000000000000151e-01 1.594840000000000146e-01 2.275695000000000334e+01 1.366225000000000023e+02 1.892295000000000073e+03
1.430000000000000160e-01 1.594304999999999750e-01 2.195015000000000072e+01 1.352299999999999898e+02 1.891845000000000027e+03
1.440000000000000169e-01 1.593749999999999889e-01 2.113279999999999959e+01 1.337990000000000066e+02 1.891380000000000109e+03
1.450000000000000178e-01 1.593180000000000152e-01 2.031264999999999787e+01 1.323489999999999895e+02 1.890889999999999873e+03
1.459999999999999909e-01 1.592594999999999983e-01 1.949820000000000064e+01 1.309004999999999939e+02 1.890400000000000091e+03
1.469999999999999918e-01 1.592009999999999814e-01 1.869834999999999781e+01 1.294730000000000132e+02 1.889900000000000091e+03
1.479999999999999927e-01 1.591430000000000067e-01 1.792215000000000202e+01 1.280885000000000105e+02 1.889414999999999964e+03
1.489999999999999936e-01 1.590865000000000196e-01 1.717820000000000036e+01 1.267649999999999864e+02 1.888929999999999836e+03
1.499999999999999944e-01 1.590320000000000067e-01 1.647475000000000023e+01 1.255210000000000008e+02 1.888465000000000146e+03
1.509999999999999953e-01 1.589800000000000102e-01 1.581899999999999906e+01 1.243714999999999975e+02 1.888019999999999982e+03
1.519999999999999962e-01 1.589315000000000033e-01 1.521710000000000029e+01 1.233284999999999911e+02 1.887610000000000127e+03
1.529999999999999971e-01 1.588870000000000005e-01 1.467384999999999984e+01 1.224025000000000034e+02 1.887230000000000018e+03
1.539999999999999980e-01 1.588465000000000016e-01 1.419245000000000090e+01 1.215979999999999990e+02 1.886884999999999991e+03
1.549999999999999989e-01 1.588109999999999800e-01 1.377490000000000059e+01 1.209174999999999898e+02 1.886574999999999818e+03
1.559999999999999998e-01 1.587799999999999767e-01 1.342149999999999999e+01 1.203609999999999900e+02 1.886304999999999836e+03
1.570000000000000007e-01 1.587534999999999918e-01 1.313095000000000034e+01 1.199230000000000018e+02 1.886079999999999927e+03
1.580000000000000016e-01 1.587314999999999976e-01 1.290080000000000027e+01 1.195979999999999990e+02 1.885884999999999991e+03
1.590000000000000024e-01 1.587140000000000217e-01 1.272714999999999996e+01 1.193760000000000048e+02 1.885735000000000127e+03
