# t [s], A [cm^2], U [cm/s], P [cPa], c [cm/s]
1.000000000000000021e-03 1.459934999999999983e-01 2.587349999999999928e-01 8.869774999999999920e+01 1.933305000000000064e+03
2.000000000000000042e-03 1.459685000000000010e-01 1.591788500000000051e+00 8.595924999999999727e+01 1.933049999999999955e+03
3.000000000000000062e-03 1.458829999999999849e-01 3.235907999999999785e+00 8.229859999999999332e+01 1.932240000000000009e+03
4.000000000000000083e-03 1.457570000000000254e-01 5.071652000000000271e+00 7.821825000000001182e+01 1.931070000000000164e+03
5.000000000000000104e-03 1.456135000000000068e-01 7.052654999999999674e+00 7.440385000000000559e+01 1.929744999999999891e+03
6.000000000000000125e-03 1.454695000000000016e-01 9.072765000000000413e+00 7.118959999999999866e+01 1.928424999999999955e+03
7.000000000000000146e-03 1.453320000000000167e-01 1.097225500000000054e+01 6.849429999999999552e+01 1.927174999999999955e+03
8.000000000000000167e-03 1.452019999999999977e-01 1.264095000000000013e+01 6.609395000000000664e+01 1.926019999999999982e+03
9.000000000000001055e-03 1.450825000000000031e-01 1.407292499999999791e+01 6.392629999999999768e+01 1.924970000000000027e+03
1.000000000000000194e-02 1.449759999999999938e-01 1.530075000000000074e+01 6.205429999999999779e+01 1.924055000000000064e+03
1.099999999999999936e-02 1.448849999999999860e-01 1.634124999999999872e+01 6.050260000000000105e+01 1.923269999999999982e+03
1.200000000000000025e-02 1.448079999999999923e-01 1.720134999999999792e+01 5.923784999999999457e+01 1.922614999999999782e+03
1.300000000000000114e-02 1.447439999999999838e-01 1.788579999999999970e+01 5.820360000000000156e+01 1.922074999999999818e+03
1.400000000000000203e-02 1.446899999999999853e-01 1.839614999999999867e+01 5.732450000000000045e+01 1.921630000000000109e+03
1.499999999999999944e-02 1.446445000000000092e-01 1.874425000000000097e+01 5.653199999999999648e+01 1.921259999999999991e+03
1.600000000000000033e-02 1.446054999999999979e-01 1.897765000000000057e+01 5.583559999999999945e+01 1.920945000000000164e+03
1.700000000000000122e-02 1.445754999999999957e-01 1.918500000000000227e+01 5.537144999999999584e+01 1.920704999999999927e+03
1.800000000000000211e-02 1.445589999999999931e-01 1.946875000000000000e+01 5.536145000000000493e+01 1.920579999999999927e+03
1.900000000000000300e-02 1.445609999999999951e-01 1.990129999999999910e+01 5.599889999999999901e+01 1.920610000000000127e+03
2.000000000000000042e-02 1.445845000000000047e-01 2.049249999999999972e+01 5.733325000000000671e+01 1.920809999999999945e+03
2.100000000000000130e-02 1.446274999999999922e-01 2.118479999999999919e+01 5.922050000000000125e+01 1.921190000000000055e+03
2.200000000000000219e-02 1.446855000000000224e-01 2.187535000000000096e+01 6.135779999999999745e+01 1.921684999999999945e+03
2.299999999999999961e-02 1.447479999999999878e-01 2.245185000000000031e+01 6.337690000000000623e+01 1.922235000000000127e+03
2.400000000000000050e-02 1.448059999999999903e-01 2.282674999999999699e+01 6.495354999999999279e+01 1.922744999999999891e+03
2.500000000000000139e-02 1.448520000000000085e-01 2.295919999999999916e+01 6.589195000000000846e+01 1.923170000000000073e+03
2.600000000000000228e-02 1.448824999999999974e-01 2.285934999999999917e+01 6.615989999999999327e+01 1.923449999999999818e+03
2.700000000000000316e-02 1.448955000000000104e-01 2.257685000000000031e+01 6.587149999999999750e+01 1.923585000000000036e+03
2.800000000000000058e-02 1.448960000000000248e-01 2.217949999999999733e+01 6.522839999999999350e+01 1.923605000000000018e+03
2.900000000000000147e-02 1.448869999999999880e-01 2.172980000000000089e+01 6.444525000000000148e+01 1.923534999999999854e+03
3.000000000000000236e-02 1.448730000000000018e-01 2.126839999999999975e+01 6.368569999999999709e+01 1.923425000000000182e+03
3.099999999999999978e-02 1.448570000000000135e-01 2.080754999999999910e+01 6.302564999999999884e+01 1.923289999999999964e+03
3.200000000000000067e-02 1.448415000000000119e-01 2.033474999999999966e+01 6.245185000000000031e+01 1.923154999999999973e+03
3.300000000000000155e-02 1.448249999999999815e-01 1.982455000000000211e+01 6.188844999999999885e+01 1.923009999999999991e+03
3.400000000000000244e-02 1.448055000000000037e-01 1.925260000000000105e+01 6.124030000000000484e+01 1.922849999999999909e+03
3.500000000000000333e-02 1.447824999999999807e-01 1.860875000000000057e+01 6.043730000000000047e+01 1.922654999999999973e+03
3.600000000000000422e-02 1.447545000000000082e-01 1.790530000000000044e+01 5.946779999999999688e+01 1.922420000000000073e+03
3.700000000000000511e-02 1.447219999999999895e-01 1.717790000000000106e+01 5.839204999999999757e+01 1.922144999999999982e+03
3.799999999999999906e-02 1.446879999999999833e-01 1.648004999999999853e+01 5.733370000000000033e+01 1.921855000000000018e+03
3.899999999999999994e-02 1.446560000000000068e-01 1.587190000000000012e+01 5.645185000000000031e+01 1.921575000000000045e+03
4.000000000000000083e-02 1.446299999999999808e-01 1.540700000000000003e+01 5.590224999999999511e+01 1.921349999999999909e+03
4.100000000000000172e-02 1.446149999999999936e-01 1.512069999999999936e+01 5.579954999999999643e+01 1.921204999999999927e+03
4.200000000000000261e-02 1.446125000000000049e-01 1.502250000000000085e+01 5.618840000000000146e+01 1.921174999999999955e+03
4.300000000000000350e-02 1.446244999999999892e-01 1.509384999999999977e+01 5.703229999999999933e+01 1.921264999999999873e+03
4.400000000000000439e-02 1.446479999999999988e-01 1.529230000000000089e+01 5.821940000000000026e+01 1.921465000000000146e+03
4.499999999999999833e-02 1.446824999999999917e-01 1.555869999999999997e+01 5.958315000000000339e+01 1.921744999999999891e+03
4.599999999999999922e-02 1.447205000000000019e-01 1.582720000000000127e+01 6.093139999999999645e+01 1.922069999999999936e+03
4.700000000000000011e-02 1.447590000000000265e-01 1.603450000000000131e+01 6.207689999999999486e+01 1.922400000000000091e+03
4.800000000000000100e-02 1.447910000000000030e-01 1.612765000000000271e+01 6.286325000000000074e+01 1.922674999999999955e+03
4.900000000000000189e-02 1.448134999999999839e-01 1.606884999999999764e+01 6.318200000000000216e+01 1.922875000000000000e+03
5.000000000000000278e-02 1.448224999999999929e-01 1.583709999999999951e+01 6.297990000000000066e+01 1.922960000000000036e+03
5.100000000000000366e-02 1.448170000000000013e-01 1.542750000000000021e+01 6.225625000000000142e+01 1.922914999999999964e+03
5.200000000000000455e-02 1.447954999999999937e-01 1.484819999999999851e+01 6.105339999999999634e+01 1.922744999999999891e+03
5.300000000000000544e-02 1.447594999999999854e-01 1.411704999999999899e+01 5.944310000000000116e+01 1.922434999999999945e+03
5.399999999999999939e-02 1.447110000000000063e-01 1.325740000000000052e+01 5.751260000000000616e+01 1.922019999999999982e+03
5.500000000000000028e-02 1.446510000000000018e-01 1.229573999999999856e+01 5.535264999999999702e+01 1.921509999999999991e+03
5.600000000000000117e-02 1.445825000000000027e-01 1.125913500000000056e+01 5.304954999999999643e+01 1.920920000000000073e+03
5.700000000000000205e-02 1.445084999999999842e-01 1.017483000000000004e+01 5.068115000000000236e+01 1.920285000000000082e+03
5.800000000000000294e-02 1.444305000000000172e-01 9.069874999999999687e+00 4.831680000000000064e+01 1.919615000000000009e+03
5.900000000000000383e-02 1.443514999999999937e-01 7.971719999999999473e+00 4.601915000000000333e+01 1.918930000000000064e+03
6.000000000000000472e-02 1.442734999999999990e-01 6.908624999999999794e+00 4.384765000000000157e+01 1.918259999999999991e+03
6.099999999999999867e-02 1.441989999999999938e-01 5.909964999999999691e+00 4.186119999999999663e+01 1.917605000000000018e+03
6.199999999999999956e-02 1.441290000000000071e-01 5.006059999999999732e+00 4.011979999999999791e+01 1.917005000000000109e+03
6.300000000000000044e-02 1.440670000000000006e-01 4.227470000000000283e+00 3.868449999999999989e+01 1.916460000000000036e+03
6.400000000000000133e-02 1.440144999999999897e-01 3.603885000000000005e+00 3.761549999999999727e+01 1.916000000000000000e+03
6.500000000000000222e-02 1.439735000000000043e-01 3.162650000000000183e+00 3.696930000000000405e+01 1.915639999999999873e+03
6.600000000000000311e-02 1.439465000000000050e-01 2.927220000000000155e+00 3.679460000000000264e+01 1.915394999999999982e+03
6.700000000000000400e-02 1.439354999999999940e-01 2.915700000000000180e+00 3.712855000000000416e+01 1.915280000000000200e+03
6.800000000000000488e-02 1.439404999999999990e-01 3.139639999999999986e+00 3.799349999999999739e+01 1.915309999999999945e+03
6.900000000000000577e-02 1.439630000000000076e-01 3.603340000000000209e+00 3.939470000000000027e+01 1.915494999999999891e+03
7.000000000000000666e-02 1.440039999999999931e-01 4.303555000000000241e+00 4.131954999999999956e+01 1.915829999999999927e+03
7.100000000000000755e-02 1.440624999999999822e-01 5.229765000000000441e+00 4.373829999999999529e+01 1.916319999999999936e+03
7.200000000000000844e-02 1.441379999999999884e-01 6.364840000000000053e+00 4.660564999999999714e+01 1.916954999999999927e+03
7.300000000000000933e-02 1.442284999999999817e-01 7.686094999999999899e+00 4.986374999999999602e+01 1.917724999999999909e+03
7.399999999999999634e-02 1.443339999999999901e-01 9.166529999999999845e+00 5.344589999999999463e+01 1.918619999999999891e+03
7.499999999999999722e-02 1.444504999999999817e-01 1.077635000000000076e+01 5.728029999999999688e+01 1.919619999999999891e+03
7.599999999999999811e-02 1.445764999999999967e-01 1.248437999999999981e+01 6.129410000000000025e+01 1.920710000000000036e+03
7.699999999999999900e-02 1.447109999999999785e-01 1.425965000000000060e+01 6.541705000000000325e+01 1.921865000000000009e+03
7.799999999999999989e-02 1.448499999999999788e-01 1.607254999999999967e+01 6.958504999999999541e+01 1.923075000000000045e+03
7.900000000000000078e-02 1.449924999999999964e-01 1.789625000000000199e+01 7.374285000000000423e+01 1.924304999999999836e+03
8.000000000000000167e-02 1.451359999999999872e-01 1.970739999999999981e+01 7.784604999999999109e+01 1.925559999999999945e+03
8.100000000000000255e-02 1.452789999999999915e-01 2.148709999999999809e+01 8.186209999999999809e+01 1.926815000000000055e+03
8.200000000000000344e-02 1.454209999999999947e-01 2.322084999999999866e+01 8.577084999999999582e+01 1.928055000000000064e+03
8.300000000000000433e-02 1.455604999999999816e-01 2.489869999999999806e+01 8.956374999999999886e+01 1.929285000000000082e+03
8.400000000000000522e-02 1.456975000000000076e-01 2.651505000000000223e+01 9.324245000000000516e+01 1.930490000000000009e+03
8.500000000000000611e-02 1.458320000000000172e-01 2.806799999999999784e+01 9.681690000000000396e+01 1.931670000000000073e+03
8.600000000000000699e-02 1.459630000000000094e-01 2.955855000000000032e+01 1.003023000000000025e+02 1.932829999999999927e+03
8.700000000000000788e-02 1.460914999999999853e-01 3.098980000000000246e+01 1.037171500000000037e+02 1.933969999999999800e+03
8.800000000000000877e-02 1.462185000000000012e-01 3.236610000000000298e+01 1.070815000000000055e+02 1.935090000000000146e+03
8.899999999999999578e-02 1.463435000000000152e-01 3.369225000000000136e+01 1.104114999999999895e+02 1.936200000000000045e+03
8.999999999999999667e-02 1.464675000000000005e-01 3.497254999999999825e+01 1.137220000000000084e+02 1.937300000000000182e+03
9.099999999999999756e-02 1.465905000000000125e-01 3.621059999999999945e+01 1.170215000000000032e+02 1.938400000000000091e+03
9.199999999999999845e-02 1.467134999999999967e-01 3.740859999999999985e+01 1.203129999999999882e+02 1.939490000000000009e+03
9.299999999999999933e-02 1.468355000000000077e-01 3.856719999999999970e+01 1.235949999999999989e+02 1.940575000000000045e+03
9.400000000000000022e-02 1.469575000000000187e-01 3.968540000000000134e+01 1.268600000000000136e+02 1.941659999999999854e+03
9.500000000000000111e-02 1.470779999999999865e-01 4.076055000000000206e+01 1.300939999999999941e+02 1.942740000000000009e+03
9.600000000000000200e-02 1.471979999999999955e-01 4.178855000000000075e+01 1.332819999999999823e+02 1.943804999999999836e+03
9.700000000000000289e-02 1.473154999999999881e-01 4.276394999999999413e+01 1.364025000000000034e+02 1.944860000000000127e+03
9.800000000000000377e-02 1.474314999999999931e-01 4.368039999999999878e+01 1.394345000000000141e+02 1.945894999999999982e+03
9.900000000000000466e-02 1.475440000000000085e-01 4.453064999999999429e+01 1.423539999999999850e+02 1.946905000000000200e+03
1.000000000000000056e-01 1.476530000000000065e-01 4.530724999999999625e+01 1.451380000000000052e+02 1.947880000000000109e+03
1.010000000000000064e-01 1.477569999999999995e-01 4.600244999999999607e+01 1.477630000000000052e+02 1.948815000000000055e+03
1.020000000000000073e-01 1.478555000000000008e-01 4.660895000000000010e+01 1.502079999999999984e+02 1.949704999999999927e+03
1.030000000000000082e-01 1.479484999999999828e-01 4.711984999999999957e+01 1.524535000000000196e+02 1.950539999999999964e+03
1.040000000000000091e-01 1.480345000000000133e-01 4.752939999999999543e+01 1.544834999999999923e+02 1.951315000000000055e+03
1.050000000000000100e-01 1.481140000000000234e-01 4.783284999999999343e+01 1.562839999999999918e+02 1.952030000000000200e+03
1.059999999999999970e-01 1.481844999999999968e-01 4.802694999999999936e+01 1.578464999999999918e+02 1.952675000000000182e+03
1.069999999999999979e-01 1.482470000000000176e-01 4.811025000000000063e+01 1.591650000000000205e+02 1.953240000000000009e+03
1.079999999999999988e-01 1.483015000000000028e-01 4.808305000000000007e+01 1.602404999999999973e+02 1.953744999999999891e+03
1.089999999999999997e-01 1.483475000000000210e-01 4.794774999999999920e+01 1.610759999999999934e+02 1.954159999999999854e+03
1.100000000000000006e-01 1.483849999999999891e-01 4.770875000000000199e+01 1.616820000000000164e+02 1.954509999999999991e+03
1.110000000000000014e-01 1.484145000000000048e-01 4.737225000000000108e+01 1.620715000000000146e+02 1.954785000000000082e+03
1.120000000000000023e-01 1.484360000000000124e-01 4.694630000000000081e+01 1.622630000000000052e+02 1.954985000000000127e+03
1.130000000000000032e-01 1.484504999999999852e-01 4.644039999999999679e+01 1.622755000000000223e+02 1.955130000000000109e+03
1.140000000000000041e-01 1.484590000000000076e-01 4.586525000000000318e+01 1.621340000000000146e+02 1.955210000000000036e+03
1.150000000000000050e-01 1.484614999999999962e-01 4.523219999999999885e+01 1.618629999999999995e+02 1.955235000000000127e+03
1.160000000000000059e-01 1.484584999999999932e-01 4.455310000000000059e+01 1.614875000000000114e+02 1.955214999999999918e+03
1.170000000000000068e-01 1.484515000000000140e-01 4.383984999999999843e+01 1.610319999999999823e+02 1.955160000000000082e+03
1.180000000000000077e-01 1.484409999999999896e-01 4.310365000000000180e+01 1.605210000000000150e+02 1.955074999999999818e+03
1.190000000000000085e-01 1.484280000000000044e-01 4.235524999999999807e+01 1.599744999999999777e+02 1.954954999999999927e+03
1.200000000000000094e-01 1.484130000000000171e-01 4.160399999999999920e+01 1.594114999999999895e+02 1.954829999999999927e+03
1.209999999999999964e-01 1.483964999999999868e-01 4.085804999999999865e+01 1.588470000000000084e+02 1.954684999999999945e+03
1.219999999999999973e-01 1.483800000000000119e-01 4.012399999999999523e+01 1.582924999999999898e+02 1.954534999999999854e+03
1.229999999999999982e-01 1.483625000000000083e-01 3.940664999999999907e+01 1.577540000000000191e+02 1.954380000000000109e+03
1.239999999999999991e-01 1.483455000000000190e-01 3.870929999999999893e+01 1.572375000000000114e+02 1.954224999999999909e+03
1.250000000000000000e-01 1.483285000000000020e-01 3.803329999999999700e+01 1.567415000000000020e+02 1.954070000000000164e+03
1.260000000000000009e-01 1.483109999999999984e-01 3.737865000000000038e+01 1.562630000000000052e+02 1.953920000000000073e+03
1.270000000000000018e-01 1.482944999999999958e-01 3.674370000000000402e+01 1.557950000000000159e+02 1.953764999999999873e+03
1.280000000000000027e-01 1.482779999999999931e-01 3.612560000000000571e+01 1.553294999999999959e+02 1.953619999999999891e+03
1.290000000000000036e-01 1.482614999999999905e-01 3.552044999999999675e+01 1.548555000000000064e+02 1.953465000000000146e+03
1.300000000000000044e-01 1.482439999999999869e-01 3.492354999999999876e+01 1.543609999999999900e+02 1.953309999999999945e+03
1.310000000000000053e-01 1.482259999999999966e-01 3.432970000000000255e+01 1.538350000000000080e+02 1.953144999999999982e+03
1.320000000000000062e-01 1.482065000000000188e-01 3.373359999999999559e+01 1.532634999999999934e+02 1.952974999999999909e+03
1.330000000000000071e-01 1.481859999999999844e-01 3.312999999999999545e+01 1.526355000000000075e+02 1.952784999999999854e+03
1.340000000000000080e-01 1.481635000000000035e-01 3.251395000000000124e+01 1.519414999999999907e+02 1.952585000000000036e+03
1.350000000000000089e-01 1.481385000000000063e-01 3.188119999999999976e+01 1.511730000000000018e+02 1.952360000000000127e+03
1.360000000000000098e-01 1.481109999999999927e-01 3.122844999999999871e+01 1.503234999999999957e+02 1.952115000000000009e+03
1.370000000000000107e-01 1.480809999999999904e-01 3.055335000000000178e+01 1.493915000000000077e+02 1.951849999999999909e+03
1.380000000000000115e-01 1.480484999999999995e-01 2.985484999999999900e+01 1.483750000000000000e+02 1.951559999999999945e+03
1.390000000000000124e-01 1.480130000000000057e-01 2.913310000000000244e+01 1.472785000000000082e+02 1.951240000000000009e+03
1.400000000000000133e-01 1.479750000000000232e-01 2.838960000000000150e+01 1.461070000000000277e+02 1.950900000000000091e+03
1.410000000000000142e-01 1.479340000000000099e-01 2.762729999999999819e+01 1.448704999999999927e+02 1.950534999999999854e+03
1.420000000000000151e-01 1.478909999999999947e-01 2.685014999999999930e+01 1.435794999999999959e+02 1.950150000000000091e+03
1.430000000000000160e-01 1.478460000000000052e-01 2.606340000000000146e+01 1.422489999999999952e+02 1.949750000000000000e+03
1.440000000000000169e-01 1.477990000000000137e-01 2.527304999999999779e+01 1.408935000000000173e+02 1.949335000000000036e+03
1.450000000000000178e-01 1.477515000000000078e-01 2.448580000000000112e+01 1.395314999999999941e+02 1.948909999999999854e+03
1.459999999999999909e-01 1.477040000000000020e-01 2.370880000000000010e+01 1.381795000000000186e+02 1.948485000000000127e+03
1.469999999999999918e-01 1.476560000000000095e-01 2.294935000000000258e+01 1.368555000000000064e+02 1.948059999999999945e+03
1.479999999999999927e-01 1.476085000000000036e-01 2.221450000000000102e+01 1.355759999999999934e+02 1.947639999999999873e+03
1.489999999999999936e-01 1.475629999999999997e-01 2.151105000000000089e+01 1.343565000000000111e+02 1.947230000000000018e+03
1.499999999999999944e-01 1.475184999999999969e-01 2.084495000000000076e+01 1.332094999999999914e+02 1.946835000000000036e+03
1.509999999999999953e-01 1.474765000000000104e-01 2.022144999999999726e+01 1.321485000000000127e+02 1.946460000000000036e+03
1.519999999999999962e-01 1.474374999999999991e-01 1.964464999999999861e+01 1.311795000000000186e+02 1.946105000000000018e+03
1.529999999999999971e-01 1.474010000000000042e-01 1.911765000000000114e+01 1.303095000000000141e+02 1.945775000000000091e+03
1.539999999999999980e-01 1.473675000000000124e-01 1.864225000000000065e+01 1.295409999999999968e+02 1.945474999999999909e+03
1.549999999999999989e-01 1.473380000000000245e-01 1.821914999999999907e+01 1.288750000000000000e+02 1.945210000000000036e+03
1.559999999999999998e-01 1.473114999999999841e-01 1.784785000000000110e+01 1.283089999999999975e+02 1.944970000000000027e+03
1.570000000000000007e-01 1.472884999999999889e-01 1.752680000000000149e+01 1.278369999999999891e+02 1.944760000000000218e+03
1.580000000000000016e-01 1.472685000000000244e-01 1.725359999999999872e+01 1.274540000000000077e+02 1.944579999999999927e+03
1.590000000000000024e-01 1.472519999999999940e-01 1.702505000000000024e+01 1.271525000000000034e+02 1.944420000000000073e+03
