# t [s], A [cm^2], U [cm/s], P [cPa], c [cm/s]
1.000000000000000021e-03 1.364049999999999985e-01 1.388718499999999911e-01 1.033619999999999948e+02 1.836894999999999982e+03
2.000000000000000042e-03 1.363900000000000112e-01 1.477622499999999839e+00 1.007936499999999995e+02 1.836724999999999909e+03
3.000000000000000062e-03 1.363135000000000041e-01 3.202536000000000271e+00 9.739730000000000132e+01 1.835920000000000073e+03
4.000000000000000083e-03 1.361915000000000209e-01 5.143005500000000119e+00 9.335425000000000750e+01 1.834670000000000073e+03
5.000000000000000104e-03 1.360434999999999839e-01 7.246658999999999295e+00 8.924690000000001078e+01 1.833170000000000073e+03
6.000000000000000125e-03 1.358869999999999800e-01 9.443725000000000591e+00 8.550785000000000480e+01 1.831585000000000036e+03
7.000000000000000146e-03 1.357325000000000059e-01 1.161669499999999999e+01 8.227994999999999948e+01 1.830045000000000073e+03
8.000000000000000167e-03 1.355839999999999823e-01 1.363548999999999900e+01 7.947069999999999368e+01 1.828585000000000036e+03
9.000000000000001055e-03 1.354445000000000232e-01 1.542543000000000042e+01 7.694830000000000325e+01 1.827240000000000009e+03
1.000000000000000194e-02 1.353165000000000062e-01 1.698225000000000051e+01 7.468580000000000041e+01 1.826014999999999873e+03
1.099999999999999936e-02 1.352025000000000032e-01 1.832714999999999961e+01 7.272165000000001100e+01 1.824930000000000064e+03
1.200000000000000025e-02 1.351034999999999875e-01 1.947660000000000124e+01 7.107585000000000264e+01 1.824005000000000109e+03
1.300000000000000114e-02 1.350184999999999858e-01 2.044144999999999968e+01 6.973359999999999559e+01 1.823224999999999909e+03
1.400000000000000203e-02 1.349484999999999990e-01 2.122970000000000113e+01 6.865845000000000198e+01 1.822579999999999927e+03
1.499999999999999944e-02 1.348910000000000109e-01 2.184499999999999886e+01 6.779380000000000450e+01 1.822059999999999945e+03
1.600000000000000033e-02 1.348429999999999906e-01 2.229325000000000045e+01 6.707429999999999382e+01 1.821634999999999991e+03
1.700000000000000122e-02 1.348030000000000062e-01 2.259839999999999804e+01 6.646429999999999438e+01 1.821289999999999964e+03
1.800000000000000211e-02 1.347714999999999885e-01 2.281255000000000166e+01 6.599850000000000705e+01 1.821019999999999982e+03
1.900000000000000300e-02 1.347500000000000087e-01 2.300889999999999702e+01 6.578624999999999545e+01 1.820839999999999918e+03
2.000000000000000042e-02 1.347415000000000140e-01 2.325914999999999822e+01 6.596805000000000518e+01 1.820779999999999973e+03
2.100000000000000130e-02 1.347490000000000077e-01 2.360844999999999771e+01 6.664820000000000277e+01 1.820860000000000127e+03
2.200000000000000219e-02 1.347740000000000049e-01 2.406054999999999922e+01 6.783894999999999698e+01 1.821105000000000018e+03
2.299999999999999961e-02 1.348145000000000038e-01 2.457845000000000013e+01 6.944214999999999804e+01 1.821490000000000009e+03
2.400000000000000050e-02 1.348665000000000003e-01 2.509810000000000230e+01 7.127060000000000173e+01 1.821985000000000127e+03
2.500000000000000139e-02 1.349245000000000028e-01 2.554874999999999829e+01 7.309739999999999327e+01 1.822539999999999964e+03
2.600000000000000228e-02 1.349815000000000043e-01 2.587205000000000155e+01 7.471219999999999573e+01 1.823090000000000146e+03
2.700000000000000316e-02 1.350330000000000141e-01 2.603495000000000203e+01 7.596780000000001110e+01 1.823594999999999800e+03
2.800000000000000058e-02 1.350755000000000150e-01 2.603440000000000154e+01 7.680414999999999281e+01 1.824014999999999873e+03
2.900000000000000147e-02 1.351074999999999915e-01 2.589290000000000092e+01 7.724745000000000061e+01 1.824335000000000036e+03
3.000000000000000236e-02 1.351295000000000135e-01 2.564840000000000231e+01 7.738804999999999268e+01 1.824565000000000055e+03
3.099999999999999978e-02 1.351434999999999997e-01 2.534179999999999922e+01 7.734510000000000218e+01 1.824710000000000036e+03
3.200000000000000067e-02 1.351519999999999944e-01 2.500580000000000069e+01 7.723050000000000637e+01 1.824800000000000182e+03
3.300000000000000155e-02 1.351574999999999860e-01 2.465805000000000291e+01 7.712069999999999936e+01 1.824860000000000127e+03
3.400000000000000244e-02 1.351614999999999900e-01 2.429930000000000234e+01 7.704345000000000709e+01 1.824905000000000200e+03
3.500000000000000333e-02 1.351644999999999930e-01 2.391700000000000159e+01 7.698015000000000896e+01 1.824934999999999945e+03
3.600000000000000422e-02 1.351654999999999940e-01 2.349210000000000065e+01 7.688040000000000873e+01 1.824949999999999818e+03
3.700000000000000511e-02 1.351634999999999920e-01 2.300710000000000122e+01 7.668449999999999989e+01 1.824940000000000055e+03
3.799999999999999906e-02 1.351574999999999860e-01 2.245349999999999824e+01 7.634659999999999513e+01 1.824884999999999991e+03
3.899999999999999994e-02 1.351465000000000027e-01 2.183670000000000044e+01 7.585290000000000532e+01 1.824785000000000082e+03
4.000000000000000083e-02 1.351304999999999867e-01 2.117729999999999890e+01 7.523120000000000118e+01 1.824644999999999982e+03
4.100000000000000172e-02 1.351114999999999955e-01 2.050874999999999915e+01 7.454955000000001064e+01 1.824465000000000146e+03
4.200000000000000261e-02 1.350914999999999755e-01 1.987209999999999965e+01 7.390455000000000041e+01 1.824280000000000200e+03
4.300000000000000350e-02 1.350729999999999986e-01 1.930819999999999936e+01 7.340279999999999916e+01 1.824110000000000127e+03
4.400000000000000439e-02 1.350594999999999990e-01 1.885079999999999956e+01 7.313929999999999154e+01 1.823980000000000018e+03
4.499999999999999833e-02 1.350540000000000074e-01 1.852029999999999887e+01 7.317910000000000537e+01 1.823914999999999964e+03
4.599999999999999922e-02 1.350569999999999826e-01 1.832099999999999795e+01 7.354470000000000596e+01 1.823940000000000055e+03
4.700000000000000011e-02 1.350695000000000090e-01 1.824074999999999847e+01 7.421260000000000900e+01 1.824049999999999955e+03
4.800000000000000100e-02 1.350905000000000022e-01 1.825370000000000203e+01 7.511764999999999759e+01 1.824240000000000009e+03
4.900000000000000189e-02 1.351189999999999891e-01 1.832460000000000022e+01 7.616479999999999961e+01 1.824500000000000000e+03
5.000000000000000278e-02 1.351509999999999934e-01 1.841440000000000055e+01 7.724379999999999313e+01 1.824795000000000073e+03
5.100000000000000366e-02 1.351844999999999852e-01 1.848499999999999943e+01 7.824535000000000196e+01 1.825105000000000018e+03
5.200000000000000455e-02 1.352150000000000019e-01 1.850370000000000203e+01 7.907420000000000471e+01 1.825394999999999982e+03
5.300000000000000544e-02 1.352415000000000145e-01 1.844565000000000055e+01 7.965860000000000696e+01 1.825650000000000091e+03
5.399999999999999939e-02 1.352605000000000057e-01 1.829495000000000005e+01 7.995529999999999404e+01 1.825835000000000036e+03
5.500000000000000028e-02 1.352710000000000024e-01 1.804460000000000264e+01 7.994894999999999641e+01 1.825940000000000055e+03
5.600000000000000117e-02 1.352730000000000044e-01 1.769460000000000122e+01 7.964869999999999095e+01 1.825960000000000036e+03
5.700000000000000205e-02 1.352654999999999830e-01 1.725059999999999860e+01 7.908135000000000048e+01 1.825894999999999982e+03
5.800000000000000294e-02 1.352490000000000081e-01 1.672165000000000035e+01 7.828475000000000250e+01 1.825750000000000000e+03
5.900000000000000383e-02 1.352250000000000119e-01 1.611850000000000094e+01 7.730125000000001023e+01 1.825525000000000091e+03
6.000000000000000472e-02 1.351944999999999952e-01 1.545260000000000034e+01 7.617284999999999684e+01 1.825240000000000009e+03
6.099999999999999867e-02 1.351580000000000004e-01 1.473564999999999969e+01 7.493829999999999814e+01 1.824900000000000091e+03
6.199999999999999956e-02 1.351175000000000015e-01 1.397960000000000136e+01 7.363275000000000148e+01 1.824519999999999982e+03
6.300000000000000044e-02 1.350739999999999996e-01 1.319715000000000060e+01 7.228849999999999909e+01 1.824105000000000018e+03
6.400000000000000133e-02 1.350280000000000091e-01 1.240213499999999947e+01 7.093680000000000518e+01 1.823674999999999955e+03
6.500000000000000222e-02 1.349810000000000176e-01 1.161049500000000023e+01 6.961029999999999518e+01 1.823230000000000018e+03
6.600000000000000311e-02 1.349345000000000128e-01 1.084022000000000041e+01 6.834475000000000477e+01 1.822789999999999964e+03
6.700000000000000400e-02 1.348894999999999955e-01 1.011157000000000039e+01 6.718019999999999925e+01 1.822365000000000009e+03
6.800000000000000488e-02 1.348479999999999956e-01 9.446729999999998739e+00 6.616110000000000468e+01 1.821965000000000146e+03
6.900000000000000577e-02 1.348109999999999864e-01 8.868954999999999700e+00 6.533504999999999541e+01 1.821619999999999891e+03
7.000000000000000666e-02 1.347800000000000109e-01 8.401794999999999902e+00 6.475100000000000477e+01 1.821320000000000164e+03
7.100000000000000755e-02 1.347579999999999889e-01 8.067864999999999398e+00 6.445680000000000121e+01 1.821099999999999909e+03
7.200000000000000844e-02 1.347455000000000180e-01 7.887674999999999770e+00 6.449615000000000009e+01 1.820970000000000027e+03
7.300000000000000933e-02 1.347444999999999893e-01 7.878545000000000798e+00 6.490574999999999761e+01 1.820950000000000045e+03
7.399999999999999634e-02 1.347554999999999725e-01 8.053684999999999761e+00 6.571325000000000216e+01 1.821045000000000073e+03
7.499999999999999722e-02 1.347804999999999975e-01 8.421545000000000059e+00 6.693520000000000891e+01 1.821264999999999873e+03
7.599999999999999811e-02 1.348194999999999810e-01 8.985440000000000538e+00 6.857604999999999507e+01 1.821619999999999891e+03
7.699999999999999900e-02 1.348729999999999929e-01 9.743434999999999846e+00 7.062839999999999918e+01 1.822115000000000009e+03
7.799999999999999989e-02 1.349410000000000054e-01 1.068871500000000019e+01 7.307309999999999661e+01 1.822740000000000009e+03
7.900000000000000078e-02 1.350230000000000041e-01 1.180974499999999949e+01 7.588100000000000023e+01 1.823505000000000109e+03
8.000000000000000167e-02 1.351180000000000159e-01 1.309136999999999951e+01 7.901454999999999984e+01 1.824390000000000100e+03
8.100000000000000255e-02 1.352249999999999841e-01 1.451510000000000034e+01 8.243004999999999427e+01 1.825394999999999982e+03
8.200000000000000344e-02 1.353425000000000045e-01 1.606044999999999945e+01 8.607999999999999829e+01 1.826500000000000000e+03
8.300000000000000433e-02 1.354690000000000061e-01 1.770550000000000068e+01 8.991535000000000366e+01 1.827690000000000055e+03
8.400000000000000522e-02 1.356030000000000013e-01 1.942815000000000225e+01 9.388824999999999932e+01 1.828960000000000036e+03
8.500000000000000611e-02 1.357430000000000025e-01 2.120635000000000048e+01 9.795289999999999964e+01 1.830289999999999964e+03
8.600000000000000699e-02 1.358869999999999800e-01 2.301955000000000240e+01 1.020686499999999910e+02 1.831664999999999964e+03
8.700000000000000788e-02 1.360345000000000026e-01 2.484850000000000136e+01 1.061999500000000012e+02 1.833074999999999818e+03
8.800000000000000877e-02 1.361835000000000129e-01 2.667629999999999768e+01 1.103179999999999978e+02 1.834500000000000000e+03
8.899999999999999578e-02 1.363329999999999820e-01 2.848815000000000097e+01 1.144004999999999939e+02 1.835940000000000055e+03
8.999999999999999667e-02 1.364825000000000066e-01 3.027154999999999774e+01 1.184300000000000068e+02 1.837380000000000109e+03
9.099999999999999756e-02 1.366314999999999891e-01 3.201604999999999990e+01 1.223954999999999984e+02 1.838820000000000164e+03
9.199999999999999845e-02 1.367784999999999973e-01 3.371345000000000169e+01 1.262900000000000063e+02 1.840244999999999891e+03
9.299999999999999933e-02 1.369245000000000045e-01 3.535689999999999600e+01 1.301109999999999900e+02 1.841654999999999973e+03
9.400000000000000022e-02 1.370675000000000088e-01 3.694095000000000084e+01 1.338555000000000064e+02 1.843054999999999836e+03
9.500000000000000111e-02 1.372090000000000254e-01 3.846115000000000350e+01 1.375240000000000009e+02 1.844429999999999836e+03
9.600000000000000200e-02 1.373480000000000256e-01 3.991349999999999909e+01 1.411150000000000091e+02 1.845785000000000082e+03
9.700000000000000289e-02 1.374845000000000095e-01 4.129469999999999885e+01 1.446264999999999930e+02 1.847119999999999891e+03
9.800000000000000377e-02 1.376185000000000047e-01 4.260139999999999816e+01 1.480554999999999950e+02 1.848434999999999945e+03
9.900000000000000466e-02 1.377494999999999969e-01 4.383055000000000234e+01 1.513975000000000080e+02 1.849720000000000027e+03
1.000000000000000056e-01 1.378774999999999862e-01 4.497915000000000418e+01 1.546454999999999984e+02 1.850980000000000018e+03
1.010000000000000064e-01 1.380020000000000135e-01 4.604430000000000689e+01 1.577930000000000064e+02 1.852215000000000146e+03
1.020000000000000073e-01 1.381235000000000102e-01 4.702315000000000111e+01 1.608315000000000055e+02 1.853409999999999854e+03
1.030000000000000082e-01 1.382404999999999884e-01 4.791315000000000168e+01 1.637504999999999882e+02 1.854569999999999936e+03
1.040000000000000091e-01 1.383540000000000048e-01 4.871184999999999832e+01 1.665434999999999945e+02 1.855690000000000055e+03
1.050000000000000100e-01 1.384630000000000027e-01 4.941734999999999900e+01 1.691995000000000005e+02 1.856764999999999873e+03
1.059999999999999970e-01 1.385669999999999957e-01 5.002769999999999584e+01 1.717110000000000127e+02 1.857799999999999955e+03
1.069999999999999979e-01 1.386654999999999971e-01 5.054149999999999920e+01 1.740704999999999814e+02 1.858785000000000082e+03
1.079999999999999988e-01 1.387590000000000212e-01 5.095765000000000100e+01 1.762699999999999818e+02 1.859715000000000146e+03
1.089999999999999997e-01 1.388464999999999838e-01 5.127535000000000309e+01 1.783034999999999854e+02 1.860590000000000146e+03
1.100000000000000006e-01 1.389285000000000103e-01 5.149420000000000641e+01 1.801649999999999920e+02 1.861409999999999854e+03
1.110000000000000014e-01 1.390035000000000021e-01 5.161400000000000432e+01 1.818494999999999777e+02 1.862164999999999964e+03
1.120000000000000023e-01 1.390724999999999878e-01 5.163514999999999588e+01 1.833539999999999850e+02 1.862855000000000018e+03
1.130000000000000032e-01 1.391355000000000230e-01 5.155835000000000434e+01 1.846745000000000232e+02 1.863490000000000009e+03
1.140000000000000041e-01 1.391904999999999948e-01 5.138504999999999967e+01 1.858100000000000023e+02 1.864054999999999836e+03
1.150000000000000050e-01 1.392400000000000027e-01 5.111714999999999520e+01 1.867599999999999909e+02 1.864545000000000073e+03
1.160000000000000059e-01 1.392820000000000169e-01 5.075740000000000407e+01 1.875260000000000105e+02 1.864974999999999909e+03
1.170000000000000068e-01 1.393174999999999830e-01 5.030920000000000414e+01 1.881115000000000066e+02 1.865340000000000146e+03
1.180000000000000077e-01 1.393459999999999976e-01 4.977689999999999770e+01 1.885219999999999914e+02 1.865634999999999991e+03
1.190000000000000085e-01 1.393685000000000063e-01 4.916590000000000060e+01 1.887640000000000100e+02 1.865860000000000127e+03
1.200000000000000094e-01 1.393840000000000079e-01 4.848205000000000098e+01 1.888480000000000132e+02 1.866029999999999973e+03
1.209999999999999964e-01 1.393945000000000045e-01 4.773234999999999673e+01 1.887855000000000132e+02 1.866139999999999873e+03
1.219999999999999973e-01 1.393984999999999808e-01 4.692430000000000234e+01 1.885894999999999868e+02 1.866195000000000164e+03
1.229999999999999982e-01 1.393979999999999941e-01 4.606584999999999752e+01 1.882750000000000057e+02 1.866194999999999936e+03
1.239999999999999991e-01 1.393925000000000025e-01 4.516544999999999987e+01 1.878564999999999827e+02 1.866150000000000091e+03
1.250000000000000000e-01 1.393830000000000069e-01 4.423149999999999693e+01 1.873505000000000109e+02 1.866059999999999945e+03
1.260000000000000009e-01 1.393694999999999795e-01 4.327254999999999541e+01 1.867724999999999795e+02 1.865940000000000055e+03
1.270000000000000018e-01 1.393534999999999913e-01 4.229670000000000130e+01 1.861384999999999934e+02 1.865779999999999973e+03
1.280000000000000027e-01 1.393345000000000000e-01 4.131159999999999854e+01 1.854610000000000127e+02 1.865594999999999800e+03
1.290000000000000036e-01 1.393139999999999934e-01 4.032425000000000637e+01 1.847545000000000073e+02 1.865394999999999982e+03
1.300000000000000044e-01 1.392909999999999981e-01 3.934090000000000487e+01 1.840285000000000082e+02 1.865175000000000182e+03
1.310000000000000053e-01 1.392674999999999885e-01 3.836674999999999613e+01 1.832914999999999850e+02 1.864940000000000055e+03
1.320000000000000062e-01 1.392430000000000057e-01 3.740619999999999834e+01 1.825519999999999925e+02 1.864695000000000164e+03
1.330000000000000071e-01 1.392180000000000084e-01 3.646245000000000402e+01 1.818129999999999882e+02 1.864445000000000164e+03
1.340000000000000080e-01 1.391924999999999968e-01 3.553764999999999930e+01 1.810774999999999864e+02 1.864190000000000055e+03
1.350000000000000089e-01 1.391664999999999985e-01 3.463295000000000101e+01 1.803455000000000155e+02 1.863934999999999945e+03
1.360000000000000098e-01 1.391405000000000003e-01 3.374860000000000326e+01 1.796154999999999973e+02 1.863680000000000064e+03
1.370000000000000107e-01 1.391140000000000154e-01 3.288380000000000081e+01 1.788840000000000146e+02 1.863414999999999964e+03
1.380000000000000115e-01 1.390875000000000028e-01 3.203699999999999903e+01 1.781469999999999914e+02 1.863144999999999982e+03
1.390000000000000124e-01 1.390599999999999892e-01 3.120604999999999762e+01 1.773975000000000080e+02 1.862875000000000000e+03
1.400000000000000133e-01 1.390325000000000033e-01 3.038814999999999955e+01 1.766299999999999955e+02 1.862599999999999909e+03
1.410000000000000142e-01 1.390044999999999753e-01 2.958024999999999949e+01 1.758365000000000009e+02 1.862315000000000055e+03
1.420000000000000151e-01 1.389745000000000008e-01 2.877899999999999991e+01 1.750105000000000075e+02 1.862025000000000091e+03
1.430000000000000160e-01 1.389440000000000119e-01 2.798100000000000165e+01 1.741444999999999936e+02 1.861715000000000146e+03
1.440000000000000169e-01 1.389120000000000077e-01 2.718309999999999960e+01 1.732319999999999993e+02 1.861400000000000091e+03
1.450000000000000178e-01 1.388780000000000014e-01 2.638214999999999932e+01 1.722685000000000173e+02 1.861065000000000055e+03
1.459999999999999909e-01 1.388424999999999798e-01 2.557554999999999978e+01 1.712485000000000070e+02 1.860715000000000146e+03
1.469999999999999918e-01 1.388050000000000117e-01 2.476120000000000232e+01 1.701690000000000111e+02 1.860345000000000027e+03
1.479999999999999927e-01 1.387654999999999861e-01 2.393755000000000166e+01 1.690289999999999964e+02 1.859949999999999818e+03
1.489999999999999936e-01 1.387234999999999996e-01 2.310374999999999801e+01 1.678280000000000030e+02 1.859535000000000082e+03
1.499999999999999944e-01 1.386795000000000111e-01 2.225970000000000226e+01 1.665670000000000073e+02 1.859099999999999909e+03
1.509999999999999953e-01 1.386334999999999928e-01 2.140610000000000213e+01 1.652504999999999882e+02 1.858650000000000091e+03
1.519999999999999962e-01 1.385855000000000004e-01 2.054429999999999978e+01 1.638829999999999814e+02 1.858174999999999955e+03
1.529999999999999971e-01 1.385355000000000059e-01 1.967650000000000077e+01 1.624714999999999918e+02 1.857684999999999945e+03
1.539999999999999980e-01 1.384834999999999816e-01 1.880560000000000187e+01 1.610225000000000080e+02 1.857179999999999836e+03
1.549999999999999989e-01 1.384309999999999985e-01 1.793505000000000038e+01 1.595469999999999970e+02 1.856659999999999854e+03
1.559999999999999998e-01 1.383770000000000000e-01 1.706889999999999930e+01 1.580540000000000020e+02 1.856130000000000109e+03
1.570000000000000007e-01 1.383220000000000005e-01 1.621144999999999925e+01 1.565550000000000068e+02 1.855590000000000146e+03
1.580000000000000016e-01 1.382665000000000144e-01 1.536739999999999995e+01 1.550600000000000023e+02 1.855050000000000182e+03
1.590000000000000024e-01 1.382120000000000015e-01 1.454154999999999909e+01 1.535810000000000173e+02 1.854505000000000109e+03
