# t [s], A [cm^2], U [cm/s], P [cPa], c [cm/s]
1.000000000000000021e-03 5.442974999999999897e-01 2.657650000000004453e-03 9.789279999999999404e+01 1.451625000000000000e+03
2.000000000000000042e-03 5.442905000000000104e-01 5.510200000000001555e-04 9.787640000000000384e+01 1.451619999999999891e+03
3.000000000000000062e-03 5.443289999999999518e-01 6.998099999999998766e-02 9.793965000000000032e+01 1.451639999999999873e+03
4.000000000000000083e-03 5.443765000000000409e-01 1.560361000000000109e-01 9.804130000000000678e+01 1.451664999999999964e+03
5.000000000000000104e-03 5.443755000000000122e-01 1.597129999999999939e-01 9.804570000000001073e+01 1.451670000000000073e+03
6.000000000000000125e-03 5.443369999999999598e-01 9.279600000000000348e-02 9.792785000000000650e+01 1.451650000000000091e+03
7.000000000000000146e-03 5.442949999999999733e-01 1.540799999999997727e-02 9.774190000000000111e+01 1.451610000000000127e+03
8.000000000000000167e-03 5.442434999999999912e-01 -8.506799999999997697e-02 9.748404999999999632e+01 1.451555000000000064e+03
9.000000000000001055e-03 5.441534999999999567e-01 -2.634749999999999037e-01 9.708889999999999532e+01 1.451465000000000146e+03
1.000000000000000194e-02 5.440150000000000263e-01 -5.391099999999999781e-01 9.650960000000000605e+01 1.451335000000000036e+03
1.099999999999999936e-02 5.438220000000000276e-01 -9.155149999999999677e-01 9.571340000000000714e+01 1.451144999999999982e+03
1.200000000000000025e-02 5.435630000000000184e-01 -1.401790000000000092e+00 9.466140000000000043e+01 1.450894999999999982e+03
1.300000000000000114e-02 5.432369999999999699e-01 -1.987835000000000019e+00 9.333474999999999966e+01 1.450569999999999936e+03
1.400000000000000203e-02 5.428619999999999557e-01 -2.618439999999999657e+00 9.177160000000000650e+01 1.450184999999999945e+03
1.499999999999999944e-02 5.424759999999999582e-01 -3.201340000000000074e+00 9.007099999999999795e+01 1.449744999999999891e+03
1.600000000000000033e-02 5.421160000000000423e-01 -3.641239999999999810e+00 8.836060000000000514e+01 1.449284999999999854e+03
1.700000000000000122e-02 5.418065000000000797e-01 -3.872793000000000152e+00 8.675284999999999513e+01 1.448835000000000036e+03
1.800000000000000211e-02 5.415514999999999635e-01 -3.875766000000000044e+00 8.531430000000000291e+01 1.448409999999999854e+03
1.900000000000000300e-02 5.413384999999999447e-01 -3.671872299999999978e+00 8.405599999999999739e+01 1.448014999999999873e+03
2.000000000000000042e-02 5.411459999999999049e-01 -3.310327800000000043e+00 8.294219999999999970e+01 1.447644999999999982e+03
2.100000000000000130e-02 5.409494999999999720e-01 -2.849463000000000079e+00 8.190959999999999752e+01 1.447295000000000073e+03
2.200000000000000219e-02 5.407325000000000603e-01 -2.339877500000000055e+00 8.089005000000000223e+01 1.446949999999999818e+03
2.299999999999999961e-02 5.404849999999999932e-01 -1.813165000000000138e+00 7.983084999999999809e+01 1.446590000000000146e+03
2.400000000000000050e-02 5.402095000000000091e-01 -1.278785000000000061e+00 7.870624999999999716e+01 1.446224999999999909e+03
2.500000000000000139e-02 5.399144999999999639e-01 -7.291550000000002196e-01 7.751810000000000400e+01 1.445840000000000146e+03
2.600000000000000228e-02 5.396110000000000628e-01 -1.502699999999999037e-01 7.628700000000000614e+01 1.445445000000000164e+03
2.700000000000000316e-02 5.393065000000000220e-01 4.668549999999997979e-01 7.503770000000000095e+01 1.445050000000000182e+03
2.800000000000000058e-02 5.390044999999999975e-01 1.117685000000000040e+00 7.378620000000000800e+01 1.444644999999999982e+03
2.900000000000000147e-02 5.386990000000000389e-01 1.780904999999999960e+00 7.253024999999999523e+01 1.444239999999999782e+03
3.000000000000000236e-02 5.383809999999999985e-01 2.420430000000000526e+00 7.124725000000000819e+01 1.443829999999999927e+03
3.099999999999999978e-02 5.380350000000000410e-01 2.991449999999999942e+00 6.989789999999999281e+01 1.443405000000000200e+03
3.200000000000000067e-02 5.376480000000000148e-01 3.448825000000000252e+00 6.843474999999999397e+01 1.442949999999999818e+03
3.300000000000000155e-02 5.372099999999999653e-01 3.755809999999999871e+00 6.681385000000000218e+01 1.442460000000000036e+03
3.400000000000000244e-02 5.367165000000000408e-01 3.891369999999999330e+00 6.500594999999999857e+01 1.441930000000000064e+03
3.500000000000000333e-02 5.361725000000000518e-01 3.854415000000000369e+00 6.300570000000000448e+01 1.441344999999999800e+03
3.600000000000000422e-02 5.355885000000000229e-01 3.664379999999999971e+00 6.083650000000000091e+01 1.440730000000000018e+03
3.700000000000000511e-02 5.349835000000000562e-01 3.358050000000000423e+00 5.854959999999999809e+01 1.440079999999999927e+03
3.799999999999999906e-02 5.343795000000000073e-01 2.983659999999999535e+00 5.621880000000000166e+01 1.439414999999999964e+03
3.899999999999999994e-02 5.338000000000000522e-01 2.593865000000000087e+00 5.393205000000000382e+01 1.438755000000000109e+03
4.000000000000000083e-02 5.332675000000000054e-01 2.239630000000000454e+00 5.178125000000000000e+01 1.438125000000000000e+03
4.100000000000000172e-02 5.328000000000000513e-01 1.965074999999999683e+00 4.985360000000000014e+01 1.437545000000000073e+03
4.200000000000000261e-02 5.324134999999999840e-01 1.805054999999999854e+00 4.822429999999999950e+01 1.437039999999999964e+03
4.300000000000000350e-02 5.321175000000000210e-01 1.784284999999999899e+00 4.695260000000000389e+01 1.436615000000000009e+03
4.400000000000000439e-02 5.319184999999999608e-01 1.918340000000000156e+00 4.607989999999999498e+01 1.436304999999999836e+03
4.499999999999999833e-02 5.318195000000000006e-01 2.215595500000000051e+00 4.563070000000000448e+01 1.436099999999999909e+03
4.599999999999999922e-02 5.318199999999999594e-01 2.679489999999999927e+00 4.561500000000000199e+01 1.436005000000000109e+03
4.700000000000000011e-02 5.319205000000000183e-01 3.310550000000000104e+00 4.603139999999999787e+01 1.436039999999999964e+03
4.800000000000000100e-02 5.321169999999999511e-01 4.107809999999999739e+00 4.687035000000000196e+01 1.436194999999999936e+03
4.900000000000000189e-02 5.324069999999999636e-01 5.069369999999999266e+00 4.811669999999999447e+01 1.436465000000000146e+03
5.000000000000000278e-02 5.327874999999999694e-01 6.192154999999999632e+00 4.975124999999999886e+01 1.436845000000000027e+03
5.100000000000000366e-02 5.332524999999999071e-01 7.471269999999999634e+00 5.175135000000000218e+01 1.437335000000000036e+03
5.200000000000000455e-02 5.337974999999999248e-01 8.898799999999999599e+00 5.409094999999999942e+01 1.437930000000000064e+03
5.300000000000000544e-02 5.344145000000000145e-01 1.046331499999999970e+01 5.674009999999999820e+01 1.438619999999999891e+03
5.399999999999999939e-02 5.350960000000000161e-01 1.214919999999999867e+01 5.966440000000000055e+01 1.439394999999999982e+03
5.500000000000000028e-02 5.358324999999999338e-01 1.393669999999999831e+01 6.282545000000000357e+01 1.440250000000000000e+03
5.600000000000000117e-02 5.366125000000000478e-01 1.580279499999999970e+01 6.618070000000000164e+01 1.441164999999999964e+03
5.700000000000000205e-02 5.374259999999999593e-01 1.772203999999999979e+01 6.968514999999999304e+01 1.442134999999999991e+03
5.800000000000000294e-02 5.382605000000000306e-01 1.966794999999999760e+01 7.329269999999999641e+01 1.443144999999999982e+03
5.900000000000000383e-02 5.391064999999999330e-01 2.161439999999999984e+01 7.695794999999999675e+01 1.444184999999999945e+03
6.000000000000000472e-02 5.399545000000000039e-01 2.353679999999999950e+01 8.063819999999999766e+01 1.445244999999999891e+03
6.099999999999999867e-02 5.407954999999999846e-01 2.541329999999999956e+01 8.429505000000000337e+01 1.446305000000000064e+03
6.199999999999999956e-02 5.416225000000000067e-01 2.722545000000000215e+01 8.789605000000000246e+01 1.447365000000000009e+03
6.300000000000000044e-02 5.424314999999999554e-01 2.895884999999999820e+01 9.141564999999999941e+01 1.448414999999999964e+03
6.400000000000000133e-02 5.432179999999999787e-01 3.060285000000000011e+01 9.483485000000000298e+01 1.449440000000000055e+03
6.500000000000000222e-02 5.439809999999999368e-01 3.215075000000000216e+01 9.814339999999999975e+01 1.450444999999999936e+03
6.600000000000000311e-02 5.447199999999999820e-01 3.359929999999999950e+01 1.013353500000000054e+02 1.451430000000000064e+03
6.700000000000000400e-02 5.454364999999999908e-01 3.494834999999999781e+01 1.044132999999999925e+02 1.452380000000000109e+03
6.800000000000000488e-02 5.461309999999999221e-01 3.619995000000000118e+01 1.073829000000000065e+02 1.453305000000000064e+03
6.900000000000000577e-02 5.468070000000000430e-01 3.735829999999999984e+01 1.102539999999999907e+02 1.454204999999999927e+03
7.000000000000000666e-02 5.474669999999999259e-01 3.842869999999999919e+01 1.130390000000000015e+02 1.455079999999999927e+03
7.100000000000000755e-02 5.481139999999999901e-01 3.941705000000000325e+01 1.157510000000000048e+02 1.455940000000000055e+03
7.200000000000000844e-02 5.487505000000000299e-01 4.032965000000000089e+01 1.184035000000000082e+02 1.456775000000000091e+03
7.300000000000000933e-02 5.493795000000000206e-01 4.117234999999999445e+01 1.210084999999999980e+02 1.457599999999999909e+03
7.399999999999999634e-02 5.500015000000000320e-01 4.195029999999999859e+01 1.235749999999999886e+02 1.458414999999999964e+03
7.499999999999999722e-02 5.506185000000000107e-01 4.266755000000000564e+01 1.261105000000000018e+02 1.459215000000000146e+03
7.599999999999999811e-02 5.512305000000000677e-01 4.332694999999999652e+01 1.286179999999999950e+02 1.460005000000000109e+03
7.699999999999999900e-02 5.518365000000000631e-01 4.392964999999999520e+01 1.310969999999999800e+02 1.460789999999999964e+03
7.799999999999999989e-02 5.524355000000000793e-01 4.447549999999999670e+01 1.335425000000000182e+02 1.461569999999999936e+03
7.900000000000000078e-02 5.530245000000000299e-01 4.496289999999999765e+01 1.359470000000000027e+02 1.462329999999999927e+03
8.000000000000000167e-02 5.536010000000000097e-01 4.538904999999999745e+01 1.382989999999999782e+02 1.463079999999999927e+03
8.100000000000000255e-02 5.541610000000000147e-01 4.575030000000000285e+01 1.405849999999999795e+02 1.463809999999999945e+03
8.200000000000000344e-02 5.547009999999999996e-01 4.604234999999999900e+01 1.427900000000000205e+02 1.464509999999999991e+03
8.300000000000000433e-02 5.552179999999999893e-01 4.626069999999999993e+01 1.448969999999999914e+02 1.465195000000000164e+03
8.400000000000000522e-02 5.557064999999999921e-01 4.640099999999999625e+01 1.468899999999999864e+02 1.465840000000000146e+03
8.500000000000000611e-02 5.561639999999999917e-01 4.645940000000000225e+01 1.487529999999999859e+02 1.466449999999999818e+03
8.600000000000000699e-02 5.565869999999999429e-01 4.643280000000000030e+01 1.504735000000000014e+02 1.467025000000000091e+03
8.700000000000000788e-02 5.569729999999999404e-01 4.631905000000000427e+01 1.520389999999999873e+02 1.467550000000000182e+03
8.800000000000000877e-02 5.573204999999999965e-01 4.611719999999999686e+01 1.534399999999999977e+02 1.468029999999999973e+03
8.899999999999999578e-02 5.576280000000000125e-01 4.582744999999999891e+01 1.546709999999999923e+02 1.468460000000000036e+03
8.999999999999999667e-02 5.578950000000000298e-01 4.545165000000000077e+01 1.557300000000000182e+02 1.468839999999999918e+03
9.099999999999999756e-02 5.581215000000000481e-01 4.499285000000000423e+01 1.566154999999999973e+02 1.469170000000000073e+03
9.199999999999999845e-02 5.583080000000000265e-01 4.445524999999999949e+01 1.573324999999999818e+02 1.469445000000000164e+03
9.299999999999999933e-02 5.584569999999999812e-01 4.384465000000000146e+01 1.578870000000000005e+02 1.469674999999999955e+03
9.400000000000000022e-02 5.585709999999999287e-01 4.316774999999999807e+01 1.582875000000000227e+02 1.469855000000000018e+03
9.500000000000000111e-02 5.586514999999999675e-01 4.243234999999999957e+01 1.585469999999999970e+02 1.469985000000000127e+03
9.600000000000000200e-02 5.587024999999999908e-01 4.164695000000000391e+01 1.586784999999999854e+02 1.470079999999999927e+03
9.700000000000000289e-02 5.587275000000000436e-01 4.082070000000000221e+01 1.586965000000000146e+02 1.470134999999999991e+03
9.800000000000000377e-02 5.587294999999999900e-01 3.996314999999999884e+01 1.586179999999999950e+02 1.470159999999999854e+03
9.900000000000000466e-02 5.587130000000000152e-01 3.908384999999999820e+01 1.584590000000000032e+02 1.470154999999999973e+03
1.000000000000000056e-01 5.586809999999999832e-01 3.819214999999999804e+01 1.582359999999999900e+02 1.470119999999999891e+03
1.010000000000000064e-01 5.586385000000000378e-01 3.729715000000000202e+01 1.579655000000000200e+02 1.470069999999999936e+03
1.020000000000000073e-01 5.585875000000000146e-01 3.640694999999999482e+01 1.576619999999999777e+02 1.470005000000000109e+03
1.030000000000000082e-01 5.585320000000000285e-01 3.552894999999999470e+01 1.573405000000000200e+02 1.469934999999999945e+03
1.040000000000000091e-01 5.584735000000000671e-01 3.466924999999999812e+01 1.570110000000000241e+02 1.469849999999999909e+03
1.050000000000000100e-01 5.584149999999999947e-01 3.383270000000000266e+01 1.566850000000000023e+02 1.469760000000000218e+03
1.059999999999999970e-01 5.583575000000000621e-01 3.302270000000000039e+01 1.563689999999999998e+02 1.469674999999999955e+03
1.069999999999999979e-01 5.583019999999999650e-01 3.224114999999999753e+01 1.560670000000000073e+02 1.469585000000000036e+03
1.079999999999999988e-01 5.582489999999999952e-01 3.148855000000000359e+01 1.557819999999999823e+02 1.469500000000000000e+03
1.089999999999999997e-01 5.581979999999999720e-01 3.076389999999999958e+01 1.555144999999999982e+02 1.469414999999999964e+03
1.100000000000000006e-01 5.581490000000000062e-01 3.006510000000000105e+01 1.552605000000000075e+02 1.469340000000000146e+03
1.110000000000000014e-01 5.581000000000000405e-01 2.938875000000000171e+01 1.550165000000000077e+02 1.469259999999999991e+03
1.120000000000000023e-01 5.580505000000000049e-01 2.873080000000000211e+01 1.547760000000000105e+02 1.469184999999999945e+03
1.130000000000000032e-01 5.579975000000000351e-01 2.808650000000000091e+01 1.545319999999999823e+02 1.469105000000000018e+03
1.140000000000000041e-01 5.579399999999999915e-01 2.745070000000000121e+01 1.542764999999999986e+02 1.469025000000000091e+03
1.150000000000000050e-01 5.578764999999999974e-01 2.681820000000000093e+01 1.540010000000000048e+02 1.468940000000000055e+03
1.160000000000000059e-01 5.578049999999999953e-01 2.618374999999999986e+01 1.536979999999999791e+02 1.468845000000000027e+03
1.170000000000000068e-01 5.577235000000000387e-01 2.554265000000000185e+01 1.533600000000000136e+02 1.468744999999999891e+03
1.180000000000000077e-01 5.576309999999999878e-01 2.489065000000000083e+01 1.529795000000000016e+02 1.468630000000000109e+03
1.190000000000000085e-01 5.575265000000000359e-01 2.422419999999999973e+01 1.525520000000000209e+02 1.468505000000000109e+03
1.200000000000000094e-01 5.574090000000000433e-01 2.354059999999999775e+01 1.520734999999999957e+02 1.468365000000000009e+03
1.209999999999999964e-01 5.572789999999999688e-01 2.283814999999999884e+01 1.515415000000000134e+02 1.468210000000000036e+03
1.219999999999999973e-01 5.571355000000000057e-01 2.211609999999999943e+01 1.509560000000000173e+02 1.468045000000000073e+03
1.229999999999999982e-01 5.569800000000000306e-01 2.137474999999999881e+01 1.503174999999999955e+02 1.467860000000000127e+03
1.239999999999999991e-01 5.568130000000000024e-01 2.061540000000000106e+01 1.496295000000000073e+02 1.467659999999999854e+03
1.250000000000000000e-01 5.566360000000000197e-01 1.984045000000000059e+01 1.488969999999999914e+02 1.467450000000000045e+03
1.260000000000000009e-01 5.564504999999999590e-01 1.905315000000000225e+01 1.481264999999999930e+02 1.467230000000000018e+03
1.270000000000000018e-01 5.562584999999999891e-01 1.825750000000000028e+01 1.473254999999999768e+02 1.466994999999999891e+03
1.280000000000000027e-01 5.560620000000000562e-01 1.745830000000000126e+01 1.465015000000000214e+02 1.466755000000000109e+03
1.290000000000000036e-01 5.558625000000000371e-01 1.666094999999999970e+01 1.456655000000000086e+02 1.466509999999999991e+03
1.300000000000000044e-01 5.556645000000000056e-01 1.587105000000000032e+01 1.448265000000000100e+02 1.466264999999999873e+03
1.310000000000000053e-01 5.554685000000000317e-01 1.509455999999999953e+01 1.439954999999999927e+02 1.466009999999999991e+03
1.320000000000000062e-01 5.552774999999999794e-01 1.433742499999999964e+01 1.431819999999999879e+02 1.465769999999999982e+03
1.330000000000000071e-01 5.550939999999999763e-01 1.360536000000000101e+01 1.423960000000000150e+02 1.465529999999999973e+03
1.340000000000000080e-01 5.549200000000000799e-01 1.290379499999999879e+01 1.416465000000000032e+02 1.465299999999999955e+03
1.350000000000000089e-01 5.547564999999999857e-01 1.223756999999999984e+01 1.409410000000000025e+02 1.465079999999999927e+03
1.360000000000000098e-01 5.546059999999999324e-01 1.161087500000000006e+01 1.402869999999999777e+02 1.464875000000000000e+03
1.370000000000000107e-01 5.544689999999999896e-01 1.102708999999999939e+01 1.396895000000000095e+02 1.464679999999999836e+03
1.380000000000000115e-01 5.543460000000000054e-01 1.048867999999999867e+01 1.391519999999999868e+02 1.464505000000000109e+03
1.390000000000000124e-01 5.542380000000000084e-01 9.997165000000000745e+00 1.386765000000000043e+02 1.464345000000000027e+03
1.400000000000000133e-01 5.541445000000000398e-01 9.553005000000000635e+00 1.382624999999999886e+02 1.464200000000000045e+03
1.410000000000000142e-01 5.540644999999999598e-01 9.155670000000000641e+00 1.379105000000000132e+02 1.464079999999999927e+03
1.420000000000000151e-01 5.539985000000000603e-01 8.803785000000001304e+00 1.376154999999999973e+02 1.463970000000000027e+03
1.430000000000000160e-01 5.539435000000000331e-01 8.495025000000000048e+00 1.373735000000000070e+02 1.463880000000000109e+03
1.440000000000000169e-01 5.538994999999999891e-01 8.226359999999999673e+00 1.371795000000000186e+02 1.463795000000000073e+03
1.450000000000000178e-01 5.538644999999999818e-01 7.994209999999999816e+00 1.370260000000000105e+02 1.463735000000000127e+03
1.459999999999999909e-01 5.538365000000000649e-01 7.794454999999999245e+00 1.369060000000000059e+02 1.463679999999999836e+03
1.469999999999999918e-01 5.538134999999999586e-01 7.622780000000000555e+00 1.368125000000000000e+02 1.463634999999999991e+03
1.479999999999999927e-01 5.537944999999999673e-01 7.474705000000000155e+00 1.367365000000000066e+02 1.463595000000000027e+03
1.489999999999999936e-01 5.537769999999999637e-01 7.345814999999999984e+00 1.366709999999999923e+02 1.463559999999999945e+03
1.499999999999999944e-01 5.537600000000000300e-01 7.231835000000000235e+00 1.366095000000000255e+02 1.463534999999999854e+03
1.509999999999999953e-01 5.537419999999999565e-01 7.128790000000000404e+00 1.365455000000000041e+02 1.463500000000000000e+03
1.519999999999999962e-01 5.537214999999999776e-01 7.033104999999999940e+00 1.364735000000000014e+02 1.463474999999999909e+03
1.529999999999999971e-01 5.536980000000000235e-01 6.941629999999999967e+00 1.363890000000000100e+02 1.463440000000000055e+03
1.539999999999999980e-01 5.536704999999999544e-01 6.851734999999999687e+00 1.362880000000000109e+02 1.463405000000000200e+03
1.549999999999999989e-01 5.536385000000000334e-01 6.761314999999999742e+00 1.361694999999999993e+02 1.463365000000000009e+03
1.559999999999999998e-01 5.536024999999999974e-01 6.668764999999999610e+00 1.360310000000000059e+02 1.463319999999999936e+03
1.570000000000000007e-01 5.535615000000000396e-01 6.572985000000000078e+00 1.358729999999999905e+02 1.463275000000000091e+03
1.580000000000000016e-01 5.535170000000000368e-01 6.473340000000000316e+00 1.356954999999999814e+02 1.463220000000000027e+03
1.590000000000000024e-01 5.534675000000000011e-01 6.369604999999999961e+00 1.355000000000000000e+02 1.463159999999999854e+03
