# t [s], A [cm^2], U [cm/s], P [cPa], c [cm/s]
1.000000000000000021e-03 1.825515000000000054e-01 3.803752499999999981e-01 1.010848000000000013e+02 2.210860000000000127e+03
2.000000000000000042e-03 1.824945000000000039e-01 2.020011999999999919e+00 9.724735000000001151e+01 2.210340000000000146e+03
3.000000000000000062e-03 1.823524999999999729e-01 4.033915999999999613e+00 9.196379999999999200e+01 2.209074999999999818e+03
4.000000000000000083e-03 1.821659999999999946e-01 6.306395000000000195e+00 8.644554999999999723e+01 2.207445000000000164e+03
5.000000000000000104e-03 1.819735000000000102e-01 8.727710000000000079e+00 8.173095000000000709e+01 2.205779999999999745e+03
6.000000000000000125e-03 1.817920000000000091e-01 1.103991500000000059e+01 7.793860000000000809e+01 2.204230000000000018e+03
7.000000000000000146e-03 1.816234999999999933e-01 1.301036000000000037e+01 7.462829999999999586e+01 2.202824999999999818e+03
8.000000000000000167e-03 1.814729999999999954e-01 1.462377499999999841e+01 7.167059999999999320e+01 2.201590000000000146e+03
9.000000000000001055e-03 1.813445000000000196e-01 1.594320000000000093e+01 6.921625000000000227e+01 2.200550000000000182e+03
1.000000000000000194e-02 1.812400000000000122e-01 1.699555000000000149e+01 6.729229999999999734e+01 2.199715000000000146e+03
1.099999999999999936e-02 1.811574999999999991e-01 1.779990000000000094e+01 6.582945000000000846e+01 2.199064999999999600e+03
1.200000000000000025e-02 1.810930000000000040e-01 1.836475000000000080e+01 6.470985000000000298e+01 2.198560000000000400e+03
1.300000000000000114e-02 1.810414999999999941e-01 1.869344999999999857e+01 6.376154999999999973e+01 2.198170000000000073e+03
1.400000000000000203e-02 1.809995000000000076e-01 1.885265000000000057e+01 6.293934999999999746e+01 2.197855000000000018e+03
1.499999999999999944e-02 1.809709999999999930e-01 1.901170000000000115e+01 6.252839999999999776e+01 2.197649999999999636e+03
1.600000000000000033e-02 1.809689999999999910e-01 1.937349999999999994e+01 6.304609999999999559e+01 2.197650000000000091e+03
1.700000000000000122e-02 1.810035000000000116e-01 2.004845000000000255e+01 6.486979999999999791e+01 2.197925000000000182e+03
1.800000000000000211e-02 1.810755000000000003e-01 2.097800000000000153e+01 6.790439999999999543e+01 2.198510000000000218e+03
1.900000000000000300e-02 1.811745000000000161e-01 2.195754999999999768e+01 7.153570000000000562e+01 2.199315000000000055e+03
2.000000000000000042e-02 1.812779999999999947e-01 2.273189999999999955e+01 7.487539999999999907e+01 2.200170000000000073e+03
2.100000000000000130e-02 1.813655000000000128e-01 2.310474999999999923e+01 7.712899999999999068e+01 2.200904999999999745e+03
2.200000000000000219e-02 1.814199999999999979e-01 2.300939999999999941e+01 7.789504999999999768e+01 2.201380000000000109e+03
2.299999999999999961e-02 1.814359999999999862e-01 2.251644999999999897e+01 7.726975000000000193e+01 2.201550000000000182e+03
2.400000000000000050e-02 1.814209999999999989e-01 2.178470000000000084e+01 7.573695000000000732e+01 2.201445000000000164e+03
2.500000000000000139e-02 1.813870000000000204e-01 2.098489999999999966e+01 7.392010000000000502e+01 2.201184999999999945e+03
2.600000000000000228e-02 1.813474999999999948e-01 2.023310000000000031e+01 7.232189999999999941e+01 2.200869999999999891e+03
2.700000000000000316e-02 1.813124999999999876e-01 1.955964999999999776e+01 7.116104999999998881e+01 2.200574999999999818e+03
2.800000000000000058e-02 1.812829999999999997e-01 1.891884999999999906e+01 7.035325000000000273e+01 2.200335000000000036e+03
2.900000000000000147e-02 1.812564999999999871e-01 1.822735000000000127e+01 6.961564999999998804e+01 2.200119999999999891e+03
3.000000000000000236e-02 1.812254999999999838e-01 1.741349999999999909e+01 6.863419999999999277e+01 2.199869999999999891e+03
3.099999999999999978e-02 1.811849999999999850e-01 1.645745000000000147e+01 6.722489999999999100e+01 2.199539999999999964e+03
3.200000000000000067e-02 1.811329999999999885e-01 1.541015000000000157e+01 6.543260000000000787e+01 2.199125000000000000e+03
3.300000000000000155e-02 1.810749999999999860e-01 1.438435000000000130e+01 6.353570000000000562e+01 2.198659999999999854e+03
3.400000000000000244e-02 1.810205000000000009e-01 1.352214999999999989e+01 6.195974999999999966e+01 2.198215000000000146e+03
3.500000000000000333e-02 1.809810000000000030e-01 1.295035000000000025e+01 6.113450000000000273e+01 2.197885000000000218e+03
3.600000000000000422e-02 1.809664999999999746e-01 1.274155000000000015e+01 6.134820000000000562e+01 2.197744999999999891e+03
3.700000000000000511e-02 1.809830000000000050e-01 1.289235000000000042e+01 6.265214999999999890e+01 2.197855000000000018e+03
3.799999999999999906e-02 1.810279999999999945e-01 1.332410000000000139e+01 6.483950000000000102e+01 2.198199999999999818e+03
3.899999999999999994e-02 1.810940000000000050e-01 1.390310000000000024e+01 6.749889999999999191e+01 2.198720000000000255e+03
4.000000000000000083e-02 1.811694999999999833e-01 1.447129999999999939e+01 7.011509999999999820e+01 2.199324999999999818e+03
4.100000000000000172e-02 1.812389999999999834e-01 1.487825000000000131e+01 7.218305000000000859e+01 2.199894999999999982e+03
4.200000000000000261e-02 1.812909999999999799e-01 1.500609999999999999e+01 7.330510000000001014e+01 2.200329999999999927e+03
4.300000000000000350e-02 1.813140000000000029e-01 1.478395000000000081e+01 7.324960000000000093e+01 2.200529999999999745e+03
4.400000000000000439e-02 1.813035000000000063e-01 1.419030000000000058e+01 7.196569999999999823e+01 2.200460000000000036e+03
4.499999999999999833e-02 1.812575000000000158e-01 1.324575000000000102e+01 6.955865000000000009e+01 2.200099999999999909e+03
4.599999999999999922e-02 1.811794999999999933e-01 1.200046500000000016e+01 6.624080000000000723e+01 2.199474999999999909e+03
4.700000000000000011e-02 1.810744999999999993e-01 1.052048500000000075e+01 6.227479999999999905e+01 2.198635000000000218e+03
4.800000000000000100e-02 1.809499999999999997e-01 8.876300000000000523e+00 5.792475000000000307e+01 2.197625000000000000e+03
4.900000000000000189e-02 1.808124999999999871e-01 7.136045000000000194e+00 5.342510000000000048e+01 2.196510000000000218e+03
5.000000000000000278e-02 1.806685000000000096e-01 5.363005000000000244e+00 4.896829999999999927e+01 2.195340000000000146e+03
5.100000000000000366e-02 1.805249999999999910e-01 3.616206500000000101e+00 4.470884999999999820e+01 2.194170000000000073e+03
5.200000000000000455e-02 1.803865000000000052e-01 1.952675000000000161e+00 4.077580000000000382e+01 2.193039999999999964e+03
5.300000000000000544e-02 1.802575000000000149e-01 4.292399999999998439e-01 3.728640000000000043e+01 2.191974999999999909e+03
5.399999999999999939e-02 1.801419999999999966e-01 -8.969949999999999868e-01 3.435589999999999833e+01 2.191025000000000091e+03
5.500000000000000028e-02 1.800450000000000106e-01 -1.970120500000000163e+00 3.209994999999999976e+01 2.190220000000000255e+03
5.600000000000000117e-02 1.799695000000000045e-01 -2.738539999999999974e+00 3.062940000000000396e+01 2.189590000000000146e+03
5.700000000000000205e-02 1.799199999999999966e-01 -3.159130000000000216e+00 3.004005000000000081e+01 2.189170000000000073e+03
5.800000000000000294e-02 1.799000000000000044e-01 -3.201375000000000082e+00 3.039994999999999692e+01 2.188974999999999909e+03
5.900000000000000383e-02 1.799100000000000144e-01 -2.850699999999999790e+00 3.173845000000000027e+01 2.189034999999999854e+03
6.000000000000000472e-02 1.799520000000000008e-01 -2.110255500000000062e+00 3.403940000000000055e+01 2.189350000000000364e+03
6.099999999999999867e-02 1.800249999999999906e-01 -1.000914999999999999e+00 3.723949999999999960e+01 2.189920000000000073e+03
6.199999999999999956e-02 1.801264999999999949e-01 4.403250000000000774e-01 4.123269999999999413e+01 2.190720000000000255e+03
6.300000000000000044e-02 1.802539999999999976e-01 2.163264999999999993e+00 4.587879999999999825e+01 2.191739999999999782e+03
6.400000000000000133e-02 1.804030000000000078e-01 4.108196500000000029e+00 5.101465000000000316e+01 2.192934999999999945e+03
6.500000000000000222e-02 1.805684999999999929e-01 6.209945000000000270e+00 5.646684999999999377e+01 2.194269999999999982e+03
6.600000000000000311e-02 1.807440000000000158e-01 8.401994999999999436e+00 6.206349999999999767e+01 2.195699999999999818e+03
6.700000000000000400e-02 1.809264999999999901e-01 1.062023999999999901e+01 6.764549999999999841e+01 2.197190000000000055e+03
6.800000000000000488e-02 1.811090000000000200e-01 1.280645499999999970e+01 7.307544999999998936e+01 2.198680000000000291e+03
6.900000000000000577e-02 1.812880000000000047e-01 1.491134999999999877e+01 7.824514999999999532e+01 2.200154999999999745e+03
7.000000000000000666e-02 1.814609999999999834e-01 1.689685000000000059e+01 8.308050000000000068e+01 2.201585000000000036e+03
7.100000000000000755e-02 1.816240000000000077e-01 1.873734999999999928e+01 8.754375000000000284e+01 2.202934999999999945e+03
7.200000000000000844e-02 1.817765000000000075e-01 2.042014999999999958e+01 9.163269999999999982e+01 2.204210000000000036e+03
7.300000000000000933e-02 1.819189999999999974e-01 2.194464999999999932e+01 9.537669999999999959e+01 2.205399999999999636e+03
7.399999999999999634e-02 1.820509999999999906e-01 2.332070000000000221e+01 9.883174999999999955e+01 2.206505000000000109e+03
7.499999999999999722e-02 1.821749999999999758e-01 2.456644999999999968e+01 1.020690999999999917e+02 2.207545000000000073e+03
7.599999999999999811e-02 1.822929999999999828e-01 2.570469999999999899e+01 1.051687000000000012e+02 2.208534999999999854e+03
7.699999999999999900e-02 1.824064999999999992e-01 2.676064999999999827e+01 1.082100000000000080e+02 2.209489999999999782e+03
7.799999999999999989e-02 1.825185000000000002e-01 2.775869999999999749e+01 1.112614999999999981e+02 2.210434999999999945e+03
7.900000000000000078e-02 1.826305000000000012e-01 2.871990000000000265e+01 1.143755000000000024e+02 2.211375000000000000e+03
8.000000000000000167e-02 1.827440000000000175e-01 2.966035000000000110e+01 1.175870000000000033e+02 2.212324999999999818e+03
8.100000000000000255e-02 1.828600000000000225e-01 3.058995000000000175e+01 1.209069999999999965e+02 2.213295000000000073e+03
8.200000000000000344e-02 1.829790000000000028e-01 3.151214999999999833e+01 1.243245000000000005e+02 2.214289999999999964e+03
8.300000000000000433e-02 1.830999999999999850e-01 3.242350000000000421e+01 1.278114999999999952e+02 2.215310000000000400e+03
8.400000000000000522e-02 1.832229999999999970e-01 3.331515000000000271e+01 1.313229999999999791e+02 2.216335000000000036e+03
8.500000000000000611e-02 1.833454999999999946e-01 3.417305000000000348e+01 1.348015000000000043e+02 2.217359999999999673e+03
8.600000000000000699e-02 1.834669999999999912e-01 3.497965000000000657e+01 1.381850000000000023e+02 2.218380000000000109e+03
8.700000000000000788e-02 1.835844999999999838e-01 3.571524999999999750e+01 1.414060000000000059e+02 2.219369999999999891e+03
8.800000000000000877e-02 1.836959999999999982e-01 3.635940000000000083e+01 1.444000000000000057e+02 2.220305000000000291e+03
8.899999999999999578e-02 1.838004999999999778e-01 3.689215000000000089e+01 1.471069999999999993e+02 2.221184999999999945e+03
8.999999999999999667e-02 1.838945000000000163e-01 3.729555000000000575e+01 1.494764999999999873e+02 2.221984999999999673e+03
9.099999999999999756e-02 1.839779999999999749e-01 3.755469999999999686e+01 1.514680000000000177e+02 2.222690000000000055e+03
9.199999999999999845e-02 1.840490000000000181e-01 3.765874999999999773e+01 1.530529999999999973e+02 2.223295000000000073e+03
9.299999999999999933e-02 1.841065000000000063e-01 3.760160000000000480e+01 1.542180000000000177e+02 2.223789999999999964e+03
9.400000000000000022e-02 1.841500000000000081e-01 3.738230000000000075e+01 1.549644999999999868e+02 2.224170000000000073e+03
9.500000000000000111e-02 1.841800000000000104e-01 3.700534999999999997e+01 1.553075000000000045e+02 2.224434999999999945e+03
9.600000000000000200e-02 1.841969999999999996e-01 3.648029999999999973e+01 1.552740000000000009e+02 2.224585000000000036e+03
9.700000000000000289e-02 1.842010000000000036e-01 3.582150000000000034e+01 1.549055000000000177e+02 2.224635000000000218e+03
9.800000000000000377e-02 1.841944999999999832e-01 3.504720000000000368e+01 1.542504999999999882e+02 2.224585000000000036e+03
9.900000000000000466e-02 1.841780000000000084e-01 3.417860000000000298e+01 1.533644999999999925e+02 2.224460000000000036e+03
1.000000000000000056e-01 1.841534999999999977e-01 3.323884999999999934e+01 1.523054999999999950e+02 2.224269999999999982e+03
1.010000000000000064e-01 1.841230000000000089e-01 3.225180000000000291e+01 1.511329999999999814e+02 2.224019999999999982e+03
1.020000000000000073e-01 1.840879999999999739e-01 3.124099999999999966e+01 1.499025000000000034e+02 2.223735000000000127e+03
1.030000000000000082e-01 1.840509999999999924e-01 3.022844999999999871e+01 1.486669999999999732e+02 2.223425000000000182e+03
1.040000000000000091e-01 1.840134999999999965e-01 2.923389999999999844e+01 1.474680000000000177e+02 2.223109999999999673e+03
1.050000000000000100e-01 1.839760000000000006e-01 2.827404999999999902e+01 1.463430000000000177e+02 2.222795000000000073e+03
1.059999999999999970e-01 1.839399999999999924e-01 2.736169999999999902e+01 1.453160000000000025e+02 2.222500000000000000e+03
1.069999999999999979e-01 1.839069999999999871e-01 2.650560000000000116e+01 1.444010000000000105e+02 2.222220000000000255e+03
1.079999999999999988e-01 1.838764999999999983e-01 2.571020000000000039e+01 1.436030000000000086e+02 2.221960000000000036e+03
1.089999999999999997e-01 1.838500000000000134e-01 2.497569999999999979e+01 1.429134999999999991e+02 2.221730000000000018e+03
1.100000000000000006e-01 1.838259999999999894e-01 2.429804999999999993e+01 1.423174999999999955e+02 2.221525000000000091e+03
1.110000000000000014e-01 1.838045000000000095e-01 2.366975000000000051e+01 1.417895000000000039e+02 2.221340000000000146e+03
1.120000000000000023e-01 1.837850000000000039e-01 2.308024999999999949e+01 1.412989999999999782e+02 2.221170000000000073e+03
1.130000000000000032e-01 1.837659999999999849e-01 2.251675000000000182e+01 1.408095000000000141e+02 2.221010000000000218e+03
1.140000000000000041e-01 1.837469999999999937e-01 2.196515000000000128e+01 1.402849999999999966e+02 2.220845000000000255e+03
1.150000000000000050e-01 1.837270000000000014e-01 2.141089999999999804e+01 1.396875000000000000e+02 2.220675000000000182e+03
1.160000000000000059e-01 1.837044999999999928e-01 2.084015000000000128e+01 1.389825000000000159e+02 2.220480000000000018e+03
1.170000000000000068e-01 1.836774999999999936e-01 2.024045000000000272e+01 1.381419999999999959e+02 2.220260000000000218e+03
1.180000000000000077e-01 1.836475000000000191e-01 1.960184999999999889e+01 1.371435000000000173e+02 2.220005000000000109e+03
1.190000000000000085e-01 1.836119999999999974e-01 1.891729999999999734e+01 1.359745000000000061e+02 2.219710000000000036e+03
1.200000000000000094e-01 1.835704999999999976e-01 1.818335000000000079e+01 1.346320000000000050e+02 2.219369999999999891e+03
1.209999999999999964e-01 1.835240000000000204e-01 1.740035000000000309e+01 1.331225000000000023e+02 2.218985000000000127e+03
1.219999999999999973e-01 1.834724999999999828e-01 1.657244999999999990e+01 1.314639999999999986e+02 2.218550000000000182e+03
1.229999999999999982e-01 1.834159999999999957e-01 1.570754999999999946e+01 1.296819999999999879e+02 2.218085000000000036e+03
1.239999999999999991e-01 1.833555000000000046e-01 1.481670000000000087e+01 1.278109999999999928e+02 2.217579999999999927e+03
1.250000000000000000e-01 1.832924999999999971e-01 1.391349999999999909e+01 1.258915000000000077e+02 2.217055000000000291e+03
1.260000000000000009e-01 1.832280000000000020e-01 1.301340000000000074e+01 1.239669999999999987e+02 2.216519999999999982e+03
1.270000000000000018e-01 1.831635000000000069e-01 1.213284499999999966e+01 1.220815000000000055e+02 2.215975000000000364e+03
1.280000000000000027e-01 1.830994999999999984e-01 1.128806499999999957e+01 1.202785000000000082e+02 2.215445000000000164e+03
1.290000000000000036e-01 1.830390000000000073e-01 1.049463000000000079e+01 1.185985000000000014e+02 2.214940000000000055e+03
1.300000000000000044e-01 1.829819999999999780e-01 9.766329999999999956e+00 1.170755000000000052e+02 2.214460000000000036e+03
1.310000000000000053e-01 1.829299999999999815e-01 9.114575000000000315e+00 1.157365000000000066e+02 2.214025000000000091e+03
1.320000000000000062e-01 1.828835000000000044e-01 8.548054999999999737e+00 1.145995000000000061e+02 2.213635000000000218e+03
1.330000000000000071e-01 1.828440000000000065e-01 8.072264999999999802e+00 1.136769999999999925e+02 2.213295000000000073e+03
1.340000000000000080e-01 1.828110000000000013e-01 7.689515000000000100e+00 1.129685000000000059e+02 2.213015000000000327e+03
1.350000000000000089e-01 1.827849999999999753e-01 7.398899999999999366e+00 1.124695000000000107e+02 2.212789999999999964e+03
1.360000000000000098e-01 1.827655000000000252e-01 7.196559999999999846e+00 1.121659999999999968e+02 2.212619999999999891e+03
1.370000000000000107e-01 1.827524999999999844e-01 7.076069999999999638e+00 1.120395000000000039e+02 2.212505000000000109e+03
1.380000000000000115e-01 1.827449999999999908e-01 7.028834999999999944e+00 1.120655000000000001e+02 2.212439999999999600e+03
1.390000000000000124e-01 1.827429999999999888e-01 7.044629999999999725e+00 1.122175000000000011e+02 2.212414999999999964e+03
1.400000000000000133e-01 1.827455000000000052e-01 7.112119999999999997e+00 1.124660000000000082e+02 2.212425000000000182e+03
1.410000000000000142e-01 1.827504999999999824e-01 7.219380000000000130e+00 1.127840000000000060e+02 2.212465000000000146e+03
1.420000000000000151e-01 1.827590000000000048e-01 7.354435000000000500e+00 1.131424999999999983e+02 2.212524999999999636e+03
1.430000000000000160e-01 1.827679999999999860e-01 7.505679999999999907e+00 1.135155000000000030e+02 2.212599999999999909e+03
1.440000000000000169e-01 1.827785000000000104e-01 7.662335000000000562e+00 1.138795000000000073e+02 2.212685000000000400e+03
1.450000000000000178e-01 1.827889999999999793e-01 7.814750000000000085e+00 1.142150000000000034e+02 2.212769999999999982e+03
1.459999999999999909e-01 1.827985000000000027e-01 7.954735000000000333e+00 1.145054999999999978e+02 2.212849999999999909e+03
1.469999999999999918e-01 1.828069999999999973e-01 8.075725000000000264e+00 1.147404999999999973e+02 2.212914999999999964e+03
1.479999999999999927e-01 1.828139999999999765e-01 8.172919999999999519e+00 1.149104999999999990e+02 2.212974999999999909e+03
1.489999999999999936e-01 1.828190000000000093e-01 8.243349999999999511e+00 1.150144999999999982e+02 2.213019999999999982e+03
1.499999999999999944e-01 1.828219999999999845e-01 8.285819999999999297e+00 1.150519999999999925e+02 2.213050000000000182e+03
1.509999999999999953e-01 1.828239999999999865e-01 8.300815000000000055e+00 1.150289999999999964e+02 2.213059999999999945e+03
1.519999999999999962e-01 1.828230000000000133e-01 8.290305000000000035e+00 1.149519999999999982e+02 2.213059999999999945e+03
1.529999999999999971e-01 1.828204999999999969e-01 8.257485000000000852e+00 1.148325000000000102e+02 2.213045000000000073e+03
1.539999999999999980e-01 1.828170000000000073e-01 8.206500000000000128e+00 1.146820000000000022e+02 2.213014999999999873e+03
1.549999999999999989e-01 1.828130000000000033e-01 8.142075000000000173e+00 1.145124999999999886e+02 2.212985000000000127e+03
1.559999999999999998e-01 1.828079999999999983e-01 8.069160000000000110e+00 1.143379999999999939e+02 2.212944999999999709e+03
1.570000000000000007e-01 1.828029999999999933e-01 7.992625000000000313e+00 1.141684999999999945e+02 2.212899999999999636e+03
1.580000000000000016e-01 1.827975000000000017e-01 7.916915000000000369e+00 1.140150000000000006e+02 2.212860000000000127e+03
1.590000000000000024e-01 1.827929999999999833e-01 7.845785000000000231e+00 1.138849999999999909e+02 2.212819999999999709e+03
