# t [s], A [cm^2], U [cm/s], P [cPa], c [cm/s]
1.000000000000000021e-03 1.481459999999999999e-01 2.809470000000000023e-01 9.714619999999999322e+01 1.863619999999999891e+03
2.000000000000000042e-03 1.481159999999999977e-01 1.795717000000000008e+00 9.420824999999999250e+01 1.863289999999999964e+03
3.000000000000000062e-03 1.480134999999999923e-01 3.665321500000000121e+00 9.025960000000000605e+01 1.862224999999999909e+03
4.000000000000000083e-03 1.478625000000000078e-01 5.746246499999999813e+00 8.582699999999999818e+01 1.860684999999999945e+03
5.000000000000000104e-03 1.476899999999999880e-01 7.983454999999999302e+00 8.165940000000000509e+01 1.858950000000000045e+03
6.000000000000000125e-03 1.475174999999999959e-01 1.026019000000000148e+01 7.813819999999999766e+01 1.857224999999999909e+03
7.000000000000000146e-03 1.473530000000000117e-01 1.240180999999999933e+01 7.520695000000000618e+01 1.855595000000000027e+03
8.000000000000000167e-03 1.471985000000000099e-01 1.427926499999999876e+01 7.263204999999999245e+01 1.854099999999999909e+03
9.000000000000001055e-03 1.470575000000000077e-01 1.587709999999999866e+01 7.032744999999999891e+01 1.852750000000000000e+03
1.000000000000000194e-02 1.469330000000000080e-01 1.723140000000000072e+01 6.835020000000000095e+01 1.851579999999999927e+03
1.099999999999999936e-02 1.468269999999999853e-01 1.836549999999999727e+01 6.673104999999999620e+01 1.850590000000000146e+03
1.200000000000000025e-02 1.467384999999999939e-01 1.929315000000000069e+01 6.544325000000000614e+01 1.849769999999999982e+03
1.300000000000000114e-02 1.466669999999999918e-01 2.002824999999999989e+01 6.444180000000000064e+01 1.849119999999999891e+03
1.400000000000000203e-02 1.466095000000000037e-01 2.057820000000000249e+01 6.366200000000000614e+01 1.848599999999999909e+03
1.499999999999999944e-02 1.465629999999999988e-01 2.095019999999999882e+01 6.302219999999999800e+01 1.848195000000000164e+03
1.600000000000000033e-02 1.465250000000000163e-01 2.117879999999999896e+01 6.248709999999999809e+01 1.847865000000000009e+03
1.700000000000000122e-02 1.464969999999999883e-01 2.134425000000000239e+01 6.214090000000000202e+01 1.847630000000000109e+03
1.800000000000000211e-02 1.464820000000000011e-01 2.155564999999999998e+01 6.218355000000000388e+01 1.847514999999999873e+03
1.900000000000000300e-02 1.464865000000000195e-01 2.190680000000000049e+01 6.283355000000000246e+01 1.847574999999999818e+03
2.000000000000000042e-02 1.465155000000000207e-01 2.243274999999999864e+01 6.419889999999999475e+01 1.847849999999999909e+03
2.100000000000000130e-02 1.465670000000000028e-01 2.309254999999999924e+01 6.619374999999999432e+01 1.848339999999999918e+03
2.200000000000000219e-02 1.466370000000000173e-01 2.378390000000000271e+01 6.854285000000000139e+01 1.849000000000000000e+03
2.299999999999999961e-02 1.467150000000000121e-01 2.437884999999999991e+01 7.086185000000000400e+01 1.849744999999999891e+03
2.400000000000000050e-02 1.467895000000000172e-01 2.476525000000000176e+01 7.277375000000000682e+01 1.850465000000000146e+03
2.500000000000000139e-02 1.468514999999999959e-01 2.487815000000000154e+01 7.401445000000001073e+01 1.851065000000000055e+03
2.600000000000000228e-02 1.468939999999999968e-01 2.471274999999999977e+01 7.449474999999999625e+01 1.851490000000000009e+03
2.700000000000000316e-02 1.469149999999999900e-01 2.431814999999999927e+01 7.430294999999999561e+01 1.851719999999999800e+03
2.800000000000000058e-02 1.469185000000000074e-01 2.377570000000000050e+01 7.365540000000000020e+01 1.851775000000000091e+03
2.900000000000000147e-02 1.469094999999999984e-01 2.317119999999999891e+01 7.281664999999999566e+01 1.851704999999999927e+03
3.000000000000000236e-02 1.468939999999999968e-01 2.257079999999999842e+01 7.201794999999999902e+01 1.851569999999999936e+03
3.099999999999999978e-02 1.468780000000000086e-01 2.200710000000000122e+01 7.140009999999999479e+01 1.851429999999999836e+03
3.200000000000000067e-02 1.468649999999999956e-01 2.147749999999999915e+01 7.099199999999999022e+01 1.851305000000000064e+03
3.300000000000000155e-02 1.468550000000000133e-01 2.095340000000000202e+01 7.072610000000000241e+01 1.851210000000000036e+03
3.400000000000000244e-02 1.468455000000000177e-01 2.039555000000000007e+01 7.047890000000001010e+01 1.851115000000000009e+03
3.500000000000000333e-02 1.468340000000000201e-01 1.977120000000000033e+01 7.012235000000001151e+01 1.851009999999999991e+03
3.600000000000000422e-02 1.468180000000000041e-01 1.906734999999999758e+01 6.957110000000000127e+01 1.850869999999999891e+03
3.700000000000000511e-02 1.467955000000000232e-01 1.829844999999999899e+01 6.881424999999998704e+01 1.850664999999999964e+03
3.799999999999999906e-02 1.467680000000000096e-01 1.750605000000000189e+01 6.792404999999999404e+01 1.850410000000000082e+03
3.899999999999999994e-02 1.467380000000000073e-01 1.675104999999999933e+01 6.704134999999999422e+01 1.850134999999999991e+03
4.000000000000000083e-02 1.467105000000000214e-01 1.610030000000000072e+01 6.634229999999999450e+01 1.849875000000000000e+03
4.100000000000000172e-02 1.466905000000000014e-01 1.561179999999999879e+01 6.599484999999999957e+01 1.849674999999999955e+03
4.200000000000000261e-02 1.466824999999999934e-01 1.532209999999999894e+01 6.611820000000000164e+01 1.849585000000000036e+03
4.300000000000000350e-02 1.466890000000000138e-01 1.523815000000000097e+01 6.675389999999998736e+01 1.849644999999999982e+03
4.400000000000000439e-02 1.467120000000000091e-01 1.533589999999999876e+01 6.785524999999999807e+01 1.849840000000000146e+03
4.499999999999999833e-02 1.467489999999999906e-01 1.556494999999999962e+01 6.929534999999999911e+01 1.850174999999999955e+03
4.599999999999999922e-02 1.467955000000000232e-01 1.585695000000000121e+01 7.088990000000001146e+01 1.850605000000000018e+03
4.700000000000000011e-02 1.468470000000000053e-01 1.613660000000000139e+01 7.242889999999999873e+01 1.851079999999999927e+03
4.800000000000000100e-02 1.468959999999999988e-01 1.633204999999999885e+01 7.370884999999999820e+01 1.851539999999999964e+03
4.900000000000000189e-02 1.469364999999999977e-01 1.638364999999999938e+01 7.456109999999999616e+01 1.851929999999999836e+03
5.000000000000000278e-02 1.469640000000000113e-01 1.624940000000000140e+01 7.487019999999999698e+01 1.852190000000000055e+03
5.100000000000000366e-02 1.469735000000000069e-01 1.590694999999999837e+01 7.458209999999999695e+01 1.852295000000000073e+03
5.200000000000000455e-02 1.469644999999999979e-01 1.535309999999999953e+01 7.370220000000000482e+01 1.852215000000000146e+03
5.300000000000000544e-02 1.469364999999999977e-01 1.460040000000000049e+01 7.228475000000000250e+01 1.851960000000000036e+03
5.399999999999999939e-02 1.468895000000000062e-01 1.367310000000000159e+01 7.041825000000000045e+01 1.851530000000000200e+03
5.500000000000000028e-02 1.468269999999999853e-01 1.260251500000000036e+01 6.820969999999999800e+01 1.850950000000000045e+03
5.600000000000000117e-02 1.467519999999999936e-01 1.142333499999999979e+01 6.577004999999999768e+01 1.850250000000000000e+03
5.700000000000000205e-02 1.466675000000000062e-01 1.017101500000000058e+01 6.320454999999999757e+01 1.849454999999999927e+03
5.800000000000000294e-02 1.465759999999999841e-01 8.880150000000000432e+00 6.060685000000000144e+01 1.848605000000000018e+03
5.900000000000000383e-02 1.464830000000000021e-01 7.584010000000000140e+00 5.805785000000000196e+01 1.847730000000000018e+03
6.000000000000000472e-02 1.463895000000000057e-01 6.315054999999999197e+00 5.562749999999999773e+01 1.846845000000000027e+03
6.099999999999999867e-02 1.462990000000000124e-01 5.105034999999999989e+00 5.337784999999999513e+01 1.845990000000000009e+03
6.199999999999999956e-02 1.462134999999999962e-01 3.985630000000000006e+00 5.136634999999999707e+01 1.845184999999999945e+03
6.300000000000000044e-02 1.461359999999999881e-01 2.988339499999999926e+00 4.964860000000000184e+01 1.844445000000000164e+03
6.400000000000000133e-02 1.460684999999999900e-01 2.143988650000000273e+00 4.827899999999999636e+01 1.843799999999999955e+03
6.500000000000000222e-02 1.460130000000000039e-01 1.481745000000000090e+00 4.730984999999999729e+01 1.843264999999999873e+03
6.600000000000000311e-02 1.459719999999999906e-01 1.027717500000000062e+00 4.678869999999999862e+01 1.842869999999999891e+03
6.700000000000000400e-02 1.459469999999999934e-01 8.034735000000000626e-01 4.675529999999999831e+01 1.842614999999999782e+03
6.800000000000000488e-02 1.459394999999999998e-01 8.245830000000000659e-01 4.723774999999999835e+01 1.842529999999999973e+03
6.900000000000000577e-02 1.459509999999999974e-01 1.099458999999999964e+00 4.824925000000000352e+01 1.842615000000000009e+03
7.000000000000000666e-02 1.459820000000000007e-01 1.628656499999999951e+00 4.978634999999999877e+01 1.842884999999999991e+03
7.100000000000000755e-02 1.460319999999999951e-01 2.404726999999999837e+00 5.182795000000000130e+01 1.843335000000000036e+03
7.200000000000000844e-02 1.461010000000000086e-01 3.412580000000000169e+00 5.433590000000000231e+01 1.843969999999999800e+03
7.300000000000000933e-02 1.461879999999999846e-01 4.630349999999999966e+00 5.725764999999999816e+01 1.844764999999999873e+03
7.399999999999999634e-02 1.462900000000000034e-01 6.030630000000000379e+00 6.052879999999999683e+01 1.845710000000000036e+03
7.499999999999999722e-02 1.464060000000000084e-01 7.581879999999999953e+00 6.407734999999999559e+01 1.846789999999999964e+03
7.599999999999999811e-02 1.465339999999999976e-01 9.250015000000001208e+00 6.782729999999999393e+01 1.847980000000000018e+03
7.699999999999999900e-02 1.466700000000000226e-01 1.099996499999999955e+01 7.170274999999999466e+01 1.849259999999999991e+03
7.799999999999999989e-02 1.468119999999999981e-01 1.279706000000000010e+01 7.563165000000000759e+01 1.850599999999999909e+03
7.900000000000000078e-02 1.469574999999999909e-01 1.460849999999999937e+01 7.954850000000000421e+01 1.851980000000000018e+03
8.000000000000000167e-02 1.471049999999999858e-01 1.640439999999999898e+01 8.339724999999999966e+01 1.853375000000000000e+03
8.100000000000000255e-02 1.472509999999999930e-01 1.815895000000000081e+01 8.713275000000000148e+01 1.854764999999999873e+03
8.200000000000000344e-02 1.473939999999999972e-01 1.985099999999999909e+01 9.072220000000000084e+01 1.856134999999999991e+03
8.300000000000000433e-02 1.475334999999999841e-01 2.146450000000000102e+01 9.414574999999999250e+01 1.857474999999999909e+03
8.400000000000000522e-02 1.476679999999999937e-01 2.298870000000000147e+01 9.739529999999999177e+01 1.858764999999999873e+03
8.500000000000000611e-02 1.477970000000000117e-01 2.441825000000000045e+01 1.004756500000000017e+02 1.860014999999999873e+03
8.600000000000000699e-02 1.479209999999999969e-01 2.575215000000000032e+01 1.034000000000000057e+02 1.861215000000000146e+03
8.700000000000000788e-02 1.480394999999999905e-01 2.699390000000000001e+01 1.061894999999999953e+02 1.862365000000000009e+03
8.800000000000000877e-02 1.481540000000000079e-01 2.814995000000000047e+01 1.088719999999999999e+02 1.863474999999999909e+03
8.899999999999999578e-02 1.482644999999999935e-01 2.922905000000000086e+01 1.114755000000000109e+02 1.864550000000000182e+03
8.999999999999999667e-02 1.483720000000000039e-01 3.024110000000000298e+01 1.140289999999999964e+02 1.865599999999999909e+03
9.099999999999999756e-02 1.484779999999999989e-01 3.119600000000000151e+01 1.165594999999999999e+02 1.866634999999999991e+03
9.199999999999999845e-02 1.485825000000000062e-01 3.210314999999999941e+01 1.190879999999999939e+02 1.867655000000000200e+03
9.299999999999999933e-02 1.486870000000000136e-01 3.297019999999999840e+01 1.216299999999999955e+02 1.868674999999999955e+03
9.400000000000000022e-02 1.487910000000000066e-01 3.380275000000000318e+01 1.241924999999999955e+02 1.869690000000000055e+03
9.500000000000000111e-02 1.488955000000000140e-01 3.460394999999999754e+01 1.267764999999999986e+02 1.870710000000000036e+03
9.600000000000000200e-02 1.490004999999999802e-01 3.537429999999999808e+01 1.293750000000000000e+02 1.871740000000000009e+03
9.700000000000000289e-02 1.491055000000000019e-01 3.611184999999999690e+01 1.319730000000000132e+02 1.872769999999999982e+03
9.800000000000000377e-02 1.492104999999999959e-01 3.681194999999999595e+01 1.345515000000000043e+02 1.873789999999999964e+03
9.900000000000000466e-02 1.493145000000000167e-01 3.746824999999999761e+01 1.370854999999999961e+02 1.874809999999999945e+03
1.000000000000000056e-01 1.494165000000000076e-01 3.807274999999999920e+01 1.395480000000000018e+02 1.875815000000000055e+03
1.010000000000000064e-01 1.495159999999999823e-01 3.861629999999999541e+01 1.419105000000000132e+02 1.876784999999999854e+03
1.020000000000000073e-01 1.496115000000000084e-01 3.908939999999999770e+01 1.441435000000000173e+02 1.877724999999999909e+03
1.030000000000000082e-01 1.497020000000000017e-01 3.948229999999999507e+01 1.462205000000000155e+02 1.878619999999999891e+03
1.040000000000000091e-01 1.497874999999999901e-01 3.978605000000000302e+01 1.481154999999999973e+02 1.879464999999999918e+03
1.050000000000000100e-01 1.498659999999999992e-01 3.999244999999999806e+01 1.498070000000000164e+02 1.880235000000000127e+03
1.059999999999999970e-01 1.499365000000000003e-01 4.009474999999999767e+01 1.512780000000000200e+02 1.880940000000000055e+03
1.069999999999999979e-01 1.499995000000000078e-01 4.008780000000000143e+01 1.525149999999999864e+02 1.881565000000000055e+03
1.079999999999999988e-01 1.500535000000000063e-01 3.996855000000000047e+01 1.535105000000000075e+02 1.882110000000000127e+03
1.089999999999999997e-01 1.500990000000000102e-01 3.973595000000000255e+01 1.542620000000000005e+02 1.882565000000000055e+03
1.100000000000000006e-01 1.501350000000000184e-01 3.939135000000000275e+01 1.547725000000000080e+02 1.882929999999999836e+03
1.110000000000000014e-01 1.501619999999999899e-01 3.893815000000000026e+01 1.550490000000000066e+02 1.883204999999999927e+03
1.120000000000000023e-01 1.501799999999999802e-01 3.838230000000000075e+01 1.551055000000000064e+02 1.883394999999999982e+03
1.130000000000000032e-01 1.501899999999999902e-01 3.773149999999999693e+01 1.549574999999999818e+02 1.883500000000000000e+03
1.140000000000000041e-01 1.501910000000000189e-01 3.699540000000000362e+01 1.546270000000000095e+02 1.883525000000000091e+03
1.150000000000000050e-01 1.501854999999999996e-01 3.618520000000000181e+01 1.541365000000000123e+02 1.883485000000000127e+03
1.160000000000000059e-01 1.501740000000000019e-01 3.531315000000000026e+01 1.535120000000000005e+02 1.883375000000000000e+03
1.170000000000000068e-01 1.501564999999999983e-01 3.439240000000000208e+01 1.527805000000000177e+02 1.883215000000000146e+03
1.180000000000000077e-01 1.501345000000000041e-01 3.343619999999999948e+01 1.519680000000000177e+02 1.883005000000000109e+03
1.190000000000000085e-01 1.501085000000000058e-01 3.245780000000000598e+01 1.511009999999999991e+02 1.882755000000000109e+03
1.200000000000000094e-01 1.500799999999999912e-01 3.146994999999999720e+01 1.502034999999999911e+02 1.882485000000000127e+03
1.209999999999999964e-01 1.500499999999999889e-01 3.048434999999999917e+01 1.492975000000000136e+02 1.882190000000000055e+03
1.219999999999999973e-01 1.500179999999999847e-01 2.951170000000000115e+01 1.484025000000000034e+02 1.881884999999999991e+03
1.229999999999999982e-01 1.499864999999999948e-01 2.856099999999999994e+01 1.475330000000000155e+02 1.881575000000000045e+03
1.239999999999999991e-01 1.499554999999999916e-01 2.763954999999999984e+01 1.467015000000000100e+02 1.881265000000000100e+03
1.250000000000000000e-01 1.499249999999999750e-01 2.675294999999999845e+01 1.459150000000000205e+02 1.880964999999999918e+03
1.260000000000000009e-01 1.498950000000000005e-01 2.590469999999999828e+01 1.451779999999999973e+02 1.880674999999999955e+03
1.270000000000000018e-01 1.498670000000000002e-01 2.509655000000000058e+01 1.444890000000000043e+02 1.880394999999999982e+03
1.280000000000000027e-01 1.498400000000000010e-01 2.432840000000000202e+01 1.438460000000000036e+02 1.880125000000000000e+03
1.290000000000000036e-01 1.498145000000000171e-01 2.359830000000000183e+01 1.432404999999999973e+02 1.879875000000000000e+03
1.300000000000000044e-01 1.497900000000000065e-01 2.290294999999999703e+01 1.426630000000000109e+02 1.879630000000000109e+03
1.310000000000000053e-01 1.497664999999999969e-01 2.223770000000000024e+01 1.421020000000000039e+02 1.879394999999999982e+03
1.320000000000000062e-01 1.497435000000000016e-01 2.159680000000000177e+01 1.415434999999999945e+02 1.879164999999999964e+03
1.330000000000000071e-01 1.497200000000000197e-01 2.097395000000000209e+01 1.409735000000000014e+02 1.878930000000000064e+03
1.340000000000000080e-01 1.496970000000000245e-01 2.036229999999999762e+01 1.403770000000000095e+02 1.878699999999999818e+03
1.350000000000000089e-01 1.496719999999999995e-01 1.975515000000000043e+01 1.397400000000000091e+02 1.878460000000000036e+03
1.360000000000000098e-01 1.496465000000000156e-01 1.914574999999999960e+01 1.390490000000000066e+02 1.878204999999999927e+03
1.370000000000000107e-01 1.496184999999999876e-01 1.852815000000000012e+01 1.382934999999999945e+02 1.877930000000000064e+03
1.380000000000000115e-01 1.495885000000000131e-01 1.789724999999999966e+01 1.374635000000000105e+02 1.877630000000000109e+03
1.390000000000000124e-01 1.495560000000000223e-01 1.724889999999999901e+01 1.365534999999999854e+02 1.877309999999999945e+03
1.400000000000000133e-01 1.495205000000000006e-01 1.658030000000000115e+01 1.355604999999999905e+02 1.876965000000000146e+03
1.410000000000000142e-01 1.494820000000000038e-01 1.589020000000000010e+01 1.344834999999999923e+02 1.876585000000000036e+03
1.420000000000000151e-01 1.494400000000000173e-01 1.517874999999999908e+01 1.333269999999999982e+02 1.876180000000000064e+03
1.430000000000000160e-01 1.493955000000000144e-01 1.444774999999999920e+01 1.320985000000000014e+02 1.875750000000000000e+03
1.440000000000000169e-01 1.493484999999999951e-01 1.370045000000000002e+01 1.308070000000000164e+02 1.875289999999999964e+03
1.450000000000000178e-01 1.492990000000000150e-01 1.294160000000000110e+01 1.294664999999999964e+02 1.874809999999999945e+03
1.459999999999999909e-01 1.492475000000000052e-01 1.217706500000000069e+01 1.280925000000000011e+02 1.874309999999999945e+03
1.469999999999999918e-01 1.491945000000000077e-01 1.141389999999999993e+01 1.267019999999999982e+02 1.873799999999999955e+03
1.479999999999999927e-01 1.491414999999999824e-01 1.065977499999999978e+01 1.253135000000000048e+02 1.873275000000000091e+03
1.489999999999999936e-01 1.490874999999999839e-01 9.922774999999999679e+00 1.239474999999999909e+02 1.872755000000000109e+03
1.499999999999999944e-01 1.490350000000000008e-01 9.211254999999999526e+00 1.226214999999999975e+02 1.872235000000000127e+03
1.509999999999999953e-01 1.489830000000000043e-01 8.533229999999999649e+00 1.213540000000000134e+02 1.871735000000000127e+03
1.519999999999999962e-01 1.489330000000000098e-01 7.896259999999999835e+00 1.201620000000000061e+02 1.871250000000000000e+03
1.529999999999999971e-01 1.488855000000000040e-01 7.307165000000000354e+00 1.190589999999999975e+02 1.870784999999999854e+03
1.539999999999999980e-01 1.488415000000000155e-01 6.771694999999999354e+00 1.180570000000000022e+02 1.870355000000000018e+03
1.549999999999999989e-01 1.488010000000000166e-01 6.294399999999999551e+00 1.171645000000000039e+02 1.869954999999999927e+03
1.559999999999999998e-01 1.487640000000000073e-01 5.878495000000000026e+00 1.163880000000000052e+02 1.869585000000000036e+03
1.570000000000000007e-01 1.487310000000000021e-01 5.525769999999999627e+00 1.157289999999999992e+02 1.869264999999999873e+03
1.580000000000000016e-01 1.487025000000000152e-01 5.236580000000000013e+00 1.151875000000000000e+02 1.868980000000000018e+03
1.590000000000000024e-01 1.486780000000000046e-01 5.009875000000000078e+00 1.147590000000000003e+02 1.868740000000000009e+03
