# t [s], A [cm^2], U [cm/s], P [cPa], c [cm/s]
1.000000000000000021e-03 1.227115000000000011e-01 3.707245000000000124e-01 9.071604999999999563e+01 2.013865000000000009e+03
2.000000000000000042e-03 1.226814999999999989e-01 1.873775999999999886e+00 8.744174999999999898e+01 2.013425000000000182e+03
3.000000000000000062e-03 1.225979999999999986e-01 3.689160500000000287e+00 8.309534999999999627e+01 2.012224999999999909e+03
4.000000000000000083e-03 1.224820000000000075e-01 5.712723500000000065e+00 7.851279999999999859e+01 2.010595000000000027e+03
5.000000000000000104e-03 1.223565000000000069e-01 7.876799999999999358e+00 7.450419999999999732e+01 2.008849999999999909e+03
6.000000000000000125e-03 1.222339999999999954e-01 1.001127999999999929e+01 7.127020000000000266e+01 2.007170000000000073e+03
7.000000000000000146e-03 1.221185000000000048e-01 1.192087000000000074e+01 6.851940000000000452e+01 2.005610000000000127e+03
8.000000000000000167e-03 1.220120000000000093e-01 1.354119000000000028e+01 6.602285000000000537e+01 2.004184999999999945e+03
9.000000000000001055e-03 1.219169999999999976e-01 1.491365000000000052e+01 6.383415000000000106e+01 2.002934999999999945e+03
1.000000000000000194e-02 1.218344999999999984e-01 1.607010000000000005e+01 6.202114999999999867e+01 2.001869999999999891e+03
1.099999999999999936e-02 1.217654999999999987e-01 1.702090000000000103e+01 6.055239999999999867e+01 2.000985000000000127e+03
1.200000000000000025e-02 1.217090000000000116e-01 1.777615000000000123e+01 5.936574999999999847e+01 2.000264999999999873e+03
1.300000000000000114e-02 1.216620000000000063e-01 1.833879999999999910e+01 5.837454999999999927e+01 1.999674999999999955e+03
1.400000000000000203e-02 1.216224999999999945e-01 1.871689999999999898e+01 5.747905000000000086e+01 1.999190000000000055e+03
1.499999999999999944e-02 1.215885000000000021e-01 1.896649999999999991e+01 5.668049999999999500e+01 1.998775000000000091e+03
1.600000000000000033e-02 1.215620000000000034e-01 1.920824999999999960e+01 5.618104999999999905e+01 1.998460000000000036e+03
1.700000000000000122e-02 1.215505000000000058e-01 1.958399999999999963e+01 5.632009999999999650e+01 1.998329999999999927e+03
1.800000000000000211e-02 1.215579999999999994e-01 2.018224999999999980e+01 5.736814999999999998e+01 1.998434999999999945e+03
1.900000000000000300e-02 1.215885000000000160e-01 2.098704999999999998e+01 5.932994999999999663e+01 1.998829999999999927e+03
2.000000000000000042e-02 1.216369999999999951e-01 2.187964999999999804e+01 6.188619999999999521e+01 1.999460000000000036e+03
2.100000000000000130e-02 1.216954999999999981e-01 2.268724999999999881e+01 6.449530000000000030e+01 2.000224999999999909e+03
2.200000000000000219e-02 1.217524999999999996e-01 2.324804999999999922e+01 6.658820000000000050e+01 2.000980000000000018e+03
2.299999999999999961e-02 1.217970000000000025e-01 2.346559999999999846e+01 6.775989999999998759e+01 2.001585000000000036e+03
2.400000000000000050e-02 1.218225000000000002e-01 2.333220000000000027e+01 6.788380000000000791e+01 2.001949999999999818e+03
2.500000000000000139e-02 1.218285000000000062e-01 2.291884999999999906e+01 6.711594999999999800e+01 2.002049999999999955e+03
2.600000000000000228e-02 1.218174999999999952e-01 2.233990000000000009e+01 6.580230000000000246e+01 2.001934999999999945e+03
2.700000000000000316e-02 1.217959999999999876e-01 2.170915000000000106e+01 6.433679999999999666e+01 2.001670000000000073e+03
2.800000000000000058e-02 1.217715000000000047e-01 2.110470000000000113e+01 6.302805000000000035e+01 2.001360000000000127e+03
2.900000000000000147e-02 1.217475000000000085e-01 2.055324999999999847e+01 6.202020000000000266e+01 2.001049999999999955e+03
3.000000000000000236e-02 1.217270000000000019e-01 2.003454999999999941e+01 6.128400000000000603e+01 2.000784999999999854e+03
3.099999999999999978e-02 1.217084999999999972e-01 1.950155000000000172e+01 6.066790000000000305e+01 2.000539999999999964e+03
3.200000000000000067e-02 1.216904999999999931e-01 1.890644999999999953e+01 5.998170000000000357e+01 2.000300000000000182e+03
3.300000000000000155e-02 1.216689999999999994e-01 1.822415000000000163e+01 5.908119999999999550e+01 2.000019999999999982e+03
3.400000000000000244e-02 1.216420000000000001e-01 1.746665000000000134e+01 5.793004999999999427e+01 1.999684999999999945e+03
3.500000000000000333e-02 1.216109999999999969e-01 1.668475000000000108e+01 5.662069999999999936e+01 1.999289999999999964e+03
3.600000000000000422e-02 1.215785000000000060e-01 1.595690000000000097e+01 5.535285000000000366e+01 1.998865000000000009e+03
3.700000000000000511e-02 1.215490000000000043e-01 1.536904999999999966e+01 5.437664999999999793e+01 1.998480000000000018e+03
3.799999999999999906e-02 1.215275000000000105e-01 1.499215000000000053e+01 5.392064999999999486e+01 1.998195000000000164e+03
3.899999999999999994e-02 1.215189999999999881e-01 1.486350000000000016e+01 5.412555000000000405e+01 1.998065000000000055e+03
4.000000000000000083e-02 1.215245000000000075e-01 1.497669999999999924e+01 5.500414999999999566e+01 1.998119999999999891e+03
4.100000000000000172e-02 1.215444999999999998e-01 1.528299999999999947e+01 5.643399999999999750e+01 1.998369999999999891e+03
4.200000000000000261e-02 1.215769999999999906e-01 1.570094999999999885e+01 5.818319999999999936e+01 1.998769999999999982e+03
4.300000000000000350e-02 1.216150000000000009e-01 1.613204999999999956e+01 5.995734999999999815e+01 1.999255000000000109e+03
4.400000000000000439e-02 1.216529999999999972e-01 1.647724999999999795e+01 6.145510000000000161e+01 1.999750000000000000e+03
4.499999999999999833e-02 1.216855000000000020e-01 1.665210000000000079e+01 6.241844999999999999e+01 2.000164999999999964e+03
4.599999999999999922e-02 1.217049999999999937e-01 1.659649999999999892e+01 6.266859999999999786e+01 2.000434999999999945e+03
4.700000000000000011e-02 1.217094999999999982e-01 1.627890000000000015e+01 6.212229999999999563e+01 2.000494999999999891e+03
4.800000000000000100e-02 1.216955000000000120e-01 1.569549999999999912e+01 6.078955000000000553e+01 2.000329999999999927e+03
4.900000000000000189e-02 1.216635000000000078e-01 1.486575000000000024e+01 5.875594999999999857e+01 1.999929999999999836e+03
5.000000000000000278e-02 1.216150000000000009e-01 1.382519999999999882e+01 5.615820000000000078e+01 1.999309999999999945e+03
5.100000000000000366e-02 1.215525000000000078e-01 1.261920500000000089e+01 5.315699999999999648e+01 1.998505000000000109e+03
5.200000000000000455e-02 1.214795000000000041e-01 1.129687500000000000e+01 4.991505000000000081e+01 1.997565000000000055e+03
5.300000000000000544e-02 1.213990000000000069e-01 9.907589999999999009e+00 4.658270000000000266e+01 1.996519999999999982e+03
5.399999999999999939e-02 1.213150000000000062e-01 8.499190000000000467e+00 4.329140000000000299e+01 1.995424999999999955e+03
5.500000000000000028e-02 1.212299999999999905e-01 7.117614999999999803e+00 4.015379999999999683e+01 1.994320000000000164e+03
5.600000000000000117e-02 1.211475000000000052e-01 5.807430000000000092e+00 3.726845000000000141e+01 1.993244999999999891e+03
5.700000000000000205e-02 1.210700000000000109e-01 4.612264999999999837e+00 3.472444999999999737e+01 1.992240000000000009e+03
5.800000000000000294e-02 1.209999999999999964e-01 3.574920500000000168e+00 3.260614999999999952e+01 1.991329999999999927e+03
5.900000000000000383e-02 1.209410000000000068e-01 2.736584499999999753e+00 3.099440000000000239e+01 1.990550000000000182e+03
6.000000000000000472e-02 1.208940000000000015e-01 2.135368499999999781e+00 2.996485000000000198e+01 1.989930000000000064e+03
6.099999999999999867e-02 1.208619999999999972e-01 1.804246000000000016e+00 2.958384999999999820e+01 1.989490000000000009e+03
6.199999999999999956e-02 1.208464999999999956e-01 1.768815000000000026e+00 2.990294999999999703e+01 1.989269999999999982e+03
6.300000000000000044e-02 1.208489999999999981e-01 2.045250000000000234e+00 3.095284999999999798e+01 1.989284999999999854e+03
6.400000000000000133e-02 1.208700000000000052e-01 2.638834999999999820e+00 3.273915000000000219e+01 1.989534999999999854e+03
6.500000000000000222e-02 1.209105000000000041e-01 3.543365000000000098e+00 3.523980000000000246e+01 1.990034999999999854e+03
6.600000000000000311e-02 1.209699999999999942e-01 4.741360000000000241e+00 3.840559999999999974e+01 1.990779999999999973e+03
6.700000000000000400e-02 1.210465000000000013e-01 6.205254999999999299e+00 4.216299999999999670e+01 1.991759999999999991e+03
6.800000000000000488e-02 1.211395000000000111e-01 7.899134999999999351e+00 4.641884999999999906e+01 1.992944999999999936e+03
6.900000000000000577e-02 1.212465000000000070e-01 9.781105000000000160e+00 5.106700000000000017e+01 1.994320000000000164e+03
7.000000000000000666e-02 1.213645000000000140e-01 1.180554500000000040e+01 5.599500000000000455e+01 1.995844999999999800e+03
7.100000000000000755e-02 1.214915000000000023e-01 1.392574499999999915e+01 6.109109999999999729e+01 1.997490000000000009e+03
7.200000000000000844e-02 1.216244999999999965e-01 1.609629999999999939e+01 6.625005000000000166e+01 1.999220000000000027e+03
7.300000000000000933e-02 1.217600000000000071e-01 1.827505000000000024e+01 7.137874999999999659e+01 2.001000000000000000e+03
7.399999999999999634e-02 1.218974999999999920e-01 2.042500000000000071e+01 7.640014999999999645e+01 2.002800000000000182e+03
7.499999999999999722e-02 1.220330000000000026e-01 2.251575000000000060e+01 8.125655000000000427e+01 2.004585000000000036e+03
7.599999999999999811e-02 1.221659999999999968e-01 2.452459999999999951e+01 8.591065000000000396e+01 2.006339999999999918e+03
7.699999999999999900e-02 1.222950000000000148e-01 2.643670000000000186e+01 9.034645000000000437e+01 2.008059999999999945e+03
7.799999999999999989e-02 1.224200000000000010e-01 2.824540000000000006e+01 9.456755000000001132e+01 2.009714999999999918e+03
7.900000000000000078e-02 1.225399999999999961e-01 2.995114999999999839e+01 9.859569999999999368e+01 2.011324999999999818e+03
8.000000000000000167e-02 1.226559999999999873e-01 3.156105000000000160e+01 1.024645999999999901e+02 2.012875000000000000e+03
8.100000000000000255e-02 1.227679999999999882e-01 3.308674999999999500e+01 1.062194000000000074e+02 2.014375000000000000e+03
8.200000000000000344e-02 1.228779999999999872e-01 3.454314999999999714e+01 1.099080000000000013e+02 2.015849999999999909e+03
8.300000000000000433e-02 1.229854999999999976e-01 3.594660000000000366e+01 1.135775000000000006e+02 2.017295000000000073e+03
8.400000000000000522e-02 1.230930000000000080e-01 3.731295000000000073e+01 1.172710000000000008e+02 2.018744999999999891e+03
8.500000000000000611e-02 1.232005000000000045e-01 3.865610000000000213e+01 1.210215000000000032e+02 2.020190000000000055e+03
8.600000000000000699e-02 1.233095000000000024e-01 3.998680000000000234e+01 1.248509999999999991e+02 2.021654999999999973e+03
8.700000000000000788e-02 1.234200000000000019e-01 4.131184999999999974e+01 1.287690000000000055e+02 2.023144999999999982e+03
8.800000000000000877e-02 1.235320000000000029e-01 4.263320000000000221e+01 1.327690000000000055e+02 2.024655000000000200e+03
8.899999999999999578e-02 1.236454999999999915e-01 4.394849999999999568e+01 1.368335000000000150e+02 2.026195000000000164e+03
8.999999999999999667e-02 1.237610000000000099e-01 4.525059999999999860e+01 1.409319999999999879e+02 2.027750000000000000e+03
9.099999999999999756e-02 1.238770000000000149e-01 4.652875000000000227e+01 1.450255000000000223e+02 2.029315000000000055e+03
9.199999999999999845e-02 1.239919999999999911e-01 4.776890000000000214e+01 1.490679999999999836e+02 2.030880000000000109e+03
9.299999999999999933e-02 1.241059999999999941e-01 4.895485000000000042e+01 1.530084999999999980e+02 2.032425000000000182e+03
9.400000000000000022e-02 1.242175000000000085e-01 5.006924999999999670e+01 1.567975000000000136e+02 2.033940000000000055e+03
9.500000000000000111e-02 1.243249999999999911e-01 5.109445000000000192e+01 1.603834999999999980e+02 2.035404999999999973e+03
9.600000000000000200e-02 1.244269999999999959e-01 5.201359999999999673e+01 1.637219999999999800e+02 2.036799999999999955e+03
9.700000000000000289e-02 1.245225000000000082e-01 5.281149999999999523e+01 1.667735000000000127e+02 2.038110000000000127e+03
9.800000000000000377e-02 1.246115000000000139e-01 5.347529999999999717e+01 1.695049999999999955e+02 2.039329999999999927e+03
9.900000000000000466e-02 1.246919999999999973e-01 5.399519999999999698e+01 1.718940000000000055e+02 2.040440000000000055e+03
1.000000000000000056e-01 1.247630000000000128e-01 5.436480000000000246e+01 1.739264999999999759e+02 2.041424999999999955e+03
1.010000000000000064e-01 1.248255000000000059e-01 5.458169999999999789e+01 1.755980000000000132e+02 2.042289999999999964e+03
1.020000000000000073e-01 1.248785000000000034e-01 5.464719999999999800e+01 1.769139999999999873e+02 2.043025000000000091e+03
1.030000000000000082e-01 1.249220000000000053e-01 5.456664999999999566e+01 1.778904999999999745e+02 2.043634999999999991e+03
1.040000000000000091e-01 1.249559999999999976e-01 5.434890000000000043e+01 1.785500000000000114e+02 2.044119999999999891e+03
1.050000000000000100e-01 1.249819999999999959e-01 5.400600000000000023e+01 1.789230000000000018e+02 2.044490000000000009e+03
1.059999999999999970e-01 1.249994999999999995e-01 5.355279999999999774e+01 1.790455000000000041e+02 2.044744999999999891e+03
1.069999999999999979e-01 1.250104999999999966e-01 5.300605000000000189e+01 1.789565000000000055e+02 2.044904999999999973e+03
1.079999999999999988e-01 1.250155000000000016e-01 5.238370000000000459e+01 1.786995000000000005e+02 2.044985000000000127e+03
1.089999999999999997e-01 1.250149999999999872e-01 5.170439999999999969e+01 1.783154999999999859e+02 2.044990000000000236e+03
1.100000000000000006e-01 1.250109999999999832e-01 5.098614999999999498e+01 1.778439999999999941e+02 2.044940000000000055e+03
1.110000000000000014e-01 1.250034999999999896e-01 5.024634999999999962e+01 1.773234999999999957e+02 2.044849999999999909e+03
1.120000000000000023e-01 1.249939999999999940e-01 4.950034999999999741e+01 1.767844999999999800e+02 2.044724999999999909e+03
1.130000000000000032e-01 1.249834999999999974e-01 4.876179999999999382e+01 1.762560000000000002e+02 2.044579999999999927e+03
1.140000000000000041e-01 1.249724999999999864e-01 4.804149999999999920e+01 1.757560000000000002e+02 2.044429999999999836e+03
1.150000000000000050e-01 1.249610000000000026e-01 4.734749999999999659e+01 1.752990000000000066e+02 2.044279999999999745e+03
1.160000000000000059e-01 1.249500000000000055e-01 4.668479999999999563e+01 1.748910000000000196e+02 2.044130000000000109e+03
1.170000000000000068e-01 1.249405000000000099e-01 4.605570000000000164e+01 1.745324999999999989e+02 2.043994999999999891e+03
1.180000000000000077e-01 1.249315000000000009e-01 4.545940000000000225e+01 1.742164999999999964e+02 2.043869999999999891e+03
1.190000000000000085e-01 1.249224999999999919e-01 4.489260000000000161e+01 1.739319999999999879e+02 2.043750000000000000e+03
1.200000000000000094e-01 1.249149999999999983e-01 4.434995000000000687e+01 1.736620000000000061e+02 2.043629999999999882e+03
1.209999999999999964e-01 1.249069999999999903e-01 4.382404999999999973e+01 1.733865000000000123e+02 2.043519999999999982e+03
1.219999999999999973e-01 1.248990000000000100e-01 4.330639999999999645e+01 1.730844999999999914e+02 2.043410000000000082e+03
1.229999999999999982e-01 1.248900000000000010e-01 4.278770000000000095e+01 1.727330000000000041e+02 2.043284999999999854e+03
1.239999999999999991e-01 1.248795000000000044e-01 4.225849999999999795e+01 1.723095000000000141e+02 2.043144999999999982e+03
1.250000000000000000e-01 1.248680000000000068e-01 4.170960000000000178e+01 1.717944999999999993e+02 2.042974999999999909e+03
1.260000000000000009e-01 1.248529999999999918e-01 4.113275000000000148e+01 1.711689999999999827e+02 2.042780000000000200e+03
1.270000000000000018e-01 1.248355000000000020e-01 4.052105000000000246e+01 1.704205000000000041e+02 2.042545000000000073e+03
1.280000000000000027e-01 1.248154999999999959e-01 3.986939999999999884e+01 1.695395000000000039e+02 2.042264999999999873e+03
1.290000000000000036e-01 1.247920000000000140e-01 3.917459999999999809e+01 1.685219999999999914e+02 2.041940000000000055e+03
1.300000000000000044e-01 1.247650000000000009e-01 3.843585000000000207e+01 1.673695000000000164e+02 2.041575000000000045e+03
1.310000000000000053e-01 1.247339999999999977e-01 3.765455000000000041e+01 1.660900000000000034e+02 2.041160000000000082e+03
1.320000000000000062e-01 1.247005000000000058e-01 3.683459999999999468e+01 1.646970000000000027e+02 2.040700000000000045e+03
1.330000000000000071e-01 1.246629999999999960e-01 3.598205000000000098e+01 1.632074999999999818e+02 2.040200000000000045e+03
1.340000000000000080e-01 1.246240000000000125e-01 3.510470000000000113e+01 1.616440000000000055e+02 2.039664999999999964e+03
1.350000000000000089e-01 1.245819999999999983e-01 3.421229999999999905e+01 1.600319999999999823e+02 2.039099999999999909e+03
1.360000000000000098e-01 1.245389999999999969e-01 3.331544999999999845e+01 1.584004999999999939e+02 2.038514999999999873e+03
1.370000000000000107e-01 1.244955000000000089e-01 3.242569999999999908e+01 1.567775000000000034e+02 2.037920000000000073e+03
1.380000000000000115e-01 1.244515000000000066e-01 3.155470000000000041e+01 1.551915000000000191e+02 2.037325000000000045e+03
1.390000000000000124e-01 1.244079999999999908e-01 3.071379999999999910e+01 1.536705000000000041e+02 2.036740000000000009e+03
1.400000000000000133e-01 1.243665000000000048e-01 2.991355000000000075e+01 1.522379999999999995e+02 2.036174999999999955e+03
1.410000000000000142e-01 1.243264999999999926e-01 2.916324999999999790e+01 1.509164999999999850e+02 2.035630000000000109e+03
1.420000000000000151e-01 1.242900000000000116e-01 2.847070000000000078e+01 1.497219999999999800e+02 2.035125000000000000e+03
1.430000000000000160e-01 1.242555000000000048e-01 2.784190000000000254e+01 1.486675000000000182e+02 2.034655000000000200e+03
1.440000000000000169e-01 1.242250000000000021e-01 2.728069999999999951e+01 1.477595000000000027e+02 2.034235000000000127e+03
1.450000000000000178e-01 1.241980000000000028e-01 2.678910000000000124e+01 1.470004999999999882e+02 2.033865000000000009e+03
1.459999999999999909e-01 1.241749999999999937e-01 2.636684999999999945e+01 1.463874999999999886e+02 2.033545000000000073e+03
1.469999999999999918e-01 1.241555000000000020e-01 2.601200000000000045e+01 1.459139999999999873e+02 2.033269999999999982e+03
1.479999999999999927e-01 1.241400000000000003e-01 2.572095000000000198e+01 1.455699999999999932e+02 2.033050000000000182e+03
1.489999999999999936e-01 1.241275000000000017e-01 2.548855000000000004e+01 1.453425000000000011e+02 2.032875000000000000e+03
1.499999999999999944e-01 1.241180000000000061e-01 2.530859999999999843e+01 1.452149999999999750e+02 2.032744999999999891e+03
1.509999999999999953e-01 1.241109999999999991e-01 2.517419999999999902e+01 1.451719999999999970e+02 2.032644999999999982e+03
1.519999999999999962e-01 1.241069999999999951e-01 2.507795000000000130e+01 1.451959999999999980e+02 2.032590000000000146e+03
1.529999999999999971e-01 1.241055000000000075e-01 2.501234999999999786e+01 1.452705000000000268e+02 2.032554999999999836e+03
1.539999999999999980e-01 1.241049999999999931e-01 2.496995000000000076e+01 1.453799999999999955e+02 2.032545000000000073e+03
1.549999999999999989e-01 1.241054999999999936e-01 2.494379999999999953e+01 1.455099999999999909e+02 2.032550000000000182e+03
1.559999999999999998e-01 1.241069999999999951e-01 2.492750000000000199e+01 1.456485000000000127e+02 2.032565000000000055e+03
1.570000000000000007e-01 1.241089999999999971e-01 2.491554999999999964e+01 1.457845000000000084e+02 2.032595000000000027e+03
1.580000000000000016e-01 1.241114999999999996e-01 2.490315000000000012e+01 1.459105000000000132e+02 2.032619999999999891e+03
1.590000000000000024e-01 1.241135000000000016e-01 2.488660000000000139e+01 1.460194999999999936e+02 2.032655000000000200e+03
