# t [s], A [cm^2], U [cm/s], P [cPa], c [cm/s]
1.000000000000000021e-03 5.047030000000000127e-01 4.219350000000003653e-03 9.907840000000000202e+01 1.539565000000000055e+03
2.000000000000000042e-03 5.046950000000000047e-01 -9.243499999999999980e-04 9.905474999999999852e+01 1.539555000000000064e+03
3.000000000000000062e-03 5.047374999999999501e-01 8.832299999999999873e-02 9.914355000000000473e+01 1.539579999999999927e+03
4.000000000000000083e-03 5.047795000000000476e-01 1.827560499999999755e-01 9.925735000000000241e+01 1.539605000000000018e+03
5.000000000000000104e-03 5.047639999999999905e-01 1.668597499999999734e-01 9.922159999999999513e+01 1.539605000000000018e+03
6.000000000000000125e-03 5.047129999999999672e-01 7.170900000000002272e-02 9.902909999999999968e+01 1.539559999999999945e+03
7.000000000000000146e-03 5.046644999999999603e-01 -2.378250000000003972e-02 9.876885000000000048e+01 1.539494999999999891e+03
8.000000000000000167e-03 5.045965000000000034e-01 -1.716289999999999760e-01 9.839740000000000464e+01 1.539409999999999854e+03
9.000000000000001055e-03 5.044809999999999572e-01 -4.329900000000000970e-01 9.782644999999999413e+01 1.539279999999999973e+03
1.000000000000000194e-02 5.043150000000000688e-01 -8.100649999999999240e-01 9.701699999999999591e+01 1.539079999999999927e+03
1.099999999999999936e-02 5.040895000000000792e-01 -1.311995000000000022e+00 9.592379999999999995e+01 1.538819999999999936e+03
1.200000000000000025e-02 5.037909999999999888e-01 -1.952269999999999950e+00 9.449244999999999095e+01 1.538465000000000146e+03
1.300000000000000114e-02 5.034294999999999742e-01 -2.689319999999999933e+00 9.273290000000000077e+01 1.538019999999999982e+03
1.400000000000000203e-02 5.030449999999999644e-01 -3.407359999999999722e+00 9.076384999999999081e+01 1.537505000000000109e+03
1.499999999999999944e-02 5.026914999999999578e-01 -3.962876000000000065e+00 8.877490000000000236e+01 1.536970000000000027e+03
1.600000000000000033e-02 5.024029999999999330e-01 -4.248870499999999772e+00 8.694530000000000314e+01 1.536450000000000045e+03
1.700000000000000122e-02 5.021869999999999390e-01 -4.230629000000000417e+00 8.537850000000000250e+01 1.535974999999999909e+03
1.800000000000000211e-02 5.020240000000000258e-01 -3.944274500000000128e+00 8.408080000000001064e+01 1.535550000000000182e+03
1.900000000000000300e-02 5.018805000000000627e-01 -3.471576999999999913e+00 8.297704999999999131e+01 1.535164999999999964e+03
2.000000000000000042e-02 5.017224999999999602e-01 -2.906427499999999942e+00 8.194910000000000139e+01 1.534804999999999836e+03
2.100000000000000130e-02 5.015259999999999163e-01 -2.324160500000000074e+00 8.088075000000000614e+01 1.534440000000000055e+03
2.200000000000000219e-02 5.012839999999999518e-01 -1.762159999999999727e+00 7.969560000000001310e+01 1.534045000000000073e+03
2.299999999999999961e-02 5.010040000000000049e-01 -1.217154999999999987e+00 7.837475000000000591e+01 1.533619999999999891e+03
2.400000000000000050e-02 5.007049999999999557e-01 -6.588949999999997864e-01 7.695099999999999341e+01 1.533179999999999836e+03
2.500000000000000139e-02 5.004070000000000462e-01 -5.275000000000007461e-02 7.548390000000000555e+01 1.532714999999999918e+03
2.600000000000000228e-02 5.001195000000000501e-01 6.189749999999998309e-01 7.402844999999999231e+01 1.532255000000000109e+03
2.700000000000000316e-02 4.998439999999999550e-01 1.344355000000000189e+00 7.261039999999999850e+01 1.531799999999999955e+03
2.800000000000000058e-02 4.995685000000000264e-01 2.080259999999999998e+00 7.121350000000001046e+01 1.531344999999999800e+03
2.900000000000000147e-02 4.992744999999999544e-01 2.760315000000000296e+00 6.978145000000000664e+01 1.530884999999999991e+03
3.000000000000000236e-02 4.989385000000000625e-01 3.309094999999999676e+00 6.823165000000000191e+01 1.530394999999999982e+03
3.099999999999999978e-02 4.985424999999999995e-01 3.658965000000000245e+00 6.647639999999999816e+01 1.529865000000000009e+03
3.200000000000000067e-02 4.980759999999999632e-01 3.765670000000000073e+00 6.444754999999999256e+01 1.529269999999999982e+03
3.300000000000000155e-02 4.975405000000000522e-01 3.618819999999999926e+00 6.211699999999999733e+01 1.528605000000000018e+03
3.400000000000000244e-02 4.969500000000000028e-01 3.244875000000000398e+00 5.950894999999999868e+01 1.527869999999999891e+03
3.500000000000000333e-02 4.963299999999999379e-01 2.701489999999999725e+00 5.670000000000000284e+01 1.527079999999999927e+03
3.600000000000000422e-02 4.957094999999999696e-01 2.065929999999999822e+00 5.380794999999999817e+01 1.526269999999999982e+03
3.700000000000000511e-02 4.951214999999999922e-01 1.421550000000000313e+00 5.097390000000000043e+01 1.525454999999999927e+03
3.799999999999999906e-02 4.945930000000000049e-01 8.453599999999998893e-01 4.834239999999999782e+01 1.524690000000000055e+03
3.899999999999999994e-02 4.941470000000000029e-01 3.997700000000001808e-01 4.604384999999999906e+01 1.523994999999999891e+03
4.000000000000000083e-02 4.937989999999999879e-01 1.286499999999999311e-01 4.418294999999999817e+01 1.523410000000000082e+03
4.100000000000000172e-02 4.935574999999999823e-01 5.764000000000013557e-02 4.283225000000000193e+01 1.522950000000000045e+03
4.200000000000000261e-02 4.934244999999999881e-01 1.973199999999999399e-01 4.203194999999999482e+01 1.522634999999999991e+03
4.300000000000000350e-02 4.933985000000000176e-01 5.479030000000000289e-01 4.179425000000000523e+01 1.522480000000000018e+03
4.400000000000000439e-02 4.934760000000000257e-01 1.104145500000000002e+00 4.210979999999999990e+01 1.522470000000000027e+03
4.499999999999999833e-02 4.936515000000000208e-01 1.859277500000000138e+00 4.295564999999999856e+01 1.522615000000000009e+03
4.599999999999999922e-02 4.939204999999999846e-01 2.807205000000000172e+00 4.430174999999999841e+01 1.522910000000000082e+03
4.700000000000000011e-02 4.942769999999999664e-01 3.942820000000000213e+00 4.611514999999999986e+01 1.523339999999999918e+03
4.800000000000000100e-02 4.947165000000000035e-01 5.260665000000000369e+00 4.836180000000000234e+01 1.523904999999999973e+03
4.900000000000000189e-02 4.952329999999999788e-01 6.752705999999999875e+00 5.100615000000000521e+01 1.524585000000000036e+03
5.000000000000000278e-02 4.958190000000000097e-01 8.406171020000000382e+00 5.400934999999999775e+01 1.525384999999999991e+03
5.100000000000000366e-02 4.964655000000000040e-01 1.020223499999999994e+01 5.732739999999999725e+01 1.526275000000000091e+03
5.200000000000000455e-02 4.971624999999999517e-01 1.211549499999999924e+01 6.091004999999999825e+01 1.527255000000000109e+03
5.300000000000000544e-02 4.978970000000000340e-01 1.411495000000000033e+01 6.470104999999999507e+01 1.528304999999999836e+03
5.399999999999999939e-02 4.986570000000000169e-01 1.616572000000000031e+01 6.863970000000000482e+01 1.529414999999999964e+03
5.500000000000000028e-02 4.994299999999999851e-01 1.823166000000000153e+01 7.266360000000000241e+01 1.530554999999999836e+03
5.600000000000000117e-02 5.002029999999999532e-01 2.027759999999999962e+01 7.671179999999999666e+01 1.531720000000000027e+03
5.700000000000000205e-02 5.009670000000000512e-01 2.227165000000000106e+01 8.072825000000000273e+01 1.532894999999999982e+03
5.800000000000000294e-02 5.017125000000000057e-01 2.418690000000000140e+01 8.466525000000000034e+01 1.534055000000000064e+03
5.900000000000000383e-02 5.024345000000000061e-01 2.600260000000000105e+01 8.848420000000000130e+01 1.535195000000000164e+03
6.000000000000000472e-02 5.031280000000000197e-01 2.770425000000000182e+01 9.215970000000000084e+01 1.536304999999999836e+03
6.099999999999999867e-02 5.037929999999999353e-01 2.928345000000000198e+01 9.567584999999999695e+01 1.537384999999999991e+03
6.199999999999999956e-02 5.044290000000000163e-01 3.073740000000000094e+01 9.902875000000000227e+01 1.538420000000000073e+03
6.300000000000000044e-02 5.050379999999999869e-01 3.206780000000000541e+01 1.022240999999999929e+02 1.539420000000000073e+03
6.400000000000000133e-02 5.056235000000000035e-01 3.328020000000000067e+01 1.052742000000000075e+02 1.540380000000000109e+03
6.500000000000000222e-02 5.061884999999999302e-01 3.438269999999999982e+01 1.081978000000000009e+02 1.541299999999999955e+03
6.600000000000000311e-02 5.067379999999999107e-01 3.538524999999999920e+01 1.110169999999999959e+02 1.542194999999999936e+03
6.700000000000000400e-02 5.072765000000000191e-01 3.629885000000000161e+01 1.137554999999999978e+02 1.543070000000000164e+03
6.800000000000000488e-02 5.078074999999999672e-01 3.713469999999999516e+01 1.164364999999999952e+02 1.543920000000000073e+03
6.900000000000000577e-02 5.083355000000000512e-01 3.790324999999999989e+01 1.190800000000000125e+02 1.544760000000000218e+03
7.000000000000000666e-02 5.088620000000000365e-01 3.861379999999999768e+01 1.217044999999999959e+02 1.545585000000000036e+03
7.100000000000000755e-02 5.093894999999999396e-01 3.927355000000000018e+01 1.243220000000000027e+02 1.546414999999999964e+03
7.200000000000000844e-02 5.099180000000000934e-01 3.988719999999999999e+01 1.269369999999999834e+02 1.547235000000000127e+03
7.300000000000000933e-02 5.104465000000000252e-01 4.045659999999999457e+01 1.295500000000000114e+02 1.548055000000000064e+03
7.399999999999999634e-02 5.109730000000000105e-01 4.098080000000000211e+01 1.321529999999999916e+02 1.548869999999999891e+03
7.499999999999999722e-02 5.114940000000000042e-01 4.145605000000000473e+01 1.347315000000000111e+02 1.549679999999999836e+03
7.599999999999999811e-02 5.120055000000000023e-01 4.187639999999999674e+01 1.372659999999999911e+02 1.550474999999999909e+03
7.699999999999999900e-02 5.125024999999999720e-01 4.223420000000000130e+01 1.397330000000000041e+02 1.551255000000000109e+03
7.799999999999999989e-02 5.129790000000000738e-01 4.252084999999999582e+01 1.421059999999999945e+02 1.552005000000000109e+03
7.900000000000000078e-02 5.134299999999999420e-01 4.272755000000000081e+01 1.443580000000000041e+02 1.552724999999999909e+03
8.000000000000000167e-02 5.138504999999999878e-01 4.284609999999999985e+01 1.464625000000000057e+02 1.553409999999999854e+03
8.100000000000000255e-02 5.142369999999999441e-01 4.286925000000000097e+01 1.483949999999999818e+02 1.554039999999999964e+03
8.200000000000000344e-02 5.145845000000000002e-01 4.279155000000000086e+01 1.501354999999999791e+02 1.554615000000000009e+03
8.300000000000000433e-02 5.148905000000000287e-01 4.260949999999999704e+01 1.516680000000000064e+02 1.555134999999999991e+03
8.400000000000000522e-02 5.151544999999999597e-01 4.232179999999999609e+01 1.529819999999999993e+02 1.555590000000000146e+03
8.500000000000000611e-02 5.153745000000000687e-01 4.192960000000000065e+01 1.540724999999999909e+02 1.555980000000000018e+03
8.600000000000000699e-02 5.155515000000000514e-01 4.143635000000000446e+01 1.549395000000000095e+02 1.556304999999999836e+03
8.700000000000000788e-02 5.156875000000000764e-01 4.084779999999999944e+01 1.555905000000000200e+02 1.556565000000000055e+03
8.800000000000000877e-02 5.157840000000000202e-01 4.017170000000000130e+01 1.560360000000000014e+02 1.556759999999999991e+03
8.899999999999999578e-02 5.158445000000000391e-01 3.941774999999999807e+01 1.562909999999999968e+02 1.556900000000000091e+03
8.999999999999999667e-02 5.158734999999999848e-01 3.859699999999999420e+01 1.563750000000000000e+02 1.556980000000000018e+03
9.099999999999999756e-02 5.158739999999999437e-01 3.772189999999999799e+01 1.563109999999999786e+02 1.557014999999999873e+03
9.199999999999999845e-02 5.158515000000000184e-01 3.680545000000000044e+01 1.561214999999999975e+02 1.557005000000000109e+03
9.299999999999999933e-02 5.158104999999999496e-01 3.586110000000000042e+01 1.558315000000000055e+02 1.556960000000000036e+03
9.400000000000000022e-02 5.157559999999999922e-01 3.490205000000000268e+01 1.554675000000000011e+02 1.556889999999999873e+03
9.500000000000000111e-02 5.156920000000000393e-01 3.394100000000000250e+01 1.550525000000000091e+02 1.556795000000000073e+03
9.600000000000000200e-02 5.156224999999999836e-01 3.298964999999999748e+01 1.546100000000000136e+02 1.556684999999999945e+03
9.700000000000000289e-02 5.155520000000000103e-01 3.205814999999999770e+01 1.541589999999999918e+02 1.556559999999999945e+03
9.800000000000000377e-02 5.154825000000000657e-01 3.115504999999999924e+01 1.537175000000000011e+02 1.556440000000000055e+03
9.900000000000000466e-02 5.154174999999999729e-01 3.028679999999999950e+01 1.532984999999999900e+02 1.556320000000000164e+03
1.000000000000000056e-01 5.153575000000000239e-01 2.945754999999999768e+01 1.529119999999999777e+02 1.556210000000000036e+03
1.010000000000000064e-01 5.153035000000000254e-01 2.866944999999999766e+01 1.525625000000000000e+02 1.556099999999999909e+03
1.020000000000000073e-01 5.152559999999999363e-01 2.792235000000000156e+01 1.522524999999999977e+02 1.556000000000000000e+03
1.030000000000000082e-01 5.152130000000000321e-01 2.721399999999999864e+01 1.519780000000000086e+02 1.555909999999999854e+03
1.040000000000000091e-01 5.151749999999999385e-01 2.654055000000000319e+01 1.517350000000000136e+02 1.555825000000000045e+03
1.050000000000000100e-01 5.151390000000000136e-01 2.589654999999999774e+01 1.515144999999999982e+02 1.555750000000000000e+03
1.059999999999999970e-01 5.151029999999999776e-01 2.527540000000000120e+01 1.513050000000000068e+02 1.555675000000000182e+03
1.069999999999999979e-01 5.150649999999999951e-01 2.466979999999999862e+01 1.510949999999999989e+02 1.555605000000000018e+03
1.079999999999999988e-01 5.150224999999999387e-01 2.407215000000000060e+01 1.508709999999999809e+02 1.555530000000000200e+03
1.089999999999999997e-01 5.149725000000000552e-01 2.347480000000000189e+01 1.506209999999999809e+02 1.555449999999999818e+03
1.100000000000000006e-01 5.149135000000000240e-01 2.287035000000000196e+01 1.503319999999999936e+02 1.555360000000000127e+03
1.110000000000000014e-01 5.148440000000000794e-01 2.225234999999999985e+01 1.499934999999999832e+02 1.555260000000000218e+03
1.120000000000000023e-01 5.147614999999999830e-01 2.161529999999999774e+01 1.495960000000000036e+02 1.555144999999999982e+03
1.130000000000000032e-01 5.146654999999999980e-01 2.095474999999999710e+01 1.491330000000000098e+02 1.555009999999999991e+03
1.140000000000000041e-01 5.145554999999999435e-01 2.026790000000000092e+01 1.485995000000000061e+02 1.554849999999999909e+03
1.150000000000000050e-01 5.144310000000000827e-01 1.955339999999999989e+01 1.479954999999999927e+02 1.554679999999999836e+03
1.160000000000000059e-01 5.142934999999999590e-01 1.881165000000000020e+01 1.473215000000000146e+02 1.554490000000000009e+03
1.170000000000000068e-01 5.141434999999999755e-01 1.804459999999999908e+01 1.465819999999999936e+02 1.554275000000000091e+03
1.180000000000000077e-01 5.139829999999999677e-01 1.725590000000000046e+01 1.457844999999999800e+02 1.554050000000000182e+03
1.190000000000000085e-01 5.138135000000000341e-01 1.645049999999999812e+01 1.449395000000000095e+02 1.553805000000000064e+03
1.200000000000000094e-01 5.136380000000000390e-01 1.563475000000000037e+01 1.440579999999999927e+02 1.553545000000000073e+03
1.209999999999999964e-01 5.134600000000000275e-01 1.481598499999999952e+01 1.431544999999999845e+02 1.553279999999999973e+03
1.219999999999999973e-01 5.132815000000000571e-01 1.400229500000000016e+01 1.422429999999999950e+02 1.553014999999999873e+03
1.229999999999999982e-01 5.131059999999999510e-01 1.320217500000000044e+01 1.413400000000000034e+02 1.552750000000000000e+03
1.239999999999999991e-01 5.129365000000000174e-01 1.242435500000000026e+01 1.404604999999999961e+02 1.552485000000000127e+03
1.250000000000000000e-01 5.127760000000000096e-01 1.167713000000000001e+01 1.396204999999999927e+02 1.552224999999999909e+03
1.260000000000000009e-01 5.126260000000000261e-01 1.096837999999999980e+01 1.388329999999999984e+02 1.551985000000000127e+03
1.270000000000000018e-01 5.124900000000000011e-01 1.030498000000000047e+01 1.381109999999999900e+02 1.551759999999999991e+03
1.280000000000000027e-01 5.123699999999999921e-01 9.692785000000000650e+00 1.374635000000000105e+02 1.551545000000000073e+03
1.290000000000000036e-01 5.122659999999999991e-01 9.136205000000000354e+00 1.368985000000000127e+02 1.551365000000000009e+03
1.300000000000000044e-01 5.121795000000000098e-01 8.638185000000000002e+00 1.364209999999999923e+02 1.551200000000000045e+03
1.310000000000000053e-01 5.121094999999999953e-01 8.200160000000000338e+00 1.360329999999999870e+02 1.551059999999999945e+03
1.320000000000000062e-01 5.120569999999999844e-01 7.821749999999999758e+00 1.357319999999999993e+02 1.550950000000000045e+03
1.330000000000000071e-01 5.120204999999999895e-01 7.501274999999999693e+00 1.355155000000000030e+02 1.550865000000000009e+03
1.340000000000000080e-01 5.119979999999999531e-01 7.235559999999999548e+00 1.353759999999999764e+02 1.550800000000000182e+03
1.350000000000000089e-01 5.119879999999999987e-01 7.020245000000000068e+00 1.353054999999999950e+02 1.550755000000000109e+03
1.360000000000000098e-01 5.119884999999999575e-01 6.849999999999999645e+00 1.352934999999999945e+02 1.550730000000000018e+03
1.370000000000000107e-01 5.119970000000000354e-01 6.718804999999999694e+00 1.353280000000000030e+02 1.550720000000000027e+03
1.380000000000000115e-01 5.120109999999999939e-01 6.620184999999999320e+00 1.353985000000000127e+02 1.550720000000000027e+03
1.390000000000000124e-01 5.120289999999999564e-01 6.547509999999999941e+00 1.354909999999999854e+02 1.550730000000000018e+03
1.400000000000000133e-01 5.120474999999999888e-01 6.494234999999999758e+00 1.355949999999999989e+02 1.550750000000000000e+03
1.410000000000000142e-01 5.120660000000000212e-01 6.454119999999999635e+00 1.356995000000000005e+02 1.550769999999999982e+03
1.420000000000000151e-01 5.120814999999999673e-01 6.421429999999999971e+00 1.357945000000000277e+02 1.550789999999999964e+03
1.430000000000000160e-01 5.120934999999999793e-01 6.391059999999999519e+00 1.358725000000000023e+02 1.550804999999999836e+03
1.440000000000000169e-01 5.121004999999999585e-01 6.358660000000000423e+00 1.359270000000000209e+02 1.550819999999999936e+03
1.450000000000000178e-01 5.121014999999999873e-01 6.320684999999999221e+00 1.359524999999999864e+02 1.550824999999999818e+03
1.459999999999999909e-01 5.120964999999999545e-01 6.274414999999999409e+00 1.359465000000000146e+02 1.550819999999999936e+03
1.469999999999999918e-01 5.120850000000000124e-01 6.217959999999999710e+00 1.359074999999999989e+02 1.550815000000000055e+03
1.479999999999999927e-01 5.120675000000000088e-01 6.150195000000000078e+00 1.358354999999999961e+02 1.550789999999999964e+03
1.489999999999999936e-01 5.120445000000000135e-01 6.070710000000000051e+00 1.357314999999999827e+02 1.550764999999999873e+03
1.499999999999999944e-01 5.120154999999999568e-01 5.979720000000000368e+00 1.355989999999999895e+02 1.550730000000000018e+03
1.509999999999999953e-01 5.119830000000000769e-01 5.877990000000000492e+00 1.354404999999999859e+02 1.550684999999999945e+03
1.519999999999999962e-01 5.119454999999999423e-01 5.766709999999999781e+00 1.352595000000000027e+02 1.550640000000000100e+03
1.529999999999999971e-01 5.119055000000000133e-01 5.647409999999999819e+00 1.350609999999999786e+02 1.550579999999999927e+03
1.539999999999999980e-01 5.118635000000000268e-01 5.521855000000000402e+00 1.348485000000000014e+02 1.550519999999999982e+03
1.549999999999999989e-01 5.118199999999999417e-01 5.391939999999999955e+00 1.346265000000000214e+02 1.550460000000000036e+03
1.559999999999999998e-01 5.117754999999999388e-01 5.259644999999999904e+00 1.343994999999999891e+02 1.550394999999999982e+03
1.570000000000000007e-01 5.117315000000000058e-01 5.126895000000000202e+00 1.341700000000000159e+02 1.550329999999999927e+03
1.580000000000000016e-01 5.116874999999999618e-01 4.995529999999999582e+00 1.339420000000000073e+02 1.550259999999999991e+03
1.590000000000000024e-01 5.116450000000000164e-01 4.867240000000000677e+00 1.337175000000000011e+02 1.550194999999999936e+03
