# t [s], A [cm^2], U [cm/s], P [cPa], c [cm/s]
1.000000000000000021e-03 1.209629999999999872e-01 9.874584999999999613e-02 9.023320000000001073e+01 1.989889999999999873e+03
2.000000000000000042e-03 1.209490000000000010e-01 1.211900500000000047e+00 8.793989999999999441e+01 1.989660000000000082e+03
3.000000000000000062e-03 1.208895000000000108e-01 2.671126500000000181e+00 8.476515000000000555e+01 1.988775000000000091e+03
4.000000000000000083e-03 1.207980000000000026e-01 4.335539999999999949e+00 8.096025000000000205e+01 1.987449999999999818e+03
5.000000000000000104e-03 1.206895000000000051e-01 6.159950000000000259e+00 7.711045000000000016e+01 1.985894999999999982e+03
6.000000000000000125e-03 1.205775000000000041e-01 8.076214999999999478e+00 7.364060000000000628e+01 1.984295000000000073e+03
7.000000000000000146e-03 1.204679999999999918e-01 9.958899999999999864e+00 7.065720000000000312e+01 1.982759999999999991e+03
8.000000000000000167e-03 1.203644999999999993e-01 1.167458499999999866e+01 6.801964999999999861e+01 1.981324999999999818e+03
9.000000000000001055e-03 1.202674999999999994e-01 1.316732999999999976e+01 6.560755000000000337e+01 1.980005000000000109e+03
1.000000000000000194e-02 1.201790000000000080e-01 1.445100500000000032e+01 6.344245000000000090e+01 1.978825000000000045e+03
1.099999999999999936e-02 1.201020000000000004e-01 1.554909999999999926e+01 6.158200000000000784e+01 1.977800000000000182e+03
1.200000000000000025e-02 1.200360000000000038e-01 1.647540000000000049e+01 6.004019999999999868e+01 1.976934999999999945e+03
1.300000000000000114e-02 1.199810000000000043e-01 1.723890000000000100e+01 5.879384999999999906e+01 1.976215000000000146e+03
1.400000000000000203e-02 1.199359999999999871e-01 1.784100000000000108e+01 5.778759999999999764e+01 1.975639999999999873e+03
1.499999999999999944e-02 1.198985000000000051e-01 1.827805000000000035e+01 5.693495000000000061e+01 1.975154999999999973e+03
1.600000000000000033e-02 1.198654999999999859e-01 1.856275000000000119e+01 5.616539999999999822e+01 1.974755000000000109e+03
1.700000000000000122e-02 1.198384999999999867e-01 1.874650000000000105e+01 5.549809999999999377e+01 1.974420000000000073e+03
1.800000000000000211e-02 1.198184999999999945e-01 1.891649999999999920e+01 5.507085000000000008e+01 1.974180000000000064e+03
1.900000000000000300e-02 1.198089999999999988e-01 1.916570000000000107e+01 5.508629999999999427e+01 1.974074999999999818e+03
2.000000000000000042e-02 1.198144999999999905e-01 1.955385000000000062e+01 5.570635000000000048e+01 1.974150000000000091e+03
2.100000000000000130e-02 1.198349999999999971e-01 2.008330000000000126e+01 5.695964999999999634e+01 1.974425000000000182e+03
2.200000000000000219e-02 1.198699999999999904e-01 2.069969999999999999e+01 5.870954999999999302e+01 1.974889999999999873e+03
2.299999999999999961e-02 1.199140000000000067e-01 2.131365000000000265e+01 6.069050000000000011e+01 1.975480000000000018e+03
2.400000000000000050e-02 1.199610000000000121e-01 2.183194999999999908e+01 6.259024999999999750e+01 1.976110000000000127e+03
2.500000000000000139e-02 1.200045000000000139e-01 2.218529999999999802e+01 6.413849999999999341e+01 1.976710000000000036e+03
2.600000000000000228e-02 1.200400000000000078e-01 2.234424999999999883e+01 6.517324999999999591e+01 1.977204999999999927e+03
2.700000000000000316e-02 1.200649999999999912e-01 2.232090000000000174e+01 6.566604999999999848e+01 1.977559999999999945e+03
2.800000000000000058e-02 1.200790000000000052e-01 2.215800000000000125e+01 6.570560000000000400e+01 1.977775000000000091e+03
2.900000000000000147e-02 1.200849999999999973e-01 2.191130000000000067e+01 6.545120000000000005e+01 1.977875000000000000e+03
3.000000000000000236e-02 1.200854999999999978e-01 2.163109999999999999e+01 6.507455000000000211e+01 1.977889999999999873e+03
3.099999999999999978e-02 1.200829999999999953e-01 2.134864999999999924e+01 6.470770000000000266e+01 1.977865000000000009e+03
3.200000000000000067e-02 1.200795000000000057e-01 2.107025000000000148e+01 6.441235000000000355e+01 1.977824999999999818e+03
3.300000000000000155e-02 1.200765000000000027e-01 2.078034999999999854e+01 6.417419999999999902e+01 1.977779999999999973e+03
3.400000000000000244e-02 1.200714999999999977e-01 2.045009999999999906e+01 6.392104999999999393e+01 1.977715000000000146e+03
3.500000000000000333e-02 1.200645000000000046e-01 2.004990000000000094e+01 6.355695000000000050e+01 1.977630000000000109e+03
3.600000000000000422e-02 1.200530000000000069e-01 1.956119999999999948e+01 6.299994999999999834e+01 1.977480000000000018e+03
3.700000000000000511e-02 1.200365000000000043e-01 1.898559999999999803e+01 6.221540000000000248e+01 1.977269999999999982e+03
3.799999999999999906e-02 1.200150000000000106e-01 1.834785000000000110e+01 6.123430000000000462e+01 1.976990000000000009e+03
3.899999999999999994e-02 1.199894999999999989e-01 1.769249999999999901e+01 6.015344999999999942e+01 1.976659999999999854e+03
4.000000000000000083e-02 1.199635000000000007e-01 1.707545000000000002e+01 5.911610000000000298e+01 1.976315000000000055e+03
4.100000000000000172e-02 1.199399999999999911e-01 1.655219999999999914e+01 5.828025000000000233e+01 1.975994999999999891e+03
4.200000000000000261e-02 1.199220000000000008e-01 1.616629999999999967e+01 5.778305000000000291e+01 1.975750000000000000e+03
4.300000000000000350e-02 1.199125000000000052e-01 1.594075000000000131e+01 5.771045000000000158e+01 1.975610000000000127e+03
4.400000000000000439e-02 1.199129999999999918e-01 1.587460000000000093e+01 5.807974999999999710e+01 1.975595000000000027e+03
4.499999999999999833e-02 1.199230000000000018e-01 1.594435000000000002e+01 5.883830000000000382e+01 1.975719999999999800e+03
4.599999999999999922e-02 1.199415000000000064e-01 1.610949999999999704e+01 5.987534999999999741e+01 1.975944999999999936e+03
4.700000000000000011e-02 1.199655000000000027e-01 1.632049999999999912e+01 6.104500000000000171e+01 1.976259999999999991e+03
4.800000000000000100e-02 1.199919999999999876e-01 1.652659999999999840e+01 6.219150000000000489e+01 1.976605000000000018e+03
4.900000000000000189e-02 1.200179999999999997e-01 1.668335000000000079e+01 6.317364999999999498e+01 1.976950000000000045e+03
5.000000000000000278e-02 1.200394999999999934e-01 1.675704999999999956e+01 6.388269999999999982e+01 1.977244999999999891e+03
5.100000000000000366e-02 1.200549999999999951e-01 1.672680000000000078e+01 6.425190000000000623e+01 1.977454999999999927e+03
5.200000000000000455e-02 1.200630000000000031e-01 1.658440000000000225e+01 6.425740000000000407e+01 1.977575000000000045e+03
5.300000000000000544e-02 1.200625000000000026e-01 1.633155000000000001e+01 6.391240000000000521e+01 1.977575000000000045e+03
5.399999999999999939e-02 1.200539999999999941e-01 1.597710000000000008e+01 6.325625000000000142e+01 1.977470000000000027e+03
5.500000000000000028e-02 1.200385000000000063e-01 1.553345000000000020e+01 6.234215000000000373e+01 1.977264999999999873e+03
5.600000000000000117e-02 1.200154999999999972e-01 1.501365000000000016e+01 6.122634999999999650e+01 1.976970000000000027e+03
5.700000000000000205e-02 1.199879999999999974e-01 1.443025000000000091e+01 5.996045000000000158e+01 1.976605000000000018e+03
5.800000000000000294e-02 1.199560000000000071e-01 1.379424999999999990e+01 5.858724999999999739e+01 1.976179999999999836e+03
5.900000000000000383e-02 1.199204999999999854e-01 1.311605000000000132e+01 5.714079999999999870e+01 1.975704999999999927e+03
6.000000000000000472e-02 1.198819999999999886e-01 1.240615999999999985e+01 5.564960000000000662e+01 1.975200000000000045e+03
6.099999999999999867e-02 1.198425000000000046e-01 1.167682999999999893e+01 5.414074999999999704e+01 1.974670000000000073e+03
6.199999999999999956e-02 1.198015000000000052e-01 1.094319499999999934e+01 5.264459999999999695e+01 1.974130000000000109e+03
6.300000000000000044e-02 1.197614999999999930e-01 1.022373499999999957e+01 5.119849999999999568e+01 1.973589999999999918e+03
6.400000000000000133e-02 1.197219999999999951e-01 9.540575000000000472e+00 4.984839999999999804e+01 1.973069999999999936e+03
6.500000000000000222e-02 1.196855000000000002e-01 8.918760000000000687e+00 4.864874999999999972e+01 1.972574999999999818e+03
6.600000000000000311e-02 1.196529999999999955e-01 8.385089999999999932e+00 4.765999999999999659e+01 1.972134999999999991e+03
6.700000000000000400e-02 1.196264999999999967e-01 7.966520000000000934e+00 4.694505000000000194e+01 1.971769999999999982e+03
6.800000000000000488e-02 1.196070000000000050e-01 7.688570000000000348e+00 4.656454999999999700e+01 1.971494999999999891e+03
6.900000000000000577e-02 1.195964999999999945e-01 7.573579999999999757e+00 4.657224999999999682e+01 1.971345000000000027e+03
7.000000000000000666e-02 1.195959999999999940e-01 7.639324999999999477e+00 4.701089999999999947e+01 1.971325000000000045e+03
7.100000000000000755e-02 1.196069999999999911e-01 7.898035000000000139e+00 4.790910000000000224e+01 1.971454999999999927e+03
7.200000000000000844e-02 1.196305000000000007e-01 8.355859999999999843e+00 4.927984999999999616e+01 1.971750000000000000e+03
7.300000000000000933e-02 1.196659999999999946e-01 9.012705000000000410e+00 5.111974999999999625e+01 1.972204999999999927e+03
7.399999999999999634e-02 1.197140000000000010e-01 9.862629999999999342e+00 5.341024999999999778e+01 1.972829999999999927e+03
7.499999999999999722e-02 1.197745000000000060e-01 1.089437500000000014e+01 5.611965000000000003e+01 1.973610000000000127e+03
7.599999999999999811e-02 1.198454999999999937e-01 1.209234000000000009e+01 5.920550000000000068e+01 1.974549999999999955e+03
7.699999999999999900e-02 1.199270000000000058e-01 1.343769999999999953e+01 6.261785000000000423e+01 1.975630000000000109e+03
7.799999999999999989e-02 1.200174999999999992e-01 1.490949999999999953e+01 6.630279999999999063e+01 1.976829999999999927e+03
7.900000000000000078e-02 1.201160000000000005e-01 1.648570000000000135e+01 7.020565000000000566e+01 1.978144999999999982e+03
8.000000000000000167e-02 1.202209999999999945e-01 1.814439999999999742e+01 7.427404999999998836e+01 1.979545000000000073e+03
8.100000000000000255e-02 1.203304999999999930e-01 1.986489999999999867e+01 7.846025000000000205e+01 1.981019999999999982e+03
8.200000000000000344e-02 1.204445000000000099e-01 2.162800000000000011e+01 8.272299999999999898e+01 1.982554999999999836e+03
8.300000000000000433e-02 1.205610000000000015e-01 2.341694999999999993e+01 8.702875000000000227e+01 1.984125000000000000e+03
8.400000000000000522e-02 1.206794999999999951e-01 2.521715000000000018e+01 9.135169999999999391e+01 1.985734999999999900e+03
8.500000000000000611e-02 1.207995000000000041e-01 2.701670000000000016e+01 9.567324999999999591e+01 1.987365000000000009e+03
8.600000000000000699e-02 1.209199999999999997e-01 2.880550000000000210e+01 9.998064999999999714e+01 1.989005000000000109e+03
8.700000000000000788e-02 1.210404999999999953e-01 3.057535000000000025e+01 1.042665000000000077e+02 1.990654999999999973e+03
8.800000000000000877e-02 1.211615000000000053e-01 3.231929999999999836e+01 1.085244999999999891e+02 1.992309999999999945e+03
8.899999999999999578e-02 1.212814999999999865e-01 3.403099999999999881e+01 1.127510000000000048e+02 1.993960000000000036e+03
8.999999999999999667e-02 1.214010000000000089e-01 3.570479999999999876e+01 1.169395000000000095e+02 1.995610000000000127e+03
9.099999999999999756e-02 1.215205000000000035e-01 3.733474999999999966e+01 1.210855000000000103e+02 1.997244999999999891e+03
9.199999999999999845e-02 1.216384999999999966e-01 3.891540000000000532e+01 1.251784999999999997e+02 1.998880000000000109e+03
9.299999999999999933e-02 1.217550000000000021e-01 4.044095000000000084e+01 1.292079999999999984e+02 2.000494999999999891e+03
9.400000000000000022e-02 1.218700000000000061e-01 4.190565000000000140e+01 1.331620000000000061e+02 2.002090000000000146e+03
9.500000000000000111e-02 1.219834999999999947e-01 4.330410000000000537e+01 1.370275000000000034e+02 2.003670000000000073e+03
9.600000000000000200e-02 1.220944999999999947e-01 4.463110000000000355e+01 1.407884999999999991e+02 2.005210000000000036e+03
9.700000000000000289e-02 1.222020000000000051e-01 4.588185000000000002e+01 1.444329999999999927e+02 2.006720000000000027e+03
9.800000000000000377e-02 1.223069999999999991e-01 4.705219999999999914e+01 1.479470000000000027e+02 2.008180000000000064e+03
9.900000000000000466e-02 1.224085000000000034e-01 4.813830000000000098e+01 1.513185000000000002e+02 2.009605000000000018e+03
1.000000000000000056e-01 1.225060000000000038e-01 4.913689999999999714e+01 1.545360000000000014e+02 2.010974999999999909e+03
1.010000000000000064e-01 1.225990000000000135e-01 5.004500000000000171e+01 1.575900000000000034e+02 2.012289999999999964e+03
1.020000000000000073e-01 1.226885000000000059e-01 5.085994999999999777e+01 1.604694999999999823e+02 2.013539999999999964e+03
1.030000000000000082e-01 1.227725000000000066e-01 5.157930000000000348e+01 1.631664999999999850e+02 2.014735000000000127e+03
1.040000000000000091e-01 1.228515000000000024e-01 5.220069999999999766e+01 1.656709999999999923e+02 2.015855000000000018e+03
1.050000000000000100e-01 1.229254999999999931e-01 5.272230000000000416e+01 1.679755000000000109e+02 2.016900000000000091e+03
1.059999999999999970e-01 1.229940000000000061e-01 5.314239999999999498e+01 1.700709999999999980e+02 2.017869999999999891e+03
1.069999999999999979e-01 1.230565000000000131e-01 5.345980000000000132e+01 1.719515000000000100e+02 2.018759999999999991e+03
1.079999999999999988e-01 1.231130000000000002e-01 5.367419999999999902e+01 1.736109999999999900e+02 2.019570000000000164e+03
1.089999999999999997e-01 1.231634999999999952e-01 5.378609999999999758e+01 1.750475000000000136e+02 2.020295000000000073e+03
1.100000000000000006e-01 1.232074999999999976e-01 5.379715000000000202e+01 1.762590000000000146e+02 2.020934999999999945e+03
1.110000000000000014e-01 1.232459999999999944e-01 5.371034999999999826e+01 1.772504999999999882e+02 2.021480000000000018e+03
1.120000000000000023e-01 1.232779999999999987e-01 5.352994999999999948e+01 1.780279999999999916e+02 2.021944999999999936e+03
1.130000000000000032e-01 1.233039999999999969e-01 5.326149999999999807e+01 1.786014999999999873e+02 2.022324999999999818e+03
1.140000000000000041e-01 1.233245000000000036e-01 5.291195000000000448e+01 1.789839999999999804e+02 2.022625000000000000e+03
1.150000000000000050e-01 1.233400000000000052e-01 5.248900000000000432e+01 1.791920000000000073e+02 2.022849999999999909e+03
1.160000000000000059e-01 1.233500000000000013e-01 5.200140000000000384e+01 1.792445000000000164e+02 2.023005000000000109e+03
1.170000000000000068e-01 1.233555000000000068e-01 5.145839999999999748e+01 1.791605000000000132e+02 2.023095000000000027e+03
1.180000000000000077e-01 1.233569999999999944e-01 5.086920000000000641e+01 1.789604999999999961e+02 2.023125000000000000e+03
1.190000000000000085e-01 1.233555000000000068e-01 5.024320000000000164e+01 1.786645000000000039e+02 2.023110000000000127e+03
1.200000000000000094e-01 1.233510000000000023e-01 4.958929999999999438e+01 1.782920000000000016e+02 2.023055000000000064e+03
1.209999999999999964e-01 1.233439999999999953e-01 4.891590000000000060e+01 1.778609999999999900e+02 2.022960000000000036e+03
1.219999999999999973e-01 1.233344999999999997e-01 4.823055000000000092e+01 1.773849999999999909e+02 2.022839999999999918e+03
1.229999999999999982e-01 1.233239999999999892e-01 4.753974999999999795e+01 1.768795000000000073e+02 2.022690000000000055e+03
1.239999999999999991e-01 1.233124999999999916e-01 4.684895000000000209e+01 1.763530000000000086e+02 2.022525000000000091e+03
1.250000000000000000e-01 1.232994999999999924e-01 4.616254999999999598e+01 1.758135000000000048e+02 2.022349999999999909e+03
1.260000000000000009e-01 1.232860000000000067e-01 4.548364999999999725e+01 1.752659999999999911e+02 2.022159999999999854e+03
1.270000000000000018e-01 1.232720000000000066e-01 4.481419999999999959e+01 1.747135000000000105e+02 2.021965000000000146e+03
1.280000000000000027e-01 1.232580000000000064e-01 4.415500000000000114e+01 1.741550000000000011e+02 2.021759999999999991e+03
1.290000000000000036e-01 1.232430000000000053e-01 4.350585000000000235e+01 1.735879999999999939e+02 2.021549999999999955e+03
1.300000000000000044e-01 1.232274999999999898e-01 4.286565000000000225e+01 1.730090000000000146e+02 2.021335000000000036e+03
1.310000000000000053e-01 1.232120000000000021e-01 4.223234999999999673e+01 1.724114999999999895e+02 2.021110000000000127e+03
1.320000000000000062e-01 1.231949999999999990e-01 4.160344999999999516e+01 1.717889999999999873e+02 2.020875000000000000e+03
1.330000000000000071e-01 1.231780000000000097e-01 4.097594999999999743e+01 1.711340000000000146e+02 2.020630000000000109e+03
1.340000000000000080e-01 1.231595000000000051e-01 4.034655000000000058e+01 1.704385000000000048e+02 2.020369999999999891e+03
1.350000000000000089e-01 1.231399999999999995e-01 3.971184999999999832e+01 1.696954999999999814e+02 2.020095000000000027e+03
1.360000000000000098e-01 1.231194999999999928e-01 3.906869999999999976e+01 1.688974999999999795e+02 2.019800000000000182e+03
1.370000000000000107e-01 1.230969999999999981e-01 3.841420000000000101e+01 1.680384999999999991e+02 2.019485000000000127e+03
1.380000000000000115e-01 1.230730000000000018e-01 3.774599999999999511e+01 1.671150000000000091e+02 2.019150000000000091e+03
1.390000000000000124e-01 1.230470000000000036e-01 3.706244999999999834e+01 1.661239999999999952e+02 2.018789999999999964e+03
1.400000000000000133e-01 1.230195000000000038e-01 3.636244999999999550e+01 1.650639999999999930e+02 2.018400000000000091e+03
1.410000000000000142e-01 1.229899999999999882e-01 3.564594999999999914e+01 1.639379999999999882e+02 2.017990000000000009e+03
1.420000000000000151e-01 1.229589999999999850e-01 3.491380000000000194e+01 1.627479999999999905e+02 2.017554999999999836e+03
1.430000000000000160e-01 1.229254999999999931e-01 3.416769999999999641e+01 1.615014999999999930e+02 2.017095000000000027e+03
1.440000000000000169e-01 1.228915000000000007e-01 3.341024999999999778e+01 1.602055000000000007e+02 2.016610000000000127e+03
1.450000000000000178e-01 1.228555000000000064e-01 3.264495000000000147e+01 1.588700000000000045e+02 2.016110000000000127e+03
1.459999999999999909e-01 1.228184999999999971e-01 3.187590000000000146e+01 1.575070000000000050e+02 2.015599999999999909e+03
1.469999999999999918e-01 1.227810000000000012e-01 3.110784999999999911e+01 1.561285000000000025e+02 2.015069999999999936e+03
1.479999999999999927e-01 1.227429999999999910e-01 3.034580000000000055e+01 1.547479999999999905e+02 2.014534999999999854e+03
1.489999999999999936e-01 1.227045000000000080e-01 2.959509999999999863e+01 1.533790000000000191e+02 2.014000000000000000e+03
1.499999999999999944e-01 1.226664999999999978e-01 2.886099999999999710e+01 1.520345000000000084e+02 2.013470000000000027e+03
1.509999999999999953e-01 1.226289999999999880e-01 2.814835000000000065e+01 1.507270000000000039e+02 2.012945000000000164e+03
1.519999999999999962e-01 1.225925000000000070e-01 2.746189999999999998e+01 1.494675000000000011e+02 2.012429999999999836e+03
1.529999999999999971e-01 1.225564999999999988e-01 2.680555000000000021e+01 1.482649999999999864e+02 2.011934999999999945e+03
1.539999999999999980e-01 1.225229999999999930e-01 2.618274999999999864e+01 1.471274999999999977e+02 2.011454999999999927e+03
1.549999999999999989e-01 1.224905000000000022e-01 2.559590000000000032e+01 1.460604999999999905e+02 2.011000000000000000e+03
1.559999999999999998e-01 1.224594999999999989e-01 2.504690000000000083e+01 1.450674999999999955e+02 2.010569999999999936e+03
1.570000000000000007e-01 1.224314999999999987e-01 2.453654999999999831e+01 1.441490000000000009e+02 2.010164999999999964e+03
1.580000000000000016e-01 1.224044999999999994e-01 2.406520000000000081e+01 1.433054999999999950e+02 2.009789999999999964e+03
1.590000000000000024e-01 1.223795000000000022e-01 2.363230000000000075e+01 1.425349999999999966e+02 2.009434999999999945e+03
