# t [s], A [cm^2], U [cm/s], P [cPa], c [cm/s]
1.000000000000000021e-03 1.911970000000000058e-01 2.645540000000000114e-01 9.762980000000000302e+01 2.236215000000000146e+03
2.000000000000000042e-03 1.911390000000000033e-01 1.761813000000000073e+00 9.415840000000000032e+01 2.235724999999999909e+03
3.000000000000000062e-03 1.909945000000000115e-01 3.663983500000000504e+00 8.913634999999999309e+01 2.234559999999999945e+03
4.000000000000000083e-03 1.908035000000000148e-01 5.842337500000000183e+00 8.366344999999999743e+01 2.233039999999999964e+03
5.000000000000000104e-03 1.906059999999999977e-01 8.199869999999998882e+00 7.882744999999999891e+01 2.231479999999999563e+03
6.000000000000000125e-03 1.904220000000000079e-01 1.049189499999999953e+01 7.489789999999999281e+01 2.230050000000000182e+03
7.000000000000000146e-03 1.902515000000000178e-01 1.245072500000000026e+01 7.147704999999999131e+01 2.228755000000000109e+03
8.000000000000000167e-03 1.900985000000000036e-01 1.403299499999999966e+01 6.839519999999998845e+01 2.227619999999999891e+03
9.000000000000001055e-03 1.899695000000000134e-01 1.530640000000000001e+01 6.581610000000000582e+01 2.226670000000000073e+03
1.000000000000000194e-02 1.898650000000000060e-01 1.630489999999999995e+01 6.379489999999999839e+01 2.225914999999999964e+03
1.099999999999999936e-02 1.897840000000000082e-01 1.705920000000000059e+01 6.228914999999999935e+01 2.225335000000000036e+03
1.200000000000000025e-02 1.897240000000000038e-01 1.759019999999999939e+01 6.121344999999999459e+01 2.224914999999999964e+03
1.300000000000000114e-02 1.896784999999999999e-01 1.789290000000000092e+01 6.038060000000000116e+01 2.224600000000000364e+03
1.400000000000000203e-02 1.896414999999999906e-01 1.800775000000000148e+01 5.965985000000000582e+01 2.224355000000000018e+03
1.499999999999999944e-02 1.896174999999999944e-01 1.809169999999999945e+01 5.925329999999999586e+01 2.224195000000000164e+03
1.600000000000000033e-02 1.896184999999999954e-01 1.836775000000000091e+01 5.968299999999999983e+01 2.224215000000000146e+03
1.700000000000000122e-02 1.896574999999999789e-01 1.898474999999999824e+01 6.141904999999999859e+01 2.224500000000000000e+03
1.800000000000000211e-02 1.897380000000000178e-01 1.991140000000000043e+01 6.447084999999999866e+01 2.225085000000000036e+03
1.900000000000000300e-02 1.898480000000000167e-01 2.093910000000000338e+01 6.826104999999999734e+01 2.225899999999999636e+03
2.000000000000000042e-02 1.899629999999999930e-01 2.178170000000000073e+01 7.184559999999999036e+01 2.226760000000000218e+03
2.100000000000000130e-02 1.900574999999999903e-01 2.220400000000000063e+01 7.431819999999999027e+01 2.227485000000000127e+03
2.200000000000000219e-02 1.901130000000000042e-01 2.211464999999999748e+01 7.517674999999999841e+01 2.227934999999999945e+03
2.299999999999999961e-02 1.901240000000000152e-01 2.158675000000000210e+01 7.448435000000000628e+01 2.228050000000000182e+03
2.400000000000000050e-02 1.900989999999999902e-01 2.080659999999999954e+01 7.277604999999999791e+01 2.227894999999999982e+03
2.500000000000000139e-02 1.900550000000000017e-01 1.998235000000000028e+01 7.078260000000000218e+01 2.227585000000000036e+03
2.600000000000000228e-02 1.900094999999999978e-01 1.925900000000000034e+01 6.911465000000001169e+01 2.227244999999999891e+03
2.700000000000000316e-02 1.899735000000000174e-01 1.867324999999999946e+01 6.804765000000000441e+01 2.226965000000000146e+03
2.800000000000000058e-02 1.899485000000000201e-01 1.816045000000000087e+01 6.747575000000000500e+01 2.226769999999999982e+03
2.900000000000000147e-02 1.899285000000000001e-01 1.759994999999999976e+01 6.702359999999998763e+01 2.226614999999999782e+03
3.000000000000000236e-02 1.899020000000000152e-01 1.687835000000000107e+01 6.624979999999999336e+01 2.226425000000000182e+03
3.099999999999999978e-02 1.898610000000000020e-01 1.594644999999999868e+01 6.485925000000000296e+01 2.226130000000000109e+03
3.200000000000000067e-02 1.898024999999999851e-01 1.485035000000000061e+01 6.284969999999999857e+01 2.225704999999999927e+03
3.300000000000000155e-02 1.897314999999999974e-01 1.372555000000000014e+01 6.054030000000000200e+01 2.225184999999999945e+03
3.400000000000000244e-02 1.896625000000000116e-01 1.275614999999999988e+01 5.847310000000000230e+01 2.224670000000000073e+03
3.500000000000000333e-02 1.896105000000000151e-01 1.211495000000000033e+01 5.722740000000000293e+01 2.224269999999999982e+03
3.600000000000000422e-02 1.895895000000000219e-01 1.190835000000000043e+01 5.722090000000000032e+01 2.224095000000000255e+03
3.700000000000000511e-02 1.896079999999999988e-01 1.214424999999999955e+01 5.857200000000000273e+01 2.224199999999999818e+03
3.799999999999999906e-02 1.896639999999999993e-01 1.273239999999999839e+01 6.106369999999999720e+01 2.224590000000000146e+03
3.899999999999999994e-02 1.897469999999999990e-01 1.350999999999999979e+01 6.420744999999999436e+01 2.225184999999999945e+03
4.000000000000000083e-02 1.898420000000000107e-01 1.428275000000000006e+01 6.737284999999999968e+01 2.225885000000000218e+03
4.100000000000000172e-02 1.899295000000000011e-01 1.486700000000000088e+01 6.993739999999999668e+01 2.226534999999999854e+03
4.200000000000000261e-02 1.899934999999999818e-01 1.512255000000000038e+01 7.141310000000000002e+01 2.227029999999999745e+03
4.300000000000000350e-02 1.900219999999999965e-01 1.497050000000000125e+01 7.152429999999999666e+01 2.227265000000000327e+03
4.400000000000000439e-02 1.900094999999999978e-01 1.439550000000000018e+01 7.022630000000000905e+01 2.227190000000000055e+03
4.499999999999999833e-02 1.899549999999999850e-01 1.343440000000000012e+01 6.767105000000000814e+01 2.226805000000000291e+03
4.599999999999999922e-02 1.898650000000000060e-01 1.215762000000000143e+01 6.413849999999999341e+01 2.226150000000000091e+03
4.700000000000000011e-02 1.897464999999999846e-01 1.064943500000000043e+01 5.995870000000000033e+01 2.225284999999999854e+03
4.800000000000000100e-02 1.896085000000000131e-01 8.992480000000000473e+00 5.544554999999999723e+01 2.224269999999999982e+03
4.900000000000000189e-02 1.894605000000000039e-01 7.259389999999999787e+00 5.085660000000000025e+01 2.223175000000000182e+03
5.000000000000000278e-02 1.893094999999999917e-01 5.511144999999999960e+00 4.638165000000000049e+01 2.222045000000000073e+03
5.100000000000000366e-02 1.891609999999999958e-01 3.800614999999999633e+00 4.215395000000000181e+01 2.220934999999999945e+03
5.200000000000000455e-02 1.890195000000000070e-01 2.177660000000000373e+00 3.827420000000000044e+01 2.219880000000000109e+03
5.300000000000000544e-02 1.888894999999999880e-01 6.938050000000000050e-01 3.483485000000000298e+01 2.218899999999999636e+03
5.399999999999999939e-02 1.887739999999999974e-01 -5.956999999999998963e-01 3.193759999999999977e+01 2.218029999999999745e+03
5.500000000000000028e-02 1.886780000000000124e-01 -1.632988000000000106e+00 2.969849999999999923e+01 2.217300000000000182e+03
5.600000000000000117e-02 1.886049999999999949e-01 -2.361530999999999825e+00 2.824180000000000135e+01 2.216739999999999782e+03
5.700000000000000205e-02 1.885600000000000054e-01 -2.731794999999999973e+00 2.768485000000000085e+01 2.216380000000000109e+03
5.800000000000000294e-02 1.885459999999999914e-01 -2.706999999999999851e+00 2.811959999999999837e+01 2.216255000000000109e+03
5.900000000000000383e-02 1.885660000000000114e-01 -2.267784999999999940e+00 2.959639999999999915e+01 2.216375000000000000e+03
6.000000000000000472e-02 1.886214999999999975e-01 -1.414665499999999909e+00 3.211329999999999529e+01 2.216755000000000109e+03
6.099999999999999867e-02 1.887110000000000176e-01 -1.681349999999999234e-01 3.561345000000000027e+01 2.217394999999999982e+03
6.199999999999999956e-02 1.888330000000000009e-01 1.433294999999999764e+00 3.998980000000000246e+01 2.218275000000000091e+03
6.300000000000000044e-02 1.889834999999999987e-01 3.336539500000000213e+00 4.509559999999999746e+01 2.219375000000000000e+03
6.400000000000000133e-02 1.891575000000000062e-01 5.478024999999999700e+00 5.075695000000000334e+01 2.220654999999999745e+03
6.500000000000000222e-02 1.893495000000000039e-01 7.788000000000000256e+00 5.678700000000000614e+01 2.222069999999999709e+03
6.600000000000000311e-02 1.895534999999999859e-01 1.019466500000000053e+01 6.299830000000000041e+01 2.223585000000000036e+03
6.700000000000000400e-02 1.897635000000000016e-01 1.262845000000000084e+01 6.921475000000000932e+01 2.225159999999999854e+03
6.800000000000000488e-02 1.899744999999999906e-01 1.502534999999999954e+01 7.528140000000000498e+01 2.226739999999999782e+03
6.900000000000000577e-02 1.901805000000000023e-01 1.733099999999999952e+01 8.107339999999999236e+01 2.228289999999999964e+03
7.000000000000000666e-02 1.903785000000000061e-01 1.950304999999999822e+01 8.650294999999999845e+01 2.229784999999999854e+03
7.100000000000000755e-02 1.905654999999999988e-01 2.151340000000000074e+01 9.152305000000001201e+01 2.231204999999999927e+03
7.200000000000000844e-02 1.907404999999999795e-01 2.334874999999999901e+01 9.612765000000000271e+01 2.232534999999999854e+03
7.300000000000000933e-02 1.909025000000000027e-01 2.500999999999999801e+01 1.003504999999999967e+02 2.233775000000000091e+03
7.399999999999999634e-02 1.910534999999999872e-01 2.651024999999999920e+01 1.042536000000000058e+02 2.234935000000000400e+03
7.499999999999999722e-02 1.911955000000000182e-01 2.787129999999999797e+01 1.079205000000000041e+02 2.236025000000000091e+03
7.599999999999999811e-02 1.913305000000000144e-01 2.912040000000000006e+01 1.114445000000000050e+02 2.237059999999999945e+03
7.699999999999999900e-02 1.914615000000000067e-01 3.028614999999999924e+01 1.149124999999999943e+02 2.238064999999999600e+03
7.799999999999999989e-02 1.915919999999999845e-01 3.139529999999999887e+01 1.184014999999999986e+02 2.239060000000000400e+03
7.900000000000000078e-02 1.917220000000000035e-01 3.246975000000000477e+01 1.219654999999999916e+02 2.240059999999999945e+03
8.000000000000000167e-02 1.918544999999999834e-01 3.352519999999999811e+01 1.256349999999999909e+02 2.241074999999999818e+03
8.100000000000000255e-02 1.919899999999999940e-01 3.456974999999999909e+01 1.294139999999999873e+02 2.242105000000000018e+03
8.200000000000000344e-02 1.921284999999999799e-01 3.560420000000000584e+01 1.332839999999999918e+02 2.243164999999999964e+03
8.300000000000000433e-02 1.922685000000000088e-01 3.662225000000000108e+01 1.372044999999999959e+02 2.244235000000000127e+03
8.400000000000000522e-02 1.924095000000000111e-01 3.761195000000000022e+01 1.411214999999999975e+02 2.245315000000000055e+03
8.500000000000000611e-02 1.925499999999999989e-01 3.855669999999999931e+01 1.449705000000000155e+02 2.246385000000000218e+03
8.600000000000000699e-02 1.926860000000000239e-01 3.943665000000000020e+01 1.486794999999999902e+02 2.247429999999999836e+03
8.700000000000000788e-02 1.928170000000000162e-01 4.023040000000000305e+01 1.521800000000000068e+02 2.248434999999999945e+03
8.800000000000000877e-02 1.929405000000000148e-01 4.091665000000000418e+01 1.554035000000000082e+02 2.249385000000000218e+03
8.899999999999999578e-02 1.930534999999999890e-01 4.147509999999999764e+01 1.582914999999999850e+02 2.250255000000000109e+03
8.999999999999999667e-02 1.931549999999999934e-01 4.188804999999999978e+01 1.607934999999999945e+02 2.251039999999999964e+03
9.099999999999999756e-02 1.932429999999999981e-01 4.214154999999999518e+01 1.628725000000000023e+02 2.251724999999999909e+03
9.199999999999999845e-02 1.933165000000000022e-01 4.222630000000000194e+01 1.645049999999999955e+02 2.252300000000000182e+03
9.299999999999999933e-02 1.933745000000000047e-01 4.213840000000000430e+01 1.656834999999999809e+02 2.252755000000000109e+03
9.400000000000000022e-02 1.934170000000000056e-01 4.187955000000000183e+01 1.664149999999999920e+02 2.253099999999999909e+03
9.500000000000000111e-02 1.934445000000000192e-01 4.145749999999999602e+01 1.667220000000000084e+02 2.253324999999999818e+03
9.600000000000000200e-02 1.934579999999999911e-01 4.088515000000000299e+01 1.666419999999999959e+02 2.253435000000000400e+03
9.700000000000000289e-02 1.934585000000000055e-01 4.018039999999999878e+01 1.662235000000000014e+02 2.253454999999999927e+03
9.800000000000000377e-02 1.934474999999999945e-01 3.936464999999999748e+01 1.655219999999999914e+02 2.253385000000000218e+03
9.900000000000000466e-02 1.934270000000000156e-01 3.846195000000000164e+01 1.646005000000000109e+02 2.253239999999999782e+03
1.000000000000000056e-01 1.933989999999999876e-01 3.749779999999999802e+01 1.635225000000000080e+02 2.253029999999999745e+03
1.010000000000000064e-01 1.933655000000000235e-01 3.649760000000000559e+01 1.623505000000000109e+02 2.252784999999999854e+03
1.020000000000000073e-01 1.933290000000000008e-01 3.548584999999999923e+01 1.611430000000000007e+02 2.252500000000000000e+03
1.030000000000000082e-01 1.932909999999999906e-01 3.448479999999999990e+01 1.599509999999999934e+02 2.252210000000000036e+03
1.040000000000000091e-01 1.932524999999999937e-01 3.351395000000000124e+01 1.588190000000000168e+02 2.251925000000000182e+03
1.050000000000000100e-01 1.932165000000000132e-01 3.258894999999999698e+01 1.577785000000000082e+02 2.251639999999999873e+03
1.059999999999999970e-01 1.931825000000000070e-01 3.172139999999999915e+01 1.568530000000000086e+02 2.251385000000000218e+03
1.069999999999999979e-01 1.931515000000000037e-01 3.091815000000000069e+01 1.560529999999999973e+02 2.251144999999999982e+03
1.079999999999999988e-01 1.931249999999999911e-01 3.018135000000000190e+01 1.553774999999999977e+02 2.250934999999999945e+03
1.089999999999999997e-01 1.931019999999999959e-01 2.950850000000000151e+01 1.548149999999999977e+02 2.250755000000000109e+03
1.100000000000000006e-01 1.930820000000000036e-01 2.889264999999999972e+01 1.543414999999999964e+02 2.250595000000000255e+03
1.110000000000000014e-01 1.930645000000000000e-01 2.832305000000000206e+01 1.539270000000000209e+02 2.250454999999999927e+03
1.120000000000000023e-01 1.930479999999999974e-01 2.778589999999999804e+01 1.535319999999999823e+02 2.250324999999999818e+03
1.130000000000000032e-01 1.930320000000000091e-01 2.726545000000000130e+01 1.531150000000000091e+02 2.250204999999999927e+03
1.140000000000000041e-01 1.930149999999999921e-01 2.674499999999999744e+01 1.526324999999999932e+02 2.250069999999999709e+03
1.150000000000000050e-01 1.929949999999999999e-01 2.620810000000000173e+01 1.520424999999999898e+02 2.249914999999999964e+03
1.160000000000000059e-01 1.929715000000000180e-01 2.563964999999999961e+01 1.513095000000000141e+02 2.249730000000000018e+03
1.170000000000000068e-01 1.929434999999999900e-01 2.502710000000000079e+01 1.504029999999999916e+02 2.249514999999999873e+03
1.180000000000000077e-01 1.929085000000000105e-01 2.436120000000000019e+01 1.493040000000000020e+02 2.249255000000000109e+03
1.190000000000000085e-01 1.928674999999999973e-01 2.363674999999999926e+01 1.480049999999999955e+02 2.248945000000000164e+03
1.200000000000000094e-01 1.928205000000000058e-01 2.285289999999999822e+01 1.465099999999999909e+02 2.248585000000000036e+03
1.209999999999999964e-01 1.927670000000000217e-01 2.201330000000000098e+01 1.448344999999999914e+02 2.248180000000000291e+03
1.219999999999999973e-01 1.927070000000000172e-01 2.112599999999999767e+01 1.430049999999999955e+02 2.247724999999999909e+03
1.229999999999999982e-01 1.926424999999999943e-01 2.020285000000000153e+01 1.410600000000000023e+02 2.247239999999999782e+03
1.239999999999999991e-01 1.925745000000000096e-01 1.925884999999999891e+01 1.390414999999999850e+02 2.246725000000000364e+03
1.250000000000000000e-01 1.925050000000000094e-01 1.831139999999999901e+01 1.370000000000000000e+02 2.246194999999999709e+03
1.260000000000000009e-01 1.924345000000000083e-01 1.737899999999999778e+01 1.349859999999999900e+02 2.245659999999999854e+03
1.270000000000000018e-01 1.923654999999999948e-01 1.648010000000000019e+01 1.330489999999999782e+02 2.245130000000000109e+03
1.280000000000000027e-01 1.922984999999999833e-01 1.563250000000000028e+01 1.312355000000000018e+02 2.244625000000000000e+03
1.290000000000000036e-01 1.922365000000000046e-01 1.485190000000000055e+01 1.295854999999999961e+02 2.244144999999999982e+03
1.300000000000000044e-01 1.921800000000000175e-01 1.415125000000000099e+01 1.281285000000000025e+02 2.243710000000000036e+03
1.310000000000000053e-01 1.921299999999999952e-01 1.354044999999999987e+01 1.268889999999999958e+02 2.243324999999999818e+03
1.320000000000000062e-01 1.920870000000000077e-01 1.302554999999999907e+01 1.258770000000000095e+02 2.242989999999999782e+03
1.330000000000000071e-01 1.920514999999999861e-01 1.260895000000000010e+01 1.250964999999999918e+02 2.242715000000000146e+03
1.340000000000000080e-01 1.920235000000000136e-01 1.228955000000000020e+01 1.245390000000000015e+02 2.242494999999999891e+03
1.350000000000000089e-01 1.920029999999999792e-01 1.206295000000000073e+01 1.241905000000000001e+02 2.242329999999999927e+03
1.360000000000000098e-01 1.919894999999999796e-01 1.192180000000000106e+01 1.240285000000000082e+02 2.242220000000000255e+03
1.370000000000000107e-01 1.919819999999999860e-01 1.185664999999999836e+01 1.240285000000000082e+02 2.242154999999999745e+03
1.380000000000000115e-01 1.919804999999999984e-01 1.185630000000000095e+01 1.241604999999999990e+02 2.242130000000000109e+03
1.390000000000000124e-01 1.919825000000000004e-01 1.190864999999999974e+01 1.243935000000000031e+02 2.242144999999999982e+03
1.400000000000000133e-01 1.919885000000000064e-01 1.200080000000000169e+01 1.246970000000000027e+02 2.242185000000000400e+03
1.410000000000000142e-01 1.919970000000000010e-01 1.212024999999999864e+01 1.250415000000000134e+02 2.242239999999999782e+03
1.420000000000000151e-01 1.920065000000000244e-01 1.225484999999999935e+01 1.254000000000000057e+02 2.242309999999999945e+03
1.430000000000000160e-01 1.920169999999999932e-01 1.239349999999999952e+01 1.257489999999999952e+02 2.242390000000000327e+03
1.440000000000000169e-01 1.920275000000000176e-01 1.252619999999999933e+01 1.260670000000000073e+02 2.242465000000000146e+03
1.450000000000000178e-01 1.920370000000000132e-01 1.264480000000000004e+01 1.263375000000000057e+02 2.242539999999999964e+03
1.459999999999999909e-01 1.920449999999999935e-01 1.274259999999999948e+01 1.265494999999999948e+02 2.242599999999999909e+03
1.469999999999999918e-01 1.920509999999999995e-01 1.281510000000000105e+01 1.266949999999999932e+02 2.242649999999999636e+03
1.479999999999999927e-01 1.920554999999999901e-01 1.285950000000000060e+01 1.267715000000000032e+02 2.242680000000000291e+03
1.489999999999999936e-01 1.920574999999999921e-01 1.287500000000000000e+01 1.267800000000000011e+02 2.242699999999999818e+03
1.499999999999999944e-01 1.920570000000000055e-01 1.286254999999999882e+01 1.267259999999999991e+02 2.242699999999999818e+03
1.509999999999999953e-01 1.920550000000000035e-01 1.282469999999999999e+01 1.266184999999999974e+02 2.242690000000000055e+03
1.519999999999999962e-01 1.920520000000000005e-01 1.276520000000000010e+01 1.264685000000000059e+02 2.242664999999999964e+03
1.529999999999999971e-01 1.920470000000000232e-01 1.268864999999999910e+01 1.262895000000000039e+02 2.242630000000000109e+03
1.539999999999999980e-01 1.920415000000000039e-01 1.260034999999999883e+01 1.260939999999999941e+02 2.242590000000000146e+03
1.549999999999999989e-01 1.920350000000000112e-01 1.250554999999999950e+01 1.258960000000000008e+02 2.242539999999999964e+03
1.559999999999999998e-01 1.920290000000000052e-01 1.240930000000000000e+01 1.257069999999999936e+02 2.242500000000000000e+03
1.570000000000000007e-01 1.920235000000000136e-01 1.231625000000000014e+01 1.255380000000000109e+02 2.242449999999999818e+03
1.580000000000000016e-01 1.920179999999999942e-01 1.222990000000000066e+01 1.253954999999999984e+02 2.242409999999999854e+03
1.590000000000000024e-01 1.920129999999999892e-01 1.215310000000000024e+01 1.252844999999999942e+02 2.242375000000000000e+03
