# t [s], A [cm^2], U [cm/s], P [cPa], c [cm/s]
1.000000000000000021e-03 7.198340000000000849e-01 7.773999999999996191e-03 1.016314999999999884e+02 1.776320000000000164e+03
2.000000000000000042e-03 7.198204999999999742e-01 -2.240459999999999674e-03 1.015914999999999964e+02 1.776315000000000055e+03
3.000000000000000062e-03 7.198930000000000051e-01 1.260250499999999996e-01 1.017434999999999974e+02 1.776345000000000027e+03
4.000000000000000083e-03 7.199344999999999217e-01 2.237623499999999988e-01 1.018609999999999900e+02 1.776369999999999891e+03
5.000000000000000104e-03 7.198655000000000470e-01 1.440255000000000007e-01 1.016790000000000020e+02 1.776335000000000036e+03
6.000000000000000125e-03 7.197789999999999466e-01 2.417049999999998366e-02 1.013384999999999962e+02 1.776264999999999873e+03
7.000000000000000146e-03 7.196970000000000312e-01 -1.011749999999999039e-01 1.009265000000000043e+02 1.776179999999999836e+03
8.000000000000000167e-03 7.195409999999999862e-01 -3.776050000000000795e-01 1.002534500000000008e+02 1.776039999999999964e+03
9.000000000000001055e-03 7.193070000000000297e-01 -8.133350000000000302e-01 9.925714999999999577e+01 1.775840000000000146e+03
1.000000000000000194e-02 7.189855000000000551e-01 -1.415865000000000151e+00 9.787729999999999109e+01 1.775555000000000064e+03
1.099999999999999936e-02 7.185420000000000140e-01 -2.226099999999999746e+00 9.599779999999999802e+01 1.775164999999999964e+03
1.200000000000000025e-02 7.180035000000000167e-01 -3.169259999999999966e+00 9.365184999999999604e+01 1.774675000000000182e+03
1.300000000000000114e-02 7.174749999999999739e-01 -4.023478500000000402e+00 9.112059999999999604e+01 1.774119999999999891e+03
1.400000000000000203e-02 7.170594999999999608e-01 -4.556270000000000486e+00 8.877615000000000123e+01 1.773579999999999927e+03
1.499999999999999944e-02 7.167924999999999436e-01 -4.657930000000000348e+00 8.686329999999999529e+01 1.773110000000000127e+03
1.600000000000000033e-02 7.166339999999999932e-01 -4.371195000000000164e+00 8.540289999999998827e+01 1.772715000000000146e+03
1.700000000000000122e-02 7.165030000000000010e-01 -3.840025000000000244e+00 8.422450000000000614e+01 1.772375000000000000e+03
1.800000000000000211e-02 7.163194999999999979e-01 -3.229750000000000121e+00 8.307300000000000750e+01 1.772050000000000182e+03
1.900000000000000300e-02 7.160374999999999934e-01 -2.656014499999999945e+00 8.173029999999999973e+01 1.771684999999999945e+03
2.000000000000000042e-02 7.156609999999999916e-01 -2.146639999999999660e+00 8.010300000000000864e+01 1.771269999999999982e+03
2.100000000000000130e-02 7.152309999999999501e-01 -1.649629999999999930e+00 7.824279999999998836e+01 1.770809999999999945e+03
2.200000000000000219e-02 7.148039999999999949e-01 -1.079435000000000144e+00 7.629555000000000575e+01 1.770325000000000045e+03
2.299999999999999961e-02 7.144179999999999975e-01 -3.737949999999998774e-01 7.441394999999999982e+01 1.769845000000000027e+03
2.400000000000000050e-02 7.140805000000000069e-01 4.669449999999999434e-01 7.267940000000000111e+01 1.769389999999999873e+03
2.500000000000000139e-02 7.137629999999999253e-01 1.369930000000000092e+00 7.106159999999999854e+01 1.768954999999999927e+03
2.600000000000000228e-02 7.134125000000000050e-01 2.206455000000000055e+00 6.942249999999999943e+01 1.768525000000000091e+03
2.700000000000000316e-02 7.129710000000000214e-01 2.826665000000000205e+00 6.755689999999999884e+01 1.768050000000000182e+03
2.800000000000000058e-02 7.123904999999999266e-01 3.102399999999999380e+00 6.525804999999999723e+01 1.767500000000000000e+03
2.900000000000000147e-02 7.116534999999999389e-01 2.966379999999999573e+00 6.238880000000000337e+01 1.766840000000000146e+03
3.000000000000000236e-02 7.107809999999999961e-01 2.433809999999999807e+00 5.893500000000000227e+01 1.766055000000000064e+03
3.099999999999999978e-02 7.098260000000000680e-01 1.597154999999999880e+00 5.501944999999999908e+01 1.765179999999999836e+03
3.200000000000000067e-02 7.088590000000000169e-01 5.970849999999998658e-01 5.087279999999999802e+01 1.764235000000000127e+03
3.300000000000000155e-02 7.079509999999999970e-01 -4.151799999999994384e-01 4.677809999999999491e+01 1.763289999999999964e+03
3.400000000000000244e-02 7.071594999999999409e-01 -1.309704999999999675e+00 4.301200000000000045e+01 1.762400000000000091e+03
3.500000000000000333e-02 7.065215000000000245e-01 -1.996070000000000011e+00 3.979999999999999716e+01 1.761615000000000009e+03
3.600000000000000422e-02 7.060520000000000129e-01 -2.426829999999999821e+00 3.729274999999999807e+01 1.760974999999999909e+03
3.700000000000000511e-02 7.057514999999999761e-01 -2.591024999999999689e+00 3.556220000000000425e+01 1.760494999999999891e+03
3.799999999999999906e-02 7.056095000000000006e-01 -2.501328499999999622e+00 3.461319999999999908e+01 1.760190000000000055e+03
3.899999999999999994e-02 7.056100000000000705e-01 -2.179545000000000066e+00 3.440579999999999927e+01 1.760059999999999945e+03
4.000000000000000083e-02 7.057400000000000340e-01 -1.644436000000000009e+00 3.487924999999999898e+01 1.760085000000000036e+03
4.100000000000000172e-02 7.059895000000000476e-01 -9.048149999999999249e-01 3.597279999999999944e+01 1.760269999999999982e+03
4.200000000000000261e-02 7.063530000000000086e-01 4.065999999999991843e-02 3.763660000000000139e+01 1.760590000000000146e+03
4.300000000000000350e-02 7.068280000000000118e-01 1.197980000000000267e+00 3.983250000000000313e+01 1.761039999999999964e+03
4.400000000000000439e-02 7.074095000000000244e-01 2.569639999999999702e+00 4.252665000000000362e+01 1.761619999999999891e+03
4.499999999999999833e-02 7.080899999999999972e-01 4.147190000000000154e+00 4.567875000000000085e+01 1.762305000000000064e+03
4.599999999999999922e-02 7.088544999999999430e-01 5.907045000000000101e+00 4.923379999999999512e+01 1.763094999999999800e+03
4.700000000000000011e-02 7.096839999999999815e-01 7.810486500000000554e+00 5.311775000000000091e+01 1.763965000000000146e+03
4.800000000000000100e-02 7.105555000000000065e-01 9.807314999999999117e+00 5.723985000000000412e+01 1.764909999999999854e+03
4.900000000000000189e-02 7.114454999999999529e-01 1.184147999999999890e+01 6.149840000000000373e+01 1.765889999999999873e+03
5.000000000000000278e-02 7.123300000000000187e-01 1.385782999999999987e+01 6.579085000000000605e+01 1.766889999999999873e+03
5.100000000000000366e-02 7.131909999999999084e-01 1.580769500000000072e+01 7.002299999999999613e+01 1.767894999999999982e+03
5.200000000000000455e-02 7.140155000000000252e-01 1.765275000000000105e+01 7.411780000000000257e+01 1.768884999999999991e+03
5.300000000000000544e-02 7.147955000000000281e-01 1.936730000000000018e+01 7.802039999999999509e+01 1.769835000000000036e+03
5.399999999999999939e-02 7.155280000000000529e-01 2.093734999999999857e+01 8.169989999999999952e+01 1.770744999999999891e+03
5.500000000000000028e-02 7.162144999999999762e-01 2.235974999999999824e+01 8.514849999999999852e+01 1.771610000000000127e+03
5.600000000000000117e-02 7.168615000000000403e-01 2.363949999999999818e+01 8.837775000000000603e+01 1.772424999999999955e+03
5.700000000000000205e-02 7.174745000000000150e-01 2.478764999999999930e+01 9.141429999999999723e+01 1.773195000000000164e+03
5.800000000000000294e-02 7.180634999999999657e-01 2.581929999999999836e+01 9.429470000000000596e+01 1.773929999999999836e+03
5.900000000000000383e-02 7.186365000000000114e-01 2.675169999999999959e+01 9.706270000000000664e+01 1.774634999999999991e+03
6.000000000000000472e-02 7.192034999999999956e-01 2.760320000000000107e+01 9.976154999999999973e+01 1.775325000000000045e+03
6.099999999999999867e-02 7.197715000000000085e-01 2.839144999999999897e+01 1.024341000000000008e+02 1.776000000000000000e+03
6.199999999999999956e-02 7.203475000000000295e-01 2.913194999999999979e+01 1.051159999999999997e+02 1.776680000000000064e+03
6.300000000000000044e-02 7.209350000000001035e-01 2.983659999999999712e+01 1.078325000000000102e+02 1.777360000000000127e+03
6.400000000000000133e-02 7.215354999999999963e-01 3.051245000000000118e+01 1.105974999999999966e+02 1.778049999999999955e+03
6.500000000000000222e-02 7.221465000000000245e-01 3.116075000000000017e+01 1.134104999999999990e+02 1.778750000000000000e+03
6.600000000000000311e-02 7.227635000000000032e-01 3.177735000000000198e+01 1.162560000000000002e+02 1.779454999999999927e+03
6.700000000000000400e-02 7.233795000000000641e-01 3.235309999999999775e+01 1.191049999999999898e+02 1.780164999999999964e+03
6.800000000000000488e-02 7.239835000000000020e-01 3.287510000000000332e+01 1.219205000000000041e+02 1.780865000000000009e+03
6.900000000000000577e-02 7.245669999999999611e-01 3.332874999999999943e+01 1.246564999999999941e+02 1.781555000000000064e+03
7.000000000000000666e-02 7.251199999999999868e-01 3.369894999999999641e+01 1.272674999999999983e+02 1.782210000000000036e+03
7.100000000000000755e-02 7.256329999999999725e-01 3.397185000000000343e+01 1.297074999999999818e+02 1.782829999999999927e+03
7.200000000000000844e-02 7.260979999999999102e-01 3.413589999999999947e+01 1.319370000000000118e+02 1.783404999999999973e+03
7.300000000000000933e-02 7.265105000000000590e-01 3.418260000000000076e+01 1.339219999999999970e+02 1.783924999999999955e+03
7.399999999999999634e-02 7.268649999999999833e-01 3.410694999999999766e+01 1.356394999999999982e+02 1.784384999999999991e+03
7.499999999999999722e-02 7.271604999999999874e-01 3.390735000000000099e+01 1.370755000000000052e+02 1.784775000000000091e+03
7.599999999999999811e-02 7.273965000000000014e-01 3.358615000000000350e+01 1.382259999999999991e+02 1.785099999999999909e+03
7.699999999999999900e-02 7.275749999999999718e-01 3.314884999999999593e+01 1.390949999999999989e+02 1.785355000000000018e+03
7.799999999999999989e-02 7.276989999999999847e-01 3.260439999999999827e+01 1.396970000000000027e+02 1.785549999999999955e+03
7.900000000000000078e-02 7.277750000000000608e-01 3.196470000000000056e+01 1.400529999999999973e+02 1.785680000000000064e+03
8.000000000000000167e-02 7.278070000000000928e-01 3.124405000000000143e+01 1.401915000000000191e+02 1.785755000000000109e+03
8.100000000000000255e-02 7.278035000000000476e-01 3.045904999999999774e+01 1.401444999999999936e+02 1.785785000000000082e+03
8.200000000000000344e-02 7.277719999999999745e-01 2.962749999999999773e+01 1.399480000000000075e+02 1.785769999999999982e+03
8.300000000000000433e-02 7.277194999999999636e-01 2.876794999999999902e+01 1.396399999999999864e+02 1.785720000000000027e+03
8.400000000000000522e-02 7.276544999999999819e-01 2.789855000000000018e+01 1.392584999999999980e+02 1.785650000000000091e+03
8.500000000000000611e-02 7.275840000000000085e-01 2.703644999999999854e+01 1.388379999999999939e+02 1.785569999999999936e+03
8.600000000000000699e-02 7.275134999999999241e-01 2.619655000000000200e+01 1.384110000000000014e+02 1.785474999999999909e+03
8.700000000000000788e-02 7.274490000000000123e-01 2.539119999999999777e+01 1.380040000000000191e+02 1.785380000000000109e+03
8.800000000000000877e-02 7.273929999999999563e-01 2.462924999999999898e+01 1.376374999999999886e+02 1.785295000000000073e+03
8.899999999999999578e-02 7.273479999999999945e-01 2.391595000000000226e+01 1.373230000000000075e+02 1.785219999999999800e+03
8.999999999999999667e-02 7.273129999999999873e-01 2.325290000000000035e+01 1.370660000000000025e+02 1.785150000000000091e+03
9.099999999999999756e-02 7.272879999999999345e-01 2.263814999999999955e+01 1.368650000000000091e+02 1.785095000000000027e+03
9.199999999999999845e-02 7.272700000000000831e-01 2.206664999999999921e+01 1.367110000000000127e+02 1.785049999999999955e+03
9.299999999999999933e-02 7.272560000000000136e-01 2.153065000000000140e+01 1.365904999999999916e+02 1.785015000000000100e+03
9.400000000000000022e-02 7.272419999999999440e-01 2.102060000000000173e+01 1.364834999999999923e+02 1.784974999999999909e+03
9.500000000000000111e-02 7.272225000000001049e-01 2.052550000000000097e+01 1.363700000000000045e+02 1.784945000000000164e+03
9.600000000000000200e-02 7.271935000000000482e-01 2.003390000000000271e+01 1.362270000000000039e+02 1.784904999999999973e+03
9.700000000000000289e-02 7.271499999999999631e-01 1.953434999999999988e+01 1.360324999999999989e+02 1.784855000000000018e+03
9.800000000000000377e-02 7.270885000000000264e-01 1.901624999999999943e+01 1.357659999999999911e+02 1.784789999999999964e+03
9.900000000000000466e-02 7.270065000000000000e-01 1.847055000000000291e+01 1.354089999999999918e+02 1.784704999999999927e+03
1.000000000000000056e-01 7.268999999999999906e-01 1.789029999999999987e+01 1.349490000000000123e+02 1.784599999999999909e+03
1.010000000000000064e-01 7.267689999999999984e-01 1.727105000000000246e+01 1.343770000000000095e+02 1.784470000000000027e+03
1.020000000000000073e-01 7.266139999999999821e-01 1.661139999999999972e+01 1.336920000000000073e+02 1.784315000000000055e+03
1.030000000000000082e-01 7.264360000000000817e-01 1.591335000000000122e+01 1.328979999999999961e+02 1.784134999999999991e+03
1.040000000000000091e-01 7.262390000000000789e-01 1.518175000000000097e+01 1.320064999999999884e+02 1.783930000000000064e+03
1.050000000000000100e-01 7.260269999999999779e-01 1.442459000000000024e+01 1.310339999999999918e+02 1.783704999999999927e+03
1.059999999999999970e-01 7.258050000000000335e-01 1.365218000000000131e+01 1.300035000000000025e+02 1.783464999999999918e+03
1.069999999999999979e-01 7.255789999999999740e-01 1.287690500000000071e+01 1.289404999999999859e+02 1.783210000000000036e+03
1.079999999999999988e-01 7.253555000000000419e-01 1.211225999999999914e+01 1.278739999999999952e+02 1.782960000000000036e+03
1.089999999999999997e-01 7.251410000000000355e-01 1.137214499999999973e+01 1.268344999999999914e+02 1.782704999999999927e+03
1.100000000000000006e-01 7.249404999999999877e-01 1.067011000000000109e+01 1.258505000000000109e+02 1.782465000000000146e+03
1.110000000000000014e-01 7.247600000000000708e-01 1.001870500000000064e+01 1.249485000000000099e+02 1.782240000000000009e+03
1.120000000000000023e-01 7.246044999999999847e-01 9.428509999999999280e+00 1.241519999999999868e+02 1.782035000000000082e+03
1.130000000000000032e-01 7.244755000000000500e-01 8.908094999999999430e+00 1.234784999999999968e+02 1.781860000000000127e+03
1.140000000000000041e-01 7.243764999999999787e-01 8.463010000000000588e+00 1.229399999999999977e+02 1.781710000000000036e+03
1.150000000000000050e-01 7.243074999999999930e-01 8.096244999999999692e+00 1.225425000000000040e+02 1.781595000000000027e+03
1.160000000000000059e-01 7.242669999999999941e-01 7.807690000000000907e+00 1.222870000000000061e+02 1.781519999999999982e+03
1.170000000000000068e-01 7.242539999999999534e-01 7.594500000000000028e+00 1.221654999999999944e+02 1.781470000000000027e+03
1.180000000000000077e-01 7.242650000000000476e-01 7.451414999999999900e+00 1.221675000000000040e+02 1.781450000000000045e+03
1.190000000000000085e-01 7.242975000000000385e-01 7.371119999999999450e+00 1.222770000000000010e+02 1.781449999999999818e+03
1.200000000000000094e-01 7.243454999999999755e-01 7.344780000000000086e+00 1.224759999999999991e+02 1.781480000000000018e+03
1.209999999999999964e-01 7.244049999999999656e-01 7.362589999999999968e+00 1.227425000000000068e+02 1.781529999999999973e+03
1.219999999999999973e-01 7.244729999999999226e-01 7.414284999999999570e+00 1.230554999999999950e+02 1.781590000000000146e+03
1.229999999999999982e-01 7.245439999999999658e-01 7.489659999999999762e+00 1.233950000000000102e+02 1.781659999999999854e+03
1.239999999999999991e-01 7.246139999999999803e-01 7.578999999999999737e+00 1.237415000000000020e+02 1.781735000000000127e+03
1.250000000000000000e-01 7.246805000000000607e-01 7.673410000000000508e+00 1.240774999999999864e+02 1.781809999999999945e+03
1.260000000000000009e-01 7.247405000000000097e-01 7.765095000000000525e+00 1.243889999999999958e+02 1.781880000000000109e+03
1.270000000000000018e-01 7.247924999999999507e-01 7.847514999999999574e+00 1.246655000000000086e+02 1.781945000000000164e+03
1.280000000000000027e-01 7.248350000000000071e-01 7.915509999999999380e+00 1.248979999999999961e+02 1.782005000000000109e+03
1.290000000000000036e-01 7.248669999999999281e-01 7.965309999999999668e+00 1.250829999999999984e+02 1.782050000000000182e+03
1.300000000000000044e-01 7.248885000000000467e-01 7.994530000000000136e+00 1.252179999999999893e+02 1.782090000000000146e+03
1.310000000000000053e-01 7.249010000000000176e-01 8.002114999999999867e+00 1.253034999999999997e+02 1.782115000000000009e+03
1.320000000000000062e-01 7.249034999999999229e-01 7.988235000000000419e+00 1.253435000000000059e+02 1.782130000000000109e+03
1.330000000000000071e-01 7.248989999999999601e-01 7.954150000000000276e+00 1.253429999999999893e+02 1.782130000000000109e+03
1.340000000000000080e-01 7.248879999999999768e-01 7.902049999999999130e+00 1.253075000000000045e+02 1.782130000000000109e+03
1.350000000000000089e-01 7.248719999999999608e-01 7.834884999999999877e+00 1.252459999999999951e+02 1.782125000000000000e+03
1.360000000000000098e-01 7.248539999999999983e-01 7.756099999999999994e+00 1.251655000000000086e+02 1.782105000000000018e+03
1.370000000000000107e-01 7.248345000000000482e-01 7.669449999999999434e+00 1.250750000000000028e+02 1.782090000000000146e+03
1.380000000000000115e-01 7.248149999999999871e-01 7.578750000000000320e+00 1.249815000000000111e+02 1.782069999999999936e+03
1.390000000000000124e-01 7.247980000000000533e-01 7.487635000000000929e+00 1.248935000000000031e+02 1.782054999999999836e+03
1.400000000000000133e-01 7.247839999999999838e-01 7.399329999999999963e+00 1.248155000000000001e+02 1.782034999999999854e+03
1.410000000000000142e-01 7.247734999999999594e-01 7.316520000000000579e+00 1.247535000000000025e+02 1.782019999999999982e+03
1.420000000000000151e-01 7.247675000000000090e-01 7.241170000000000329e+00 1.247085000000000008e+02 1.782009999999999991e+03
1.430000000000000160e-01 7.247660000000000213e-01 7.174509999999999721e+00 1.246829999999999927e+02 1.782005000000000109e+03
1.440000000000000169e-01 7.247675000000000090e-01 7.116984999999999673e+00 1.246749999999999972e+02 1.782000000000000000e+03
1.450000000000000178e-01 7.247725000000000417e-01 7.068334999999999368e+00 1.246844999999999999e+02 1.782000000000000000e+03
1.459999999999999909e-01 7.247799999999999798e-01 7.027689999999999770e+00 1.247055000000000007e+02 1.782005000000000109e+03
1.469999999999999918e-01 7.247879999999999878e-01 6.993730000000000224e+00 1.247355000000000018e+02 1.782009999999999991e+03
1.479999999999999927e-01 7.247970000000000246e-01 6.964830000000000076e+00 1.247680000000000007e+02 1.782015000000000100e+03
1.489999999999999936e-01 7.248040000000000038e-01 6.939265000000000683e+00 1.247994999999999948e+02 1.782025000000000091e+03
1.499999999999999944e-01 7.248099999999999543e-01 6.915354999999999919e+00 1.248245000000000005e+02 1.782030000000000200e+03
1.509999999999999953e-01 7.248134999999999994e-01 6.891589999999999883e+00 1.248385000000000105e+02 1.782035000000000082e+03
1.519999999999999962e-01 7.248134999999999994e-01 6.866775000000000517e+00 1.248389999999999986e+02 1.782030000000000200e+03
1.529999999999999971e-01 7.248094999999999954e-01 6.840065000000000062e+00 1.248245000000000005e+02 1.782025000000000091e+03
1.539999999999999980e-01 7.248025000000000162e-01 6.811014999999999375e+00 1.247930000000000064e+02 1.782025000000000091e+03
1.549999999999999989e-01 7.247915000000000330e-01 6.779584999999999972e+00 1.247450000000000045e+02 1.782009999999999991e+03
1.559999999999999998e-01 7.247779999999999223e-01 6.746119999999999450e+00 1.246825000000000045e+02 1.782000000000000000e+03
1.570000000000000007e-01 7.247615000000000585e-01 6.711310000000000109e+00 1.246075000000000017e+02 1.781980000000000018e+03
1.580000000000000016e-01 7.247434999999999850e-01 6.676170000000000826e+00 1.245234999999999985e+02 1.781960000000000036e+03
1.590000000000000024e-01 7.247244999999999937e-01 6.641960000000000086e+00 1.244344999999999999e+02 1.781940000000000055e+03
