# t [s], A [cm^2], U [cm/s], P [cPa], c [cm/s]
1.000000000000000021e-03 1.999879999999999991e-01 2.008455000000000101e-01 9.594939999999999714e+01 1.988855000000000018e+03
2.000000000000000042e-03 1.999469999999999859e-01 1.582461499999999965e+00 9.315770000000000550e+01 1.988565000000000055e+03
3.000000000000000062e-03 1.998154999999999792e-01 3.333495500000000167e+00 8.923914999999999509e+01 1.987690000000000055e+03
4.000000000000000083e-03 1.996249999999999969e-01 5.309012799999999643e+00 8.474125000000000796e+01 1.986444999999999936e+03
5.000000000000000104e-03 1.994115000000000193e-01 7.451830000000000176e+00 8.046139999999999759e+01 1.985059999999999945e+03
6.000000000000000125e-03 1.992005000000000026e-01 9.638729999999998910e+00 7.682744999999999891e+01 1.983704999999999927e+03
7.000000000000000146e-03 1.990009999999999835e-01 1.167849499999999985e+01 7.378704999999999359e+01 1.982440000000000055e+03
8.000000000000000167e-03 1.988159999999999927e-01 1.343453500000000034e+01 7.110030000000000427e+01 1.981300000000000182e+03
9.000000000000001055e-03 1.986495000000000066e-01 1.489899999999999913e+01 6.871009999999999707e+01 1.980284999999999854e+03
1.000000000000000194e-02 1.985060000000000158e-01 1.611129999999999995e+01 6.669705000000000439e+01 1.979414999999999964e+03
1.099999999999999936e-02 1.983870000000000078e-01 1.709519999999999840e+01 6.509255000000000280e+01 1.978704999999999927e+03
1.200000000000000025e-02 1.982915000000000094e-01 1.786759999999999948e+01 6.386719999999999686e+01 1.978144999999999982e+03
1.300000000000000114e-02 1.982169999999999765e-01 1.844154999999999944e+01 6.296314999999999884e+01 1.977715000000000146e+03
1.400000000000000203e-02 1.981594999999999884e-01 1.882065000000000055e+01 6.228504999999999825e+01 1.977389999999999873e+03
1.499999999999999944e-02 1.981145000000000267e-01 1.901885000000000048e+01 6.173574999999999591e+01 1.977139999999999873e+03
1.600000000000000033e-02 1.980800000000000061e-01 1.909609999999999985e+01 6.131839999999999691e+01 1.976954999999999927e+03
1.700000000000000122e-02 1.980600000000000138e-01 1.916414999999999935e+01 6.119899999999999807e+01 1.976855000000000018e+03
1.800000000000000211e-02 1.980625000000000024e-01 1.934675000000000011e+01 6.164379999999999882e+01 1.976890000000000100e+03
1.900000000000000300e-02 1.980959999999999943e-01 1.972165000000000035e+01 6.286334999999999695e+01 1.977094999999999800e+03
2.000000000000000042e-02 1.981614999999999904e-01 2.028209999999999980e+01 6.486990000000000123e+01 1.977485000000000127e+03
2.100000000000000130e-02 1.982534999999999992e-01 2.093829999999999814e+01 6.743110000000000070e+01 1.978050000000000182e+03
2.200000000000000219e-02 1.983610000000000095e-01 2.155304999999999893e+01 7.013530000000000086e+01 1.978704999999999927e+03
2.299999999999999961e-02 1.984675000000000189e-01 2.199089999999999989e+01 7.252625000000000455e+01 1.979360000000000127e+03
2.400000000000000050e-02 1.985580000000000123e-01 2.216174999999999784e+01 7.424504999999999200e+01 1.979925000000000182e+03
2.500000000000000139e-02 1.986220000000000208e-01 2.204274999999999807e+01 7.512680000000000291e+01 1.980339999999999918e+03
2.600000000000000228e-02 1.986585000000000156e-01 2.167624999999999957e+01 7.522395000000000209e+01 1.980585000000000036e+03
2.700000000000000316e-02 1.986684999999999979e-01 2.114585000000000292e+01 7.475780000000000314e+01 1.980670000000000073e+03
2.800000000000000058e-02 1.986624999999999919e-01 2.054390000000000072e+01 7.402289999999999281e+01 1.980639999999999873e+03
2.900000000000000147e-02 1.986475000000000046e-01 1.994075000000000131e+01 7.328389999999998849e+01 1.980559999999999945e+03
3.000000000000000236e-02 1.986310000000000020e-01 1.936724999999999852e+01 7.269934999999999548e+01 1.980460000000000036e+03
3.099999999999999978e-02 1.986169999999999880e-01 1.881285000000000096e+01 7.229274999999999807e+01 1.980375000000000000e+03
3.200000000000000067e-02 1.986034999999999884e-01 1.823845000000000027e+01 7.197275000000000489e+01 1.980295000000000073e+03
3.300000000000000155e-02 1.985890000000000155e-01 1.759655000000000058e+01 7.158760000000000900e+01 1.980210000000000036e+03
3.400000000000000244e-02 1.985675000000000079e-01 1.685310000000000130e+01 7.099379999999999313e+01 1.980079999999999927e+03
3.500000000000000333e-02 1.985355000000000036e-01 1.600404999999999944e+01 7.011699999999999022e+01 1.979894999999999982e+03
3.600000000000000422e-02 1.984945000000000181e-01 1.508269999999999911e+01 6.898914999999999509e+01 1.979650000000000091e+03
3.700000000000000511e-02 1.984454999999999969e-01 1.415525000000000055e+01 6.775069999999999482e+01 1.979360000000000127e+03
3.799999999999999906e-02 1.983969999999999900e-01 1.330635000000000012e+01 6.661894999999999811e+01 1.979065000000000055e+03
3.899999999999999994e-02 1.983564999999999912e-01 1.261935000000000073e+01 6.583269999999998845e+01 1.978815000000000055e+03
4.000000000000000083e-02 1.983329999999999815e-01 1.215599999999999881e+01 6.558979999999999677e+01 1.978664999999999964e+03
4.100000000000000172e-02 1.983314999999999939e-01 1.194280000000000008e+01 6.599649999999999750e+01 1.978639999999999873e+03
4.200000000000000261e-02 1.983555000000000179e-01 1.196514999999999951e+01 6.704064999999999941e+01 1.978764999999999873e+03
4.300000000000000350e-02 1.984015000000000084e-01 1.217180000000000106e+01 6.859380000000000166e+01 1.979034999999999854e+03
4.400000000000000439e-02 1.984655000000000169e-01 1.248509999999999920e+01 7.043840000000000146e+01 1.979404999999999973e+03
4.499999999999999833e-02 1.985374999999999779e-01 1.281585000000000107e+01 7.231080000000000041e+01 1.979840000000000146e+03
4.599999999999999922e-02 1.986089999999999800e-01 1.307754999999999868e+01 7.394790000000000418e+01 1.980275000000000091e+03
4.700000000000000011e-02 1.986694999999999989e-01 1.319845000000000113e+01 7.512810000000000343e+01 1.980644999999999982e+03
4.800000000000000100e-02 1.987115000000000131e-01 1.312870000000000026e+01 7.569944999999999879e+01 1.980904999999999973e+03
4.900000000000000189e-02 1.987295000000000034e-01 1.284309999999999974e+01 7.559120000000000061e+01 1.981025000000000091e+03
5.000000000000000278e-02 1.987214999999999954e-01 1.233924999999999983e+01 7.480984999999999729e+01 1.980990000000000009e+03
5.100000000000000366e-02 1.986870000000000025e-01 1.163256499999999960e+01 7.342404999999999404e+01 1.980789999999999964e+03
5.200000000000000455e-02 1.986284999999999856e-01 1.075057999999999936e+01 7.154220000000000823e+01 1.980445000000000164e+03
5.300000000000000544e-02 1.985500000000000043e-01 9.726509999999999323e+00 6.929035000000000366e+01 1.979974999999999909e+03
5.399999999999999939e-02 1.984555000000000069e-01 8.595289999999998543e+00 6.679314999999999714e+01 1.979404999999999973e+03
5.500000000000000028e-02 1.983499999999999985e-01 7.390754999999999519e+00 6.416280000000000427e+01 1.978764999999999873e+03
5.600000000000000117e-02 1.982369999999999965e-01 6.144894999999999996e+00 6.149399999999999977e+01 1.978085000000000036e+03
5.700000000000000205e-02 1.981215000000000059e-01 4.888619999999999521e+00 5.886554999999999893e+01 1.977380000000000109e+03
5.800000000000000294e-02 1.980060000000000153e-01 3.652998000000000189e+00 5.634570000000000078e+01 1.976675000000000182e+03
5.900000000000000383e-02 1.978945000000000010e-01 2.470563499999999912e+00 5.399849999999999994e+01 1.975994999999999891e+03
6.000000000000000472e-02 1.977899999999999936e-01 1.376014999999999988e+00 5.188925000000000409e+01 1.975355000000000018e+03
6.099999999999999867e-02 1.976955000000000240e-01 4.060700000000000420e-01 5.008749999999999858e+01 1.974769999999999982e+03
6.199999999999999956e-02 1.976144999999999985e-01 -4.015950000000001463e-01 4.866670000000000584e+01 1.974269999999999982e+03
6.300000000000000044e-02 1.975500000000000034e-01 -1.010218999999999978e+00 4.770125000000000171e+01 1.973869999999999891e+03
6.400000000000000133e-02 1.975065000000000015e-01 -1.386236000000000024e+00 4.726129999999999853e+01 1.973590000000000146e+03
6.500000000000000222e-02 1.974859999999999949e-01 -1.501679999999999904e+00 4.740614999999999668e+01 1.973450000000000045e+03
6.600000000000000311e-02 1.974914999999999865e-01 -1.336324999999999985e+00 4.817879999999999541e+01 1.973465000000000146e+03
6.700000000000000400e-02 1.975244999999999918e-01 -8.792254999999998821e-01 4.960094999999999743e+01 1.973644999999999982e+03
6.800000000000000488e-02 1.975859999999999839e-01 -1.295549999999999757e-01 5.167024999999999579e+01 1.974000000000000000e+03
6.900000000000000577e-02 1.976755000000000040e-01 9.033200000000000118e-01 5.435989999999999611e+01 1.974519999999999982e+03
7.000000000000000666e-02 1.977920000000000234e-01 2.200503499999999946e+00 5.762045000000000528e+01 1.975215000000000146e+03
7.100000000000000755e-02 1.979339999999999988e-01 3.734760000000000080e+00 6.138275000000000148e+01 1.976059999999999945e+03
7.200000000000000844e-02 1.980979999999999963e-01 5.472129999999999939e+00 6.556314999999999316e+01 1.977045000000000073e+03
7.300000000000000933e-02 1.982809999999999850e-01 7.373815000000000452e+00 7.006820000000000448e+01 1.978150000000000091e+03
7.399999999999999634e-02 1.984790000000000165e-01 9.398134999999999906e+00 7.480029999999999291e+01 1.979349999999999909e+03
7.499999999999999722e-02 1.986880000000000035e-01 1.150253999999999976e+01 7.966329999999999245e+01 1.980625000000000000e+03
7.599999999999999811e-02 1.989039999999999975e-01 1.364568500000000029e+01 8.456709999999999638e+01 1.981940000000000055e+03
7.699999999999999900e-02 1.991235000000000088e-01 1.578894999999999982e+01 8.943190000000001305e+01 1.983279999999999973e+03
7.799999999999999989e-02 1.993420000000000192e-01 1.789809999999999945e+01 9.419200000000000728e+01 1.984625000000000000e+03
7.900000000000000078e-02 1.995580000000000132e-01 1.994460000000000122e+01 9.879744999999999777e+01 1.985960000000000036e+03
8.000000000000000167e-02 1.997685000000000155e-01 2.190605000000000047e+01 1.032154999999999916e+02 1.987259999999999991e+03
8.100000000000000255e-02 1.999719999999999831e-01 2.376655000000000229e+01 1.074314999999999998e+02 1.988525000000000091e+03
8.200000000000000344e-02 2.001684999999999992e-01 2.551664999999999850e+01 1.114439999999999884e+02 1.989750000000000000e+03
8.300000000000000433e-02 2.003570000000000073e-01 2.715240000000000009e+01 1.152674999999999983e+02 1.990925000000000182e+03
8.400000000000000522e-02 2.005385000000000084e-01 2.867464999999999975e+01 1.189234999999999900e+02 1.992055000000000064e+03
8.500000000000000611e-02 2.007130000000000025e-01 3.008755000000000024e+01 1.224385000000000048e+02 1.993150000000000091e+03
8.600000000000000699e-02 2.008820000000000050e-01 3.139764999999999873e+01 1.258425000000000011e+02 1.994210000000000036e+03
8.700000000000000788e-02 2.010465000000000169e-01 3.261234999999999928e+01 1.291634999999999991e+02 1.995240000000000009e+03
8.800000000000000877e-02 2.012069999999999970e-01 3.373904999999999887e+01 1.324230000000000018e+02 1.996255000000000109e+03
8.899999999999999578e-02 2.013655000000000028e-01 3.478435000000000343e+01 1.356374999999999886e+02 1.997244999999999891e+03
8.999999999999999667e-02 2.015210000000000057e-01 3.575310000000000343e+01 1.388160000000000025e+02 1.998224999999999909e+03
9.099999999999999756e-02 2.016744999999999788e-01 3.664855000000000018e+01 1.419579999999999984e+02 1.999190000000000055e+03
9.199999999999999845e-02 2.018264999999999920e-01 3.747200000000000131e+01 1.450575000000000045e+02 2.000150000000000091e+03
9.299999999999999933e-02 2.019759999999999889e-01 3.822270000000000323e+01 1.481005000000000109e+02 2.001090000000000146e+03
9.400000000000000022e-02 2.021219999999999961e-01 3.889820000000000277e+01 1.510695000000000050e+02 2.002009999999999991e+03
9.500000000000000111e-02 2.022645000000000137e-01 3.949470000000000169e+01 1.539414999999999907e+02 2.002910000000000082e+03
9.600000000000000200e-02 2.024024999999999852e-01 4.000719999999999743e+01 1.566924999999999955e+02 2.003785000000000082e+03
9.700000000000000289e-02 2.025350000000000206e-01 4.043004999999999427e+01 1.592975000000000136e+02 2.004615000000000009e+03
9.800000000000000377e-02 2.026605000000000212e-01 4.075709999999999411e+01 1.617314999999999827e+02 2.005409999999999854e+03
9.900000000000000466e-02 2.027780000000000138e-01 4.098225000000000051e+01 1.639705000000000155e+02 2.006160000000000082e+03
1.000000000000000056e-01 2.028864999999999974e-01 4.109980000000000189e+01 1.659929999999999950e+02 2.006849999999999909e+03
1.010000000000000064e-01 2.029854999999999854e-01 4.110479999999999734e+01 1.677805000000000177e+02 2.007474999999999909e+03
1.020000000000000073e-01 2.030739999999999768e-01 4.099334999999999951e+01 1.693174999999999955e+02 2.008039999999999964e+03
1.030000000000000082e-01 2.031505000000000116e-01 4.076304999999999978e+01 1.705939999999999941e+02 2.008534999999999854e+03
1.040000000000000091e-01 2.032154999999999934e-01 4.041339999999999577e+01 1.716045000000000016e+02 2.008949999999999818e+03
1.050000000000000100e-01 2.032685000000000186e-01 3.994580000000000553e+01 1.723480000000000132e+02 2.009295000000000073e+03
1.059999999999999970e-01 2.033089999999999897e-01 3.936395000000000266e+01 1.728299999999999841e+02 2.009559999999999945e+03
1.069999999999999979e-01 2.033380000000000187e-01 3.867379999999999995e+01 1.730620000000000118e+02 2.009755000000000109e+03
1.079999999999999988e-01 2.033554999999999946e-01 3.788369999999999749e+01 1.730595000000000141e+02 2.009869999999999891e+03
1.089999999999999997e-01 2.033619999999999872e-01 3.700384999999999991e+01 1.728439999999999941e+02 2.009925000000000182e+03
1.100000000000000006e-01 2.033590000000000120e-01 3.604650000000000176e+01 1.724420000000000073e+02 2.009914999999999964e+03
1.110000000000000014e-01 2.033480000000000010e-01 3.502509999999999479e+01 1.718805000000000121e+02 2.009849999999999909e+03
1.120000000000000023e-01 2.033284999999999954e-01 3.395414999999999850e+01 1.711914999999999907e+02 2.009735000000000127e+03
1.130000000000000032e-01 2.033030000000000115e-01 3.284850000000000136e+01 1.704044999999999845e+02 2.009579999999999927e+03
1.140000000000000041e-01 2.032724999999999949e-01 3.172299999999999898e+01 1.695515000000000043e+02 2.009394999999999982e+03
1.150000000000000050e-01 2.032384999999999886e-01 3.059174999999999756e+01 1.686599999999999966e+02 2.009184999999999945e+03
1.160000000000000059e-01 2.032025000000000081e-01 2.946799999999999997e+01 1.677570000000000050e+02 2.008960000000000036e+03
1.170000000000000068e-01 2.031649999999999845e-01 2.836330000000000240e+01 1.668634999999999877e+02 2.008724999999999909e+03
1.180000000000000077e-01 2.031274999999999886e-01 2.728760000000000119e+01 1.659975000000000023e+02 2.008490000000000009e+03
1.190000000000000085e-01 2.030905000000000071e-01 2.624865000000000137e+01 1.651715000000000089e+02 2.008255000000000109e+03
1.200000000000000094e-01 2.030544999999999989e-01 2.525209999999999866e+01 1.643940000000000055e+02 2.008029999999999973e+03
1.209999999999999964e-01 2.030200000000000060e-01 2.430134999999999934e+01 1.636675000000000182e+02 2.007809999999999945e+03
1.219999999999999973e-01 2.029870000000000008e-01 2.339750000000000085e+01 1.629900000000000091e+02 2.007599999999999909e+03
1.229999999999999982e-01 2.029559999999999975e-01 2.253950000000000031e+01 1.623559999999999945e+02 2.007400000000000091e+03
1.239999999999999991e-01 2.029265000000000096e-01 2.172435000000000116e+01 1.617540000000000191e+02 2.007210000000000036e+03
1.250000000000000000e-01 2.028980000000000228e-01 2.094735000000000014e+01 1.611719999999999970e+02 2.007029999999999973e+03
1.260000000000000009e-01 2.028694999999999804e-01 2.020250000000000057e+01 1.605935000000000059e+02 2.006845000000000027e+03
1.270000000000000018e-01 2.028415000000000079e-01 1.948250000000000171e+01 1.600010000000000048e+02 2.006664999999999964e+03
1.280000000000000027e-01 2.028125000000000067e-01 1.877984999999999971e+01 1.593770000000000095e+02 2.006480000000000018e+03
1.290000000000000036e-01 2.027820000000000178e-01 1.808644999999999925e+01 1.587030000000000030e+02 2.006284999999999854e+03
1.300000000000000044e-01 2.027494999999999992e-01 1.739464999999999861e+01 1.579639999999999986e+02 2.006074999999999818e+03
1.310000000000000053e-01 2.027134999999999909e-01 1.669735000000000014e+01 1.571449999999999818e+02 2.005849999999999909e+03
1.320000000000000062e-01 2.026740000000000208e-01 1.598835000000000051e+01 1.562344999999999970e+02 2.005605000000000018e+03
1.330000000000000071e-01 2.026310000000000056e-01 1.526285000000000025e+01 1.552255000000000109e+02 2.005329999999999927e+03
1.340000000000000080e-01 2.025830000000000131e-01 1.451745000000000019e+01 1.541134999999999877e+02 2.005034999999999854e+03
1.350000000000000089e-01 2.025314999999999754e-01 1.375065000000000026e+01 1.528985000000000127e+02 2.004710000000000036e+03
1.360000000000000098e-01 2.024745000000000017e-01 1.296249999999999858e+01 1.515855000000000246e+02 2.004355000000000018e+03
1.370000000000000107e-01 2.024134999999999962e-01 1.215513999999999939e+01 1.501829999999999927e+02 2.003974999999999909e+03
1.380000000000000115e-01 2.023495000000000155e-01 1.133238000000000056e+01 1.487040000000000077e+02 2.003574999999999818e+03
1.390000000000000124e-01 2.022809999999999886e-01 1.049962999999999980e+01 1.471649999999999920e+02 2.003144999999999982e+03
1.400000000000000133e-01 2.022105000000000152e-01 9.663790000000000546e+00 1.455844999999999914e+02 2.002710000000000036e+03
1.410000000000000142e-01 2.021379999999999844e-01 8.832770000000000010e+00 1.439839999999999804e+02 2.002255000000000109e+03
1.420000000000000151e-01 2.020645000000000080e-01 8.015219999999999345e+00 1.423855000000000075e+02 2.001795000000000073e+03
1.430000000000000160e-01 2.019909999999999761e-01 7.220189999999999664e+00 1.408120000000000118e+02 2.001335000000000036e+03
1.440000000000000169e-01 2.019185000000000008e-01 6.456659999999999400e+00 1.392855000000000132e+02 2.000884999999999991e+03
1.450000000000000178e-01 2.018479999999999996e-01 5.733215000000000394e+00 1.378249999999999886e+02 2.000440000000000055e+03
1.459999999999999909e-01 2.017805000000000015e-01 5.057654999999999568e+00 1.364495000000000005e+02 2.000015000000000100e+03
1.469999999999999918e-01 2.017164999999999930e-01 4.436704999999999899e+00 1.351740000000000066e+02 1.999610000000000127e+03
1.479999999999999927e-01 2.016565000000000163e-01 3.875745000000000218e+00 1.340084999999999980e+02 1.999230000000000018e+03
1.489999999999999936e-01 2.016010000000000024e-01 3.378665000000000251e+00 1.329615000000000009e+02 1.998884999999999991e+03
1.499999999999999944e-01 2.015510000000000079e-01 2.947729999999999961e+00 1.320370000000000061e+02 1.998570000000000164e+03
1.509999999999999953e-01 2.015065000000000051e-01 2.583590000000000053e+00 1.312339999999999804e+02 1.998279999999999973e+03
1.519999999999999962e-01 2.014664999999999928e-01 2.285285000000000011e+00 1.305494999999999948e+02 1.998029999999999973e+03
1.529999999999999971e-01 2.014319999999999999e-01 2.050384999999999902e+00 1.299759999999999991e+02 1.997809999999999945e+03
1.539999999999999980e-01 2.014029999999999987e-01 1.875124999999999931e+00 1.295049999999999955e+02 1.997615000000000009e+03
1.549999999999999989e-01 2.013780000000000014e-01 1.754594999999999905e+00 1.291239999999999952e+02 1.997460000000000036e+03
1.559999999999999998e-01 2.013570000000000082e-01 1.682954999999999979e+00 1.288199999999999932e+02 1.997320000000000164e+03
1.570000000000000007e-01 2.013395000000000046e-01 1.653675000000000228e+00 1.285790000000000077e+02 1.997210000000000036e+03
1.580000000000000016e-01 2.013250000000000040e-01 1.659769999999999968e+00 1.283860000000000241e+02 1.997110000000000127e+03
1.590000000000000024e-01 2.013129999999999920e-01 1.694024999999999892e+00 1.282270000000000039e+02 1.997029999999999973e+03
