# t [s], A [cm^2], U [cm/s], P [cPa], c [cm/s]
1.000000000000000021e-03 6.502680000000000682e-01 4.709499999999998410e-03 1.032464999999999975e+02 1.719355000000000018e+03
2.000000000000000042e-03 6.502670000000000394e-01 1.675419999999999687e-02 1.032249999999999943e+02 1.719355000000000018e+03
3.000000000000000062e-03 6.503505000000000535e-01 1.820848500000000203e-01 1.034155000000000086e+02 1.719389999999999873e+03
4.000000000000000083e-03 6.503639999999999421e-01 2.369930000000000092e-01 1.034664999999999964e+02 1.719404999999999973e+03
5.000000000000000104e-03 6.502769999999999939e-01 1.065204999999999624e-01 1.031825000000000045e+02 1.719349999999999909e+03
6.000000000000000125e-03 6.501870000000000704e-01 -4.489500000000001823e-02 1.027444999999999879e+02 1.719265000000000100e+03
7.000000000000000146e-03 6.500574999999999548e-01 -2.887849999999999584e-01 1.020980000000000132e+02 1.719140000000000100e+03
8.000000000000000167e-03 6.498299999999999077e-01 -7.384399999999998743e-01 1.010570999999999913e+02 1.718934999999999945e+03
9.000000000000001055e-03 6.495104999999999906e-01 -1.374699999999999811e+00 9.957339999999999236e+01 1.718644999999999982e+03
1.000000000000000194e-02 6.490765000000000562e-01 -2.218625000000000291e+00 9.756069999999999709e+01 1.718240000000000009e+03
1.099999999999999936e-02 6.485090000000000021e-01 -3.271609999999999907e+00 9.494554999999999723e+01 1.717710000000000036e+03
1.200000000000000025e-02 6.478740000000000610e-01 -4.370974999999999611e+00 9.189099999999999113e+01 1.717069999999999936e+03
1.300000000000000114e-02 6.472959999999999825e-01 -5.230720999999999954e+00 8.880870000000000175e+01 1.716400000000000091e+03
1.400000000000000203e-02 6.468705000000000149e-01 -5.615879500000000135e+00 8.613445000000000107e+01 1.715775000000000091e+03
1.499999999999999944e-02 6.466129999999999933e-01 -5.461834999999999773e+00 8.410384999999999422e+01 1.715264999999999873e+03
1.600000000000000033e-02 6.464659999999999851e-01 -4.875890000000000057e+00 8.267629999999999768e+01 1.714855000000000018e+03
1.700000000000000122e-02 6.463375000000000092e-01 -4.063814999999999955e+00 8.159559999999999036e+01 1.714519999999999982e+03
1.800000000000000211e-02 6.461419999999999941e-01 -3.232314999999999827e+00 8.052635000000000787e+01 1.714194999999999936e+03
1.900000000000000300e-02 6.458399999999999697e-01 -2.505878999999999746e+00 7.920529999999999404e+01 1.713829999999999927e+03
2.000000000000000042e-02 6.454440000000000177e-01 -1.892834999999999823e+00 7.753979999999999961e+01 1.713409999999999854e+03
2.100000000000000130e-02 6.450024999999999231e-01 -1.315934999999999855e+00 7.560795000000000243e+01 1.712944999999999936e+03
2.200000000000000219e-02 6.445674999999999599e-01 -6.835350000000000037e-01 7.357309999999999661e+01 1.712445000000000164e+03
2.299999999999999961e-02 6.441645000000000287e-01 4.382500000000000284e-02 7.157200000000000273e+01 1.711950000000000045e+03
2.400000000000000050e-02 6.437809999999999366e-01 8.215499999999997804e-01 6.963535000000000252e+01 1.711460000000000036e+03
2.500000000000000139e-02 6.433740000000000014e-01 1.528114999999999668e+00 6.766299999999999670e+01 1.710960000000000036e+03
2.600000000000000228e-02 6.428835000000000521e-01 2.000564999999999483e+00 6.545319999999999538e+01 1.710420000000000073e+03
2.700000000000000316e-02 6.422539999999999916e-01 2.084155000000000424e+00 6.276955000000000240e+01 1.709784999999999854e+03
2.800000000000000058e-02 6.414554999999999563e-01 1.681525000000000158e+00 5.942499999999999716e+01 1.709035000000000082e+03
2.900000000000000147e-02 6.404950000000000365e-01 7.862049999999998207e-01 5.535575000000000045e+01 1.708139999999999873e+03
3.000000000000000236e-02 6.394165000000000543e-01 -5.120500000000003382e-01 5.065854999999999819e+01 1.707109999999999900e+03
3.099999999999999978e-02 6.382940000000000280e-01 -2.050435000000000230e+00 4.557954999999999757e+01 1.706000000000000000e+03
3.200000000000000067e-02 6.372089999999999144e-01 -3.633985000000000021e+00 4.046245000000000402e+01 1.704855000000000018e+03
3.300000000000000155e-02 6.362399999999999167e-01 -5.076254999999999740e+00 3.567980000000000018e+01 1.703759999999999991e+03
3.400000000000000244e-02 6.354454999999999965e-01 -6.228410000000000224e+00 3.156935000000000002e+01 1.702779999999999973e+03
3.500000000000000333e-02 6.348635000000000250e-01 -6.992515000000000036e+00 2.839000000000000057e+01 1.701980000000000018e+03
3.600000000000000422e-02 6.345115000000000061e-01 -7.320339999999999847e+00 2.630149999999999721e+01 1.701394999999999982e+03
3.700000000000000511e-02 6.343885000000000218e-01 -7.203239999999999199e+00 2.536630000000000251e+01 1.701065000000000055e+03
3.799999999999999906e-02 6.344830000000000192e-01 -6.657270000000000465e+00 2.556729999999999947e+01 1.700980000000000018e+03
3.899999999999999994e-02 6.347774999999999945e-01 -5.709215000000000373e+00 2.683435000000000059e+01 1.701134999999999991e+03
4.000000000000000083e-02 6.352534999999999155e-01 -4.387179999999999858e+00 2.906970000000000098e+01 1.701519999999999982e+03
4.100000000000000172e-02 6.358930000000000415e-01 -2.717449999999999921e+00 3.216635000000000133e+01 1.702110000000000127e+03
4.200000000000000261e-02 6.366769999999999374e-01 -7.274099999999998900e-01 3.601619999999999777e+01 1.702884999999999991e+03
4.300000000000000350e-02 6.375859999999999861e-01 1.548849999999999838e+00 4.050929999999999609e+01 1.703820000000000164e+03
4.400000000000000439e-02 6.385979999999999990e-01 4.064954999999999430e+00 4.552860000000000440e+01 1.704894999999999982e+03
4.499999999999999833e-02 6.396840000000000304e-01 6.760330000000000616e+00 5.094519999999999982e+01 1.706070000000000164e+03
4.599999999999999922e-02 6.408139999999999947e-01 9.561555000000000248e+00 5.661834999999999951e+01 1.707325000000000045e+03
4.700000000000000011e-02 6.419569999999999999e-01 1.238807399999999959e+01 6.239965000000000117e+01 1.708625000000000000e+03
4.800000000000000100e-02 6.430819999999999315e-01 1.515925999999999974e+01 6.814224999999999000e+01 1.709944999999999936e+03
4.900000000000000189e-02 6.441635000000000000e-01 1.780200500000000119e+01 7.371209999999999241e+01 1.711240000000000009e+03
5.000000000000000278e-02 6.451824999999999921e-01 2.025675000000000026e+01 7.899824999999999875e+01 1.712490000000000009e+03
5.100000000000000366e-02 6.461250000000000604e-01 2.248110000000000142e+01 8.392105000000000814e+01 1.713675000000000182e+03
5.200000000000000455e-02 6.469875000000000487e-01 2.445120000000000005e+01 8.843555000000000632e+01 1.714789999999999964e+03
5.300000000000000544e-02 6.477705000000000268e-01 2.616019999999999968e+01 9.253174999999998818e+01 1.715815000000000055e+03
5.399999999999999939e-02 6.484820000000000029e-01 2.761574999999999847e+01 9.623005000000000564e+01 1.716755000000000109e+03
5.500000000000000028e-02 6.491325000000000012e-01 2.883709999999999951e+01 9.957609999999999673e+01 1.717619999999999891e+03
5.600000000000000117e-02 6.497355000000000214e-01 2.985154999999999959e+01 1.026329499999999939e+02 1.718414999999999964e+03
5.700000000000000205e-02 6.503060000000000507e-01 3.069245000000000090e+01 1.054754999999999967e+02 1.719159999999999854e+03
5.800000000000000294e-02 6.508585000000000065e-01 3.139649999999999963e+01 1.081829999999999927e+02 1.719865000000000009e+03
5.900000000000000383e-02 6.514089999999999048e-01 3.200225000000000364e+01 1.108354999999999961e+02 1.720554999999999836e+03
6.000000000000000472e-02 6.519715000000000371e-01 3.254769999999999897e+01 1.135084999999999980e+02 1.721235000000000127e+03
6.099999999999999867e-02 6.525579999999999714e-01 3.306810000000000116e+01 1.162655000000000030e+02 1.721924999999999955e+03
6.199999999999999956e-02 6.531759999999999788e-01 3.359309999999999974e+01 1.191589999999999918e+02 1.722644999999999982e+03
6.300000000000000044e-02 6.538325000000000387e-01 3.414414999999999623e+01 1.222194999999999965e+02 1.723389999999999873e+03
6.400000000000000133e-02 6.545254999999999823e-01 3.473290000000000077e+01 1.254585000000000150e+02 1.724175000000000182e+03
6.500000000000000222e-02 6.552510000000000279e-01 3.535965000000000202e+01 1.288594999999999970e+02 1.724994999999999891e+03
6.600000000000000311e-02 6.559995000000000687e-01 3.601395000000000124e+01 1.323865000000000123e+02 1.725840000000000146e+03
6.700000000000000400e-02 6.567560000000000064e-01 3.667589999999999861e+01 1.359809999999999945e+02 1.726704999999999927e+03
6.800000000000000488e-02 6.575064999999999937e-01 3.731804999999999950e+01 1.395690000000000168e+02 1.727569999999999936e+03
6.900000000000000577e-02 6.582324999999999982e-01 3.790890000000000271e+01 1.430674999999999955e+02 1.728420000000000073e+03
7.000000000000000666e-02 6.589160000000000572e-01 3.841544999999999987e+01 1.463890000000000100e+02 1.729234999999999900e+03
7.100000000000000755e-02 6.595420000000000726e-01 3.880604999999999905e+01 1.494519999999999982e+02 1.730000000000000000e+03
7.200000000000000844e-02 6.600965000000000860e-01 3.905304999999999893e+01 1.521834999999999809e+02 1.730695000000000164e+03
7.300000000000000933e-02 6.605689999999999618e-01 3.913439999999999941e+01 1.545244999999999891e+02 1.731305000000000064e+03
7.399999999999999634e-02 6.609525000000000539e-01 3.903515000000000157e+01 1.564340000000000259e+02 1.731815000000000055e+03
7.499999999999999722e-02 6.612439999999999429e-01 3.874819999999999709e+01 1.578905000000000030e+02 1.732230000000000018e+03
7.599999999999999811e-02 6.614440000000000319e-01 3.827420000000000044e+01 1.588919999999999959e+02 1.732534999999999854e+03
7.699999999999999900e-02 6.615580000000000904e-01 3.762165000000000248e+01 1.594544999999999959e+02 1.732740000000000009e+03
7.799999999999999989e-02 6.615925000000000278e-01 3.680619999999999692e+01 1.596119999999999948e+02 1.732855000000000018e+03
7.900000000000000078e-02 6.615584999999999383e-01 3.584964999999999691e+01 1.594134999999999991e+02 1.732869999999999891e+03
8.000000000000000167e-02 6.614674999999999860e-01 3.477859999999999729e+01 1.589170000000000016e+02 1.732815000000000055e+03
8.100000000000000255e-02 6.613335000000000186e-01 3.362324999999999875e+01 1.581904999999999859e+02 1.732700000000000045e+03
8.200000000000000344e-02 6.611709999999999532e-01 3.241555000000000319e+01 1.573045000000000186e+02 1.732534999999999854e+03
8.300000000000000433e-02 6.609935000000000116e-01 3.118755000000000166e+01 1.563290000000000077e+02 1.732335000000000036e+03
8.400000000000000522e-02 6.608140000000000125e-01 2.996989999999999910e+01 1.553315000000000055e+02 1.732125000000000000e+03
8.500000000000000611e-02 6.606440000000000090e-01 2.879015000000000057e+01 1.543725000000000023e+02 1.731914999999999964e+03
8.600000000000000699e-02 6.604929999999999968e-01 2.767159999999999798e+01 1.535024999999999977e+02 1.731715000000000146e+03
8.700000000000000788e-02 6.603670000000000373e-01 2.663219999999999743e+01 1.527599999999999909e+02 1.731534999999999854e+03
8.800000000000000877e-02 6.602715000000000112e-01 2.568384999999999962e+01 1.521709999999999923e+02 1.731389999999999873e+03
8.899999999999999578e-02 6.602084999999999759e-01 2.483230000000000004e+01 1.517479999999999905e+02 1.731269999999999982e+03
8.999999999999999667e-02 6.601755000000000262e-01 2.407719999999999771e+01 1.514915000000000020e+02 1.731184999999999945e+03
9.099999999999999756e-02 6.601704999999999934e-01 2.341219999999999857e+01 1.513880000000000052e+02 1.731144999999999982e+03
9.199999999999999845e-02 6.601885000000000669e-01 2.282629999999999981e+01 1.514139999999999873e+02 1.731125000000000000e+03
9.299999999999999933e-02 6.602215000000000167e-01 2.230395000000000039e+01 1.515380000000000109e+02 1.731130000000000109e+03
9.400000000000000022e-02 6.602630000000000443e-01 2.182669999999999888e+01 1.517230000000000132e+02 1.731154999999999973e+03
9.500000000000000111e-02 6.603044999999999609e-01 2.137409999999999854e+01 1.519265000000000043e+02 1.731184999999999945e+03
9.600000000000000200e-02 6.603364999999999929e-01 2.092524999999999835e+01 1.521065000000000111e+02 1.731215000000000146e+03
9.700000000000000289e-02 6.603529999999999678e-01 2.045964999999999989e+01 1.522210000000000036e+02 1.731235000000000127e+03
9.800000000000000377e-02 6.603455000000000297e-01 1.995895000000000152e+01 1.522344999999999970e+02 1.731240000000000009e+03
9.900000000000000466e-02 6.603090000000000348e-01 1.940759999999999863e+01 1.521165000000000020e+02 1.731215000000000146e+03
1.000000000000000056e-01 6.602405000000000079e-01 1.879400000000000048e+01 1.518444999999999823e+02 1.731159999999999854e+03
1.010000000000000064e-01 6.601380000000000026e-01 1.811135000000000161e+01 1.514060000000000059e+02 1.731074999999999818e+03
1.020000000000000073e-01 6.600010000000000598e-01 1.735754999999999981e+01 1.507984999999999900e+02 1.730944999999999936e+03
1.030000000000000082e-01 6.598330000000000028e-01 1.653590000000000160e+01 1.500300000000000011e+02 1.730779999999999973e+03
1.040000000000000091e-01 6.596385000000000165e-01 1.565435000000000088e+01 1.491184999999999832e+02 1.730585000000000036e+03
1.050000000000000100e-01 6.594230000000000924e-01 1.472537499999999966e+01 1.480910000000000082e+02 1.730360000000000127e+03
1.059999999999999970e-01 6.591934999999999878e-01 1.376515999999999806e+01 1.469819999999999993e+02 1.730115000000000009e+03
1.069999999999999979e-01 6.589590000000000725e-01 1.279237000000000180e+01 1.458299999999999841e+02 1.729855000000000018e+03
1.079999999999999988e-01 6.587279999999999802e-01 1.182755500000000026e+01 1.446775000000000091e+02 1.729585000000000036e+03
1.089999999999999997e-01 6.585084999999999411e-01 1.089142999999999972e+01 1.435674999999999955e+02 1.729324999999999818e+03
1.100000000000000006e-01 6.583090000000000330e-01 1.000421000000000049e+01 1.425395000000000039e+02 1.729079999999999927e+03
1.110000000000000014e-01 6.581354999999999844e-01 9.183910000000000906e+00 1.416304999999999836e+02 1.728860000000000127e+03
1.120000000000000023e-01 6.579945000000000377e-01 8.445885000000000531e+00 1.408695000000000164e+02 1.728664999999999964e+03
1.130000000000000032e-01 6.578889999999999461e-01 7.801804999999999879e+00 1.402785000000000082e+02 1.728505000000000109e+03
1.140000000000000041e-01 6.578205000000000302e-01 7.259080000000000865e+00 1.398704999999999927e+02 1.728384999999999991e+03
1.150000000000000050e-01 6.577899999999999858e-01 6.820664999999999978e+00 1.396494999999999891e+02 1.728309999999999945e+03
1.160000000000000059e-01 6.577950000000000186e-01 6.485145000000000159e+00 1.396090000000000089e+02 1.728275000000000091e+03
1.170000000000000068e-01 6.578319999999999723e-01 6.246974999999999945e+00 1.397355000000000018e+02 1.728280000000000200e+03
1.180000000000000077e-01 6.578964999999999952e-01 6.096999999999999531e+00 1.400070000000000050e+02 1.728309999999999945e+03
1.190000000000000085e-01 6.579824999999999147e-01 6.023115000000000663e+00 1.403975000000000080e+02 1.728380000000000109e+03
1.200000000000000094e-01 6.580835000000000434e-01 6.011074999999999946e+00 1.408759999999999764e+02 1.728470000000000027e+03
1.209999999999999964e-01 6.581934999999999869e-01 6.045315000000000438e+00 1.414085000000000036e+02 1.728579999999999927e+03
1.219999999999999973e-01 6.583050000000000290e-01 6.109745000000000203e+00 1.419639999999999986e+02 1.728695000000000164e+03
1.229999999999999982e-01 6.584125000000000671e-01 6.188549999999999329e+00 1.425090000000000146e+02 1.728815000000000055e+03
1.239999999999999991e-01 6.585104999999999986e-01 6.266869999999999941e+00 1.430165000000000077e+02 1.728924999999999955e+03
1.250000000000000000e-01 6.585944999999999716e-01 6.331364999999999910e+00 1.434610000000000127e+02 1.729029999999999973e+03
1.260000000000000009e-01 6.586604999999999821e-01 6.370680000000000121e+00 1.438230000000000075e+02 1.729115000000000009e+03
1.270000000000000018e-01 6.587065000000000836e-01 6.375770000000000159e+00 1.440880000000000223e+02 1.729184999999999945e+03
1.280000000000000027e-01 6.587309999999999555e-01 6.340094999999999814e+00 1.442464999999999975e+02 1.729224999999999909e+03
1.290000000000000036e-01 6.587339999999999307e-01 6.259665000000000035e+00 1.442944999999999993e+02 1.729250000000000000e+03
1.300000000000000044e-01 6.587149999999999395e-01 6.133015000000000327e+00 1.442340000000000089e+02 1.729244999999999891e+03
1.310000000000000053e-01 6.586760000000000392e-01 5.961054999999999993e+00 1.440709999999999980e+02 1.729224999999999909e+03
1.320000000000000062e-01 6.586199999999999832e-01 5.746819999999999595e+00 1.438140000000000214e+02 1.729179999999999836e+03
1.330000000000000071e-01 6.585479999999999112e-01 5.495169999999999888e+00 1.434759999999999991e+02 1.729110000000000127e+03
1.340000000000000080e-01 6.584645000000000081e-01 5.212410000000000210e+00 1.430715000000000146e+02 1.729029999999999973e+03
1.350000000000000089e-01 6.583719999999999573e-01 4.905924999999999869e+00 1.426165000000000020e+02 1.728934999999999945e+03
1.360000000000000098e-01 6.582740000000000258e-01 4.583700000000000330e+00 1.421264999999999930e+02 1.728825000000000045e+03
1.370000000000000107e-01 6.581740000000000368e-01 4.253930000000000433e+00 1.416185000000000116e+02 1.728714999999999918e+03
1.380000000000000115e-01 6.580740000000000478e-01 3.924605000000000121e+00 1.411064999999999827e+02 1.728599999999999909e+03
1.390000000000000124e-01 6.579764999999999642e-01 3.603099999999999969e+00 1.406034999999999968e+02 1.728485000000000127e+03
1.400000000000000133e-01 6.578840000000000243e-01 3.295885000000000176e+00 1.401209999999999809e+02 1.728365000000000009e+03
1.410000000000000142e-01 6.577975000000000350e-01 3.008264999999999745e+00 1.396659999999999968e+02 1.728259999999999991e+03
1.420000000000000151e-01 6.577174999999999550e-01 2.744200000000000195e+00 1.392439999999999998e+02 1.728160000000000082e+03
1.430000000000000160e-01 6.576454999999999940e-01 2.506254999999999900e+00 1.388569999999999993e+02 1.728065000000000055e+03
1.440000000000000169e-01 6.575794999999999835e-01 2.295580000000000176e+00 1.385049999999999955e+02 1.727974999999999909e+03
1.450000000000000178e-01 6.575195000000000345e-01 2.112020000000000231e+00 1.381850000000000023e+02 1.727889999999999873e+03
1.459999999999999909e-01 6.574645000000000072e-01 1.954260000000000108e+00 1.378924999999999841e+02 1.727815000000000055e+03
1.469999999999999918e-01 6.574130000000000251e-01 1.820043500000000147e+00 1.376200000000000045e+02 1.727744999999999891e+03
1.479999999999999927e-01 6.573629999999999196e-01 1.706398999999999999e+00 1.373615000000000066e+02 1.727679999999999836e+03
1.489999999999999936e-01 6.573134999999999950e-01 1.609900500000000179e+00 1.371084999999999923e+02 1.727615000000000009e+03
1.499999999999999944e-01 6.572625000000000828e-01 1.526919499999999985e+00 1.368539999999999850e+02 1.727545000000000073e+03
1.509999999999999953e-01 6.572089999999999321e-01 1.453867500000000090e+00 1.365914999999999964e+02 1.727480000000000018e+03
1.519999999999999962e-01 6.571525000000000283e-01 1.387413499999999855e+00 1.363149999999999977e+02 1.727410000000000082e+03
1.529999999999999971e-01 6.570914999999999395e-01 1.324672500000000142e+00 1.360210000000000150e+02 1.727339999999999918e+03
1.539999999999999980e-01 6.570255000000000400e-01 1.263353500000000018e+00 1.357065000000000055e+02 1.727259999999999991e+03
1.549999999999999989e-01 6.569549999999999557e-01 1.201867000000000019e+00 1.353704999999999927e+02 1.727180000000000064e+03
1.559999999999999998e-01 6.568804999999999783e-01 1.139402000000000026e+00 1.350149999999999864e+02 1.727094999999999800e+03
1.570000000000000007e-01 6.568024999999999558e-01 1.075954850000000018e+00 1.346430000000000007e+02 1.727005000000000109e+03
1.580000000000000016e-01 6.567225000000000978e-01 1.012293249999999922e+00 1.342579999999999814e+02 1.726914999999999964e+03
1.590000000000000024e-01 6.566410000000000302e-01 9.498919999999999586e-01 1.338675000000000068e+02 1.726815000000000055e+03
