# t [s], A [cm^2], U [cm/s], P [cPa], c [cm/s]
1.000000000000000021e-03 1.527459999999999929e-01 2.556700000000000084e-01 9.430185000000000173e+01 1.986349999999999909e+03
2.000000000000000042e-03 1.527125000000000010e-01 1.688421500000000020e+00 9.135095000000001164e+01 1.986019999999999982e+03
3.000000000000000062e-03 1.526095000000000090e-01 3.477022999999999975e+00 8.727545000000000641e+01 1.985069999999999936e+03
4.000000000000000083e-03 1.524625000000000008e-01 5.488780499999999840e+00 8.270384999999998854e+01 1.983730000000000018e+03
5.000000000000000104e-03 1.522990000000000177e-01 7.666120000000000267e+00 7.844444999999998913e+01 1.982255000000000109e+03
6.000000000000000125e-03 1.521379999999999955e-01 9.874480000000000146e+00 7.487139999999999418e+01 1.980809999999999945e+03
7.000000000000000146e-03 1.519850000000000090e-01 1.191757499999999936e+01 7.186074999999999591e+01 1.979470000000000027e+03
8.000000000000000167e-03 1.518430000000000057e-01 1.367582499999999968e+01 6.915789999999999793e+01 1.978240000000000009e+03
9.000000000000001055e-03 1.517145000000000021e-01 1.515915000000000035e+01 6.673714999999999975e+01 1.977144999999999982e+03
1.000000000000000194e-02 1.516029999999999878e-01 1.640804999999999936e+01 6.468694999999999595e+01 1.976210000000000036e+03
1.099999999999999936e-02 1.515090000000000048e-01 1.744149999999999778e+01 6.302389999999999759e+01 1.975429999999999836e+03
1.200000000000000025e-02 1.514325000000000254e-01 1.827360000000000184e+01 6.170875000000000199e+01 1.974800000000000182e+03
1.300000000000000114e-02 1.513704999999999912e-01 1.891450000000000031e+01 6.067895000000000039e+01 1.974299999999999955e+03
1.400000000000000203e-02 1.513214999999999977e-01 1.936589999999999989e+01 5.983639999999999759e+01 1.973900000000000091e+03
1.499999999999999944e-02 1.512799999999999978e-01 1.964779999999999660e+01 5.909884999999999877e+01 1.973575000000000045e+03
1.600000000000000033e-02 1.512465000000000059e-01 1.983354999999999890e+01 5.851144999999999641e+01 1.973319999999999936e+03
1.700000000000000122e-02 1.512255000000000127e-01 2.004579999999999984e+01 5.829025000000000034e+01 1.973164999999999964e+03
1.800000000000000211e-02 1.512235000000000107e-01 2.040610000000000213e+01 5.872344999999999970e+01 1.973159999999999854e+03
1.900000000000000300e-02 1.512469999999999926e-01 2.097374999999999901e+01 5.999434999999999718e+01 1.973360000000000127e+03
2.000000000000000042e-02 1.512954999999999994e-01 2.171430000000000149e+01 6.204534999999999911e+01 1.973765000000000100e+03
2.100000000000000130e-02 1.513634999999999842e-01 2.251184999999999903e+01 6.456145000000000778e+01 1.974340000000000146e+03
2.200000000000000219e-02 1.514400000000000190e-01 2.321405000000000030e+01 6.706999999999999318e+01 1.974990000000000009e+03
2.299999999999999961e-02 1.515115000000000212e-01 2.368659999999999854e+01 6.909899999999998954e+01 1.975610000000000127e+03
2.400000000000000050e-02 1.515679999999999805e-01 2.385425000000000040e+01 7.032370000000000232e+01 1.976110000000000127e+03
2.500000000000000139e-02 1.516020000000000145e-01 2.371780000000000044e+01 7.065004999999999313e+01 1.976424999999999955e+03
2.600000000000000228e-02 1.516144999999999854e-01 2.334264999999999901e+01 7.021285000000000309e+01 1.976550000000000182e+03
2.700000000000000316e-02 1.516079999999999928e-01 2.282854999999999990e+01 6.929984999999999218e+01 1.976515000000000100e+03
2.800000000000000058e-02 1.515905000000000169e-01 2.227220000000000155e+01 6.823680000000000234e+01 1.976380000000000109e+03
2.900000000000000147e-02 1.515695000000000237e-01 2.173794999999999789e+01 6.727975000000000705e+01 1.976210000000000036e+03
3.000000000000000236e-02 1.515485000000000027e-01 2.124429999999999907e+01 6.654830000000001178e+01 1.976035000000000082e+03
3.099999999999999978e-02 1.515309999999999990e-01 2.076825000000000188e+01 6.601545000000000130e+01 1.975880000000000109e+03
3.200000000000000067e-02 1.515150000000000108e-01 2.026245000000000118e+01 6.554734999999999445e+01 1.975744999999999891e+03
3.300000000000000155e-02 1.514965000000000062e-01 1.967924999999999969e+01 6.497245000000000914e+01 1.975589999999999918e+03
3.400000000000000244e-02 1.514725000000000099e-01 1.899210000000000065e+01 6.415585000000000093e+01 1.975394999999999982e+03
3.500000000000000333e-02 1.514409999999999923e-01 1.821034999999999826e+01 6.305680000000000263e+01 1.975134999999999991e+03
3.600000000000000422e-02 1.514024999999999954e-01 1.738190000000000168e+01 6.175399999999999778e+01 1.974815000000000055e+03
3.700000000000000511e-02 1.513609999999999955e-01 1.658435000000000059e+01 6.043225000000000335e+01 1.974469999999999800e+03
3.799999999999999906e-02 1.513214999999999977e-01 1.590649999999999942e+01 5.933554999999999779e+01 1.974134999999999991e+03
3.899999999999999994e-02 1.512915000000000232e-01 1.542655000000000065e+01 5.870229999999999393e+01 1.973875000000000000e+03
4.000000000000000083e-02 1.512775000000000092e-01 1.519270000000000032e+01 5.870125000000000171e+01 1.973740000000000009e+03
4.100000000000000172e-02 1.512819999999999998e-01 1.521229999999999905e+01 5.938710000000000377e+01 1.973764999999999873e+03
4.200000000000000261e-02 1.513055000000000094e-01 1.545005000000000095e+01 6.068589999999999662e+01 1.973950000000000045e+03
4.300000000000000350e-02 1.513459999999999805e-01 1.583610000000000007e+01 6.241030000000000655e+01 1.974275000000000091e+03
4.400000000000000439e-02 1.513970000000000038e-01 1.627945000000000064e+01 6.429850000000000421e+01 1.974694999999999936e+03
4.499999999999999833e-02 1.514515000000000167e-01 1.668420000000000059e+01 6.606354999999999222e+01 1.975150000000000091e+03
4.599999999999999922e-02 1.515015000000000112e-01 1.696399999999999864e+01 6.744239999999999213e+01 1.975570000000000164e+03
4.700000000000000011e-02 1.515384999999999927e-01 1.705279999999999774e+01 6.823364999999999725e+01 1.975889999999999873e+03
4.800000000000000100e-02 1.515589999999999993e-01 1.691045000000000087e+01 6.831925000000001091e+01 1.976075000000000045e+03
4.900000000000000189e-02 1.515589999999999993e-01 1.652319999999999922e+01 6.766880000000000450e+01 1.976085000000000036e+03
5.000000000000000278e-02 1.515365000000000184e-01 1.590005000000000024e+01 6.632845000000000368e+01 1.975904999999999973e+03
5.100000000000000366e-02 1.514940000000000175e-01 1.506680000000000064e+01 6.440010000000000900e+01 1.975555000000000064e+03
5.200000000000000455e-02 1.514329999999999843e-01 1.405940000000000012e+01 6.201659999999999684e+01 1.975054999999999836e+03
5.300000000000000544e-02 1.513579999999999925e-01 1.291791000000000089e+01 5.931884999999999764e+01 1.974425000000000182e+03
5.399999999999999939e-02 1.512715000000000032e-01 1.168240499999999926e+01 5.643945000000000078e+01 1.973704999999999927e+03
5.500000000000000028e-02 1.511780000000000068e-01 1.039095000000000013e+01 5.349309999999999832e+01 1.972920000000000073e+03
5.600000000000000117e-02 1.510815000000000075e-01 9.079399999999999693e+00 5.057535000000000025e+01 1.972095000000000027e+03
5.700000000000000205e-02 1.509840000000000071e-01 7.782125000000000625e+00 4.776585000000000036e+01 1.971275000000000091e+03
5.800000000000000294e-02 1.508889999999999953e-01 6.533324999999999605e+00 4.513474999999999682e+01 1.970470000000000027e+03
5.900000000000000383e-02 1.507989999999999886e-01 5.368044999999999511e+00 4.274904999999999688e+01 1.969704999999999927e+03
6.000000000000000472e-02 1.507165000000000032e-01 4.322479999999999656e+00 4.067690000000000339e+01 1.969000000000000000e+03
6.099999999999999867e-02 1.506440000000000001e-01 3.433360000000000412e+00 3.898895000000000266e+01 1.968380000000000109e+03
6.199999999999999956e-02 1.505839999999999956e-01 2.736481500000000011e+00 3.775679999999999836e+01 1.967860000000000127e+03
6.300000000000000044e-02 1.505394999999999928e-01 2.264653500000000097e+00 3.704815000000000680e+01 1.967470000000000027e+03
6.400000000000000133e-02 1.505124999999999935e-01 2.045370000000000132e+00 3.692135000000000389e+01 1.967224999999999909e+03
6.500000000000000222e-02 1.505049999999999999e-01 2.098675000000000068e+00 3.741920000000000357e+01 1.967144999999999982e+03
6.600000000000000311e-02 1.505184999999999995e-01 2.435494999999999965e+00 3.856354999999999933e+01 1.967240000000000009e+03
6.700000000000000400e-02 1.505535000000000068e-01 3.056734999999999758e+00 4.035255000000000081e+01 1.967514999999999873e+03
6.800000000000000488e-02 1.506099999999999939e-01 3.953115000000000379e+00 4.275969999999999516e+01 1.967974999999999909e+03
6.900000000000000577e-02 1.506865000000000010e-01 5.105879999999999974e+00 4.573519999999999897e+01 1.968610000000000127e+03
7.000000000000000666e-02 1.507835000000000147e-01 6.487994999999999735e+00 4.920960000000000178e+01 1.969404999999999973e+03
7.100000000000000755e-02 1.508970000000000034e-01 8.065920000000000201e+00 5.309825000000000017e+01 1.970349999999999909e+03
7.200000000000000844e-02 1.510249999999999926e-01 9.801415000000000433e+00 5.730715000000000003e+01 1.971424999999999955e+03
7.300000000000000933e-02 1.511649999999999938e-01 1.165381999999999962e+01 6.173819999999999908e+01 1.972599999999999909e+03
7.399999999999999634e-02 1.513134999999999897e-01 1.358187999999999995e+01 6.629505000000000337e+01 1.973849999999999909e+03
7.499999999999999722e-02 1.514670000000000183e-01 1.554584999999999972e+01 7.088785000000000025e+01 1.975154999999999973e+03
7.599999999999999811e-02 1.516235000000000221e-01 1.750905000000000200e+01 7.543764999999999077e+01 1.976485000000000127e+03
7.699999999999999900e-02 1.517799999999999983e-01 1.943975000000000009e+01 7.987969999999999970e+01 1.977815000000000055e+03
7.799999999999999989e-02 1.519340000000000135e-01 2.131190000000000140e+01 8.416604999999999848e+01 1.979134999999999991e+03
7.900000000000000078e-02 1.520845000000000113e-01 2.310629999999999740e+01 8.826659999999999684e+01 1.980424999999999955e+03
8.000000000000000167e-02 1.522295000000000176e-01 2.481060000000000088e+01 9.216939999999999600e+01 1.981680000000000064e+03
8.100000000000000255e-02 1.523700000000000054e-01 2.641915000000000191e+01 9.587874999999999659e+01 1.982889999999999873e+03
8.200000000000000344e-02 1.525044999999999873e-01 2.793245000000000289e+01 9.941374999999999318e+01 1.984055000000000064e+03
8.300000000000000433e-02 1.526339999999999919e-01 2.935569999999999879e+01 1.028025499999999965e+02 1.985180000000000064e+03
8.400000000000000522e-02 1.527590000000000059e-01 3.069805000000000206e+01 1.060810000000000031e+02 1.986264999999999873e+03
8.500000000000000611e-02 1.528809999999999891e-01 3.197044999999999959e+01 1.092870000000000061e+02 1.987325000000000045e+03
8.600000000000000699e-02 1.530009999999999981e-01 3.318489999999999895e+01 1.124560000000000031e+02 1.988365000000000009e+03
8.700000000000000788e-02 1.531190000000000051e-01 3.435245000000000459e+01 1.156184999999999974e+02 1.989394999999999982e+03
8.800000000000000877e-02 1.532370000000000121e-01 3.548269999999999413e+01 1.187969999999999970e+02 1.990425000000000182e+03
8.899999999999999578e-02 1.533555000000000057e-01 3.658265000000000100e+01 1.220049999999999955e+02 1.991450000000000045e+03
8.999999999999999667e-02 1.534739999999999993e-01 3.765645000000000664e+01 1.252450000000000045e+02 1.992485000000000127e+03
9.099999999999999756e-02 1.535934999999999939e-01 3.870479999999999876e+01 1.285110000000000241e+02 1.993525000000000091e+03
9.199999999999999845e-02 1.537135000000000029e-01 3.972560000000000002e+01 1.317860000000000014e+02 1.994569999999999936e+03
9.299999999999999933e-02 1.538329999999999975e-01 4.071359999999999957e+01 1.350484999999999900e+02 1.995615000000000009e+03
9.400000000000000022e-02 1.539520000000000055e-01 4.166134999999999877e+01 1.382674999999999841e+02 1.996650000000000091e+03
9.500000000000000111e-02 1.540694999999999981e-01 4.255930000000000035e+01 1.414114999999999895e+02 1.997675000000000182e+03
9.600000000000000200e-02 1.541835000000000011e-01 4.339660000000000650e+01 1.444449999999999932e+02 1.998675000000000182e+03
9.700000000000000289e-02 1.542945000000000011e-01 4.416165000000000163e+01 1.473319999999999936e+02 1.999644999999999982e+03
9.800000000000000377e-02 1.543995000000000228e-01 4.484284999999999854e+01 1.500389999999999873e+02 2.000570000000000164e+03
9.900000000000000466e-02 1.544989999999999974e-01 4.542884999999999707e+01 1.525355000000000132e+02 2.001440000000000055e+03
1.000000000000000056e-01 1.545914999999999928e-01 4.590954999999999586e+01 1.547925000000000182e+02 2.002255000000000109e+03
1.010000000000000064e-01 1.546754999999999936e-01 4.627635000000000076e+01 1.567874999999999943e+02 2.002994999999999891e+03
1.020000000000000073e-01 1.547505000000000130e-01 4.652264999999999873e+01 1.585045000000000073e+02 2.003664999999999964e+03
1.030000000000000082e-01 1.548160000000000092e-01 4.664424999999999955e+01 1.599325000000000045e+02 2.004244999999999891e+03
1.040000000000000091e-01 1.548720000000000097e-01 4.663954999999999984e+01 1.610690000000000168e+02 2.004744999999999891e+03
1.050000000000000100e-01 1.549180000000000001e-01 4.651010000000000133e+01 1.619164999999999850e+02 2.005155000000000200e+03
1.059999999999999970e-01 1.549539999999999806e-01 4.625995000000000346e+01 1.624855000000000018e+02 2.005480000000000018e+03
1.069999999999999979e-01 1.549800000000000066e-01 4.589624999999999488e+01 1.627944999999999993e+02 2.005724999999999909e+03
1.079999999999999988e-01 1.549975000000000103e-01 4.542869999999999919e+01 1.628650000000000091e+02 2.005884999999999991e+03
1.089999999999999997e-01 1.550064999999999915e-01 4.486899999999999977e+01 1.627245000000000061e+02 2.005970000000000027e+03
1.100000000000000006e-01 1.550079999999999791e-01 4.423075000000000045e+01 1.624055000000000177e+02 2.005994999999999891e+03
1.110000000000000014e-01 1.550024999999999875e-01 4.352844999999999942e+01 1.619399999999999977e+02 2.005954999999999927e+03
1.120000000000000023e-01 1.549920000000000186e-01 4.277745000000000175e+01 1.613629999999999995e+02 2.005869999999999891e+03
1.130000000000000032e-01 1.549770000000000036e-01 4.199280000000000257e+01 1.607065000000000055e+02 2.005744999999999891e+03
1.140000000000000041e-01 1.549584999999999990e-01 4.118914999999999793e+01 1.600014999999999930e+02 2.005594999999999800e+03
1.150000000000000050e-01 1.549380000000000202e-01 4.037989999999999924e+01 1.592769999999999868e+02 2.005420000000000073e+03
1.160000000000000059e-01 1.549165000000000125e-01 3.957689999999999486e+01 1.585559999999999832e+02 2.005230000000000018e+03
1.170000000000000068e-01 1.548944999999999905e-01 3.879014999999999702e+01 1.578569999999999993e+02 2.005035000000000082e+03
1.180000000000000077e-01 1.548720000000000097e-01 3.802750000000000341e+01 1.571945000000000050e+02 2.004845000000000027e+03
1.190000000000000085e-01 1.548505000000000020e-01 3.729444999999999766e+01 1.565765000000000100e+02 2.004654999999999973e+03
1.200000000000000094e-01 1.548300000000000232e-01 3.659409999999999741e+01 1.560060000000000002e+02 2.004474999999999909e+03
1.209999999999999964e-01 1.548100000000000032e-01 3.592730000000000246e+01 1.554805000000000064e+02 2.004299999999999955e+03
1.219999999999999973e-01 1.547919999999999852e-01 3.529260000000000019e+01 1.549929999999999950e+02 2.004135000000000218e+03
1.229999999999999982e-01 1.547745000000000093e-01 3.468665000000000020e+01 1.545335000000000036e+02 2.003980000000000018e+03
1.239999999999999991e-01 1.547574999999999923e-01 3.410430000000000206e+01 1.540875000000000057e+02 2.003829999999999927e+03
1.250000000000000000e-01 1.547410000000000174e-01 3.353914999999999935e+01 1.536374999999999886e+02 2.003684999999999945e+03
1.260000000000000009e-01 1.547240000000000004e-01 3.298359999999999559e+01 1.531659999999999968e+02 2.003530000000000200e+03
1.270000000000000018e-01 1.547065000000000246e-01 3.242990000000000350e+01 1.526539999999999964e+02 2.003375000000000000e+03
1.280000000000000027e-01 1.546869999999999912e-01 3.186984999999999957e+01 1.520829999999999984e+02 2.003204999999999927e+03
1.290000000000000036e-01 1.546659999999999979e-01 3.129585000000000150e+01 1.514364999999999952e+02 2.003014999999999873e+03
1.300000000000000044e-01 1.546420000000000017e-01 3.070105000000000217e+01 1.506999999999999886e+02 2.002809999999999945e+03
1.310000000000000053e-01 1.546155000000000168e-01 3.007970000000000255e+01 1.498625000000000114e+02 2.002574999999999818e+03
1.320000000000000062e-01 1.545850000000000002e-01 2.942750000000000199e+01 1.489164999999999850e+02 2.002315000000000055e+03
1.330000000000000071e-01 1.545515000000000083e-01 2.874199999999999733e+01 1.478600000000000136e+02 2.002019999999999982e+03
1.340000000000000080e-01 1.545139999999999847e-01 2.802250000000000085e+01 1.466929999999999836e+02 2.001694999999999936e+03
1.350000000000000089e-01 1.544729999999999992e-01 2.727049999999999841e+01 1.454234999999999900e+02 2.001340000000000146e+03
1.360000000000000098e-01 1.544285000000000241e-01 2.648915000000000219e+01 1.440620000000000118e+02 2.000954999999999927e+03
1.370000000000000107e-01 1.543809999999999905e-01 2.568370000000000175e+01 1.426234999999999786e+02 2.000545000000000073e+03
1.380000000000000115e-01 1.543309999999999960e-01 2.486110000000000042e+01 1.411274999999999977e+02 2.000105000000000018e+03
1.390000000000000124e-01 1.542789999999999995e-01 2.402949999999999875e+01 1.395944999999999823e+02 1.999654999999999973e+03
1.400000000000000133e-01 1.542255000000000154e-01 2.319819999999999993e+01 1.380489999999999782e+02 1.999190000000000055e+03
1.410000000000000142e-01 1.541715000000000169e-01 2.237715000000000032e+01 1.365160000000000196e+02 1.998720000000000027e+03
1.420000000000000151e-01 1.541175000000000184e-01 2.157650000000000290e+01 1.350194999999999936e+02 1.998255000000000109e+03
1.430000000000000160e-01 1.540650000000000075e-01 2.080610000000000070e+01 1.335829999999999984e+02 1.997795000000000073e+03
1.440000000000000169e-01 1.540139999999999842e-01 2.007545000000000002e+01 1.322289999999999850e+02 1.997349999999999909e+03
1.450000000000000178e-01 1.539659999999999918e-01 1.939265000000000327e+01 1.309759999999999991e+02 1.996929999999999836e+03
1.459999999999999909e-01 1.539210000000000023e-01 1.876489999999999725e+01 1.298385000000000105e+02 1.996535000000000082e+03
1.469999999999999918e-01 1.538800000000000168e-01 1.819760000000000133e+01 1.288284999999999911e+02 1.996175000000000182e+03
1.479999999999999927e-01 1.538424999999999931e-01 1.769454999999999956e+01 1.279534999999999911e+02 1.995844999999999800e+03
1.489999999999999936e-01 1.538100000000000023e-01 1.725775000000000148e+01 1.272150000000000034e+02 1.995555000000000064e+03
1.499999999999999944e-01 1.537815000000000154e-01 1.688755000000000095e+01 1.266129999999999995e+02 1.995305000000000064e+03
1.509999999999999953e-01 1.537574999999999914e-01 1.658249999999999957e+01 1.261424999999999983e+02 1.995089999999999918e+03
1.519999999999999962e-01 1.537385000000000002e-01 1.633984999999999843e+01 1.257955000000000041e+02 1.994920000000000073e+03
1.529999999999999971e-01 1.537229999999999985e-01 1.615545000000000186e+01 1.255604999999999905e+02 1.994780000000000200e+03
1.539999999999999980e-01 1.537125000000000019e-01 1.602420000000000044e+01 1.254260000000000019e+02 1.994680000000000064e+03
1.549999999999999989e-01 1.537044999999999939e-01 1.594004999999999939e+01 1.253780000000000001e+02 1.994610000000000127e+03
1.559999999999999998e-01 1.537000000000000033e-01 1.589669999999999916e+01 1.254014999999999986e+02 1.994565000000000055e+03
1.570000000000000007e-01 1.536980000000000013e-01 1.588745000000000118e+01 1.254830000000000041e+02 1.994545000000000073e+03
1.580000000000000016e-01 1.536985000000000157e-01 1.590565000000000140e+01 1.256075000000000017e+02 1.994539999999999964e+03
1.590000000000000024e-01 1.537004999999999899e-01 1.594469999999999921e+01 1.257620000000000005e+02 1.994554999999999836e+03
