# t [s], A [cm^2], U [cm/s], P [cPa], c [cm/s]
1.000000000000000021e-03 6.795670000000000321e-01 5.986999999999999267e-03 9.410285000000000366e+01 1.820659999999999854e+03
2.000000000000000042e-03 6.795590000000000241e-01 4.736300000000000579e-03 9.407255000000000678e+01 1.820654999999999973e+03
3.000000000000000062e-03 6.796284999999999688e-01 1.395507500000000012e-01 9.423785000000000878e+01 1.820690000000000055e+03
4.000000000000000083e-03 6.796584999999999432e-01 2.196754999999999958e-01 9.433965000000000600e+01 1.820704999999999927e+03
5.000000000000000104e-03 6.795979999999999244e-01 1.360825000000000229e-01 9.415370000000000061e+01 1.820674999999999955e+03
6.000000000000000125e-03 6.795284999999999798e-01 2.522050000000003456e-02 9.382734999999999559e+01 1.820615000000000009e+03
7.000000000000000146e-03 6.794510000000000272e-01 -1.142400000000000082e-01 9.339350000000000307e+01 1.820529999999999973e+03
8.000000000000000167e-03 6.793055000000000065e-01 -4.001549999999999274e-01 9.268410000000000082e+01 1.820394999999999982e+03
9.000000000000001055e-03 6.790834999999999511e-01 -8.528400000000000425e-01 9.161854999999999905e+01 1.820195000000000164e+03
1.000000000000000194e-02 6.787644999999999929e-01 -1.499780000000000113e+00 9.010405000000000086e+01 1.819905000000000200e+03
1.099999999999999936e-02 6.783335000000000337e-01 -2.352015000000000189e+00 8.806050000000000466e+01 1.819509999999999991e+03
1.200000000000000025e-02 6.778375000000000927e-01 -3.293515000000000192e+00 8.559635000000000105e+01 1.819019999999999982e+03
1.300000000000000114e-02 6.773700000000000276e-01 -4.107361000000000040e+00 8.302115000000000578e+01 1.818490000000000009e+03
1.400000000000000203e-02 6.770039999999999392e-01 -4.607209499999999736e+00 8.067060000000000741e+01 1.817985000000000127e+03
1.499999999999999944e-02 6.767540000000000777e-01 -4.728580000000000005e+00 7.873480000000000700e+01 1.817529999999999973e+03
1.600000000000000033e-02 6.765820000000000167e-01 -4.529795000000000016e+00 7.720499999999999829e+01 1.817144999999999982e+03
1.700000000000000122e-02 6.764259999999999717e-01 -4.136714999999999698e+00 7.592379999999999995e+01 1.816805000000000064e+03
1.800000000000000211e-02 6.762325000000000141e-01 -3.675635000000000208e+00 7.468375000000000341e+01 1.816480000000000018e+03
1.900000000000000300e-02 6.759770000000000501e-01 -3.222410499999999622e+00 7.332394999999999641e+01 1.816130000000000109e+03
2.000000000000000042e-02 6.756679999999999353e-01 -2.783878999999999770e+00 7.178764999999999930e+01 1.815760000000000218e+03
2.100000000000000130e-02 6.753350000000000186e-01 -2.315640000000000143e+00 7.012189999999999657e+01 1.815360000000000127e+03
2.200000000000000219e-02 6.750110000000000277e-01 -1.763499999999999623e+00 6.842570000000000618e+01 1.814954999999999927e+03
2.299999999999999961e-02 6.747110000000000607e-01 -1.105099999999999749e+00 6.678040000000000020e+01 1.814549999999999955e+03
2.400000000000000050e-02 6.744254999999999001e-01 -3.726000000000000423e-01 6.519674999999999443e+01 1.814155000000000200e+03
2.500000000000000139e-02 6.741245000000000154e-01 3.491349999999999731e-01 6.359680000000000177e+01 1.813759999999999991e+03
2.600000000000000228e-02 6.737655000000000172e-01 9.443649999999998990e-01 6.183234999999999815e+01 1.813335000000000036e+03
2.700000000000000316e-02 6.733095000000000052e-01 1.299295000000000311e+00 5.973024999999999807e+01 1.812845000000000027e+03
2.800000000000000058e-02 6.727335000000000953e-01 1.335670000000000357e+00 5.715010000000000190e+01 1.812279999999999973e+03
2.900000000000000147e-02 6.720390000000000530e-01 1.034415000000000529e+00 5.403529999999999944e+01 1.811599999999999909e+03
3.000000000000000236e-02 6.712560000000000748e-01 4.409600000000004627e-01 5.043914999999999793e+01 1.810835000000000036e+03
3.099999999999999978e-02 6.704309999999999992e-01 -3.491200000000000969e-01 4.651855000000000473e+01 1.809994999999999891e+03
3.200000000000000067e-02 6.696174999999999766e-01 -1.216759999999999842e+00 4.249800000000000466e+01 1.809125000000000000e+03
3.300000000000000155e-02 6.688659999999999606e-01 -2.047134999999999927e+00 3.862290000000000134e+01 1.808269999999999982e+03
3.400000000000000244e-02 6.682135000000000158e-01 -2.749399999999999622e+00 3.511560000000000059e+01 1.807480000000000018e+03
3.500000000000000333e-02 6.676819999999999977e-01 -3.265230000000000299e+00 3.214669999999999561e+01 1.806784999999999854e+03
3.600000000000000422e-02 6.672815000000000829e-01 -3.567210000000000214e+00 2.982300000000000040e+01 1.806210000000000036e+03
3.700000000000000511e-02 6.670104999999999507e-01 -3.650659000000000098e+00 2.819109999999999872e+01 1.805780000000000200e+03
3.799999999999999906e-02 6.668640000000000123e-01 -3.522650000000000059e+00 2.725165000000000148e+01 1.805494999999999891e+03
3.899999999999999994e-02 6.668339999999999268e-01 -3.192104999999999748e+00 2.697749999999999915e+01 1.805355000000000018e+03
4.000000000000000083e-02 6.669144999999999657e-01 -2.663515000000000299e+00 2.733079999999999998e+01 1.805360000000000127e+03
4.100000000000000172e-02 6.671019999999999728e-01 -1.935555499999999984e+00 2.827384999999999948e+01 1.805494999999999891e+03
4.200000000000000261e-02 6.673925000000000551e-01 -1.004144999999999843e+00 2.977250000000000085e+01 1.805755000000000109e+03
4.300000000000000350e-02 6.677815000000000278e-01 1.321100000000003938e-01 3.179299999999999926e+01 1.806134999999999991e+03
4.400000000000000439e-02 6.682624999999999815e-01 1.466325000000000323e+00 3.429540000000000077e+01 1.806630000000000109e+03
4.499999999999999833e-02 6.688239999999999741e-01 2.979835000000000012e+00 3.722735000000000127e+01 1.807220000000000027e+03
4.599999999999999922e-02 6.694510000000000183e-01 4.641545000000000698e+00 4.052074999999999960e+01 1.807900000000000091e+03
4.700000000000000011e-02 6.701245000000000118e-01 6.410149999999999793e+00 4.409275000000000233e+01 1.808650000000000091e+03
4.800000000000000100e-02 6.708259999999999224e-01 8.238412499999999028e+00 4.785034999999999883e+01 1.809445000000000164e+03
4.900000000000000189e-02 6.715364999999999807e-01 1.007816500000000026e+01 5.169769999999999754e+01 1.810284999999999854e+03
5.000000000000000278e-02 6.722384999999999611e-01 1.188514499999999963e+01 5.554460000000000264e+01 1.811125000000000000e+03
5.100000000000000366e-02 6.729199999999999626e-01 1.362270499999999984e+01 5.931385000000000218e+01 1.811970000000000027e+03
5.200000000000000455e-02 6.735729999999999773e-01 1.526400499999999916e+01 6.294695000000000107e+01 1.812795000000000073e+03
5.300000000000000544e-02 6.741915000000000546e-01 1.679264999999999830e+01 6.640680000000000405e+01 1.813589999999999918e+03
5.399999999999999939e-02 6.747775000000000301e-01 1.820185000000000031e+01 6.967799999999999727e+01 1.814349999999999909e+03
5.500000000000000028e-02 6.753320000000000434e-01 1.949289999999999878e+01 7.276480000000000814e+01 1.815079999999999927e+03
5.600000000000000117e-02 6.758619999999999628e-01 2.067345000000000255e+01 7.568710000000000093e+01 1.815775000000000091e+03
5.700000000000000205e-02 6.763734999999999609e-01 2.175529999999999831e+01 7.847629999999999484e+01 1.816440000000000055e+03
5.800000000000000294e-02 6.768735000000000168e-01 2.275244999999999962e+01 8.117060000000000741e+01 1.817085000000000036e+03
5.900000000000000383e-02 6.773704999999999865e-01 2.367970000000000041e+01 8.380960000000000321e+01 1.817715000000000146e+03
6.000000000000000472e-02 6.778695000000000137e-01 2.455075000000000074e+01 8.643039999999999168e+01 1.818340000000000146e+03
6.099999999999999867e-02 6.783749999999999503e-01 2.537680000000000291e+01 8.906354999999999222e+01 1.818960000000000036e+03
6.199999999999999956e-02 6.788899999999999935e-01 2.616574999999999918e+01 9.172970000000000823e+01 1.819590000000000146e+03
6.300000000000000044e-02 6.794149999999999912e-01 2.692129999999999868e+01 9.443774999999999409e+01 1.820224999999999909e+03
6.400000000000000133e-02 6.799469999999999681e-01 2.764280000000000115e+01 9.718469999999999231e+01 1.820875000000000000e+03
6.500000000000000222e-02 6.804835000000000189e-01 2.832554999999999978e+01 9.995510000000000161e+01 1.821514999999999873e+03
6.600000000000000311e-02 6.810175000000000534e-01 2.896180000000000021e+01 1.027228499999999940e+02 1.822170000000000073e+03
6.700000000000000400e-02 6.815419999999999812e-01 2.954155000000000086e+01 1.054560000000000031e+02 1.822809999999999945e+03
6.800000000000000488e-02 6.820505000000000040e-01 3.005389999999999873e+01 1.081165000000000020e+02 1.823440000000000055e+03
6.900000000000000577e-02 6.825354999999999617e-01 3.048809999999999931e+01 1.106674999999999898e+02 1.824045000000000073e+03
7.000000000000000666e-02 6.829914999999999736e-01 3.083439999999999870e+01 1.130709999999999980e+02 1.824625000000000000e+03
7.100000000000000755e-02 6.834115000000000606e-01 3.108460000000000178e+01 1.152969999999999970e+02 1.825164999999999964e+03
7.200000000000000844e-02 6.837925000000000253e-01 3.123280000000000101e+01 1.173170000000000073e+02 1.825664999999999964e+03
7.300000000000000933e-02 6.841304999999999747e-01 3.127515000000000001e+01 1.191119999999999948e+02 1.826110000000000127e+03
7.399999999999999634e-02 6.844240000000000324e-01 3.121050000000000324e+01 1.206694999999999993e+02 1.826509999999999991e+03
7.499999999999999722e-02 6.846719999999999473e-01 3.104009999999999891e+01 1.219844999999999970e+02 1.826849999999999909e+03
7.599999999999999811e-02 6.848760000000000403e-01 3.076785000000000281e+01 1.230585000000000093e+02 1.827134999999999991e+03
7.699999999999999900e-02 6.850374999999999659e-01 3.040035000000000309e+01 1.239000000000000057e+02 1.827369999999999891e+03
7.799999999999999989e-02 6.851599999999999913e-01 2.994660000000000011e+01 1.245254999999999939e+02 1.827559999999999945e+03
7.900000000000000078e-02 6.852464999999999806e-01 2.941790000000000305e+01 1.249540000000000077e+02 1.827695000000000164e+03
8.000000000000000167e-02 6.853035000000000654e-01 2.882759999999999678e+01 1.252129999999999939e+02 1.827789999999999964e+03
8.100000000000000255e-02 6.853359999999999452e-01 2.819015000000000271e+01 1.253294999999999959e+02 1.827849999999999909e+03
8.200000000000000344e-02 6.853495000000000559e-01 2.752094999999999914e+01 1.253359999999999843e+02 1.827884999999999991e+03
8.300000000000000433e-02 6.853500000000000147e-01 2.683505000000000251e+01 1.252625000000000028e+02 1.827889999999999873e+03
8.400000000000000522e-02 6.853424999999999656e-01 2.614679999999999893e+01 1.251390000000000100e+02 1.827884999999999991e+03
8.500000000000000611e-02 6.853324999999999001e-01 2.546875000000000000e+01 1.249930000000000092e+02 1.827869999999999891e+03
8.600000000000000699e-02 6.853225000000000566e-01 2.481109999999999971e+01 1.248455000000000013e+02 1.827845000000000027e+03
8.700000000000000788e-02 6.853160000000000363e-01 2.418120000000000047e+01 1.247139999999999986e+02 1.827824999999999818e+03
8.800000000000000877e-02 6.853130000000000610e-01 2.358344999999999914e+01 1.246074999999999875e+02 1.827805000000000064e+03
8.899999999999999578e-02 6.853145000000000486e-01 2.301910000000000167e+01 1.245310000000000059e+02 1.827784999999999854e+03
8.999999999999999667e-02 6.853195000000000814e-01 2.248659999999999926e+01 1.244809999999999945e+02 1.827775000000000091e+03
9.099999999999999756e-02 6.853260000000001018e-01 2.198175000000000168e+01 1.244499999999999886e+02 1.827765000000000100e+03
9.199999999999999845e-02 6.853310000000000235e-01 2.149855000000000160e+01 1.244250000000000114e+02 1.827750000000000000e+03
9.299999999999999933e-02 6.853314999999999824e-01 2.102940000000000254e+01 1.243905000000000030e+02 1.827744999999999891e+03
9.400000000000000022e-02 6.853245000000000031e-01 2.056595000000000084e+01 1.243284999999999911e+02 1.827724999999999909e+03
9.500000000000000111e-02 6.853059999999999707e-01 2.009929999999999950e+01 1.242204999999999870e+02 1.827704999999999927e+03
9.600000000000000200e-02 6.852730000000000210e-01 1.962129999999999797e+01 1.240499999999999972e+02 1.827664999999999964e+03
9.700000000000000289e-02 6.852234999999999854e-01 1.912429999999999808e+01 1.237994999999999948e+02 1.827610000000000127e+03
9.800000000000000377e-02 6.851549999999999585e-01 1.860219999999999985e+01 1.234574999999999960e+02 1.827539999999999964e+03
9.900000000000000466e-02 6.850670000000000925e-01 1.805065000000000097e+01 1.230155000000000030e+02 1.827444999999999936e+03
1.000000000000000056e-01 6.849579999999999558e-01 1.746750000000000114e+01 1.224685000000000059e+02 1.827329999999999927e+03
1.010000000000000064e-01 6.848294999999999799e-01 1.685280000000000200e+01 1.218195000000000050e+02 1.827195000000000164e+03
1.020000000000000073e-01 6.846835000000000004e-01 1.620920000000000272e+01 1.210739999999999981e+02 1.827029999999999973e+03
1.030000000000000082e-01 6.845220000000000748e-01 1.554164999999999885e+01 1.202435000000000116e+02 1.826855000000000018e+03
1.040000000000000091e-01 6.843489999999999851e-01 1.485719999999999885e+01 1.193449999999999989e+02 1.826654999999999973e+03
1.050000000000000100e-01 6.841684999999999572e-01 1.416461500000000129e+01 1.183969999999999914e+02 1.826450000000000045e+03
1.059999999999999970e-01 6.839850000000000652e-01 1.347413500000000042e+01 1.174250000000000114e+02 1.826235000000000127e+03
1.069999999999999979e-01 6.838035000000000085e-01 1.279655499999999968e+01 1.164509999999999934e+02 1.826014999999999873e+03
1.079999999999999988e-01 6.836280000000000134e-01 1.214302999999999955e+01 1.155014999999999930e+02 1.825799999999999955e+03
1.089999999999999997e-01 6.834640000000000715e-01 1.152413500000000113e+01 1.145995000000000061e+02 1.825590000000000146e+03
1.100000000000000006e-01 6.833139999999999770e-01 1.094961999999999946e+01 1.137674999999999983e+02 1.825394999999999982e+03
1.110000000000000014e-01 6.831819999999999560e-01 1.042754000000000048e+01 1.130240000000000009e+02 1.825220000000000027e+03
1.120000000000000023e-01 6.830700000000000660e-01 9.964275000000000659e+00 1.123824999999999932e+02 1.825059999999999945e+03
1.130000000000000032e-01 6.829800000000000315e-01 9.563970000000001193e+00 1.118534999999999968e+02 1.824924999999999955e+03
1.140000000000000041e-01 6.829110000000000458e-01 9.228435000000001054e+00 1.114405000000000001e+02 1.824815000000000055e+03
1.150000000000000050e-01 6.828640000000000265e-01 8.957359999999999545e+00 1.111430000000000007e+02 1.824730000000000018e+03
1.160000000000000059e-01 6.828359999999999985e-01 8.748115000000000308e+00 1.109565000000000055e+02 1.824664999999999964e+03
1.170000000000000068e-01 6.828265000000000029e-01 8.596460000000000434e+00 1.108710000000000093e+02 1.824630000000000109e+03
1.180000000000000077e-01 6.828315000000000357e-01 8.496439999999999770e+00 1.108739999999999952e+02 1.824609999999999900e+03
1.190000000000000085e-01 6.828494999999999981e-01 8.441169999999999618e+00 1.109505000000000052e+02 1.824615000000000009e+03
1.200000000000000094e-01 6.828760000000000385e-01 8.423004999999999853e+00 1.110845000000000056e+02 1.824630000000000109e+03
1.209999999999999964e-01 6.829095000000000582e-01 8.434060000000000556e+00 1.112595000000000027e+02 1.824650000000000091e+03
1.219999999999999973e-01 6.829449999999999132e-01 8.466549999999999798e+00 1.114585000000000008e+02 1.824690000000000055e+03
1.229999999999999982e-01 6.829825000000000479e-01 8.513110000000001065e+00 1.116689999999999969e+02 1.824724999999999909e+03
1.239999999999999991e-01 6.830184999999999729e-01 8.567004999999999981e+00 1.118770000000000095e+02 1.824769999999999982e+03
1.250000000000000000e-01 6.830510000000000748e-01 8.622374999999999901e+00 1.120720000000000027e+02 1.824805000000000064e+03
1.260000000000000009e-01 6.830785000000000329e-01 8.674300000000000566e+00 1.122459999999999951e+02 1.824840000000000146e+03
1.270000000000000018e-01 6.831015000000000281e-01 8.718880000000000408e+00 1.123935000000000031e+02 1.824875000000000000e+03
1.280000000000000027e-01 6.831190000000000317e-01 8.753280000000000172e+00 1.125115000000000123e+02 1.824904999999999973e+03
1.290000000000000036e-01 6.831309999999999327e-01 8.775674999999999670e+00 1.125989999999999895e+02 1.824920000000000073e+03
1.300000000000000044e-01 6.831374999999999531e-01 8.785309999999999064e+00 1.126569999999999965e+02 1.824940000000000055e+03
1.310000000000000053e-01 6.831399999999999695e-01 8.782204999999999373e+00 1.126875000000000000e+02 1.824944999999999936e+03
1.320000000000000062e-01 6.831380000000000230e-01 8.767255000000000464e+00 1.126959999999999980e+02 1.824949999999999818e+03
1.330000000000000071e-01 6.831344999999999779e-01 8.742049999999998988e+00 1.126880000000000024e+02 1.824949999999999818e+03
1.340000000000000080e-01 6.831285000000000274e-01 8.708679999999999310e+00 1.126675000000000040e+02 1.824954999999999927e+03
1.350000000000000089e-01 6.831230000000000357e-01 8.669484999999999886e+00 1.126430000000000007e+02 1.824950000000000045e+03
1.360000000000000098e-01 6.831184999999999619e-01 8.627124999999999488e+00 1.126189999999999998e+02 1.824945000000000164e+03
1.370000000000000107e-01 6.831154999999999866e-01 8.584044999999999703e+00 1.126014999999999873e+02 1.824945000000000164e+03
1.380000000000000115e-01 6.831150000000000277e-01 8.542635000000000645e+00 1.125960000000000036e+02 1.824945000000000164e+03
1.390000000000000124e-01 6.831184999999999619e-01 8.504859999999998976e+00 1.126059999999999945e+02 1.824945000000000164e+03
1.400000000000000133e-01 6.831249999999999822e-01 8.472220000000000084e+00 1.126334999999999980e+02 1.824954999999999927e+03
1.410000000000000142e-01 6.831359999999999655e-01 8.445655000000000356e+00 1.126804999999999950e+02 1.824960000000000036e+03
1.420000000000000151e-01 6.831504999999999939e-01 8.425544999999999618e+00 1.127460000000000093e+02 1.824974999999999909e+03
1.430000000000000160e-01 6.831679999999999975e-01 8.411709999999999354e+00 1.128294999999999959e+02 1.824994999999999891e+03
1.440000000000000169e-01 6.831879999999999065e-01 8.403480000000000061e+00 1.129269999999999925e+02 1.825015000000000100e+03
1.450000000000000178e-01 6.832095000000000251e-01 8.399809999999998666e+00 1.130360000000000014e+02 1.825039999999999964e+03
1.459999999999999909e-01 6.832320000000000615e-01 8.399380000000000734e+00 1.131520000000000010e+02 1.825065000000000055e+03
1.469999999999999918e-01 6.832555000000000156e-01 8.400774999999999437e+00 1.132700000000000102e+02 1.825090000000000146e+03
1.479999999999999927e-01 6.832774999999999821e-01 8.402610000000001023e+00 1.133870000000000005e+02 1.825115000000000009e+03
1.489999999999999936e-01 6.832985000000000309e-01 8.403649999999998954e+00 1.134979999999999905e+02 1.825144999999999982e+03
1.499999999999999944e-01 6.833175000000000221e-01 8.402919999999999945e+00 1.136009999999999991e+02 1.825164999999999964e+03
1.509999999999999953e-01 6.833344999999999558e-01 8.399779999999999802e+00 1.136935000000000002e+02 1.825190000000000055e+03
1.519999999999999962e-01 6.833495000000000541e-01 8.393959999999999866e+00 1.137754999999999939e+02 1.825204999999999927e+03
1.529999999999999971e-01 6.833625000000000949e-01 8.385569999999999524e+00 1.138460000000000036e+02 1.825224999999999909e+03
1.539999999999999980e-01 6.833740000000000370e-01 8.375064999999999316e+00 1.139074999999999989e+02 1.825240000000000009e+03
1.549999999999999989e-01 6.833834999999999216e-01 8.363224999999999909e+00 1.139604999999999961e+02 1.825255000000000109e+03
1.559999999999999998e-01 6.833929999999999172e-01 8.351095000000000823e+00 1.140090000000000003e+02 1.825264999999999873e+03
1.570000000000000007e-01 6.834025000000000238e-01 8.339919999999999334e+00 1.140570000000000022e+02 1.825280000000000200e+03
1.580000000000000016e-01 6.834124999999999783e-01 8.331095000000001249e+00 1.141075000000000017e+02 1.825289999999999964e+03
1.590000000000000024e-01 6.834234999999999616e-01 8.326100000000000279e+00 1.141645000000000039e+02 1.825305000000000064e+03
