# t [s], A [cm^2], U [cm/s], P [cPa], c [cm/s]
1.000000000000000021e-03 1.350109999999999921e-01 2.708174999999999888e-01 9.205639999999999645e+01 1.886505000000000109e+03
2.000000000000000042e-03 1.349899999999999989e-01 1.644978499999999899e+00 8.928534999999999400e+01 1.886235000000000127e+03
3.000000000000000062e-03 1.349115000000000175e-01 3.330808000000000213e+00 8.565305000000000746e+01 1.885285000000000082e+03
4.000000000000000083e-03 1.347939999999999972e-01 5.202208999999999861e+00 8.160515000000000896e+01 1.883894999999999982e+03
5.000000000000000104e-03 1.346585000000000143e-01 7.212320000000000064e+00 7.779644999999999300e+01 1.882295000000000073e+03
6.000000000000000125e-03 1.345200000000000007e-01 9.264369999999999550e+00 7.456595000000000084e+01 1.880684999999999945e+03
7.000000000000000146e-03 1.343860000000000054e-01 1.121197000000000088e+01 7.187014999999999532e+01 1.879139999999999873e+03
8.000000000000000167e-03 1.342595000000000038e-01 1.294371499999999919e+01 6.950405000000000655e+01 1.877704999999999927e+03
9.000000000000001055e-03 1.341419999999999835e-01 1.444015000000000093e+01 6.737810000000000343e+01 1.876400000000000091e+03
1.000000000000000194e-02 1.340370000000000172e-01 1.572835000000000072e+01 6.553204999999999814e+01 1.875240000000000009e+03
1.099999999999999936e-02 1.339454999999999951e-01 1.682719999999999771e+01 6.399439999999999884e+01 1.874240000000000009e+03
1.200000000000000025e-02 1.338679999999999870e-01 1.774435000000000073e+01 6.274030000000000484e+01 1.873400000000000091e+03
1.300000000000000114e-02 1.338024999999999909e-01 1.848525000000000063e+01 6.172074999999999534e+01 1.872700000000000045e+03
1.400000000000000203e-02 1.337484999999999924e-01 1.905235000000000056e+01 6.087069999999999936e+01 1.872130000000000109e+03
1.499999999999999944e-02 1.337025000000000019e-01 1.945219999999999771e+01 6.012134999999999962e+01 1.871650000000000091e+03
1.600000000000000033e-02 1.336629999999999763e-01 1.971654999999999802e+01 5.945159999999999911e+01 1.871250000000000000e+03
1.700000000000000122e-02 1.336309999999999998e-01 1.991414999999999935e+01 5.894185000000000230e+01 1.870930000000000064e+03
1.800000000000000211e-02 1.336094999999999922e-01 2.013674999999999926e+01 5.876704999999999757e+01 1.870719999999999800e+03
1.900000000000000300e-02 1.336029999999999995e-01 2.046490000000000009e+01 5.911865000000000236e+01 1.870659999999999854e+03
2.000000000000000042e-02 1.336140000000000105e-01 2.093435000000000201e+01 6.010215000000000174e+01 1.870799999999999955e+03
2.100000000000000130e-02 1.336450000000000138e-01 2.152195000000000036e+01 6.166970000000000596e+01 1.871134999999999991e+03
2.200000000000000219e-02 1.336910000000000043e-01 2.215474999999999994e+01 6.361800000000000210e+01 1.871639999999999873e+03
2.299999999999999961e-02 1.337459999999999760e-01 2.273574999999999946e+01 6.564645000000000152e+01 1.872250000000000000e+03
2.400000000000000050e-02 1.338034999999999919e-01 2.317439999999999856e+01 6.744454999999999245e+01 1.872894999999999982e+03
2.500000000000000139e-02 1.338544999999999874e-01 2.341080000000000183e+01 6.877430000000001087e+01 1.873470000000000027e+03
2.600000000000000228e-02 1.338955000000000006e-01 2.342739999999999867e+01 6.952200000000000557e+01 1.873934999999999945e+03
2.700000000000000316e-02 1.339224999999999999e-01 2.324670000000000059e+01 6.970855000000000246e+01 1.874255000000000109e+03
2.800000000000000058e-02 1.339354999999999851e-01 2.291839999999999833e+01 6.946000000000000796e+01 1.874424999999999955e+03
2.900000000000000147e-02 1.339390000000000025e-01 2.250065000000000026e+01 6.895490000000000919e+01 1.874474999999999909e+03
3.000000000000000236e-02 1.339345000000000119e-01 2.204319999999999879e+01 6.836605000000000132e+01 1.874444999999999936e+03
3.099999999999999978e-02 1.339275000000000049e-01 2.157584999999999908e+01 6.781530000000000769e+01 1.874369999999999891e+03
3.200000000000000067e-02 1.339180000000000093e-01 2.110569999999999879e+01 6.735210000000000719e+01 1.874275000000000091e+03
3.300000000000000155e-02 1.339090000000000003e-01 2.062125000000000341e+01 6.695685000000000286e+01 1.874179999999999836e+03
3.400000000000000244e-02 1.338985000000000036e-01 2.010184999999999889e+01 6.656510000000000105e+01 1.874075000000000045e+03
3.500000000000000333e-02 1.338870000000000060e-01 1.952890000000000015e+01 6.610039999999999338e+01 1.873945000000000164e+03
3.600000000000000422e-02 1.338719999999999910e-01 1.889535000000000053e+01 6.550769999999999982e+01 1.873784999999999854e+03
3.700000000000000511e-02 1.338525000000000131e-01 1.821150000000000091e+01 6.477774999999999750e+01 1.873579999999999927e+03
3.799999999999999906e-02 1.338300000000000045e-01 1.750600000000000023e+01 6.395644999999999669e+01 1.873339999999999918e+03
3.899999999999999994e-02 1.338050000000000073e-01 1.682124999999999915e+01 6.313835000000000264e+01 1.873075000000000045e+03
4.000000000000000083e-02 1.337820000000000120e-01 1.620544999999999902e+01 6.244674999999999443e+01 1.872820000000000164e+03
4.100000000000000172e-02 1.337625000000000064e-01 1.570284999999999975e+01 6.200515000000000043e+01 1.872605000000000018e+03
4.200000000000000261e-02 1.337504999999999944e-01 1.534469999999999956e+01 6.190930000000000177e+01 1.872470000000000027e+03
4.300000000000000350e-02 1.337484999999999924e-01 1.514284999999999926e+01 6.220454999999999757e+01 1.872434999999999945e+03
4.400000000000000439e-02 1.337565000000000004e-01 1.508774999999999977e+01 6.287574999999999648e+01 1.872514999999999873e+03
4.499999999999999833e-02 1.337754999999999916e-01 1.515034999999999954e+01 6.384874999999999545e+01 1.872704999999999927e+03
4.599999999999999922e-02 1.338015000000000176e-01 1.528705000000000069e+01 6.500360000000000582e+01 1.872990000000000009e+03
4.700000000000000011e-02 1.338334999999999941e-01 1.544655000000000022e+01 6.619415000000000759e+01 1.873325000000000045e+03
4.800000000000000100e-02 1.338664999999999994e-01 1.557699999999999996e+01 6.727089999999999748e+01 1.873684999999999945e+03
4.900000000000000189e-02 1.338969999999999883e-01 1.563234999999999886e+01 6.810069999999998913e+01 1.874014999999999873e+03
5.000000000000000278e-02 1.339204999999999979e-01 1.557665000000000077e+01 6.858230000000000359e+01 1.874275000000000091e+03
5.100000000000000366e-02 1.339354999999999851e-01 1.538649999999999984e+01 6.865424999999999045e+01 1.874444999999999936e+03
5.200000000000000455e-02 1.339394999999999891e-01 1.505095000000000027e+01 6.829604999999999393e+01 1.874490000000000009e+03
5.300000000000000544e-02 1.339305000000000079e-01 1.457049999999999912e+01 6.752339999999999520e+01 1.874400000000000091e+03
5.399999999999999939e-02 1.339095000000000146e-01 1.395459999999999923e+01 6.637985000000000468e+01 1.874184999999999945e+03
5.500000000000000028e-02 1.338779999999999970e-01 1.321890000000000143e+01 6.492680000000000007e+01 1.873840000000000146e+03
5.600000000000000117e-02 1.338360000000000105e-01 1.238327999999999918e+01 6.323440000000000083e+01 1.873385000000000218e+03
5.700000000000000205e-02 1.337855000000000016e-01 1.146957499999999897e+01 6.137425000000000352e+01 1.872845000000000027e+03
5.800000000000000294e-02 1.337295000000000011e-01 1.050096500000000077e+01 5.941505000000000081e+01 1.872224999999999909e+03
5.900000000000000383e-02 1.336680000000000090e-01 9.501255000000000450e+00 5.742055000000000575e+01 1.871559999999999945e+03
6.000000000000000472e-02 1.336050000000000015e-01 8.495074999999999932e+00 5.545029999999999859e+01 1.870869999999999891e+03
6.099999999999999867e-02 1.335415000000000074e-01 7.507915000000000560e+00 5.356074999999999875e+01 1.870170000000000073e+03
6.199999999999999956e-02 1.334790000000000143e-01 6.566349999999999909e+00 5.180734999999999957e+01 1.869490000000000009e+03
6.300000000000000044e-02 1.334194999999999964e-01 5.698020000000000529e+00 5.024549999999999983e+01 1.868845000000000027e+03
6.400000000000000133e-02 1.333664999999999989e-01 4.931040000000000312e+00 4.893110000000000070e+01 1.868250000000000000e+03
6.500000000000000222e-02 1.333194999999999797e-01 4.293264999999999887e+00 4.791965000000000430e+01 1.867730000000000018e+03
6.600000000000000311e-02 1.332824999999999982e-01 3.811230000000000118e+00 4.726444999999999652e+01 1.867320000000000164e+03
6.700000000000000400e-02 1.332559999999999856e-01 3.508899999999999686e+00 4.701364999999999839e+01 1.867014999999999873e+03
6.800000000000000488e-02 1.332419999999999993e-01 3.406324999999999825e+00 4.720734999999999815e+01 1.866855000000000018e+03
6.900000000000000577e-02 1.332424999999999859e-01 3.518569999999999975e+00 4.787465000000000259e+01 1.866839999999999918e+03
7.000000000000000666e-02 1.332575000000000010e-01 3.854725000000000179e+00 4.903144999999999953e+01 1.866994999999999891e+03
7.100000000000000755e-02 1.332879999999999898e-01 4.417399999999999771e+00 5.067864999999999753e+01 1.867309999999999945e+03
7.200000000000000844e-02 1.333350000000000091e-01 5.202510000000000190e+00 5.280180000000000007e+01 1.867809999999999945e+03
7.300000000000000933e-02 1.333975000000000022e-01 6.199514999999999887e+00 5.537194999999999823e+01 1.868470000000000027e+03
7.399999999999999634e-02 1.334750000000000103e-01 7.392000000000000348e+00 5.834685000000000343e+01 1.869299999999999955e+03
7.499999999999999722e-02 1.335660000000000180e-01 8.758600000000001273e+00 6.167365000000000208e+01 1.870284999999999854e+03
7.599999999999999811e-02 1.336700000000000110e-01 1.027402499999999996e+01 6.529169999999999163e+01 1.871409999999999854e+03
7.699999999999999900e-02 1.337840000000000140e-01 1.191036000000000072e+01 6.913594999999999402e+01 1.872650000000000091e+03
7.799999999999999989e-02 1.339064999999999839e-01 1.363834500000000105e+01 7.314035000000001219e+01 1.873994999999999891e+03
7.900000000000000078e-02 1.340355000000000019e-01 1.542865000000000109e+01 7.724099999999999966e+01 1.875410000000000082e+03
8.000000000000000167e-02 1.341700000000000115e-01 1.725305000000000177e+01 8.137879999999999825e+01 1.876884999999999991e+03
8.100000000000000255e-02 1.343070000000000097e-01 1.908545000000000158e+01 8.550215000000000032e+01 1.878394999999999982e+03
8.200000000000000344e-02 1.344450000000000089e-01 2.090265000000000128e+01 8.956835000000000946e+01 1.879924999999999955e+03
8.300000000000000433e-02 1.345830000000000082e-01 2.268509999999999849e+01 9.354470000000000596e+01 1.881454999999999927e+03
8.400000000000000522e-02 1.347190000000000054e-01 2.441689999999999827e+01 9.740834999999999866e+01 1.882974999999999909e+03
8.500000000000000611e-02 1.348535000000000150e-01 2.608619999999999806e+01 1.011470999999999947e+02 1.884474999999999909e+03
8.600000000000000699e-02 1.349839999999999929e-01 2.768475000000000108e+01 1.047570499999999925e+02 1.885940000000000055e+03
8.700000000000000788e-02 1.351114999999999955e-01 2.920759999999999934e+01 1.082409999999999997e+02 1.887375000000000000e+03
8.800000000000000877e-02 1.352359999999999951e-01 3.065270000000000294e+01 1.116069999999999993e+02 1.888769999999999982e+03
8.899999999999999578e-02 1.353570000000000051e-01 3.202015000000000100e+01 1.148669999999999902e+02 1.890139999999999873e+03
8.999999999999999667e-02 1.354744999999999977e-01 3.331139999999999901e+01 1.180349999999999966e+02 1.891470000000000027e+03
9.099999999999999756e-02 1.355899999999999883e-01 3.452915000000000134e+01 1.211229999999999905e+02 1.892769999999999982e+03
9.199999999999999845e-02 1.357025000000000037e-01 3.567595000000000027e+01 1.241415000000000077e+02 1.894049999999999955e+03
9.299999999999999933e-02 1.358119999999999883e-01 3.675455000000000183e+01 1.270989999999999895e+02 1.895299999999999955e+03
9.400000000000000022e-02 1.359199999999999853e-01 3.776699999999999591e+01 1.299995000000000118e+02 1.896529999999999973e+03
9.500000000000000111e-02 1.360254999999999936e-01 3.871444999999999936e+01 1.328430000000000177e+02 1.897735000000000127e+03
9.600000000000000200e-02 1.361295000000000144e-01 3.959720000000000084e+01 1.356260000000000048e+02 1.898920000000000073e+03
9.700000000000000289e-02 1.362309999999999910e-01 4.041454999999999842e+01 1.383410000000000082e+02 1.900075000000000045e+03
9.800000000000000377e-02 1.363300000000000067e-01 4.116474999999999795e+01 1.409775000000000205e+02 1.901210000000000036e+03
9.900000000000000466e-02 1.364265000000000061e-01 4.184535000000000338e+01 1.435229999999999961e+02 1.902315000000000055e+03
1.000000000000000056e-01 1.365200000000000025e-01 4.245309999999999917e+01 1.459619999999999891e+02 1.903384999999999991e+03
1.010000000000000064e-01 1.366094999999999948e-01 4.298434999999999917e+01 1.482794999999999845e+02 1.904420000000000073e+03
1.020000000000000073e-01 1.366950000000000109e-01 4.343495000000000061e+01 1.504594999999999914e+02 1.905404999999999973e+03
1.030000000000000082e-01 1.367760000000000087e-01 4.380089999999999861e+01 1.524865000000000066e+02 1.906340000000000146e+03
1.040000000000000091e-01 1.368524999999999880e-01 4.407835000000000036e+01 1.543460000000000036e+02 1.907215000000000146e+03
1.050000000000000100e-01 1.369225000000000025e-01 4.426364999999999839e+01 1.560244999999999891e+02 1.908029999999999973e+03
1.059999999999999970e-01 1.369869999999999977e-01 4.435389999999999588e+01 1.575110000000000241e+02 1.908779999999999973e+03
1.069999999999999979e-01 1.370454999999999868e-01 4.434690000000000509e+01 1.587975000000000136e+02 1.909454999999999927e+03
1.079999999999999988e-01 1.370969999999999966e-01 4.424145000000000039e+01 1.598765000000000214e+02 1.910054999999999836e+03
1.089999999999999997e-01 1.371414999999999995e-01 4.403744999999999976e+01 1.607465000000000259e+02 1.910575000000000045e+03
1.100000000000000006e-01 1.371789999999999954e-01 4.373599999999999710e+01 1.614055000000000177e+02 1.911019999999999982e+03
1.110000000000000014e-01 1.372094999999999843e-01 4.333964999999999890e+01 1.618574999999999875e+02 1.911380000000000109e+03
1.120000000000000023e-01 1.372329999999999939e-01 4.285229999999999961e+01 1.621100000000000136e+02 1.911659999999999854e+03
1.130000000000000032e-01 1.372494999999999965e-01 4.227939999999999543e+01 1.621725000000000136e+02 1.911855000000000018e+03
1.140000000000000041e-01 1.372589999999999921e-01 4.162749999999999773e+01 1.620584999999999809e+02 1.911980000000000018e+03
1.150000000000000050e-01 1.372625000000000095e-01 4.090455000000000041e+01 1.617824999999999989e+02 1.912034999999999854e+03
1.160000000000000059e-01 1.372605000000000075e-01 4.011939999999999884e+01 1.613639999999999759e+02 1.912014999999999873e+03
1.170000000000000068e-01 1.372530000000000139e-01 3.928164999999999907e+01 1.608224999999999909e+02 1.911940000000000055e+03
1.180000000000000077e-01 1.372410000000000019e-01 3.840144999999999698e+01 1.601784999999999854e+02 1.911809999999999945e+03
1.190000000000000085e-01 1.372249999999999859e-01 3.748914999999999509e+01 1.594530000000000030e+02 1.911630000000000109e+03
1.200000000000000094e-01 1.372054999999999803e-01 3.655485000000000184e+01 1.586664999999999850e+02 1.911420000000000073e+03
1.209999999999999964e-01 1.371835000000000138e-01 3.560840000000000316e+01 1.578380000000000223e+02 1.911170000000000073e+03
1.219999999999999973e-01 1.371600000000000041e-01 3.465874999999999773e+01 1.569850000000000136e+02 1.910900000000000091e+03
1.229999999999999982e-01 1.371339999999999781e-01 3.371399999999999864e+01 1.561225000000000023e+02 1.910610000000000127e+03
1.239999999999999991e-01 1.371074999999999933e-01 3.278099999999999881e+01 1.552624999999999886e+02 1.910305000000000064e+03
1.250000000000000000e-01 1.370804999999999940e-01 3.186545000000000272e+01 1.544145000000000039e+02 1.909994999999999891e+03
1.260000000000000009e-01 1.370530000000000082e-01 3.097155000000000058e+01 1.535844999999999914e+02 1.909684999999999945e+03
1.270000000000000018e-01 1.370260000000000089e-01 3.010194999999999865e+01 1.527760000000000105e+02 1.909369999999999891e+03
1.280000000000000027e-01 1.369990000000000097e-01 2.925809999999999889e+01 1.519875000000000114e+02 1.909059999999999945e+03
1.290000000000000036e-01 1.369720000000000104e-01 2.843990000000000151e+01 1.512180000000000177e+02 1.908750000000000000e+03
1.300000000000000044e-01 1.369460000000000122e-01 2.764614999999999867e+01 1.504610000000000127e+02 1.908450000000000045e+03
1.310000000000000053e-01 1.369194999999999995e-01 2.687444999999999951e+01 1.497100000000000080e+02 1.908139999999999873e+03
1.320000000000000062e-01 1.368929999999999869e-01 2.612154999999999916e+01 1.489555000000000007e+02 1.907835000000000036e+03
1.330000000000000071e-01 1.368665000000000020e-01 2.538340000000000174e+01 1.481879999999999882e+02 1.907535000000000082e+03
1.340000000000000080e-01 1.368395000000000028e-01 2.465579999999999927e+01 1.473965000000000032e+02 1.907220000000000027e+03
1.350000000000000089e-01 1.368115000000000026e-01 2.393384999999999962e+01 1.465715000000000146e+02 1.906894999999999982e+03
1.360000000000000098e-01 1.367825000000000013e-01 2.321300000000000097e+01 1.457024999999999864e+02 1.906565000000000055e+03
1.370000000000000107e-01 1.367524999999999991e-01 2.248884999999999934e+01 1.447805000000000177e+02 1.906215000000000146e+03
1.380000000000000115e-01 1.367200000000000082e-01 2.175739999999999696e+01 1.437989999999999782e+02 1.905849999999999909e+03
1.390000000000000124e-01 1.366860000000000019e-01 2.101525000000000176e+01 1.427509999999999764e+02 1.905460000000000036e+03
1.400000000000000133e-01 1.366499999999999937e-01 2.025994999999999990e+01 1.416334999999999980e+02 1.905045000000000073e+03
1.410000000000000142e-01 1.366114999999999968e-01 1.948980000000000246e+01 1.404449999999999932e+02 1.904610000000000127e+03
1.420000000000000151e-01 1.365709999999999980e-01 1.870410000000000039e+01 1.391860000000000070e+02 1.904144999999999982e+03
1.430000000000000160e-01 1.365280000000000105e-01 1.790334999999999965e+01 1.378609999999999900e+02 1.903659999999999854e+03
1.440000000000000169e-01 1.364834999999999798e-01 1.708909999999999840e+01 1.364750000000000227e+02 1.903144999999999982e+03
1.450000000000000178e-01 1.364360000000000017e-01 1.626379999999999981e+01 1.350360000000000014e+02 1.902605000000000018e+03
1.459999999999999909e-01 1.363869999999999805e-01 1.543100000000000094e+01 1.335550000000000068e+02 1.902050000000000182e+03
1.469999999999999918e-01 1.363364999999999994e-01 1.459500000000000064e+01 1.320425000000000182e+02 1.901480000000000018e+03
1.479999999999999927e-01 1.362849999999999895e-01 1.376089999999999947e+01 1.305120000000000005e+02 1.900894999999999982e+03
1.489999999999999936e-01 1.362324999999999786e-01 1.293404999999999916e+01 1.289770000000000039e+02 1.900300000000000182e+03
1.499999999999999944e-01 1.361795000000000089e-01 1.212048499999999862e+01 1.274525000000000006e+02 1.899699999999999818e+03
1.509999999999999953e-01 1.361269999999999980e-01 1.132598000000000127e+01 1.259514999999999958e+02 1.899095000000000027e+03
1.519999999999999962e-01 1.360744999999999871e-01 1.055644000000000027e+01 1.244879999999999995e+02 1.898505000000000109e+03
1.529999999999999971e-01 1.360230000000000050e-01 9.817344999999999544e+00 1.230739999999999981e+02 1.897924999999999955e+03
1.539999999999999980e-01 1.359734999999999971e-01 9.113699999999999690e+00 1.217205000000000013e+02 1.897360000000000127e+03
1.549999999999999989e-01 1.359250000000000180e-01 8.449790000000000134e+00 1.204369999999999976e+02 1.896804999999999836e+03
1.559999999999999998e-01 1.358789999999999998e-01 7.829304999999999737e+00 1.192299999999999898e+02 1.896284999999999854e+03
1.570000000000000007e-01 1.358354999999999979e-01 7.254870000000000374e+00 1.181050000000000040e+02 1.895785000000000082e+03
1.580000000000000016e-01 1.357939999999999980e-01 6.728320000000000078e+00 1.170649999999999977e+02 1.895309999999999945e+03
1.590000000000000024e-01 1.357550000000000145e-01 6.250534999999999286e+00 1.161109999999999900e+02 1.894875000000000000e+03
