# t [s], A [cm^2], U [cm/s], P [cPa], c [cm/s]
1.000000000000000021e-03 1.843500000000000139e-01 3.401896999999999838e-01 9.871995000000001141e+01 2.152204999999999927e+03
2.000000000000000042e-03 1.842995000000000050e-01 1.896874500000000019e+00 9.519270000000000209e+01 2.151764999999999873e+03
3.000000000000000062e-03 1.841655000000000098e-01 3.815441999999999556e+00 9.033305000000000007e+01 2.150644999999999982e+03
4.000000000000000083e-03 1.839839999999999809e-01 5.978125000000000355e+00 8.513919999999998822e+01 2.149149999999999636e+03
5.000000000000000104e-03 1.837924999999999975e-01 8.298769999999999314e+00 8.057484999999999786e+01 2.147574999999999818e+03
6.000000000000000125e-03 1.836085000000000078e-01 1.056675500000000056e+01 7.686394999999998845e+01 2.146090000000000146e+03
7.000000000000000146e-03 1.834365000000000023e-01 1.255621000000000009e+01 7.366219999999999857e+01 2.144730000000000018e+03
8.000000000000000167e-03 1.832799999999999985e-01 1.421383999999999936e+01 7.077090000000001169e+01 2.143510000000000218e+03
9.000000000000001055e-03 1.831430000000000002e-01 1.559169999999999945e+01 6.829630000000000223e+01 2.142465000000000146e+03
1.000000000000000194e-02 1.830289999999999973e-01 1.672064999999999912e+01 6.630044999999999789e+01 2.141600000000000364e+03
1.099999999999999936e-02 1.829365000000000019e-01 1.761530000000000129e+01 6.473685000000000400e+01 2.140899999999999636e+03
1.200000000000000025e-02 1.828624999999999834e-01 1.828559999999999874e+01 6.351635000000000275e+01 2.140354999999999563e+03
1.300000000000000114e-02 1.828029999999999933e-01 1.873165000000000191e+01 6.250039999999999907e+01 2.139920000000000073e+03
1.400000000000000203e-02 1.827529999999999988e-01 1.898414999999999964e+01 6.158800000000000097e+01 2.139569999999999709e+03
1.499999999999999944e-02 1.827135000000000009e-01 1.915375000000000227e+01 6.089589999999999748e+01 2.139289999999999964e+03
1.600000000000000033e-02 1.826929999999999943e-01 1.941194999999999737e+01 6.079274999999999807e+01 2.139154999999999745e+03
1.700000000000000122e-02 1.827015000000000167e-01 1.990269999999999939e+01 6.168540000000000134e+01 2.139224999999999909e+03
1.800000000000000211e-02 1.827455000000000052e-01 2.065680000000000049e+01 6.372185000000000343e+01 2.139565000000000055e+03
1.900000000000000300e-02 1.828214999999999979e-01 2.156885000000000119e+01 6.663325000000000387e+01 2.140140000000000327e+03
2.000000000000000042e-02 1.829159999999999953e-01 2.244500000000000028e+01 6.980639999999999645e+01 2.140864999999999782e+03
2.100000000000000130e-02 1.830104999999999926e-01 2.308559999999999945e+01 7.252209999999999468e+01 2.141605000000000018e+03
2.200000000000000219e-02 1.830855000000000121e-01 2.336015000000000086e+01 7.422384999999999877e+01 2.142204999999999927e+03
2.299999999999999961e-02 1.831315000000000026e-01 2.324600000000000222e+01 7.469615000000000293e+01 2.142585000000000036e+03
2.400000000000000050e-02 1.831444999999999879e-01 2.281944999999999979e+01 7.409205000000000041e+01 2.142715000000000146e+03
2.500000000000000139e-02 1.831320000000000170e-01 2.221124999999999972e+01 7.281919999999999504e+01 2.142640000000000327e+03
2.600000000000000228e-02 1.831039999999999890e-01 2.154984999999999928e+01 7.134964999999999691e+01 2.142440000000000055e+03
2.700000000000000316e-02 1.830709999999999837e-01 2.091644999999999754e+01 7.004044999999999277e+01 2.142184999999999945e+03
2.800000000000000058e-02 1.830394999999999939e-01 2.032699999999999818e+01 6.903190000000000737e+01 2.141949999999999818e+03
2.900000000000000147e-02 1.830120000000000080e-01 1.974309999999999832e+01 6.824725000000000819e+01 2.141735000000000127e+03
3.000000000000000236e-02 1.829850000000000088e-01 1.910229999999999961e+01 6.747425000000001205e+01 2.141519999999999982e+03
3.099999999999999978e-02 1.829525000000000179e-01 1.835354999999999848e+01 6.648720000000000141e+01 2.141279999999999745e+03
3.200000000000000067e-02 1.829120000000000190e-01 1.748689999999999856e+01 6.516074999999999307e+01 2.140970000000000255e+03
3.300000000000000155e-02 1.828620000000000245e-01 1.654619999999999891e+01 6.353934999999999889e+01 2.140595000000000255e+03
3.400000000000000244e-02 1.828064999999999829e-01 1.562240000000000073e+01 6.184004999999999797e+01 2.140170000000000073e+03
3.500000000000000333e-02 1.827535000000000132e-01 1.482949999999999946e+01 6.039189999999999259e+01 2.139765000000000327e+03
3.600000000000000422e-02 1.827124999999999999e-01 1.427199999999999847e+01 5.953390000000000271e+01 2.139439999999999600e+03
3.700000000000000511e-02 1.826925000000000077e-01 1.401510000000000034e+01 5.950884999999999536e+01 2.139274999999999636e+03
3.799999999999999906e-02 1.826990000000000003e-01 1.406660000000000110e+01 6.038819999999999766e+01 2.139305000000000291e+03
3.899999999999999994e-02 1.827314999999999912e-01 1.437485000000000035e+01 6.204795000000000016e+01 2.139534999999999854e+03
4.000000000000000083e-02 1.827845000000000164e-01 1.484134999999999849e+01 6.419790000000000418e+01 2.139925000000000182e+03
4.100000000000000172e-02 1.828500000000000125e-01 1.534260000000000090e+01 6.644919999999999050e+01 2.140414999999999964e+03
4.200000000000000261e-02 1.829144999999999799e-01 1.575404999999999944e+01 6.839654999999999063e+01 2.140914999999999964e+03
4.300000000000000350e-02 1.829689999999999928e-01 1.597074999999999889e+01 6.969440000000000168e+01 2.141335000000000036e+03
4.400000000000000439e-02 1.830019999999999980e-01 1.592084999999999972e+01 7.010929999999999040e+01 2.141599999999999909e+03
4.499999999999999833e-02 1.830080000000000040e-01 1.557019999999999982e+01 6.954179999999999495e+01 2.141659999999999854e+03
4.599999999999999922e-02 1.829844999999999944e-01 1.491955000000000098e+01 6.801914999999999623e+01 2.141489999999999782e+03
4.700000000000000011e-02 1.829315000000000246e-01 1.399699999999999989e+01 6.566595000000000937e+01 2.141095000000000255e+03
4.800000000000000100e-02 1.828529999999999878e-01 1.284751999999999938e+01 6.266479999999999961e+01 2.140505000000000109e+03
4.900000000000000189e-02 1.827535000000000132e-01 1.152396000000000065e+01 5.921775000000000233e+01 2.139744999999999891e+03
5.000000000000000278e-02 1.826384999999999814e-01 1.008035000000000103e+01 5.551765000000000327e+01 2.138869999999999891e+03
5.100000000000000366e-02 1.825145000000000239e-01 8.568474999999999397e+00 5.173189999999999600e+01 2.137920000000000073e+03
5.200000000000000455e-02 1.823859999999999926e-01 7.037259999999999849e+00 4.799944999999999595e+01 2.136930000000000291e+03
5.300000000000000544e-02 1.822574999999999890e-01 5.533994999999999997e+00 4.443670000000000186e+01 2.135939999999999600e+03
5.399999999999999939e-02 1.821335000000000037e-01 4.105720499999999440e+00 4.114709999999999468e+01 2.134984999999999673e+03
5.500000000000000028e-02 1.820174999999999987e-01 2.800498499999999780e+00 3.822995000000000232e+01 2.134090000000000146e+03
5.600000000000000117e-02 1.819145000000000068e-01 1.667119999999999713e+00 3.578575000000000017e+01 2.133289999999999964e+03
5.700000000000000205e-02 1.818270000000000164e-01 7.535099999999999021e-01 3.391599999999999682e+01 2.132609999999999673e+03
5.800000000000000294e-02 1.817600000000000049e-01 1.040450000000000541e-01 3.271755000000000280e+01 2.132074999999999818e+03
5.900000000000000383e-02 1.817159999999999886e-01 -2.437765000000000071e-01 3.227459999999999951e+01 2.131720000000000255e+03
6.000000000000000472e-02 1.816979999999999984e-01 -2.626245000000000385e-01 3.264869999999999806e+01 2.131560000000000400e+03
6.099999999999999867e-02 1.817079999999999806e-01 6.214799999999998104e-02 3.387055000000000149e+01 2.131619999999999891e+03
6.199999999999999956e-02 1.817475000000000063e-01 7.310049999999999049e-01 3.593475000000000108e+01 2.131900000000000091e+03
6.300000000000000044e-02 1.818155000000000188e-01 1.730074499999999960e+00 3.879850000000000421e+01 2.132399999999999636e+03
6.400000000000000133e-02 1.819120000000000181e-01 3.032185000000000130e+00 4.238405000000000200e+01 2.133114999999999782e+03
6.500000000000000222e-02 1.820324999999999860e-01 4.598924999999999486e+00 4.658505000000000251e+01 2.134019999999999982e+03
6.600000000000000311e-02 1.821750000000000036e-01 6.383359999999999701e+00 5.127429999999999666e+01 2.135100000000000364e+03
6.700000000000000400e-02 1.823349999999999971e-01 8.333185000000000286e+00 5.631345000000000312e+01 2.136319999999999709e+03
6.800000000000000488e-02 1.825074999999999892e-01 1.039385000000000048e+01 6.156210000000000093e+01 2.137644999999999982e+03
6.900000000000000577e-02 1.826895000000000047e-01 1.251171000000000078e+01 6.688700000000000045e+01 2.139039999999999964e+03
7.000000000000000666e-02 1.828744999999999954e-01 1.463710000000000022e+01 7.216979999999999507e+01 2.140465000000000146e+03
7.100000000000000755e-02 1.830600000000000005e-01 1.672659999999999769e+01 7.731325000000001069e+01 2.141904999999999745e+03
7.200000000000000844e-02 1.832429999999999892e-01 1.874494999999999933e+01 8.224555000000000859e+01 2.143324999999999818e+03
7.300000000000000933e-02 1.834199999999999997e-01 2.066665000000000063e+01 8.692305000000000348e+01 2.144704999999999927e+03
7.399999999999999634e-02 1.835900000000000032e-01 2.247589999999999932e+01 9.132984999999999332e+01 2.146034999999999854e+03
7.499999999999999722e-02 1.837524999999999853e-01 2.416664999999999708e+01 9.547579999999999245e+01 2.147309999999999945e+03
7.599999999999999811e-02 1.839065000000000005e-01 2.574119999999999919e+01 9.939099999999999113e+01 2.148525000000000091e+03
7.699999999999999900e-02 1.840545000000000098e-01 2.720860000000000056e+01 1.031214499999999958e+02 2.149690000000000055e+03
7.799999999999999989e-02 1.841969999999999996e-01 2.858259999999999934e+01 1.067220000000000084e+02 2.150810000000000400e+03
7.900000000000000078e-02 1.843350000000000266e-01 2.987924999999999898e+01 1.102464999999999975e+02 2.151904999999999745e+03
8.000000000000000167e-02 1.844704999999999817e-01 3.111505000000000010e+01 1.137460000000000093e+02 2.152974999999999909e+03
8.100000000000000255e-02 1.846055000000000057e-01 3.230480000000000018e+01 1.172609999999999957e+02 2.154039999999999964e+03
8.200000000000000344e-02 1.847405000000000019e-01 3.346034999999999826e+01 1.208185000000000002e+02 2.155110000000000127e+03
8.300000000000000433e-02 1.848764999999999992e-01 3.458944999999999936e+01 1.244299999999999926e+02 2.156184999999999945e+03
8.400000000000000522e-02 1.850140000000000118e-01 3.569565000000000055e+01 1.280939999999999941e+02 2.157265000000000327e+03
8.500000000000000611e-02 1.851524999999999976e-01 3.677755000000000507e+01 1.317915000000000134e+02 2.158364999999999782e+03
8.600000000000000699e-02 1.852914999999999979e-01 3.782979999999999876e+01 1.354934999999999832e+02 2.159465000000000146e+03
8.700000000000000788e-02 1.854304999999999981e-01 3.884324999999999761e+01 1.391605000000000132e+02 2.160565000000000055e+03
8.800000000000000877e-02 1.855674999999999963e-01 3.980590000000000117e+01 1.427479999999999905e+02 2.161644999999999982e+03
8.899999999999999578e-02 1.857010000000000050e-01 4.070345000000000368e+01 1.462065000000000055e+02 2.162710000000000036e+03
8.999999999999999667e-02 1.858305000000000096e-01 4.152070000000000505e+01 1.494859999999999900e+02 2.163735000000000127e+03
9.099999999999999756e-02 1.859525000000000206e-01 4.224219999999999686e+01 1.525389999999999873e+02 2.164710000000000036e+03
9.199999999999999845e-02 1.860669999999999824e-01 4.285325000000000273e+01 1.553220000000000027e+02 2.165619999999999891e+03
9.299999999999999933e-02 1.861724999999999908e-01 4.334069999999999823e+01 1.577975000000000136e+02 2.166454999999999927e+03
9.400000000000000022e-02 1.862665000000000015e-01 4.369389999999999930e+01 1.599364999999999952e+02 2.167210000000000036e+03
9.500000000000000111e-02 1.863485000000000003e-01 4.390505000000000280e+01 1.617179999999999893e+02 2.167869999999999891e+03
9.600000000000000200e-02 1.864180000000000004e-01 4.397020000000000550e+01 1.631330000000000098e+02 2.168440000000000055e+03
9.700000000000000289e-02 1.864750000000000019e-01 4.388909999999999911e+01 1.641814999999999998e+02 2.168900000000000091e+03
9.800000000000000377e-02 1.865189999999999904e-01 4.366575000000000273e+01 1.648754999999999882e+02 2.169260000000000218e+03
9.900000000000000466e-02 1.865505000000000080e-01 4.330790000000000362e+01 1.652365000000000066e+02 2.169524999999999636e+03
1.000000000000000056e-01 1.865700000000000136e-01 4.282710000000000150e+01 1.652934999999999945e+02 2.169689999999999600e+03
1.010000000000000064e-01 1.865789999999999949e-01 4.223805000000000121e+01 1.650854999999999961e+02 2.169769999999999982e+03
1.020000000000000073e-01 1.865779999999999939e-01 4.155765000000000242e+01 1.646550000000000011e+02 2.169779999999999745e+03
1.030000000000000082e-01 1.865694999999999992e-01 4.080460000000000065e+01 1.640484999999999900e+02 2.169715000000000146e+03
1.040000000000000091e-01 1.865534999999999832e-01 3.999804999999999922e+01 1.633120000000000118e+02 2.169600000000000364e+03
1.050000000000000100e-01 1.865330000000000044e-01 3.915715000000000146e+01 1.624904999999999973e+02 2.169439999999999600e+03
1.059999999999999970e-01 1.865085000000000215e-01 3.830010000000000048e+01 1.616270000000000095e+02 2.169255000000000109e+03
1.069999999999999979e-01 1.864820000000000089e-01 3.744330000000000069e+01 1.607560000000000002e+02 2.169045000000000073e+03
1.079999999999999988e-01 1.864549999999999819e-01 3.660094999999999743e+01 1.599089999999999918e+02 2.168829999999999927e+03
1.089999999999999997e-01 1.864270000000000094e-01 3.578430000000000177e+01 1.591080000000000041e+02 2.168609999999999673e+03
1.100000000000000006e-01 1.864004999999999967e-01 3.500169999999999959e+01 1.583675000000000068e+02 2.168400000000000091e+03
1.110000000000000014e-01 1.863750000000000129e-01 3.425815000000000055e+01 1.576940000000000168e+02 2.168199999999999818e+03
1.120000000000000023e-01 1.863520000000000176e-01 3.355535000000000423e+01 1.570865000000000009e+02 2.168010000000000218e+03
1.130000000000000032e-01 1.863299999999999956e-01 3.289189999999999969e+01 1.565349999999999966e+02 2.167829999999999927e+03
1.140000000000000041e-01 1.863100000000000034e-01 3.226350000000000051e+01 1.560264999999999986e+02 2.167670000000000073e+03
1.150000000000000050e-01 1.862900000000000111e-01 3.166349999999999909e+01 1.555389999999999873e+02 2.167514999999999873e+03
1.160000000000000059e-01 1.862714999999999788e-01 3.108330000000000126e+01 1.550494999999999948e+02 2.167359999999999673e+03
1.170000000000000068e-01 1.862524999999999875e-01 3.051295000000000002e+01 1.545305000000000177e+02 2.167204999999999927e+03
1.180000000000000077e-01 1.862314999999999943e-01 2.994184999999999874e+01 1.539549999999999841e+02 2.167039999999999964e+03
1.190000000000000085e-01 1.862090000000000134e-01 2.935960000000000036e+01 1.532984999999999900e+02 2.166860000000000127e+03
1.200000000000000094e-01 1.861835000000000018e-01 2.875629999999999953e+01 1.525369999999999777e+02 2.166659999999999854e+03
1.209999999999999964e-01 1.861545000000000005e-01 2.812344999999999828e+01 1.516514999999999986e+02 2.166430000000000291e+03
1.219999999999999973e-01 1.861210000000000087e-01 2.745445000000000135e+01 1.506289999999999907e+02 2.166164999999999964e+03
1.229999999999999982e-01 1.860829999999999984e-01 2.674504999999999910e+01 1.494625000000000057e+02 2.165864999999999782e+03
1.239999999999999991e-01 1.860404999999999975e-01 2.599370000000000047e+01 1.481519999999999868e+02 2.165524999999999636e+03
1.250000000000000000e-01 1.859925000000000050e-01 2.520149999999999935e+01 1.467055000000000007e+02 2.165154999999999745e+03
1.260000000000000009e-01 1.859399999999999942e-01 2.437259999999999849e+01 1.451374999999999886e+02 2.164739999999999782e+03
1.270000000000000018e-01 1.858834999999999793e-01 2.351364999999999839e+01 1.434694999999999823e+02 2.164295000000000073e+03
1.280000000000000027e-01 1.858235000000000026e-01 2.263364999999999938e+01 1.417284999999999968e+02 2.163824999999999818e+03
1.290000000000000036e-01 1.857610000000000094e-01 2.174370000000000047e+01 1.399449999999999932e+02 2.163335000000000036e+03
1.300000000000000044e-01 1.856975000000000153e-01 2.085614999999999952e+01 1.381539999999999964e+02 2.162829999999999927e+03
1.310000000000000053e-01 1.856329999999999925e-01 1.998404999999999987e+01 1.363899999999999864e+02 2.162324999999999818e+03
1.320000000000000062e-01 1.855694999999999983e-01 1.914054999999999751e+01 1.346875000000000000e+02 2.161824999999999818e+03
1.330000000000000071e-01 1.855080000000000062e-01 1.833834999999999837e+01 1.330780000000000030e+02 2.161335000000000036e+03
1.340000000000000080e-01 1.854494999999999894e-01 1.758874999999999744e+01 1.315899999999999750e+02 2.160875000000000000e+03
1.350000000000000089e-01 1.853949999999999765e-01 1.690144999999999698e+01 1.302464999999999975e+02 2.160440000000000055e+03
1.360000000000000098e-01 1.853460000000000107e-01 1.628420000000000201e+01 1.290649999999999977e+02 2.160045000000000073e+03
1.370000000000000107e-01 1.853015000000000079e-01 1.574225000000000030e+01 1.280559999999999832e+02 2.159690000000000055e+03
1.380000000000000115e-01 1.852630000000000110e-01 1.527844999999999942e+01 1.272239999999999895e+02 2.159385000000000218e+03
1.390000000000000124e-01 1.852304999999999924e-01 1.489320000000000022e+01 1.265669999999999931e+02 2.159119999999999891e+03
1.400000000000000133e-01 1.852044999999999941e-01 1.458460000000000001e+01 1.260785000000000053e+02 2.158909999999999854e+03
1.410000000000000142e-01 1.851835000000000009e-01 1.434864999999999924e+01 1.257450000000000045e+02 2.158739999999999782e+03
1.420000000000000151e-01 1.851685000000000136e-01 1.417960000000000065e+01 1.255515000000000043e+02 2.158614999999999782e+03
1.430000000000000160e-01 1.851585000000000036e-01 1.407025000000000148e+01 1.254784999999999968e+02 2.158524999999999636e+03
1.440000000000000169e-01 1.851524999999999976e-01 1.401245000000000118e+01 1.255065000000000026e+02 2.158474999999999909e+03
1.450000000000000178e-01 1.851504999999999956e-01 1.399745000000000061e+01 1.256135000000000019e+02 2.158449999999999818e+03
1.459999999999999909e-01 1.851514999999999966e-01 1.401609999999999978e+01 1.257785000000000082e+02 2.158454999999999927e+03
1.469999999999999918e-01 1.851539999999999853e-01 1.405959999999999965e+01 1.259819999999999993e+02 2.158475000000000364e+03
1.479999999999999927e-01 1.851589999999999903e-01 1.411940000000000062e+01 1.262044999999999959e+02 2.158510000000000218e+03
1.489999999999999936e-01 1.851649999999999963e-01 1.418769999999999953e+01 1.264320000000000022e+02 2.158550000000000182e+03
1.499999999999999944e-01 1.851710000000000023e-01 1.425760000000000005e+01 1.266484999999999985e+02 2.158595000000000255e+03
1.509999999999999953e-01 1.851769999999999805e-01 1.432329999999999970e+01 1.268439999999999941e+02 2.158644999999999982e+03
1.519999999999999962e-01 1.851824999999999999e-01 1.438020000000000032e+01 1.270120000000000005e+02 2.158689999999999600e+03
1.529999999999999971e-01 1.851880000000000193e-01 1.442490000000000094e+01 1.271460000000000008e+02 2.158730000000000018e+03
1.539999999999999980e-01 1.851920000000000233e-01 1.445530000000000115e+01 1.272444999999999879e+02 2.158764999999999873e+03
1.549999999999999989e-01 1.851949999999999985e-01 1.447060000000000102e+01 1.273085000000000093e+02 2.158789999999999964e+03
1.559999999999999998e-01 1.851975000000000149e-01 1.447095000000000020e+01 1.273410000000000082e+02 2.158805000000000291e+03
1.570000000000000007e-01 1.851990000000000025e-01 1.445754999999999946e+01 1.273474999999999966e+02 2.158819999999999709e+03
1.580000000000000016e-01 1.851990000000000025e-01 1.443250000000000099e+01 1.273340000000000032e+02 2.158820000000000164e+03
1.590000000000000024e-01 1.851995000000000169e-01 1.439819999999999922e+01 1.273079999999999927e+02 2.158824999999999818e+03
