# t [s], A [cm^2], U [cm/s], P [cPa], c [cm/s]
1.000000000000000021e-03 7.556590000000000806e-01 5.194549999999999168e-03 9.554429999999999268e+01 1.665105000000000018e+03
2.000000000000000042e-03 7.556460000000000399e-01 -3.778764999999999902e-03 9.551760000000000161e+01 1.665099999999999909e+03
3.000000000000000062e-03 7.556944999999999357e-01 6.720015000000001404e-02 9.559575000000000955e+01 1.665119999999999891e+03
4.000000000000000083e-03 7.557534999999999670e-01 1.629571499999999951e-01 9.572079999999999700e+01 1.665150000000000091e+03
5.000000000000000104e-03 7.557435000000000125e-01 1.667250000000000121e-01 9.571325000000000216e+01 1.665150000000000091e+03
6.000000000000000125e-03 7.556799999999999073e-01 8.933300000000002350e-02 9.554784999999999684e+01 1.665114999999999782e+03
7.000000000000000146e-03 7.556260000000000199e-01 1.970699999999997454e-02 9.533305000000000007e+01 1.665065000000000055e+03
8.000000000000000167e-03 7.555590000000000916e-01 -7.655799999999995942e-02 9.504759999999998854e+01 1.665000000000000000e+03
9.000000000000001055e-03 7.554410000000000291e-01 -2.657549999999999635e-01 9.460249999999999204e+01 1.664910000000000082e+03
1.000000000000000194e-02 7.552604999999998903e-01 -5.652049999999999574e-01 9.394745000000000346e+01 1.664759999999999991e+03
1.099999999999999936e-02 7.550019999999999509e-01 -9.941050000000000164e-01 9.302535000000000309e+01 1.664559999999999945e+03
1.200000000000000025e-02 7.546500000000000430e-01 -1.566655000000000131e+00 9.177870000000000061e+01 1.664279999999999973e+03
1.300000000000000114e-02 7.542235000000000467e-01 -2.237540000000000084e+00 9.022585000000000832e+01 1.663925000000000182e+03
1.400000000000000203e-02 7.537795000000000467e-01 -2.895570000000000199e+00 8.848980000000000246e+01 1.663519999999999982e+03
1.499999999999999944e-02 7.533799999999999386e-01 -3.416201000000000043e+00 8.674439999999999884e+01 1.663095000000000027e+03
1.600000000000000033e-02 7.530575000000000463e-01 -3.717774999999999608e+00 8.513339999999999463e+01 1.662684999999999945e+03
1.700000000000000122e-02 7.528099999999999792e-01 -3.783531499999999603e+00 8.372159999999999513e+01 1.662305000000000064e+03
1.800000000000000211e-02 7.526074999999999848e-01 -3.650489499999999943e+00 8.249164999999999281e+01 1.661954999999999927e+03
1.900000000000000300e-02 7.524109999999999410e-01 -3.382473000000000063e+00 8.137084999999999013e+01 1.661625000000000000e+03
2.000000000000000042e-02 7.521869999999999390e-01 -3.042301499999999770e+00 8.026935000000000286e+01 1.661299999999999955e+03
2.100000000000000130e-02 7.519200000000000328e-01 -2.671756100000000078e+00 7.911504999999999654e+01 1.660954999999999927e+03
2.200000000000000219e-02 7.516104999999999592e-01 -2.283341499999999691e+00 7.787484999999999502e+01 1.660599999999999909e+03
2.299999999999999961e-02 7.512739999999999974e-01 -1.864454999999999973e+00 7.655889999999999418e+01 1.660230000000000018e+03
2.400000000000000050e-02 7.509320000000000439e-01 -1.391095000000000192e+00 7.520695000000000618e+01 1.659840000000000146e+03
2.500000000000000139e-02 7.506005000000000038e-01 -8.448400000000000354e-01 7.386539999999999395e+01 1.659454999999999927e+03
2.600000000000000228e-02 7.502845000000000208e-01 -2.263499999999998291e-01 7.256409999999999627e+01 1.659079999999999927e+03
2.700000000000000316e-02 7.499770000000000048e-01 4.388049999999998896e-01 7.130129999999999768e+01 1.658704999999999927e+03
2.800000000000000058e-02 7.496585000000000054e-01 1.102649999999999908e+00 7.003990000000000293e+01 1.658335000000000036e+03
2.900000000000000147e-02 7.493035000000000112e-01 1.704009999999999803e+00 6.871520000000001005e+01 1.657950000000000045e+03
3.000000000000000236e-02 7.488885000000000680e-01 2.181389999999999940e+00 6.725090000000000146e+01 1.657545000000000073e+03
3.099999999999999978e-02 7.483975000000000488e-01 2.486404999999999976e+00 6.557930000000000348e+01 1.657090000000000146e+03
3.200000000000000067e-02 7.478255000000000319e-01 2.594364999999999810e+00 6.366035000000000110e+01 1.656579999999999927e+03
3.300000000000000155e-02 7.471844999999999182e-01 2.509114999999999540e+00 6.149450000000000216e+01 1.656025000000000091e+03
3.400000000000000244e-02 7.464965000000000073e-01 2.260955000000000492e+00 5.912555000000000405e+01 1.655414999999999964e+03
3.500000000000000333e-02 7.457920000000000105e-01 1.898494999999999600e+00 5.663360000000000127e+01 1.654779999999999973e+03
3.600000000000000422e-02 7.451035000000000297e-01 1.477990000000000137e+00 5.412050000000000693e+01 1.654134999999999991e+03
3.700000000000000511e-02 7.444595000000000518e-01 1.052939999999999543e+00 5.169360000000000355e+01 1.653500000000000000e+03
3.799999999999999906e-02 7.438829999999999609e-01 6.669350000000000556e-01 4.945069999999999766e+01 1.652900000000000091e+03
3.899999999999999994e-02 7.433879999999999377e-01 3.505199999999999427e-01 4.747090000000000032e+01 1.652365000000000009e+03
4.000000000000000083e-02 7.429824999999999902e-01 1.215999999999999304e-01 4.580995000000000061e+01 1.651900000000000091e+03
4.100000000000000172e-02 7.426690000000000236e-01 -1.162000000000018574e-02 4.450105000000000643e+01 1.651515000000000100e+03
4.200000000000000261e-02 7.424474999999999270e-01 -4.649499999999995303e-02 4.355884999999999962e+01 1.651220000000000027e+03
4.300000000000000350e-02 7.423144999999999882e-01 1.807500000000006324e-02 4.298564999999999969e+01 1.651019999999999982e+03
4.400000000000000439e-02 7.422705000000000553e-01 1.846219999999999806e-01 4.277700000000000102e+01 1.650914999999999964e+03
4.499999999999999833e-02 7.423135000000000705e-01 4.584714750000000172e-01 4.292664999999999509e+01 1.650900000000000091e+03
4.599999999999999922e-02 7.424444999999999517e-01 8.473079999999999501e-01 4.342839999999999634e+01 1.650980000000000018e+03
4.700000000000000011e-02 7.426645000000000607e-01 1.359405000000000197e+00 4.427644999999999698e+01 1.651150000000000091e+03
4.800000000000000100e-02 7.429710000000000480e-01 2.001140000000000363e+00 4.546335000000000548e+01 1.651409999999999854e+03
4.900000000000000189e-02 7.433620000000000783e-01 2.774610000000000021e+00 4.697744999999999749e+01 1.651755000000000109e+03
5.000000000000000278e-02 7.438320000000000487e-01 3.675904999999999756e+00 4.880010000000000048e+01 1.652184999999999945e+03
5.100000000000000366e-02 7.443720000000000336e-01 4.694440000000000168e+00 5.090429999999999922e+01 1.652684999999999945e+03
5.200000000000000455e-02 7.449715000000000087e-01 5.813466500000000536e+00 5.325434999999999519e+01 1.653264999999999873e+03
5.300000000000000544e-02 7.456180000000000030e-01 7.011276500000000134e+00 5.580695000000000050e+01 1.653889999999999873e+03
5.399999999999999939e-02 7.462969999999999882e-01 8.263234999999999886e+00 5.851370000000000005e+01 1.654565000000000055e+03
5.500000000000000028e-02 7.469954999999999234e-01 9.543824999999998226e+00 6.132414999999999594e+01 1.655279999999999973e+03
5.600000000000000117e-02 7.477015000000000189e-01 1.082888999999999946e+01 6.418904999999999461e+01 1.656019999999999982e+03
5.700000000000000205e-02 7.484049999999999869e-01 1.209691999999999901e+01 6.706380000000000052e+01 1.656764999999999873e+03
5.800000000000000294e-02 7.490970000000000129e-01 1.333038999999999952e+01 6.991044999999999732e+01 1.657514999999999873e+03
5.900000000000000383e-02 7.497724999999999529e-01 1.451625500000000102e+01 7.269965000000000543e+01 1.658255000000000109e+03
6.000000000000000472e-02 7.504279999999999839e-01 1.564559500000000014e+01 7.541104999999998881e+01 1.658985000000000127e+03
6.099999999999999867e-02 7.510620000000000074e-01 1.671365000000000123e+01 7.803309999999999036e+01 1.659694999999999936e+03
6.199999999999999956e-02 7.516760000000000108e-01 1.771865000000000023e+01 8.056200000000001182e+01 1.660384999999999991e+03
6.300000000000000044e-02 7.522710000000000230e-01 1.866134999999999877e+01 8.300049999999998818e+01 1.661059999999999945e+03
6.400000000000000133e-02 7.528494999999999493e-01 1.954395000000000238e+01 8.535569999999999879e+01 1.661710000000000036e+03
6.500000000000000222e-02 7.534134999999999582e-01 2.036970000000000169e+01 8.763765000000000782e+01 1.662344999999999800e+03
6.600000000000000311e-02 7.539670000000000538e-01 2.114170000000000016e+01 8.985724999999999341e+01 1.662965000000000146e+03
6.700000000000000400e-02 7.545104999999999729e-01 2.186270000000000024e+01 9.202475000000001160e+01 1.663570000000000164e+03
6.800000000000000488e-02 7.550464999999999538e-01 2.253475000000000250e+01 9.414844999999999686e+01 1.664164999999999964e+03
6.900000000000000577e-02 7.555749999999999966e-01 2.315854999999999819e+01 9.623335000000000150e+01 1.664744999999999891e+03
7.000000000000000666e-02 7.560955000000000314e-01 2.373380000000000223e+01 9.828125000000000000e+01 1.665319999999999936e+03
7.100000000000000755e-02 7.566064999999999596e-01 2.425880000000000081e+01 1.002899500000000046e+02 1.665880000000000109e+03
7.200000000000000844e-02 7.571065000000000156e-01 2.473114999999999952e+01 1.022535000000000025e+02 1.666430000000000064e+03
7.300000000000000933e-02 7.575920000000000432e-01 2.514759999999999707e+01 1.041624999999999943e+02 1.666969999999999800e+03
7.399999999999999634e-02 7.580605000000000260e-01 2.550464999999999804e+01 1.060060000000000002e+02 1.667490000000000009e+03
7.499999999999999722e-02 7.585079999999999600e-01 2.579899999999999949e+01 1.077729999999999961e+02 1.667990000000000009e+03
7.599999999999999811e-02 7.589319999999999400e-01 2.602774999999999750e+01 1.094489999999999981e+02 1.668469999999999800e+03
7.699999999999999900e-02 7.593300000000000605e-01 2.618844999999999956e+01 1.110225000000000080e+02 1.668925000000000182e+03
7.799999999999999989e-02 7.596985000000000543e-01 2.627974999999999994e+01 1.124830000000000041e+02 1.669345000000000027e+03
7.900000000000000078e-02 7.600370000000000736e-01 2.630095000000000027e+01 1.138204999999999956e+02 1.669739999999999782e+03
8.000000000000000167e-02 7.603424999999999212e-01 2.625200000000000244e+01 1.150289999999999964e+02 1.670105000000000018e+03
8.100000000000000255e-02 7.606144999999999712e-01 2.613400000000000034e+01 1.161020000000000039e+02 1.670425000000000182e+03
8.200000000000000344e-02 7.608524999999999316e-01 2.594839999999999947e+01 1.170360000000000014e+02 1.670715000000000146e+03
8.300000000000000433e-02 7.610559999999999548e-01 2.569754999999999967e+01 1.178305000000000007e+02 1.670960000000000036e+03
8.400000000000000522e-02 7.612250000000000405e-01 2.538445000000000107e+01 1.184865000000000066e+02 1.671175000000000182e+03
8.500000000000000611e-02 7.613615000000000244e-01 2.501279999999999859e+01 1.190060000000000002e+02 1.671349999999999909e+03
8.600000000000000699e-02 7.614650000000000585e-01 2.458720000000000283e+01 1.193940000000000055e+02 1.671490000000000009e+03
8.700000000000000788e-02 7.615389999999999660e-01 2.411290000000000333e+01 1.196570000000000107e+02 1.671594999999999800e+03
8.800000000000000877e-02 7.615844999999999976e-01 2.359619999999999962e+01 1.198040000000000020e+02 1.671664999999999964e+03
8.899999999999999578e-02 7.616045000000000176e-01 2.304394999999999882e+01 1.198455000000000013e+02 1.671704999999999927e+03
8.999999999999999667e-02 7.616024999999999601e-01 2.246385000000000076e+01 1.197939999999999969e+02 1.671720000000000027e+03
9.099999999999999756e-02 7.615815000000000223e-01 2.186370000000000147e+01 1.196614999999999895e+02 1.671710000000000036e+03
9.199999999999999845e-02 7.615450000000000275e-01 2.125175000000000125e+01 1.194629999999999939e+02 1.671679999999999836e+03
9.299999999999999933e-02 7.614969999999999795e-01 2.063579999999999970e+01 1.192129999999999939e+02 1.671630000000000109e+03
9.400000000000000022e-02 7.614404999999999646e-01 2.002324999999999733e+01 1.189259999999999877e+02 1.671565000000000055e+03
9.500000000000000111e-02 7.613784999999999581e-01 1.942060000000000031e+01 1.186135000000000019e+02 1.671494999999999891e+03
9.600000000000000200e-02 7.613134999999999764e-01 1.883330000000000126e+01 1.182879999999999967e+02 1.671414999999999964e+03
9.700000000000000289e-02 7.612470000000000070e-01 1.826535000000000153e+01 1.179594999999999914e+02 1.671335000000000036e+03
9.800000000000000377e-02 7.611809999999999965e-01 1.771950000000000003e+01 1.176345000000000027e+02 1.671250000000000000e+03
9.900000000000000466e-02 7.611170000000000435e-01 1.719689999999999941e+01 1.173179999999999978e+02 1.671164999999999964e+03
1.000000000000000056e-01 7.610535000000000494e-01 1.669729999999999848e+01 1.170114999999999981e+02 1.671079999999999927e+03
1.010000000000000064e-01 7.609909999999999730e-01 1.621930000000000049e+01 1.167160000000000082e+02 1.670994999999999891e+03
1.020000000000000073e-01 7.609285000000000077e-01 1.576035000000000075e+01 1.164279999999999973e+02 1.670914999999999964e+03
1.030000000000000082e-01 7.608645000000000547e-01 1.531714999999999982e+01 1.161449999999999960e+02 1.670839999999999918e+03
1.040000000000000091e-01 7.607984999999999332e-01 1.488585000000000136e+01 1.158599999999999994e+02 1.670755000000000109e+03
1.050000000000000100e-01 7.607285000000000297e-01 1.446209999999999951e+01 1.155690000000000026e+02 1.670674999999999955e+03
1.059999999999999970e-01 7.606524999999999537e-01 1.404150000000000098e+01 1.152650000000000006e+02 1.670585000000000036e+03
1.069999999999999979e-01 7.605699999999999683e-01 1.361999999999999922e+01 1.149424999999999955e+02 1.670500000000000000e+03
1.079999999999999988e-01 7.604800000000000448e-01 1.319359999999999999e+01 1.145960000000000036e+02 1.670404999999999973e+03
1.089999999999999997e-01 7.603809999999999736e-01 1.275903500000000079e+01 1.142205000000000013e+02 1.670300000000000182e+03
1.100000000000000006e-01 7.602729999999999766e-01 1.231363999999999947e+01 1.138135000000000048e+02 1.670194999999999936e+03
1.110000000000000014e-01 7.601554999999999840e-01 1.185565000000000069e+01 1.133739999999999952e+02 1.670075000000000045e+03
1.120000000000000023e-01 7.600294999999999135e-01 1.138415499999999980e+01 1.129014999999999986e+02 1.669950000000000045e+03
1.130000000000000032e-01 7.598955000000000570e-01 1.089927499999999938e+01 1.123979999999999961e+02 1.669815000000000055e+03
1.140000000000000041e-01 7.597549999999999581e-01 1.040217999999999954e+01 1.118675000000000068e+02 1.669674999999999955e+03
1.150000000000000050e-01 7.596095000000000486e-01 9.895039999999999836e+00 1.113160000000000025e+02 1.669530000000000200e+03
1.160000000000000059e-01 7.594615000000000116e-01 9.380910000000000082e+00 1.107510000000000048e+02 1.669380000000000109e+03
1.170000000000000068e-01 7.593130000000000157e-01 8.863715000000000899e+00 1.101800000000000068e+02 1.669230000000000018e+03
1.180000000000000077e-01 7.591674999999999951e-01 8.347894999999999399e+00 1.096145000000000067e+02 1.669079999999999927e+03
1.190000000000000085e-01 7.590265000000000484e-01 7.838515000000000121e+00 1.090635000000000048e+02 1.668929999999999836e+03
1.200000000000000094e-01 7.588939999999999575e-01 7.340844999999999843e+00 1.085379999999999967e+02 1.668789999999999964e+03
1.209999999999999964e-01 7.587720000000000020e-01 6.860149999999999970e+00 1.080494999999999948e+02 1.668650000000000091e+03
1.219999999999999973e-01 7.586629999999999763e-01 6.401584999999998971e+00 1.076080000000000041e+02 1.668525000000000091e+03
1.229999999999999982e-01 7.585695000000000077e-01 5.969814999999999650e+00 1.072220000000000084e+02 1.668414999999999964e+03
1.239999999999999991e-01 7.584929999999999728e-01 5.568909999999999805e+00 1.068990000000000009e+02 1.668324999999999818e+03
1.250000000000000000e-01 7.584349999999999703e-01 5.202144999999999797e+00 1.066465000000000032e+02 1.668244999999999891e+03
1.260000000000000009e-01 7.583959999999999591e-01 4.871875000000000178e+00 1.064664999999999964e+02 1.668184999999999945e+03
1.270000000000000018e-01 7.583759999999999390e-01 4.579444999999999766e+00 1.063625000000000114e+02 1.668144999999999982e+03
1.280000000000000027e-01 7.583755000000000912e-01 4.325160000000000338e+00 1.063335000000000008e+02 1.668125000000000000e+03
1.290000000000000036e-01 7.583929999999999838e-01 4.108335000000000292e+00 1.063780000000000001e+02 1.668119999999999891e+03
1.300000000000000044e-01 7.584269999999999623e-01 3.927330000000000432e+00 1.064900000000000091e+02 1.668139999999999873e+03
1.310000000000000053e-01 7.584759999999999280e-01 3.779700000000000060e+00 1.066645000000000039e+02 1.668175000000000182e+03
1.320000000000000062e-01 7.585379999999999345e-01 3.662320000000000242e+00 1.068940000000000055e+02 1.668220000000000027e+03
1.330000000000000071e-01 7.586105000000000764e-01 3.571575000000000166e+00 1.071694999999999993e+02 1.668285000000000082e+03
1.340000000000000080e-01 7.586910000000000043e-01 3.503515000000000157e+00 1.074819999999999993e+02 1.668355000000000018e+03
1.350000000000000089e-01 7.587774999999999936e-01 3.454060000000000130e+00 1.078220000000000027e+02 1.668440000000000055e+03
1.360000000000000098e-01 7.588679999999999870e-01 3.419105000000000061e+00 1.081800000000000068e+02 1.668525000000000091e+03
1.370000000000000107e-01 7.589599999999999680e-01 3.394689999999999763e+00 1.085480000000000018e+02 1.668615000000000009e+03
1.380000000000000115e-01 7.590520000000000600e-01 3.377119999999999678e+00 1.089164999999999992e+02 1.668710000000000036e+03
1.390000000000000124e-01 7.591419999999999835e-01 3.363014999999999866e+00 1.092795000000000130e+02 1.668804999999999836e+03
1.400000000000000133e-01 7.592274999999999441e-01 3.349394999999999900e+00 1.096305000000000121e+02 1.668894999999999982e+03
1.410000000000000142e-01 7.593095000000000816e-01 3.333709999999999951e+00 1.099634999999999962e+02 1.668990000000000009e+03
1.420000000000000151e-01 7.593859999999998944e-01 3.313855000000000217e+00 1.102750000000000057e+02 1.669069999999999936e+03
1.430000000000000160e-01 7.594560000000000199e-01 3.288190000000000168e+00 1.105620000000000118e+02 1.669155000000000200e+03
1.440000000000000169e-01 7.595199999999999729e-01 3.255514999999999937e+00 1.108230000000000075e+02 1.669224999999999909e+03
1.450000000000000178e-01 7.595775000000000166e-01 3.215054999999999996e+00 1.110564999999999998e+02 1.669289999999999964e+03
1.459999999999999909e-01 7.596285000000000398e-01 3.166455000000000020e+00 1.112624999999999886e+02 1.669349999999999909e+03
1.469999999999999918e-01 7.596730000000000427e-01 3.109700000000000131e+00 1.114414999999999907e+02 1.669404999999999973e+03
1.479999999999999927e-01 7.597114999999999840e-01 3.045099999999999696e+00 1.115949999999999989e+02 1.669449999999999818e+03
1.489999999999999936e-01 7.597445000000000448e-01 2.973244999999999916e+00 1.117235000000000014e+02 1.669490000000000009e+03
1.499999999999999944e-01 7.597724999999999618e-01 2.894919999999999938e+00 1.118299999999999983e+02 1.669525000000000091e+03
1.509999999999999953e-01 7.597955000000000680e-01 2.811080000000000023e+00 1.119159999999999968e+02 1.669554999999999836e+03
1.519999999999999962e-01 7.598139999999999894e-01 2.722730000000000317e+00 1.119839999999999947e+02 1.669579999999999927e+03
1.529999999999999971e-01 7.598300000000000054e-01 2.630939999999999834e+00 1.120349999999999966e+02 1.669594999999999800e+03
1.539999999999999980e-01 7.598420000000000174e-01 2.536725000000000119e+00 1.120724999999999909e+02 1.669609999999999900e+03
1.549999999999999989e-01 7.598515000000000130e-01 2.441024999999999778e+00 1.120970000000000084e+02 1.669619999999999891e+03
1.559999999999999998e-01 7.598580000000000334e-01 2.344664999999999999e+00 1.121099999999999994e+02 1.669630000000000109e+03
1.570000000000000007e-01 7.598620000000000374e-01 2.248314999999999841e+00 1.121124999999999972e+02 1.669630000000000109e+03
1.580000000000000016e-01 7.598639999999999839e-01 2.152484999999999982e+00 1.121050000000000040e+02 1.669634999999999991e+03
1.590000000000000024e-01 7.598629999999999551e-01 2.057525000000000048e+00 1.120875000000000057e+02 1.669630000000000109e+03
