# t [s], A [cm^2], U [cm/s], P [cPa], c [cm/s]
1.000000000000000021e-03 1.212634999999999963e-01 4.472234499999999668e-01 9.640835000000001287e+01 2.034005000000000109e+03
2.000000000000000042e-03 1.212290000000000034e-01 2.108765000000000001e+00 9.273169999999998936e+01 2.033505000000000109e+03
3.000000000000000062e-03 1.211374999999999952e-01 4.094405000000000072e+00 8.791460000000000719e+01 2.032210000000000036e+03
4.000000000000000083e-03 1.210139999999999966e-01 6.298538500000000262e+00 8.297044999999999959e+01 2.030489999999999782e+03
5.000000000000000104e-03 1.208819999999999895e-01 8.632984999999999687e+00 7.876380000000000337e+01 2.028670000000000073e+03
6.000000000000000125e-03 1.207554999999999878e-01 1.089254999999999995e+01 7.541155000000000541e+01 2.026940000000000055e+03
7.000000000000000146e-03 1.206359999999999932e-01 1.287579500000000010e+01 7.254394999999999527e+01 2.025349999999999909e+03
8.000000000000000167e-03 1.205265000000000086e-01 1.454350499999999968e+01 6.996240000000000236e+01 2.023904999999999973e+03
9.000000000000001055e-03 1.204299999999999954e-01 1.594764999999999944e+01 6.775364999999999327e+01 2.022655000000000200e+03
1.000000000000000194e-02 1.203484999999999971e-01 1.711544999999999916e+01 6.596059999999999945e+01 2.021605000000000018e+03
1.099999999999999936e-02 1.202804999999999847e-01 1.805784999999999840e+01 6.452714999999999179e+01 2.020744999999999891e+03
1.200000000000000025e-02 1.202255000000000129e-01 1.878719999999999857e+01 6.337964999999999804e+01 2.020055000000000064e+03
1.300000000000000114e-02 1.201799999999999952e-01 1.930814999999999770e+01 6.241714999999999947e+01 2.019490000000000009e+03
1.400000000000000203e-02 1.201419999999999988e-01 1.964269999999999783e+01 6.155194999999999794e+01 2.019029999999999973e+03
1.499999999999999944e-02 1.201100000000000084e-01 1.987650000000000006e+01 6.085399999999999920e+01 2.018654999999999973e+03
1.600000000000000033e-02 1.200894999999999879e-01 2.015695000000000192e+01 6.061599999999999966e+01 2.018414999999999964e+03
1.700000000000000122e-02 1.200864999999999988e-01 2.062555000000000049e+01 6.121059999999999945e+01 2.018385000000000218e+03
1.800000000000000211e-02 1.201049999999999895e-01 2.133720000000000283e+01 6.283559999999999945e+01 2.018634999999999991e+03
1.900000000000000300e-02 1.201464999999999894e-01 2.222355000000000302e+01 6.533790000000000475e+01 2.019170000000000073e+03
2.000000000000000042e-02 1.202044999999999919e-01 2.311970000000000169e+01 6.822755000000000791e+01 2.019920000000000073e+03
2.100000000000000130e-02 1.202670000000000128e-01 2.383184999999999931e+01 7.085535000000000139e+01 2.020730000000000018e+03
2.200000000000000219e-02 1.203219999999999984e-01 2.421009999999999707e+01 7.265080000000000382e+01 2.021460000000000036e+03
2.299999999999999961e-02 1.203589999999999938e-01 2.419565000000000055e+01 7.331045000000000300e+01 2.021970000000000027e+03
2.400000000000000050e-02 1.203750000000000098e-01 2.382860000000000156e+01 7.286869999999998981e+01 2.022215000000000146e+03
2.500000000000000139e-02 1.203710000000000058e-01 2.322010000000000218e+01 7.163915000000000077e+01 2.022190000000000055e+03
2.600000000000000228e-02 1.203529999999999878e-01 2.250319999999999965e+01 7.006600000000000250e+01 2.021969999999999800e+03
2.700000000000000316e-02 1.203275000000000039e-01 2.178644999999999854e+01 6.855530000000000257e+01 2.021664999999999964e+03
2.800000000000000058e-02 1.203025000000000067e-01 2.112464999999999904e+01 6.735110000000000241e+01 2.021340000000000146e+03
2.900000000000000147e-02 1.202799999999999980e-01 2.051529999999999987e+01 6.649245000000000516e+01 2.021049999999999955e+03
3.000000000000000236e-02 1.202614999999999934e-01 1.991595000000000226e+01 6.585054999999999836e+01 2.020804999999999836e+03
3.099999999999999978e-02 1.202440000000000037e-01 1.927224999999999966e+01 6.521675000000000466e+01 2.020579999999999927e+03
3.200000000000000067e-02 1.202239999999999975e-01 1.854695000000000249e+01 6.440479999999999450e+01 2.020329999999999927e+03
3.300000000000000155e-02 1.202000000000000013e-01 1.774009999999999820e+01 6.333289999999999509e+01 2.020025000000000091e+03
3.400000000000000244e-02 1.201714999999999867e-01 1.689519999999999911e+01 6.206204999999999927e+01 2.019660000000000082e+03
3.500000000000000333e-02 1.201405000000000112e-01 1.609049999999999869e+01 6.078430000000000177e+01 2.019265000000000100e+03
3.600000000000000422e-02 1.201119999999999965e-01 1.541874999999999929e+01 5.976559999999999917e+01 2.018889999999999873e+03
3.700000000000000511e-02 1.200900000000000023e-01 1.496089999999999876e+01 5.926514999999999844e+01 2.018605000000000018e+03
3.799999999999999906e-02 1.200810000000000072e-01 1.476445000000000007e+01 5.945620000000000260e+01 2.018474999999999909e+03
3.899999999999999994e-02 1.200865000000000127e-01 1.482965000000000089e+01 6.037324999999999875e+01 2.018529999999999973e+03
4.000000000000000083e-02 1.201079999999999925e-01 1.510824999999999996e+01 6.189699999999999847e+01 2.018784999999999854e+03
4.100000000000000172e-02 1.201404999999999973e-01 1.551365000000000016e+01 6.377920000000000300e+01 2.019200000000000045e+03
4.200000000000000261e-02 1.201804999999999957e-01 1.593759999999999977e+01 6.569435000000000002e+01 2.019704999999999927e+03
4.300000000000000350e-02 1.202204999999999940e-01 1.626975000000000193e+01 6.730375000000000796e+01 2.020214999999999918e+03
4.400000000000000439e-02 1.202539999999999998e-01 1.641454999999999842e+01 6.831494999999999607e+01 2.020644999999999982e+03
4.499999999999999833e-02 1.202745000000000064e-01 1.630335000000000178e+01 6.852430000000001087e+01 2.020914999999999964e+03
4.599999999999999922e-02 1.202774999999999955e-01 1.589989999999999881e+01 6.783740000000000236e+01 2.020970000000000027e+03
4.700000000000000011e-02 1.202615000000000073e-01 1.519984999999999964e+01 6.626720000000000255e+01 2.020769999999999982e+03
4.800000000000000100e-02 1.202249999999999985e-01 1.422524999999999906e+01 6.391394999999999982e+01 2.020315000000000055e+03
4.900000000000000189e-02 1.201710000000000000e-01 1.301753499999999875e+01 6.093649999999999523e+01 2.019630000000000109e+03
5.000000000000000278e-02 1.201014999999999999e-01 1.162917500000000004e+01 5.752129999999999654e+01 2.018744999999999891e+03
5.100000000000000366e-02 1.200209999999999888e-01 1.011772000000000027e+01 5.385725000000000051e+01 2.017710000000000036e+03
5.200000000000000455e-02 1.199334999999999984e-01 8.541080000000000894e+00 5.011860000000000070e+01 2.016579999999999927e+03
5.300000000000000544e-02 1.198410000000000031e-01 6.955740000000000478e+00 4.645819999999999794e+01 2.015394999999999982e+03
5.399999999999999939e-02 1.197499999999999953e-01 5.415799999999999947e+00 4.300735000000000241e+01 2.014219999999999800e+03
5.500000000000000028e-02 1.196615000000000040e-01 3.973611000000000004e+00 3.988054999999999950e+01 2.013079999999999927e+03
5.600000000000000117e-02 1.195805000000000062e-01 2.679786500000000071e+00 3.718095000000000283e+01 2.012025000000000091e+03
5.700000000000000205e-02 1.195085000000000036e-01 1.583044999999999813e+00 3.500409999999999400e+01 2.011090000000000146e+03
5.800000000000000294e-02 1.194485000000000130e-01 7.290399999999999103e-01 3.343914999999999793e+01 2.010309999999999945e+03
5.900000000000000383e-02 1.194030000000000091e-01 1.585349999999999815e-01 3.256605000000000416e+01 2.009714999999999918e+03
6.000000000000000472e-02 1.193750000000000089e-01 -9.504850000000003574e-02 3.245029999999999859e+01 2.009329999999999927e+03
6.099999999999999867e-02 1.193654999999999994e-01 -8.074300000000001268e-03 3.313684999999999548e+01 2.009184999999999945e+03
6.199999999999999956e-02 1.193760000000000099e-01 4.312750000000000750e-01 3.464405000000000001e+01 2.009295000000000073e+03
6.300000000000000044e-02 1.194070000000000131e-01 1.221724500000000102e+00 3.695940000000000225e+01 2.009670000000000073e+03
6.400000000000000133e-02 1.194584999999999952e-01 2.348718499999999931e+00 4.003869999999999862e+01 2.010309999999999945e+03
6.500000000000000222e-02 1.195294999999999969e-01 3.785252999999999979e+00 4.380764999999999532e+01 2.011200000000000045e+03
6.600000000000000311e-02 1.196180000000000021e-01 5.493660000000000210e+00 4.816694999999999993e+01 2.012325000000000045e+03
6.700000000000000400e-02 1.197230000000000100e-01 7.428060000000000329e+00 5.299920000000000186e+01 2.013650000000000091e+03
6.800000000000000488e-02 1.198410000000000031e-01 9.537220000000001363e+00 5.817640000000000100e+01 2.015155000000000200e+03
6.900000000000000577e-02 1.199689999999999923e-01 1.176740500000000011e+01 6.356875000000000142e+01 2.016799999999999955e+03
7.000000000000000666e-02 1.201035000000000019e-01 1.406527999999999956e+01 6.905180000000000007e+01 2.018539999999999964e+03
7.100000000000000755e-02 1.202425000000000022e-01 1.638040000000000163e+01 7.451290000000000191e+01 2.020340000000000146e+03
7.200000000000000844e-02 1.203825000000000034e-01 1.866740000000000066e+01 7.985660000000000025e+01 2.022159999999999854e+03
7.300000000000000933e-02 1.205219999999999902e-01 2.088795000000000002e+01 8.500835000000000719e+01 2.023974999999999909e+03
7.399999999999999634e-02 1.206580000000000014e-01 2.301194999999999879e+01 8.991669999999999163e+01 2.025755000000000109e+03
7.499999999999999722e-02 1.207894999999999941e-01 2.501845000000000141e+01 9.455429999999999779e+01 2.027485000000000127e+03
7.599999999999999811e-02 1.209154999999999952e-01 2.689574999999999960e+01 9.891704999999998904e+01 2.029144999999999982e+03
7.699999999999999900e-02 1.210354999999999903e-01 2.864130000000000109e+01 1.030232000000000028e+02 2.030735000000000127e+03
7.799999999999999989e-02 1.211504999999999943e-01 3.026055000000000206e+01 1.069069499999999948e+02 2.032255000000000109e+03
7.900000000000000078e-02 1.212600000000000067e-01 3.176525000000000176e+01 1.106175000000000068e+02 2.033714999999999918e+03
8.000000000000000167e-02 1.213654999999999873e-01 3.317234999999999445e+01 1.142100000000000080e+02 2.035119999999999891e+03
8.100000000000000255e-02 1.214680000000000065e-01 3.450100000000000477e+01 1.177429999999999950e+02 2.036494999999999891e+03
8.200000000000000344e-02 1.215689999999999965e-01 3.577134999999999820e+01 1.212704999999999984e+02 2.037845000000000027e+03
8.300000000000000433e-02 1.216700000000000004e-01 3.700180000000000291e+01 1.248384999999999962e+02 2.039190000000000055e+03
8.400000000000000522e-02 1.217715000000000047e-01 3.820799999999999841e+01 1.284809999999999945e+02 2.040539999999999964e+03
8.500000000000000611e-02 1.218739999999999962e-01 3.940109999999999957e+01 1.322155000000000200e+02 2.041909999999999854e+03
8.600000000000000699e-02 1.219784999999999897e-01 4.058715000000000117e+01 1.360455000000000041e+02 2.043304999999999836e+03
8.700000000000000788e-02 1.220845000000000125e-01 4.176654999999999518e+01 1.399579999999999984e+02 2.044730000000000018e+03
8.800000000000000877e-02 1.221925000000000094e-01 4.293439999999999657e+01 1.439245000000000232e+02 2.046170000000000073e+03
8.899999999999999578e-02 1.223009999999999931e-01 4.408070000000000022e+01 1.479050000000000011e+02 2.047630000000000109e+03
8.999999999999999667e-02 1.224099999999999910e-01 4.519150000000000489e+01 1.518494999999999777e+02 2.049090000000000146e+03
9.099999999999999756e-02 1.225179999999999880e-01 4.624960000000000093e+01 1.557030000000000030e+02 2.050539999999999964e+03
9.199999999999999845e-02 1.226234999999999964e-01 4.723619999999999663e+01 1.594074999999999989e+02 2.051954999999999927e+03
9.299999999999999933e-02 1.227250000000000008e-01 4.813159999999999883e+01 1.629054999999999893e+02 2.053329999999999927e+03
9.400000000000000022e-02 1.228215000000000001e-01 4.891670000000000584e+01 1.661454999999999984e+02 2.054634999999999764e+03
9.500000000000000111e-02 1.229125000000000079e-01 4.957420000000000471e+01 1.690794999999999959e+02 2.055859999999999673e+03
9.600000000000000200e-02 1.229949999999999932e-01 5.008910000000000196e+01 1.716709999999999923e+02 2.056980000000000018e+03
9.700000000000000289e-02 1.230694999999999983e-01 5.045010000000000616e+01 1.738919999999999959e+02 2.057994999999999891e+03
9.800000000000000377e-02 1.231339999999999935e-01 5.064955000000000496e+01 1.757259999999999991e+02 2.058885000000000218e+03
9.900000000000000466e-02 1.231895000000000073e-01 5.068430000000000035e+01 1.771675000000000182e+02 2.059644999999999982e+03
1.000000000000000056e-01 1.232350000000000112e-01 5.055570000000000164e+01 1.782235000000000014e+02 2.060275000000000091e+03
1.010000000000000064e-01 1.232710000000000056e-01 5.026950000000000074e+01 1.789100000000000250e+02 2.060769999999999982e+03
1.020000000000000073e-01 1.232965000000000033e-01 4.983565000000000111e+01 1.792535000000000025e+02 2.061135000000000218e+03
1.030000000000000082e-01 1.233134999999999926e-01 4.926779999999999404e+01 1.792884999999999991e+02 2.061380000000000109e+03
1.040000000000000091e-01 1.233225000000000016e-01 4.858275000000000432e+01 1.790564999999999998e+02 2.061515000000000327e+03
1.050000000000000100e-01 1.233245000000000036e-01 4.779950000000000188e+01 1.786024999999999920e+02 2.061545000000000073e+03
1.059999999999999970e-01 1.233194999999999986e-01 4.693860000000000099e+01 1.779745000000000061e+02 2.061494999999999891e+03
1.069999999999999979e-01 1.233095000000000024e-01 4.602120000000000033e+01 1.772199999999999989e+02 2.061375000000000000e+03
1.079999999999999988e-01 1.232959999999999889e-01 4.506815000000000282e+01 1.763845000000000027e+02 2.061190000000000055e+03
1.089999999999999997e-01 1.232789999999999997e-01 4.409915000000000163e+01 1.755110000000000241e+02 2.060974999999999909e+03
1.100000000000000006e-01 1.232604999999999951e-01 4.313209999999999411e+01 1.746359999999999957e+02 2.060730000000000018e+03
1.110000000000000014e-01 1.232415000000000038e-01 4.218245000000000289e+01 1.737900000000000205e+02 2.060470000000000255e+03
1.120000000000000023e-01 1.232219999999999982e-01 4.126269999999999527e+01 1.729954999999999927e+02 2.060215000000000146e+03
1.130000000000000032e-01 1.232030000000000070e-01 4.038209999999999411e+01 1.722680000000000007e+02 2.059960000000000036e+03
1.140000000000000041e-01 1.231855000000000033e-01 3.954650000000000176e+01 1.716150000000000091e+02 2.059715000000000146e+03
1.150000000000000050e-01 1.231685000000000002e-01 3.875825000000000387e+01 1.710355000000000132e+02 2.059489999999999782e+03
1.160000000000000059e-01 1.231529999999999986e-01 3.801659999999999684e+01 1.705224999999999795e+02 2.059279999999999745e+03
1.170000000000000068e-01 1.231395000000000128e-01 3.731754999999999711e+01 1.700614999999999952e+02 2.059085000000000036e+03
1.180000000000000077e-01 1.231264999999999998e-01 3.665484999999999616e+01 1.696334999999999980e+02 2.058909999999999854e+03
1.190000000000000085e-01 1.231140000000000012e-01 3.601995000000000147e+01 1.692149999999999750e+02 2.058734999999999673e+03
1.200000000000000094e-01 1.231020000000000031e-01 3.540299999999999869e+01 1.687820000000000107e+02 2.058569999999999709e+03
1.209999999999999964e-01 1.230890000000000040e-01 3.479309999999999548e+01 1.683069999999999879e+02 2.058394999999999982e+03
1.219999999999999973e-01 1.230755000000000043e-01 3.417945000000000277e+01 1.677649999999999864e+02 2.058204999999999927e+03
1.229999999999999982e-01 1.230604999999999893e-01 3.355140000000000100e+01 1.671324999999999932e+02 2.057994999999999891e+03
1.239999999999999991e-01 1.230424999999999991e-01 3.289955000000000496e+01 1.663894999999999982e+02 2.057760000000000218e+03
1.250000000000000000e-01 1.230224999999999930e-01 3.221599999999999397e+01 1.655210000000000150e+02 2.057489999999999782e+03
1.260000000000000009e-01 1.229994999999999977e-01 3.149484999999999957e+01 1.645165000000000077e+02 2.057175000000000182e+03
1.270000000000000018e-01 1.229729999999999990e-01 3.073260000000000147e+01 1.633725000000000023e+02 2.056815000000000055e+03
1.280000000000000027e-01 1.229429999999999967e-01 2.992834999999999823e+01 1.620910000000000082e+02 2.056414999999999964e+03
1.290000000000000036e-01 1.229095000000000049e-01 2.908384999999999820e+01 1.606825000000000045e+02 2.055970000000000255e+03
1.300000000000000044e-01 1.228734999999999966e-01 2.820354999999999990e+01 1.591605000000000132e+02 2.055480000000000018e+03
1.310000000000000053e-01 1.228339999999999987e-01 2.729424999999999812e+01 1.575464999999999804e+02 2.054960000000000036e+03
1.320000000000000062e-01 1.227920000000000122e-01 2.636499999999999844e+01 1.558665000000000020e+02 2.054400000000000091e+03
1.330000000000000071e-01 1.227485000000000104e-01 2.542640000000000100e+01 1.541490000000000009e+02 2.053819999999999709e+03
1.340000000000000080e-01 1.227039999999999936e-01 2.449034999999999940e+01 1.524245000000000232e+02 2.053215000000000146e+03
1.350000000000000089e-01 1.226589999999999903e-01 2.356944999999999979e+01 1.507249999999999943e+02 2.052610000000000127e+03
1.360000000000000098e-01 1.226145000000000013e-01 2.267620000000000147e+01 1.490815000000000055e+02 2.052014999999999873e+03
1.370000000000000107e-01 1.225704999999999989e-01 2.182269999999999754e+01 1.475224999999999795e+02 2.051429999999999836e+03
1.380000000000000115e-01 1.225289999999999990e-01 2.101995000000000147e+01 1.460740000000000123e+02 2.050864999999999782e+03
1.390000000000000124e-01 1.224895000000000012e-01 2.027749999999999986e+01 1.447565000000000168e+02 2.050335000000000036e+03
1.400000000000000133e-01 1.224535000000000068e-01 1.960289999999999822e+01 1.435869999999999891e+02 2.049844999999999800e+03
1.410000000000000142e-01 1.224205000000000015e-01 1.900159999999999982e+01 1.425749999999999886e+02 2.049400000000000091e+03
1.420000000000000151e-01 1.223915000000000003e-01 1.847690000000000055e+01 1.417259999999999991e+02 2.049010000000000218e+03
1.430000000000000160e-01 1.223665000000000169e-01 1.802965000000000018e+01 1.410394999999999754e+02 2.048670000000000073e+03
1.440000000000000169e-01 1.223454999999999959e-01 1.765854999999999819e+01 1.405095000000000027e+02 2.048375000000000000e+03
1.450000000000000178e-01 1.223280000000000062e-01 1.736025000000000063e+01 1.401265000000000214e+02 2.048144999999999982e+03
1.459999999999999909e-01 1.223150000000000071e-01 1.712964999999999804e+01 1.398754999999999882e+02 2.047954999999999927e+03
1.469999999999999918e-01 1.223055000000000114e-01 1.696020000000000039e+01 1.397409999999999854e+02 2.047815000000000055e+03
1.479999999999999927e-01 1.222979999999999901e-01 1.684425000000000239e+01 1.397044999999999959e+02 2.047719999999999800e+03
1.489999999999999936e-01 1.222939999999999999e-01 1.677349999999999852e+01 1.397454999999999927e+02 2.047660000000000082e+03
1.499999999999999944e-01 1.222920000000000118e-01 1.673920000000000030e+01 1.398455000000000155e+02 2.047630000000000109e+03
1.509999999999999953e-01 1.222920000000000118e-01 1.673270000000000124e+01 1.399850000000000136e+02 2.047620000000000118e+03
1.519999999999999962e-01 1.222929999999999851e-01 1.674559999999999960e+01 1.401469999999999914e+02 2.047634999999999764e+03
1.529999999999999971e-01 1.222955000000000014e-01 1.677005000000000123e+01 1.403164999999999907e+02 2.047659999999999854e+03
1.539999999999999980e-01 1.222985000000000044e-01 1.679895000000000138e+01 1.404789999999999850e+02 2.047694999999999936e+03
1.549999999999999989e-01 1.223009999999999931e-01 1.682634999999999792e+01 1.406239999999999952e+02 2.047730000000000018e+03
1.559999999999999998e-01 1.223035000000000094e-01 1.684710000000000107e+01 1.407434999999999832e+02 2.047759999999999764e+03
1.570000000000000007e-01 1.223059999999999981e-01 1.685745000000000005e+01 1.408319999999999936e+02 2.047789999999999964e+03
1.580000000000000016e-01 1.223075000000000134e-01 1.685459999999999781e+01 1.408865000000000123e+02 2.047809999999999945e+03
1.590000000000000024e-01 1.223084999999999867e-01 1.683699999999999974e+01 1.409054999999999893e+02 2.047830000000000155e+03
