# t [s], A [cm^2], U [cm/s], P [cPa], c [cm/s]
1.000000000000000021e-03 4.565215000000000245e-01 3.695099999999999774e-03 1.017659999999999911e+02 1.615569999999999936e+03
2.000000000000000042e-03 4.565170000000000616e-01 5.728679999999999883e-03 1.017445000000000022e+02 1.615559999999999945e+03
3.000000000000000062e-03 4.565649999999999986e-01 1.236788000000000054e-01 1.018719999999999999e+02 1.615594999999999800e+03
4.000000000000000083e-03 4.565930000000000266e-01 2.041212500000000041e-01 1.019739999999999895e+02 1.615625000000000000e+03
5.000000000000000104e-03 4.565640000000000254e-01 1.481439999999999979e-01 1.018689999999999998e+02 1.615605000000000018e+03
6.000000000000000125e-03 4.565154999999999630e-01 3.717899999999996208e-02 1.016090000000000089e+02 1.615545000000000073e+03
7.000000000000000146e-03 4.564650000000000096e-01 -8.984900000000001219e-02 1.012530000000000001e+02 1.615454999999999927e+03
8.000000000000000167e-03 4.563760000000000039e-01 -3.227600000000000469e-01 1.006957999999999913e+02 1.615320000000000164e+03
9.000000000000001055e-03 4.562355000000000160e-01 -6.959150000000000613e-01 9.985484999999999900e+01 1.615114999999999782e+03
1.000000000000000194e-02 4.560395000000000421e-01 -1.210939999999999905e+00 9.868125000000000568e+01 1.614820000000000164e+03
1.099999999999999936e-02 4.557714999999999961e-01 -1.888419999999999987e+00 9.710515000000000896e+01 1.614420000000000073e+03
1.200000000000000025e-02 4.554325000000000179e-01 -2.705684999999999896e+00 9.510490000000000066e+01 1.613900000000000091e+03
1.300000000000000114e-02 4.550585000000000324e-01 -3.543370000000000353e+00 9.279775000000000773e+01 1.613279999999999973e+03
1.400000000000000203e-02 4.547049999999999703e-01 -4.225130000000000052e+00 9.042359999999999332e+01 1.612619999999999891e+03
1.499999999999999944e-02 4.544155000000000277e-01 -4.605275500000000299e+00 8.823210000000000264e+01 1.611980000000000018e+03
1.600000000000000033e-02 4.542024999999999535e-01 -4.627715000000000245e+00 8.638165000000000759e+01 1.611400000000000091e+03
1.700000000000000122e-02 4.540490000000000359e-01 -4.331220000000000070e+00 8.489564999999998918e+01 1.610894999999999982e+03
1.800000000000000211e-02 4.539199999999999902e-01 -3.817229999999999901e+00 8.367955000000000609e+01 1.610449999999999818e+03
1.900000000000000300e-02 4.537784999999999735e-01 -3.203590999999999855e+00 8.257550000000000523e+01 1.610029999999999973e+03
2.000000000000000042e-02 4.536000000000000032e-01 -2.582409000000000177e+00 8.142789999999999395e+01 1.609615000000000009e+03
2.100000000000000130e-02 4.533774999999999888e-01 -1.994959999999999845e+00 8.013724999999999454e+01 1.609164999999999964e+03
2.200000000000000219e-02 4.531209999999999960e-01 -1.431355000000000155e+00 7.868299999999999272e+01 1.608684999999999945e+03
2.299999999999999961e-02 4.528495000000000159e-01 -8.522550000000002068e-01 7.710974999999999113e+01 1.608170000000000073e+03
2.400000000000000050e-02 4.525795000000000234e-01 -2.199100000000000499e-01 7.548914999999999509e+01 1.607644999999999982e+03
2.500000000000000139e-02 4.523190000000000266e-01 4.759199999999998987e-01 7.387704999999999700e+01 1.607110000000000127e+03
2.600000000000000228e-02 4.520625000000000338e-01 1.206155000000000310e+00 7.228360000000000696e+01 1.606579999999999927e+03
2.700000000000000316e-02 4.517944999999999878e-01 1.905690000000000106e+00 7.066325000000000500e+01 1.606039999999999964e+03
2.800000000000000058e-02 4.514924999999999633e-01 2.488304999999999989e+00 6.892504999999999882e+01 1.605470000000000027e+03
2.900000000000000147e-02 4.511355000000000226e-01 2.867719999999999381e+00 6.695730000000000359e+01 1.604849999999999909e+03
3.000000000000000236e-02 4.507089999999999708e-01 2.979299999999999837e+00 6.466079999999999472e+01 1.604150000000000091e+03
3.099999999999999978e-02 4.502085000000000115e-01 2.796704999999999774e+00 6.198004999999999853e+01 1.603349999999999909e+03
3.200000000000000067e-02 4.496454999999999758e-01 2.339224999999999888e+00 5.892480000000000473e+01 1.602460000000000036e+03
3.300000000000000155e-02 4.490419999999999967e-01 1.667644999999999378e+00 5.557569999999999766e+01 1.601490000000000009e+03
3.400000000000000244e-02 4.484280000000000488e-01 8.713750000000004547e-01 5.207290000000000418e+01 1.600470000000000027e+03
3.500000000000000333e-02 4.478369999999999851e-01 5.100000000000015632e-02 4.859345000000000425e+01 1.599450000000000045e+03
3.600000000000000422e-02 4.472990000000000022e-01 -6.983850000000000335e-01 4.532385000000000019e+01 1.598460000000000036e+03
3.700000000000000511e-02 4.468385000000000273e-01 -1.298594999999999722e+00 4.243540000000000134e+01 1.597565000000000055e+03
3.799999999999999906e-02 4.464719999999999800e-01 -1.694439999999999724e+00 4.006584999999999752e+01 1.596789999999999964e+03
3.899999999999999994e-02 4.462099999999999955e-01 -1.853965000000000085e+00 3.831045000000000300e+01 1.596179999999999836e+03
4.000000000000000083e-02 4.460545000000000204e-01 -1.764640000000000208e+00 3.722025000000000006e+01 1.595750000000000000e+03
4.100000000000000172e-02 4.460044999999999704e-01 -1.427407499999999940e+00 3.680780000000000030e+01 1.595505000000000109e+03
4.200000000000000261e-02 4.460554999999999937e-01 -8.505349500000000118e-01 3.705624999999999858e+01 1.595460000000000036e+03
4.300000000000000350e-02 4.462009999999999588e-01 -4.479999999999995097e-02 3.792999999999999972e+01 1.595589999999999918e+03
4.400000000000000439e-02 4.464350000000000263e-01 9.790549999999997866e-01 3.938330000000000553e+01 1.595904999999999973e+03
4.499999999999999833e-02 4.467510000000000092e-01 2.210424999999999862e+00 4.136605000000000132e+01 1.596385000000000218e+03
4.599999999999999922e-02 4.471410000000000107e-01 3.637165000000000425e+00 4.382609999999999673e+01 1.597014999999999873e+03
4.700000000000000011e-02 4.475979999999999959e-01 5.243135000000000545e+00 4.670865000000000578e+01 1.597779999999999973e+03
4.800000000000000100e-02 4.481125000000000247e-01 7.006164999999999310e+00 4.995470000000000255e+01 1.598664999999999964e+03
4.900000000000000189e-02 4.486729999999999885e-01 8.897202050000000639e+00 5.349965000000000259e+01 1.599654999999999973e+03
5.000000000000000278e-02 4.492685000000000151e-01 1.088095500000000015e+01 5.727319999999999567e+01 1.600720000000000027e+03
5.100000000000000366e-02 4.498855000000000492e-01 1.291778500000000030e+01 6.120085000000000264e+01 1.601849999999999909e+03
5.200000000000000455e-02 4.505124999999999824e-01 1.496633499999999906e+01 6.520735000000000525e+01 1.603025000000000091e+03
5.300000000000000544e-02 4.511370000000000102e-01 1.698706999999999923e+01 6.922050000000000125e+01 1.604210000000000036e+03
5.399999999999999939e-02 4.517499999999999849e-01 1.894464999999999932e+01 7.317575000000000784e+01 1.605409999999999854e+03
5.500000000000000028e-02 4.523435000000000095e-01 2.081040000000000134e+01 7.702009999999999934e+01 1.606585000000000036e+03
5.600000000000000117e-02 4.529130000000000100e-01 2.256360000000000099e+01 8.071495000000000175e+01 1.607730000000000018e+03
5.700000000000000205e-02 4.534565000000000401e-01 2.419169999999999732e+01 8.423725000000000307e+01 1.608840000000000146e+03
5.800000000000000294e-02 4.539735000000000298e-01 2.568995000000000317e+01 8.757955000000001178e+01 1.609909999999999854e+03
5.900000000000000383e-02 4.544659999999999811e-01 2.706044999999999945e+01 9.074854999999999450e+01 1.610934999999999945e+03
6.000000000000000472e-02 4.549385000000000234e-01 2.831074999999999875e+01 9.376229999999999620e+01 1.611914999999999964e+03
6.099999999999999867e-02 4.553954999999999531e-01 2.945244999999999891e+01 9.664869999999999095e+01 1.612860000000000127e+03
6.199999999999999956e-02 4.558415000000000106e-01 3.049964999999999904e+01 9.944065000000000509e+01 1.613775000000000091e+03
6.300000000000000044e-02 4.562825000000000353e-01 3.146790000000000020e+01 1.021727500000000077e+02 1.614675000000000182e+03
6.400000000000000133e-02 4.567240000000000189e-01 3.237279999999999802e+01 1.048800999999999988e+02 1.615559999999999945e+03
6.500000000000000222e-02 4.571695000000000064e-01 3.322890000000000299e+01 1.075949999999999989e+02 1.616450000000000045e+03
6.600000000000000311e-02 4.576234999999999609e-01 3.404874999999999829e+01 1.103425000000000011e+02 1.617335000000000036e+03
6.700000000000000400e-02 4.580875000000000363e-01 3.484205000000000041e+01 1.131415000000000077e+02 1.618244999999999891e+03
6.800000000000000488e-02 4.585624999999999840e-01 3.561469999999999914e+01 1.160014999999999930e+02 1.619160000000000082e+03
6.900000000000000577e-02 4.590475000000000527e-01 3.636880000000000024e+01 1.189219999999999970e+02 1.620094999999999800e+03
7.000000000000000666e-02 4.595405000000000184e-01 3.710190000000000055e+01 1.218909999999999911e+02 1.621039999999999964e+03
7.100000000000000755e-02 4.600369999999999737e-01 3.780780000000000030e+01 1.248900000000000006e+02 1.622000000000000000e+03
7.200000000000000844e-02 4.605319999999999969e-01 3.847684999999999889e+01 1.278884999999999934e+02 1.622960000000000036e+03
7.300000000000000933e-02 4.610199999999999854e-01 3.909664999999999679e+01 1.308524999999999920e+02 1.623910000000000082e+03
7.399999999999999634e-02 4.614939999999999598e-01 3.965330000000000155e+01 1.337439999999999998e+02 1.624845000000000027e+03
7.499999999999999722e-02 4.619484999999999841e-01 4.013215000000000288e+01 1.365199999999999818e+02 1.625750000000000000e+03
7.599999999999999811e-02 4.623760000000000092e-01 4.051945000000000618e+01 1.391424999999999841e+02 1.626609999999999900e+03
7.699999999999999900e-02 4.627719999999999612e-01 4.080259999999999820e+01 1.415745000000000005e+02 1.627425000000000182e+03
7.799999999999999989e-02 4.631315000000000293e-01 4.097145000000000437e+01 1.437849999999999966e+02 1.628174999999999955e+03
7.900000000000000078e-02 4.634510000000000574e-01 4.101869999999999550e+01 1.457495000000000118e+02 1.628849999999999909e+03
8.000000000000000167e-02 4.637289999999999468e-01 4.094034999999999513e+01 1.474519999999999982e+02 1.629454999999999927e+03
8.100000000000000255e-02 4.639639999999999875e-01 4.073584999999999923e+01 1.488834999999999980e+02 1.629980000000000018e+03
8.200000000000000344e-02 4.641564999999999719e-01 4.040824999999999534e+01 1.500455000000000041e+02 1.630420000000000073e+03
8.300000000000000433e-02 4.643085000000000129e-01 3.996389999999999532e+01 1.509455000000000098e+02 1.630775000000000091e+03
8.400000000000000522e-02 4.644214999999999871e-01 3.941209999999999525e+01 1.515989999999999895e+02 1.631059999999999945e+03
8.500000000000000611e-02 4.645004999999999828e-01 3.876500000000000057e+01 1.520279999999999916e+02 1.631264999999999873e+03
8.600000000000000699e-02 4.645494999999999486e-01 3.803664999999999452e+01 1.522584999999999980e+02 1.631409999999999854e+03
8.700000000000000788e-02 4.645730000000000137e-01 3.724289999999999878e+01 1.523215000000000146e+02 1.631494999999999891e+03
8.800000000000000877e-02 4.645754999999999746e-01 3.640040000000000475e+01 1.522490000000000236e+02 1.631529999999999973e+03
8.899999999999999578e-02 4.645635000000000181e-01 3.552595000000000169e+01 1.520749999999999886e+02 1.631529999999999973e+03
8.999999999999999667e-02 4.645405000000000229e-01 3.463609999999999900e+01 1.518305000000000007e+02 1.631500000000000000e+03
9.099999999999999756e-02 4.645120000000000360e-01 3.374620000000000175e+01 1.515464999999999804e+02 1.631440000000000055e+03
9.199999999999999845e-02 4.644814999999999916e-01 3.287004999999999910e+01 1.512504999999999882e+02 1.631380000000000109e+03
9.299999999999999933e-02 4.644530000000000047e-01 3.201919999999999789e+01 1.509650000000000034e+02 1.631309999999999945e+03
9.400000000000000022e-02 4.644274999999999931e-01 3.120254999999999868e+01 1.507074999999999818e+02 1.631240000000000009e+03
9.500000000000000111e-02 4.644089999999999607e-01 3.042624999999999957e+01 1.504904999999999973e+02 1.631179999999999836e+03
9.600000000000000200e-02 4.643960000000000310e-01 2.969345000000000212e+01 1.503195000000000050e+02 1.631130000000000109e+03
9.700000000000000289e-02 4.643889999999999407e-01 2.900435000000000230e+01 1.501955000000000098e+02 1.631085000000000036e+03
9.800000000000000377e-02 4.643869999999999942e-01 2.835655000000000214e+01 1.501145000000000209e+02 1.631055000000000064e+03
9.900000000000000466e-02 4.643889999999999962e-01 2.774514999999999887e+01 1.500660000000000025e+02 1.631029999999999973e+03
1.000000000000000056e-01 4.643920000000000270e-01 2.716340000000000288e+01 1.500380000000000109e+02 1.631014999999999873e+03
1.010000000000000064e-01 4.643935000000000146e-01 2.660314999999999941e+01 1.500135000000000218e+02 1.631000000000000000e+03
1.020000000000000073e-01 4.643904999999999839e-01 2.605514999999999759e+01 1.499755000000000109e+02 1.630974999999999909e+03
1.030000000000000082e-01 4.643810000000000437e-01 2.551010000000000133e+01 1.499054999999999893e+02 1.630954999999999927e+03
1.040000000000000091e-01 4.643619999999999415e-01 2.495870000000000033e+01 1.497864999999999895e+02 1.630914999999999964e+03
1.050000000000000100e-01 4.643319999999999670e-01 2.439249999999999829e+01 1.496020000000000039e+02 1.630855000000000018e+03
1.059999999999999970e-01 4.642870000000000053e-01 2.380424999999999969e+01 1.493394999999999868e+02 1.630779999999999973e+03
1.069999999999999979e-01 4.642279999999999740e-01 2.318815000000000026e+01 1.489879999999999995e+02 1.630684999999999945e+03
1.079999999999999988e-01 4.641524999999999679e-01 2.254050000000000153e+01 1.485419999999999732e+02 1.630550000000000182e+03
1.089999999999999997e-01 4.640620000000000300e-01 2.185945000000000249e+01 1.479984999999999786e+02 1.630394999999999982e+03
1.100000000000000006e-01 4.639554999999999652e-01 2.114555000000000007e+01 1.473600000000000136e+02 1.630214999999999918e+03
1.110000000000000014e-01 4.638364999999999849e-01 2.040139999999999887e+01 1.466340000000000146e+02 1.630005000000000109e+03
1.120000000000000023e-01 4.637050000000000338e-01 1.963179999999999836e+01 1.458310000000000173e+02 1.629764999999999873e+03
1.130000000000000032e-01 4.635635000000000172e-01 1.884335000000000093e+01 1.449644999999999868e+02 1.629509999999999991e+03
1.140000000000000041e-01 4.634169999999999678e-01 1.804429999999999978e+01 1.440514999999999759e+02 1.629240000000000009e+03
1.150000000000000050e-01 4.632664999999999700e-01 1.724409999999999954e+01 1.431129999999999995e+02 1.628960000000000036e+03
1.160000000000000059e-01 4.631170000000000009e-01 1.645305000000000106e+01 1.421700000000000159e+02 1.628675000000000182e+03
1.170000000000000068e-01 4.629704999999999515e-01 1.568165000000000120e+01 1.412419999999999902e+02 1.628384999999999991e+03
1.180000000000000077e-01 4.628309999999999924e-01 1.494035000000000046e+01 1.403514999999999873e+02 1.628105000000000018e+03
1.190000000000000085e-01 4.627019999999999467e-01 1.423919000000000068e+01 1.395174999999999841e+02 1.627840000000000146e+03
1.200000000000000094e-01 4.625844999999999541e-01 1.358677500000000116e+01 1.387579999999999814e+02 1.627595000000000027e+03
1.209999999999999964e-01 4.624825000000000186e-01 1.299058000000000135e+01 1.380869999999999891e+02 1.627369999999999891e+03
1.219999999999999973e-01 4.623964999999999881e-01 1.245635499999999851e+01 1.375144999999999982e+02 1.627174999999999955e+03
1.229999999999999982e-01 4.623275000000000023e-01 1.198777499999999918e+01 1.370495000000000232e+02 1.627009999999999991e+03
1.239999999999999991e-01 4.622760000000000202e-01 1.158670500000000025e+01 1.366935000000000002e+02 1.626875000000000000e+03
1.250000000000000000e-01 4.622410000000000130e-01 1.125282999999999944e+01 1.364459999999999980e+02 1.626769999999999982e+03
1.260000000000000009e-01 4.622224999999999806e-01 1.098396500000000131e+01 1.363029999999999973e+02 1.626694999999999936e+03
1.270000000000000018e-01 4.622184999999999766e-01 1.077634499999999917e+01 1.362554999999999836e+02 1.626650000000000091e+03
1.280000000000000027e-01 4.622264999999999846e-01 1.062457000000000029e+01 1.362925000000000182e+02 1.626634999999999991e+03
1.290000000000000036e-01 4.622459999999999902e-01 1.052211000000000141e+01 1.364019999999999868e+02 1.626644999999999982e+03
1.300000000000000044e-01 4.622729999999999895e-01 1.046177499999999938e+01 1.365699999999999932e+02 1.626670000000000073e+03
1.310000000000000053e-01 4.623059999999999947e-01 1.043580500000000022e+01 1.367800000000000011e+02 1.626715000000000146e+03
1.320000000000000062e-01 4.623424999999999896e-01 1.043631999999999849e+01 1.370190000000000055e+02 1.626764999999999873e+03
1.330000000000000071e-01 4.623809999999999865e-01 1.045570500000000003e+01 1.372715000000000032e+02 1.626824999999999818e+03
1.340000000000000080e-01 4.624190000000000245e-01 1.048676000000000030e+01 1.375260000000000105e+02 1.626890000000000100e+03
1.350000000000000089e-01 4.624549999999999494e-01 1.052286000000000143e+01 1.377699999999999818e+02 1.626960000000000036e+03
1.360000000000000098e-01 4.624874999999999403e-01 1.055845000000000056e+01 1.379960000000000093e+02 1.627019999999999982e+03
1.370000000000000107e-01 4.625155000000000238e-01 1.058870500000000092e+01 1.381959999999999980e+02 1.627079999999999927e+03
1.380000000000000115e-01 4.625390000000000335e-01 1.060986000000000118e+01 1.383654999999999973e+02 1.627130000000000109e+03
1.390000000000000124e-01 4.625579999999999692e-01 1.061928499999999964e+01 1.385020000000000095e+02 1.627174999999999955e+03
1.400000000000000133e-01 4.625710000000000099e-01 1.061523499999999842e+01 1.386050000000000182e+02 1.627214999999999918e+03
1.410000000000000142e-01 4.625795000000000323e-01 1.059695499999999946e+01 1.386750000000000114e+02 1.627235000000000127e+03
1.420000000000000151e-01 4.625834999999999808e-01 1.056449999999999889e+01 1.387160000000000082e+02 1.627255000000000109e+03
1.430000000000000160e-01 4.625839999999999952e-01 1.051863499999999974e+01 1.387294999999999732e+02 1.627259999999999991e+03
1.440000000000000169e-01 4.625810000000000199e-01 1.046090000000000053e+01 1.387219999999999800e+02 1.627264999999999873e+03
1.450000000000000178e-01 4.625759999999999872e-01 1.039309499999999886e+01 1.386974999999999909e+02 1.627269999999999982e+03
1.459999999999999909e-01 4.625704999999999956e-01 1.031745000000000090e+01 1.386630000000000109e+02 1.627259999999999991e+03
1.469999999999999918e-01 4.625635000000000163e-01 1.023653499999999994e+01 1.386220000000000141e+02 1.627255000000000109e+03
1.479999999999999927e-01 4.625580000000000247e-01 1.015272500000000022e+01 1.385810000000000173e+02 1.627244999999999891e+03
1.489999999999999936e-01 4.625525000000000331e-01 1.006851499999999966e+01 1.385440000000000111e+02 1.627240000000000009e+03
1.499999999999999944e-01 4.625495000000000578e-01 9.986110000000000042e+00 1.385149999999999864e+02 1.627230000000000018e+03
1.509999999999999953e-01 4.625475000000000003e-01 9.907479999999999620e+00 1.384964999999999975e+02 1.627224999999999909e+03
1.519999999999999962e-01 4.625485000000000291e-01 9.834244999999999237e+00 1.384920000000000186e+02 1.627224999999999909e+03
1.529999999999999971e-01 4.625515000000000043e-01 9.767530000000000712e+00 1.385015000000000214e+02 1.627224999999999909e+03
1.539999999999999980e-01 4.625575000000000103e-01 9.708085000000000520e+00 1.385260000000000105e+02 1.627234999999999900e+03
1.549999999999999989e-01 4.625650000000000039e-01 9.656169999999999476e+00 1.385640000000000214e+02 1.627244999999999891e+03
1.559999999999999998e-01 4.625749999999999584e-01 9.611625000000000085e+00 1.386140000000000043e+02 1.627259999999999991e+03
1.570000000000000007e-01 4.625859999999999972e-01 9.573990000000000222e+00 1.386740000000000066e+02 1.627279999999999973e+03
1.580000000000000016e-01 4.625974999999999948e-01 9.542324999999999946e+00 1.387415000000000020e+02 1.627299999999999955e+03
1.590000000000000024e-01 4.626104999999999801e-01 9.515679999999999694e+00 1.388125000000000000e+02 1.627315000000000055e+03
