# t [s], A [cm^2], U [cm/s], P [cPa], c [cm/s]
1.000000000000000021e-03 1.437599999999999989e-01 1.643961500000000187e-01 9.289279999999999404e+01 1.869454999999999927e+03
2.000000000000000042e-03 1.437395000000000200e-01 1.448757000000000073e+00 9.040059999999999718e+01 1.869220000000000027e+03
3.000000000000000062e-03 1.436570000000000069e-01 3.086602000000000068e+00 8.702315000000000111e+01 1.868349999999999909e+03
4.000000000000000083e-03 1.435305000000000053e-01 4.930170500000000011e+00 8.306204999999999927e+01 1.867034999999999854e+03
5.000000000000000104e-03 1.433814999999999951e-01 6.932805000000000106e+00 7.913920000000000243e+01 1.865505000000000109e+03
6.000000000000000125e-03 1.432275000000000076e-01 9.015739999999999199e+00 7.566759999999999309e+01 1.863940000000000055e+03
7.000000000000000146e-03 1.430784999999999973e-01 1.104314499999999910e+01 7.271969999999998890e+01 1.862440000000000055e+03
8.000000000000000167e-03 1.429369999999999807e-01 1.288060500000000097e+01 7.013644999999999641e+01 1.861039999999999964e+03
9.000000000000001055e-03 1.428050000000000153e-01 1.447609999999999886e+01 6.779274999999999807e+01 1.859759999999999991e+03
1.000000000000000194e-02 1.426864999999999939e-01 1.584740000000000038e+01 6.570615000000000805e+01 1.858615000000000009e+03
1.099999999999999936e-02 1.425819999999999865e-01 1.701995000000000147e+01 6.392780000000000484e+01 1.857619999999999891e+03
1.200000000000000025e-02 1.424930000000000085e-01 1.800760000000000005e+01 6.246255000000000024e+01 1.856784999999999854e+03
1.300000000000000114e-02 1.424190000000000178e-01 1.882104999999999961e+01 6.128289999999999793e+01 1.856090000000000146e+03
1.400000000000000203e-02 1.423579999999999846e-01 1.946679999999999922e+01 6.034104999999999563e+01 1.855529999999999973e+03
1.499999999999999944e-02 1.423079999999999901e-01 1.994610000000000127e+01 5.956539999999999679e+01 1.855075000000000045e+03
1.600000000000000033e-02 1.422660000000000036e-01 2.027080000000000126e+01 5.889034999999999798e+01 1.854704999999999927e+03
1.700000000000000122e-02 1.422309999999999963e-01 2.048535000000000039e+01 5.831909999999999883e+01 1.854400000000000091e+03
1.800000000000000211e-02 1.422054999999999847e-01 2.066975000000000051e+01 5.796020000000000039e+01 1.854180000000000064e+03
1.900000000000000300e-02 1.421924999999999994e-01 2.091580000000000084e+01 5.799439999999999884e+01 1.854074999999999818e+03
2.000000000000000042e-02 1.421974999999999767e-01 2.129095000000000226e+01 5.858520000000000039e+01 1.854134999999999991e+03
2.100000000000000130e-02 1.422224999999999739e-01 2.181045000000000300e+01 5.978764999999999930e+01 1.854375000000000000e+03
2.200000000000000219e-02 1.422660000000000036e-01 2.243135000000000190e+01 6.150315000000000509e+01 1.854795000000000073e+03
2.299999999999999961e-02 1.423244999999999927e-01 2.306869999999999976e+01 6.349765000000000015e+01 1.855349999999999909e+03
2.400000000000000050e-02 1.423880000000000146e-01 2.362395000000000067e+01 6.546850000000000591e+01 1.855965000000000146e+03
2.500000000000000139e-02 1.424495000000000067e-01 2.401409999999999911e+01 6.712870000000000914e+01 1.856565000000000055e+03
2.600000000000000228e-02 1.425015000000000032e-01 2.419299999999999784e+01 6.828030000000001110e+01 1.857079999999999927e+03
2.700000000000000316e-02 1.425385000000000124e-01 2.415850000000000009e+01 6.885314999999999941e+01 1.857465000000000146e+03
2.800000000000000058e-02 1.425609999999999933e-01 2.394664999999999822e+01 6.890479999999999450e+01 1.857695000000000164e+03
2.900000000000000147e-02 1.425699999999999745e-01 2.361580000000000013e+01 6.858480000000000132e+01 1.857804999999999836e+03
3.000000000000000236e-02 1.425690000000000013e-01 2.322715000000000174e+01 6.807909999999999684e+01 1.857809999999999945e+03
3.099999999999999978e-02 1.425629999999999953e-01 2.282785000000000153e+01 6.755365000000000464e+01 1.857755000000000109e+03
3.200000000000000067e-02 1.425545000000000007e-01 2.244065000000000154e+01 6.711339999999999861e+01 1.857684999999999945e+03
3.300000000000000155e-02 1.425470000000000070e-01 2.206299999999999883e+01 6.678479999999998995e+01 1.857615000000000009e+03
3.400000000000000244e-02 1.425394999999999857e-01 2.167280000000000229e+01 6.652389999999999759e+01 1.857545000000000073e+03
3.500000000000000333e-02 1.425315000000000054e-01 2.123955000000000126e+01 6.624309999999999832e+01 1.857470000000000027e+03
3.600000000000000422e-02 1.425204999999999944e-01 2.073700000000000188e+01 6.584744999999999493e+01 1.857365000000000009e+03
3.700000000000000511e-02 1.425044999999999784e-01 2.015399999999999991e+01 6.527035000000000764e+01 1.857219999999999800e+03
3.799999999999999906e-02 1.424825000000000119e-01 1.950075000000000003e+01 6.449920000000000186e+01 1.857014999999999873e+03
3.899999999999999994e-02 1.424549999999999983e-01 1.880955000000000155e+01 6.358610000000000184e+01 1.856760000000000218e+03
4.000000000000000083e-02 1.424249999999999960e-01 1.812985000000000113e+01 6.264014999999999844e+01 1.856474999999999909e+03
4.100000000000000172e-02 1.423949999999999938e-01 1.751845000000000141e+01 6.180530000000000257e+01 1.856190000000000055e+03
4.200000000000000261e-02 1.423705000000000109e-01 1.702789999999999893e+01 6.122800000000000153e+01 1.855954999999999927e+03
4.300000000000000350e-02 1.423539999999999806e-01 1.669620000000000104e+01 6.102514999999999645e+01 1.855789999999999964e+03
4.400000000000000439e-02 1.423500000000000043e-01 1.653924999999999912e+01 6.125844999999999629e+01 1.855740000000000009e+03
4.499999999999999833e-02 1.423594999999999999e-01 1.654820000000000135e+01 6.192179999999999751e+01 1.855820000000000164e+03
4.599999999999999922e-02 1.423814999999999942e-01 1.669214999999999804e+01 6.294249999999999545e+01 1.856010000000000218e+03
4.700000000000000011e-02 1.424139999999999850e-01 1.692349999999999710e+01 6.419509999999999650e+01 1.856309999999999945e+03
4.800000000000000100e-02 1.424524999999999819e-01 1.718580000000000041e+01 6.552334999999999354e+01 1.856670000000000073e+03
4.900000000000000189e-02 1.424934999999999952e-01 1.742249999999999943e+01 6.676460000000000150e+01 1.857055000000000064e+03
5.000000000000000278e-02 1.425314999999999777e-01 1.758320000000000149e+01 6.777304999999999779e+01 1.857414999999999964e+03
5.100000000000000366e-02 1.425619999999999943e-01 1.762955000000000183e+01 6.843645000000000778e+01 1.857714999999999918e+03
5.200000000000000455e-02 1.425825000000000009e-01 1.753699999999999903e+01 6.868619999999999948e+01 1.857914999999999964e+03
5.300000000000000544e-02 1.425905000000000089e-01 1.729540000000000077e+01 6.849875000000000114e+01 1.858005000000000109e+03
5.399999999999999939e-02 1.425845000000000029e-01 1.690694999999999837e+01 6.789050000000000296e+01 1.857954999999999927e+03
5.500000000000000028e-02 1.425659999999999983e-01 1.638309999999999889e+01 6.690854999999999109e+01 1.857784999999999854e+03
5.600000000000000117e-02 1.425345000000000084e-01 1.574155000000000015e+01 6.561854999999999905e+01 1.857494999999999891e+03
5.700000000000000205e-02 1.424925000000000219e-01 1.500305000000000000e+01 6.409390000000000498e+01 1.857099999999999909e+03
5.800000000000000294e-02 1.424429999999999863e-01 1.418884999999999863e+01 6.240664999999999907e+01 1.856630000000000109e+03
5.900000000000000383e-02 1.423860000000000126e-01 1.332019999999999982e+01 6.062250000000000227e+01 1.856090000000000146e+03
6.000000000000000472e-02 1.423249999999999793e-01 1.241730000000000089e+01 5.879845000000000255e+01 1.855509999999999991e+03
6.099999999999999867e-02 1.422614999999999852e-01 1.150028000000000006e+01 5.698385000000000389e+01 1.854904999999999973e+03
6.199999999999999956e-02 1.421975000000000044e-01 1.058954499999999932e+01 5.522305000000000064e+01 1.854289999999999964e+03
6.300000000000000044e-02 1.421340000000000103e-01 9.706749999999999545e+00 5.355880000000000507e+01 1.853684999999999945e+03
6.400000000000000133e-02 1.420735000000000192e-01 8.875219999999998777e+00 5.203520000000000323e+01 1.853105000000000018e+03
6.500000000000000222e-02 1.420175000000000187e-01 8.119959999999998956e+00 5.069944999999999879e+01 1.852565000000000055e+03
6.600000000000000311e-02 1.419679999999999831e-01 7.467209999999999681e+00 4.960205000000000553e+01 1.852085000000000036e+03
6.700000000000000400e-02 1.419265000000000110e-01 6.943559999999999732e+00 4.879590000000000316e+01 1.851679999999999836e+03
6.800000000000000488e-02 1.418949999999999934e-01 6.574619999999999465e+00 4.833310000000000173e+01 1.851369999999999891e+03
6.900000000000000577e-02 1.418760000000000021e-01 6.383614999999999817e+00 4.826205000000000211e+01 1.851174999999999955e+03
7.000000000000000666e-02 1.418705000000000105e-01 6.389994999999999870e+00 4.862385000000000446e+01 1.851110000000000127e+03
7.100000000000000755e-02 1.418800000000000061e-01 6.608204999999999885e+00 4.944865000000000066e+01 1.851190000000000055e+03
7.200000000000000844e-02 1.419060000000000044e-01 7.046815000000000495e+00 5.075355000000000416e+01 1.851414999999999964e+03
7.300000000000000933e-02 1.419495000000000062e-01 7.708050000000000068e+00 5.254084999999999894e+01 1.851815000000000055e+03
7.399999999999999634e-02 1.420095000000000107e-01 8.587720000000000908e+00 5.479805000000000348e+01 1.852369999999999891e+03
7.499999999999999722e-02 1.420865000000000045e-01 9.675534999999999997e+00 5.749840000000000373e+01 1.853090000000000146e+03
7.599999999999999811e-02 1.421800000000000008e-01 1.095591999999999899e+01 6.060300000000000153e+01 1.853964999999999918e+03
7.699999999999999900e-02 1.422875000000000112e-01 1.240859500000000004e+01 6.406309999999999150e+01 1.854985000000000127e+03
7.799999999999999989e-02 1.424090000000000078e-01 1.401014999999999944e+01 6.782300000000000750e+01 1.856134999999999991e+03
7.900000000000000078e-02 1.425414999999999877e-01 1.573475000000000001e+01 7.182319999999999993e+01 1.857404999999999973e+03
8.000000000000000167e-02 1.426840000000000053e-01 1.755555000000000021e+01 7.600364999999999327e+01 1.858760000000000218e+03
8.100000000000000255e-02 1.428335000000000021e-01 1.944604999999999961e+01 8.030639999999999645e+01 1.860200000000000045e+03
8.200000000000000344e-02 1.429890000000000050e-01 2.138049999999999784e+01 8.467830000000000723e+01 1.861690000000000055e+03
8.300000000000000433e-02 1.431479999999999975e-01 2.333569999999999922e+01 8.907310000000001082e+01 1.863230000000000018e+03
8.400000000000000522e-02 1.433099999999999929e-01 2.529110000000000014e+01 9.345300000000000296e+01 1.864789999999999964e+03
8.500000000000000611e-02 1.434719999999999884e-01 2.722935000000000016e+01 9.778905000000000314e+01 1.866369999999999891e+03
8.600000000000000699e-02 1.436334999999999973e-01 2.913660000000000139e+01 1.020615999999999985e+02 1.867940000000000055e+03
8.700000000000000788e-02 1.437944999999999918e-01 3.100264999999999915e+01 1.062606999999999999e+02 1.869514999999999873e+03
8.800000000000000877e-02 1.439535000000000120e-01 3.282039999999999935e+01 1.103829999999999956e+02 1.871070000000000164e+03
8.899999999999999578e-02 1.441105000000000025e-01 3.458549999999999613e+01 1.144304999999999950e+02 1.872615000000000009e+03
8.999999999999999667e-02 1.442650000000000043e-01 3.629585000000000150e+01 1.184120000000000061e+02 1.874139999999999873e+03
9.099999999999999756e-02 1.444185000000000052e-01 3.795074999999999932e+01 1.223349999999999937e+02 1.875650000000000091e+03
9.199999999999999845e-02 1.445700000000000041e-01 3.955049999999999955e+01 1.262090000000000032e+02 1.877150000000000091e+03
9.299999999999999933e-02 1.447205000000000019e-01 4.109560000000000457e+01 1.300420000000000016e+02 1.878634999999999991e+03
9.400000000000000022e-02 1.448689999999999978e-01 4.258624999999999972e+01 1.338389999999999986e+02 1.880105000000000018e+03
9.500000000000000111e-02 1.450164999999999926e-01 4.402235000000000298e+01 1.376009999999999991e+02 1.881570000000000164e+03
9.600000000000000200e-02 1.451624999999999999e-01 4.540255000000000507e+01 1.413245000000000005e+02 1.883025000000000091e+03
9.700000000000000289e-02 1.453070000000000195e-01 4.672485000000000355e+01 1.450029999999999859e+02 1.884460000000000036e+03
9.800000000000000377e-02 1.454495000000000093e-01 4.798619999999999663e+01 1.486260000000000048e+02 1.885880000000000109e+03
9.900000000000000466e-02 1.455899999999999972e-01 4.918269999999999698e+01 1.521795000000000186e+02 1.887289999999999964e+03
1.000000000000000056e-01 1.457280000000000242e-01 5.030974999999999397e+01 1.556469999999999914e+02 1.888670000000000073e+03
1.010000000000000064e-01 1.458630000000000204e-01 5.136209999999999809e+01 1.590115000000000123e+02 1.890019999999999982e+03
1.020000000000000073e-01 1.459944999999999993e-01 5.233429999999999893e+01 1.622545000000000073e+02 1.891335000000000036e+03
1.030000000000000082e-01 1.461204999999999865e-01 5.322074999999999534e+01 1.653559999999999945e+02 1.892610000000000127e+03
1.040000000000000091e-01 1.462424999999999975e-01 5.401585000000000036e+01 1.683000000000000114e+02 1.893835000000000036e+03
1.050000000000000100e-01 1.463585000000000025e-01 5.471435000000000315e+01 1.710685000000000002e+02 1.895000000000000000e+03
1.059999999999999970e-01 1.464679999999999871e-01 5.531140000000000612e+01 1.736460000000000150e+02 1.896110000000000127e+03
1.069999999999999979e-01 1.465704999999999925e-01 5.580284999999999940e+01 1.760184999999999889e+02 1.897144999999999982e+03
1.079999999999999988e-01 1.466655000000000042e-01 5.618524999999999636e+01 1.781754999999999995e+02 1.898115000000000009e+03
1.089999999999999997e-01 1.467529999999999946e-01 5.645619999999999550e+01 1.801080000000000041e+02 1.899005000000000109e+03
1.100000000000000006e-01 1.468320000000000181e-01 5.661445000000000505e+01 1.818095000000000141e+02 1.899815000000000055e+03
1.110000000000000014e-01 1.469024999999999914e-01 5.666020000000000323e+01 1.832780000000000200e+02 1.900529999999999973e+03
1.120000000000000023e-01 1.469644999999999979e-01 5.659475000000000477e+01 1.845134999999999934e+02 1.901170000000000073e+03
1.130000000000000032e-01 1.470184999999999964e-01 5.642114999999999725e+01 1.855199999999999818e+02 1.901724999999999909e+03
1.140000000000000041e-01 1.470629999999999993e-01 5.614400000000000546e+01 1.863054999999999950e+02 1.902190000000000055e+03
1.150000000000000050e-01 1.471000000000000085e-01 5.576919999999999789e+01 1.868799999999999955e+02 1.902575000000000045e+03
1.160000000000000059e-01 1.471290000000000098e-01 5.530429999999999779e+01 1.872584999999999980e+02 1.902880000000000109e+03
1.170000000000000068e-01 1.471504999999999896e-01 5.475790000000000646e+01 1.874579999999999984e+02 1.903105000000000018e+03
1.180000000000000077e-01 1.471655000000000046e-01 5.413965000000000316e+01 1.874979999999999905e+02 1.903259999999999991e+03
1.190000000000000085e-01 1.471739999999999993e-01 5.345994999999999919e+01 1.873985000000000127e+02 1.903355000000000018e+03
1.200000000000000094e-01 1.471764999999999879e-01 5.272960000000000491e+01 1.871809999999999832e+02 1.903394999999999982e+03
1.209999999999999964e-01 1.471744999999999859e-01 5.195950000000000557e+01 1.868679999999999950e+02 1.903384999999999991e+03
1.219999999999999973e-01 1.471689999999999943e-01 5.116015000000000157e+01 1.864795000000000016e+02 1.903335000000000036e+03
1.229999999999999982e-01 1.471600000000000130e-01 5.034184999999999377e+01 1.860355000000000132e+02 1.903250000000000000e+03
1.239999999999999991e-01 1.471480000000000010e-01 4.951370000000000005e+01 1.855540000000000020e+02 1.903134999999999991e+03
1.250000000000000000e-01 1.471339999999999870e-01 4.868404999999999916e+01 1.850489999999999782e+02 1.903000000000000000e+03
1.260000000000000009e-01 1.471184999999999854e-01 4.785989999999999611e+01 1.845335000000000036e+02 1.902845000000000027e+03
1.270000000000000018e-01 1.471029999999999838e-01 4.704694999999999538e+01 1.840169999999999959e+02 1.902684999999999945e+03
1.280000000000000027e-01 1.470859999999999945e-01 4.624949999999999761e+01 1.835065000000000168e+02 1.902514999999999873e+03
1.290000000000000036e-01 1.470684999999999909e-01 4.547050000000000125e+01 1.830045000000000073e+02 1.902345000000000027e+03
1.300000000000000044e-01 1.470515000000000017e-01 4.471124999999999972e+01 1.825120000000000005e+02 1.902164999999999964e+03
1.310000000000000053e-01 1.470339999999999980e-01 4.397214999999999918e+01 1.820269999999999868e+02 1.901990000000000009e+03
1.320000000000000062e-01 1.470164999999999944e-01 4.325199999999999534e+01 1.815444999999999993e+02 1.901809999999999945e+03
1.330000000000000071e-01 1.469989999999999908e-01 4.254869999999999663e+01 1.810589999999999975e+02 1.901630000000000109e+03
1.340000000000000080e-01 1.469810000000000005e-01 4.185940000000000083e+01 1.805625000000000000e+02 1.901450000000000045e+03
1.350000000000000089e-01 1.469624999999999959e-01 4.118019999999999925e+01 1.800464999999999804e+02 1.901255000000000109e+03
1.360000000000000098e-01 1.469424999999999759e-01 4.050714999999999577e+01 1.795004999999999882e+02 1.901059999999999945e+03
1.370000000000000107e-01 1.469225000000000114e-01 3.983565000000000111e+01 1.789159999999999968e+02 1.900849999999999909e+03
1.380000000000000115e-01 1.469000000000000028e-01 3.916129999999999711e+01 1.782830000000000155e+02 1.900619999999999891e+03
1.390000000000000124e-01 1.468765000000000209e-01 3.847979999999999734e+01 1.775939999999999941e+02 1.900384999999999991e+03
1.400000000000000133e-01 1.468504999999999949e-01 3.778730000000000189e+01 1.768400000000000034e+02 1.900119999999999891e+03
1.410000000000000142e-01 1.468220000000000081e-01 3.708039999999999736e+01 1.760165000000000077e+02 1.899835000000000036e+03
1.420000000000000151e-01 1.467910000000000048e-01 3.635654999999999859e+01 1.751184999999999832e+02 1.899525000000000091e+03
1.430000000000000160e-01 1.467574999999999852e-01 3.561395000000000266e+01 1.741454999999999984e+02 1.899190000000000055e+03
1.440000000000000169e-01 1.467215000000000047e-01 3.485184999999999889e+01 1.730964999999999918e+02 1.898835000000000036e+03
1.450000000000000178e-01 1.466830000000000078e-01 3.407059999999999889e+01 1.719750000000000227e+02 1.898445000000000164e+03
1.459999999999999909e-01 1.466414999999999802e-01 3.327159999999999940e+01 1.707860000000000014e+02 1.898029999999999973e+03
1.469999999999999918e-01 1.465980000000000061e-01 3.245714999999999861e+01 1.695364999999999895e+02 1.897590000000000146e+03
1.479999999999999927e-01 1.465520000000000156e-01 3.163085000000000235e+01 1.682375000000000114e+02 1.897130000000000109e+03
1.489999999999999936e-01 1.465039999999999953e-01 3.079694999999999894e+01 1.668985000000000127e+02 1.896655000000000200e+03
1.499999999999999944e-01 1.464544999999999875e-01 2.996059999999999945e+01 1.655335000000000036e+02 1.896155000000000200e+03
1.509999999999999953e-01 1.464039999999999786e-01 2.912764999999999915e+01 1.641564999999999941e+02 1.895655000000000200e+03
1.519999999999999962e-01 1.463530000000000109e-01 2.830414999999999992e+01 1.627820000000000107e+02 1.895144999999999982e+03
1.529999999999999971e-01 1.463019999999999876e-01 2.749640000000000128e+01 1.614254999999999995e+02 1.894630000000000109e+03
1.539999999999999980e-01 1.462514999999999787e-01 2.671079999999999899e+01 1.601009999999999991e+02 1.894125000000000000e+03
1.549999999999999989e-01 1.462014999999999842e-01 2.595345000000000013e+01 1.588224999999999909e+02 1.893625000000000000e+03
1.559999999999999998e-01 1.461530000000000051e-01 2.522979999999999734e+01 1.576019999999999754e+02 1.893139999999999873e+03
1.570000000000000007e-01 1.461065000000000003e-01 2.454489999999999839e+01 1.564504999999999768e+02 1.892674999999999955e+03
1.580000000000000016e-01 1.460624999999999840e-01 2.390269999999999939e+01 1.553765000000000214e+02 1.892230000000000018e+03
1.590000000000000024e-01 1.460210000000000119e-01 2.330644999999999811e+01 1.543865000000000123e+02 1.891815000000000055e+03
