# t [s], A [cm^2], U [cm/s], P [cPa], c [cm/s]
1.000000000000000021e-03 1.345244999999999913e-01 2.077109999999999790e-01 8.944280000000000541e+01 2.014295000000000073e+03
2.000000000000000042e-03 1.345005000000000228e-01 1.485868500000000036e+00 8.676159999999998718e+01 2.013965000000000146e+03
3.000000000000000062e-03 1.344214999999999993e-01 3.096173499999999912e+00 8.305684999999999718e+01 2.012964999999999918e+03
4.000000000000000083e-03 1.343074999999999963e-01 4.913149500000000280e+00 7.884465000000000146e+01 2.011525000000000091e+03
5.000000000000000104e-03 1.341780000000000195e-01 6.888185000000000002e+00 7.485394999999999754e+01 2.009920000000000073e+03
6.000000000000000125e-03 1.340494999999999881e-01 8.911525000000001029e+00 7.146569999999999823e+01 2.008340000000000146e+03
7.000000000000000146e-03 1.339274999999999771e-01 1.080929000000000073e+01 6.860920000000000130e+01 2.006860000000000127e+03
8.000000000000000167e-03 1.338130000000000153e-01 1.245978999999999992e+01 6.604779999999999518e+01 2.005490000000000009e+03
9.000000000000001055e-03 1.337085000000000079e-01 1.385956000000000010e+01 6.373090000000000543e+01 2.004264999999999873e+03
1.000000000000000194e-02 1.336164999999999992e-01 1.504490000000000194e+01 6.173930000000000007e+01 2.003195000000000164e+03
1.099999999999999936e-02 1.335385000000000044e-01 1.603509999999999991e+01 6.010410000000000252e+01 2.002299999999999955e+03
1.200000000000000025e-02 1.334744999999999959e-01 1.684140000000000015e+01 5.879725000000000534e+01 2.001569999999999936e+03
1.300000000000000114e-02 1.334219999999999851e-01 1.746994999999999720e+01 5.776054999999999495e+01 2.000980000000000018e+03
1.400000000000000203e-02 1.333789999999999976e-01 1.791805000000000092e+01 5.689804999999999779e+01 2.000509999999999991e+03
1.499999999999999944e-02 1.333425000000000027e-01 1.819715000000000060e+01 5.611939999999999884e+01 2.000115000000000009e+03
1.600000000000000033e-02 1.333114999999999994e-01 1.836710000000000065e+01 5.544474999999999909e+01 1.999789999999999964e+03
1.700000000000000122e-02 1.332904999999999784e-01 1.853849999999999909e+01 5.506029999999999802e+01 1.999559999999999945e+03
1.800000000000000211e-02 1.332829999999999848e-01 1.883044999999999902e+01 5.524434999999999718e+01 1.999494999999999891e+03
1.900000000000000300e-02 1.332949999999999968e-01 1.931329999999999814e+01 5.620665000000000333e+01 1.999634999999999991e+03
2.000000000000000042e-02 1.333280000000000021e-01 1.997375000000000256e+01 5.794955000000000211e+01 2.000019999999999982e+03
2.100000000000000130e-02 1.333785000000000109e-01 2.071934999999999860e+01 6.023064999999999714e+01 2.000605000000000018e+03
2.200000000000000219e-02 1.334390000000000021e-01 2.141519999999999868e+01 6.263644999999999641e+01 2.001304999999999836e+03
2.299999999999999961e-02 1.334984999999999922e-01 2.193290000000000006e+01 6.472100000000000364e+01 2.002009999999999991e+03
2.400000000000000050e-02 1.335485000000000144e-01 2.219050000000000011e+01 6.614470000000000027e+01 2.002610000000000127e+03
2.500000000000000139e-02 1.335824999999999929e-01 2.217190000000000083e+01 6.676309999999999434e+01 2.003034999999999854e+03
2.600000000000000228e-02 1.335995000000000099e-01 2.192129999999999868e+01 6.664220000000000255e+01 2.003264999999999873e+03
2.700000000000000316e-02 1.336009999999999975e-01 2.152039999999999864e+01 6.600469999999999970e+01 2.003305000000000064e+03
2.800000000000000058e-02 1.335925000000000029e-01 2.105615000000000236e+01 6.513604999999999734e+01 2.003215000000000146e+03
2.900000000000000147e-02 1.335784999999999889e-01 2.059349999999999881e+01 6.428574999999999307e+01 2.003065000000000055e+03
3.000000000000000236e-02 1.335640000000000160e-01 2.015974999999999895e+01 6.359820000000000562e+01 2.002905000000000200e+03
3.099999999999999978e-02 1.335514999999999897e-01 1.974409999999999954e+01 6.308875000000000455e+01 2.002755000000000109e+03
3.200000000000000067e-02 1.335394999999999777e-01 1.930935000000000201e+01 6.266504999999999370e+01 2.002610000000000127e+03
3.300000000000000155e-02 1.335270000000000068e-01 1.881105000000000160e+01 6.217995000000000516e+01 2.002465000000000146e+03
3.400000000000000244e-02 1.335095000000000032e-01 1.821754999999999924e+01 6.149634999999999962e+01 2.002275000000000091e+03
3.500000000000000333e-02 1.334865000000000079e-01 1.752495000000000047e+01 6.054424999999999812e+01 2.002009999999999991e+03
3.600000000000000422e-02 1.334569999999999923e-01 1.676355000000000217e+01 5.935394999999999754e+01 2.001674999999999955e+03
3.700000000000000511e-02 1.334235000000000004e-01 1.599350000000000094e+01 5.805740000000000123e+01 2.001289999999999964e+03
3.799999999999999906e-02 1.333894999999999942e-01 1.529160000000000075e+01 5.685770000000000124e+01 2.000894999999999982e+03
3.899999999999999994e-02 1.333600000000000063e-01 1.473295000000000066e+01 5.597695000000000221e+01 2.000550000000000182e+03
4.000000000000000083e-02 1.333400000000000141e-01 1.437330000000000041e+01 5.559844999999999970e+01 2.000309999999999945e+03
4.100000000000000172e-02 1.333340000000000081e-01 1.423620000000000019e+01 5.582070000000000221e+01 2.000220000000000027e+03
4.200000000000000261e-02 1.333420000000000161e-01 1.430860000000000021e+01 5.663309999999999889e+01 2.000299999999999955e+03
4.300000000000000350e-02 1.333644999999999969e-01 1.454465000000000074e+01 5.791915000000000191e+01 2.000539999999999964e+03
4.400000000000000439e-02 1.333975000000000022e-01 1.487540000000000084e+01 5.948194999999999766e+01 2.000909999999999854e+03
4.499999999999999833e-02 1.334359999999999991e-01 1.522175000000000011e+01 6.108350000000000080e+01 2.001349999999999909e+03
4.599999999999999922e-02 1.334750000000000103e-01 1.550755000000000017e+01 6.248725000000000307e+01 2.001795000000000073e+03
4.700000000000000011e-02 1.335080000000000156e-01 1.566995000000000005e+01 6.349520000000000408e+01 2.002184999999999945e+03
4.800000000000000100e-02 1.335314999999999974e-01 1.566590000000000060e+01 6.397259999999999991e+01 2.002464999999999918e+03
4.900000000000000189e-02 1.335414999999999797e-01 1.547400000000000020e+01 6.385765000000000668e+01 2.002595000000000027e+03
5.000000000000000278e-02 1.335375000000000034e-01 1.509309999999999974e+01 6.315780000000000882e+01 2.002555000000000064e+03
5.100000000000000366e-02 1.335175000000000112e-01 1.453734999999999999e+01 6.193495000000000061e+01 2.002340000000000146e+03
5.200000000000000455e-02 1.334849999999999925e-01 1.383104999999999940e+01 6.028549999999999898e+01 2.001965000000000146e+03
5.300000000000000544e-02 1.334404999999999897e-01 1.300329999999999941e+01 5.832000000000000028e+01 2.001465000000000146e+03
5.399999999999999939e-02 1.333874999999999922e-01 1.208420999999999879e+01 5.614700000000000557e+01 2.000849999999999909e+03
5.500000000000000028e-02 1.333280000000000021e-01 1.110235499999999931e+01 5.386299999999999955e+01 2.000160000000000082e+03
5.600000000000000117e-02 1.332639999999999936e-01 1.008491000000000071e+01 5.154879999999999995e+01 1.999424999999999955e+03
5.700000000000000205e-02 1.331984999999999975e-01 9.057895000000000252e+00 4.927174999999999727e+01 1.998659999999999854e+03
5.800000000000000294e-02 1.331330000000000013e-01 8.047755000000000436e+00 4.709109999999999729e+01 1.997900000000000091e+03
5.900000000000000383e-02 1.330695000000000072e-01 7.082499999999999574e+00 4.506380000000000052e+01 1.997159999999999854e+03
6.000000000000000472e-02 1.330100000000000171e-01 6.192560000000000286e+00 4.324989999999999668e+01 1.996465000000000146e+03
6.099999999999999867e-02 1.329559999999999909e-01 5.410569999999999879e+00 4.171479999999999677e+01 1.995835000000000036e+03
6.199999999999999956e-02 1.329100000000000004e-01 4.770464999999999733e+00 4.052904999999999802e+01 1.995289999999999964e+03
6.300000000000000044e-02 1.328739999999999921e-01 4.305775000000000574e+00 3.976500000000000057e+01 1.994865000000000009e+03
6.400000000000000133e-02 1.328504999999999825e-01 4.047475000000000378e+00 3.949174999999999613e+01 1.994575000000000045e+03
6.500000000000000222e-02 1.328409999999999869e-01 4.021815000000000140e+00 3.976895000000000380e+01 1.994450000000000045e+03
6.600000000000000311e-02 1.328475000000000072e-01 4.248370000000000424e+00 4.064140000000000441e+01 1.994500000000000000e+03
6.700000000000000400e-02 1.328705000000000025e-01 4.738554999999999851e+00 4.213405000000000200e+01 1.994750000000000000e+03
6.800000000000000488e-02 1.329120000000000024e-01 5.494870000000000587e+00 4.424994999999999834e+01 1.995204999999999927e+03
6.900000000000000577e-02 1.329704999999999915e-01 6.510825000000000529e+00 4.696925000000000239e+01 1.995869999999999891e+03
7.000000000000000666e-02 1.330469999999999986e-01 7.771449999999999747e+00 5.025104999999999933e+01 1.996735000000000127e+03
7.100000000000000755e-02 1.331395000000000217e-01 9.254470000000001306e+00 5.403609999999999758e+01 1.997795000000000073e+03
7.200000000000000844e-02 1.332470000000000043e-01 1.093158000000000030e+01 5.825134999999999508e+01 1.999029999999999973e+03
7.300000000000000933e-02 1.333679999999999866e-01 1.277045999999999992e+01 6.281484999999999985e+01 2.000420000000000073e+03
7.399999999999999634e-02 1.334989999999999788e-01 1.473629999999999995e+01 6.764085000000000036e+01 2.001945000000000164e+03
7.499999999999999722e-02 1.336390000000000078e-01 1.679374999999999929e+01 7.264480000000000359e+01 2.003569999999999936e+03
7.599999999999999811e-02 1.337845000000000006e-01 1.890879999999999939e+01 7.774805000000000632e+01 2.005269999999999982e+03
7.699999999999999900e-02 1.339339999999999975e-01 2.105004999999999882e+01 8.288155000000000427e+01 2.007029999999999973e+03
7.799999999999999989e-02 1.340859999999999830e-01 2.319004999999999939e+01 8.798924999999999841e+01 2.008815000000000055e+03
7.900000000000000078e-02 1.342384999999999828e-01 2.530624999999999858e+01 9.302920000000000300e+01 2.010610000000000127e+03
8.000000000000000167e-02 1.343900000000000095e-01 2.738129999999999953e+01 9.797450000000000614e+01 2.012404999999999973e+03
8.100000000000000255e-02 1.345399999999999929e-01 2.940314999999999657e+01 1.028120000000000118e+02 2.014184999999999945e+03
8.200000000000000344e-02 1.346875000000000155e-01 3.136430000000000007e+01 1.075421000000000049e+02 2.015944999999999936e+03
8.300000000000000433e-02 1.348330000000000084e-01 3.326165000000000305e+01 1.121734999999999900e+02 2.017684999999999945e+03
8.400000000000000522e-02 1.349770000000000136e-01 3.509479999999999933e+01 1.167199999999999989e+02 2.019400000000000091e+03
8.500000000000000611e-02 1.351180000000000159e-01 3.686560000000000059e+01 1.212019999999999982e+02 2.021099999999999909e+03
8.600000000000000699e-02 1.352579999999999893e-01 3.857675000000000409e+01 1.256345000000000027e+02 2.022779999999999973e+03
8.700000000000000788e-02 1.353969999999999896e-01 4.023085000000000377e+01 1.300320000000000107e+02 2.024444999999999936e+03
8.800000000000000877e-02 1.355345000000000022e-01 4.182989999999999498e+01 1.344030000000000200e+02 2.026105000000000018e+03
8.899999999999999578e-02 1.356709999999999861e-01 4.337444999999999595e+01 1.387484999999999786e+02 2.027759999999999991e+03
8.999999999999999667e-02 1.358064999999999967e-01 4.486359999999999815e+01 1.430645000000000095e+02 2.029404999999999973e+03
9.099999999999999756e-02 1.359420000000000073e-01 4.629465000000000430e+01 1.473394999999999868e+02 2.031034999999999854e+03
9.199999999999999845e-02 1.360755000000000159e-01 4.766349999999999909e+01 1.515554999999999950e+02 2.032654999999999973e+03
9.299999999999999933e-02 1.362065000000000081e-01 4.896439999999999770e+01 1.556910000000000025e+02 2.034250000000000000e+03
9.400000000000000022e-02 1.363354999999999984e-01 5.019055000000000177e+01 1.597205000000000155e+02 2.035820000000000164e+03
9.500000000000000111e-02 1.364615000000000133e-01 5.133424999999999727e+01 1.636175000000000068e+02 2.037349999999999909e+03
9.600000000000000200e-02 1.365834999999999966e-01 5.238739999999999952e+01 1.673539999999999850e+02 2.038840000000000146e+03
9.700000000000000289e-02 1.366999999999999882e-01 5.334154999999999802e+01 1.709014999999999986e+02 2.040275000000000091e+03
9.800000000000000377e-02 1.368115000000000026e-01 5.418860000000000099e+01 1.742344999999999970e+02 2.041634999999999991e+03
9.900000000000000466e-02 1.369164999999999965e-01 5.492095000000000482e+01 1.773285000000000196e+02 2.042930000000000064e+03
1.000000000000000056e-01 1.370149999999999979e-01 5.553175000000000239e+01 1.801614999999999895e+02 2.044134999999999991e+03
1.010000000000000064e-01 1.371050000000000046e-01 5.601545000000000130e+01 1.827164999999999964e+02 2.045250000000000000e+03
1.020000000000000073e-01 1.371874999999999900e-01 5.636804999999999666e+01 1.849795000000000016e+02 2.046269999999999982e+03
1.030000000000000082e-01 1.372609999999999941e-01 5.658740000000000236e+01 1.869424999999999955e+02 2.047184999999999945e+03
1.040000000000000091e-01 1.373260000000000036e-01 5.667354999999999876e+01 1.886024999999999920e+02 2.047989999999999782e+03
1.050000000000000100e-01 1.373814999999999897e-01 5.662879999999999825e+01 1.899624999999999773e+02 2.048690000000000055e+03
1.059999999999999970e-01 1.374289999999999956e-01 5.645785000000000053e+01 1.910314999999999941e+02 2.049279999999999745e+03
1.069999999999999979e-01 1.374670000000000059e-01 5.616785000000000139e+01 1.918240000000000123e+02 2.049765000000000327e+03
1.079999999999999988e-01 1.374974999999999947e-01 5.576814999999999856e+01 1.923600000000000136e+02 2.050150000000000091e+03
1.089999999999999997e-01 1.375195000000000167e-01 5.526994999999999436e+01 1.926655000000000086e+02 2.050434999999999945e+03
1.100000000000000006e-01 1.375350000000000183e-01 5.468605000000000160e+01 1.927685000000000173e+02 2.050639999999999873e+03
1.110000000000000014e-01 1.375439999999999996e-01 5.403009999999999735e+01 1.926999999999999886e+02 2.050764999999999873e+03
1.120000000000000023e-01 1.375480000000000036e-01 5.331650000000000489e+01 1.924904999999999973e+02 2.050815000000000055e+03
1.130000000000000032e-01 1.375470000000000026e-01 5.255939999999999657e+01 1.921730000000000018e+02 2.050815000000000055e+03
1.140000000000000041e-01 1.375425000000000120e-01 5.177270000000000039e+01 1.917750000000000057e+02 2.050769999999999982e+03
1.150000000000000050e-01 1.375350000000000183e-01 5.096890000000000498e+01 1.913249999999999886e+02 2.050684999999999945e+03
1.160000000000000059e-01 1.375254999999999950e-01 5.015944999999999965e+01 1.908449999999999989e+02 2.050569999999999709e+03
1.170000000000000068e-01 1.375144999999999840e-01 4.935399999999999920e+01 1.903539999999999850e+02 2.050440000000000055e+03
1.180000000000000077e-01 1.375024999999999997e-01 4.856015000000000015e+01 1.898650000000000091e+02 2.050295000000000073e+03
1.190000000000000085e-01 1.374905000000000155e-01 4.778369999999999607e+01 1.893890000000000100e+02 2.050144999999999982e+03
1.200000000000000094e-01 1.374779999999999891e-01 4.702819999999999823e+01 1.889295000000000186e+02 2.049994999999999891e+03
1.209999999999999964e-01 1.374655000000000182e-01 4.629524999999999579e+01 1.884855000000000018e+02 2.049835000000000036e+03
1.219999999999999973e-01 1.374529999999999919e-01 4.558464999999999634e+01 1.880540000000000020e+02 2.049684999999999945e+03
1.229999999999999982e-01 1.374404999999999932e-01 4.489440000000000452e+01 1.876274999999999977e+02 2.049525000000000091e+03
1.239999999999999991e-01 1.374279999999999946e-01 4.422109999999999985e+01 1.871949999999999932e+02 2.049369999999999891e+03
1.250000000000000000e-01 1.374150000000000094e-01 4.356005000000000393e+01 1.867439999999999998e+02 2.049210000000000036e+03
1.260000000000000009e-01 1.374009999999999954e-01 4.290594999999999715e+01 1.862615000000000123e+02 2.049034999999999854e+03
1.270000000000000018e-01 1.373860000000000081e-01 4.225294999999999845e+01 1.857325000000000159e+02 2.048849999999999909e+03
1.280000000000000027e-01 1.373699999999999921e-01 4.159515000000000384e+01 1.851440000000000055e+02 2.048650000000000091e+03
1.290000000000000036e-01 1.373515000000000152e-01 4.092664999999999509e+01 1.844830000000000041e+02 2.048425000000000182e+03
1.300000000000000044e-01 1.373314999999999952e-01 4.024240000000000350e+01 1.837389999999999759e+02 2.048180000000000291e+03
1.310000000000000053e-01 1.373085000000000000e-01 3.953794999999999504e+01 1.829035000000000082e+02 2.047904999999999973e+03
1.320000000000000062e-01 1.372840000000000171e-01 3.881020000000000181e+01 1.819710000000000036e+02 2.047589999999999918e+03
1.330000000000000071e-01 1.372555000000000025e-01 3.805705000000000382e+01 1.809404999999999859e+02 2.047250000000000000e+03
1.340000000000000080e-01 1.372249999999999859e-01 3.727800000000000580e+01 1.798120000000000118e+02 2.046875000000000000e+03
1.350000000000000089e-01 1.371910000000000074e-01 3.647390000000000043e+01 1.785914999999999964e+02 2.046465000000000146e+03
1.360000000000000098e-01 1.371549999999999991e-01 3.564724999999999966e+01 1.772880000000000109e+02 2.046025000000000091e+03
1.370000000000000107e-01 1.371160000000000156e-01 3.480180000000000007e+01 1.759125000000000227e+02 2.045555000000000064e+03
1.380000000000000115e-01 1.370750000000000024e-01 3.394270000000000209e+01 1.744799999999999898e+02 2.045059999999999945e+03
1.390000000000000124e-01 1.370325000000000015e-01 3.307614999999999839e+01 1.730074999999999932e+02 2.044539999999999964e+03
1.400000000000000133e-01 1.369889999999999997e-01 3.220929999999999893e+01 1.715140000000000100e+02 2.044010000000000218e+03
1.410000000000000142e-01 1.369445000000000245e-01 3.134979999999999833e+01 1.700190000000000055e+02 2.043465000000000146e+03
1.420000000000000151e-01 1.368995000000000073e-01 3.050550000000000139e+01 1.685430000000000064e+02 2.042924999999999955e+03
1.430000000000000160e-01 1.368560000000000054e-01 2.968424999999999869e+01 1.671045000000000016e+02 2.042384999999999764e+03
1.440000000000000169e-01 1.368125000000000036e-01 2.889345000000000141e+01 1.657224999999999966e+02 2.041860000000000127e+03
1.450000000000000178e-01 1.367710000000000037e-01 2.813994999999999891e+01 1.644114999999999895e+02 2.041344999999999800e+03
1.459999999999999909e-01 1.367305000000000048e-01 2.742954999999999899e+01 1.631860000000000070e+02 2.040860000000000127e+03
1.469999999999999918e-01 1.366930000000000089e-01 2.676684999999999803e+01 1.620564999999999998e+02 2.040394999999999982e+03
1.479999999999999927e-01 1.366580000000000017e-01 2.615530000000000044e+01 1.610289999999999964e+02 2.039964999999999918e+03
1.489999999999999936e-01 1.366259999999999974e-01 2.559705000000000297e+01 1.601069999999999993e+02 2.039569999999999936e+03
1.499999999999999944e-01 1.365965000000000096e-01 2.509270000000000067e+01 1.592920000000000016e+02 2.039204999999999927e+03
1.509999999999999953e-01 1.365704999999999836e-01 2.464189999999999969e+01 1.585815000000000055e+02 2.038880000000000109e+03
1.519999999999999962e-01 1.365469999999999740e-01 2.424279999999999902e+01 1.579705000000000155e+02 2.038595000000000027e+03
1.529999999999999971e-01 1.365270000000000095e-01 2.389289999999999736e+01 1.574504999999999768e+02 2.038344999999999800e+03
1.539999999999999980e-01 1.365089999999999915e-01 2.358849999999999980e+01 1.570140000000000100e+02 2.038119999999999891e+03
1.549999999999999989e-01 1.364934999999999898e-01 2.332570000000000121e+01 1.566510000000000105e+02 2.037924999999999955e+03
1.559999999999999998e-01 1.364805000000000046e-01 2.309984999999999999e+01 1.563514999999999873e+02 2.037764999999999873e+03
1.570000000000000007e-01 1.364694999999999936e-01 2.290625000000000000e+01 1.561039999999999850e+02 2.037619999999999891e+03
1.580000000000000016e-01 1.364600000000000257e-01 2.274009999999999820e+01 1.558994999999999891e+02 2.037500000000000000e+03
1.590000000000000024e-01 1.364515000000000033e-01 2.259665000000000035e+01 1.557280000000000086e+02 2.037394999999999982e+03
