# t [s], A [cm^2], U [cm/s], P [cPa], c [cm/s]
1.000000000000000021e-03 5.064549999999999885e-01 4.763099999999999279e-03 9.339189999999999259e+01 1.599929999999999836e+03
2.000000000000000042e-03 5.064465000000000217e-01 -3.532795000000000032e-03 9.336644999999998618e+01 1.599929999999999836e+03
3.000000000000000062e-03 5.064794999999999714e-01 6.782349999999999490e-02 9.343979999999999109e+01 1.599950000000000045e+03
4.000000000000000083e-03 5.065214999999999579e-01 1.649750499999999842e-01 9.356039999999998713e+01 1.599985000000000127e+03
5.000000000000000104e-03 5.065155000000000074e-01 1.704424999999999968e-01 9.355580000000000496e+01 1.599985000000000127e+03
6.000000000000000125e-03 5.064705000000000457e-01 8.902749999999998165e-02 9.339240000000000919e+01 1.599945000000000164e+03
7.000000000000000146e-03 5.064294999999999769e-01 1.046399999999997332e-02 9.317175000000000296e+01 1.599889999999999873e+03
8.000000000000000167e-03 5.063800000000000523e-01 -9.360950000000001214e-02 9.288004999999999711e+01 1.599815000000000055e+03
9.000000000000001055e-03 5.062950000000000506e-01 -2.902500000000000080e-01 9.243100000000001160e+01 1.599695000000000164e+03
1.000000000000000194e-02 5.061674999999999924e-01 -5.918100000000000582e-01 9.178119999999999834e+01 1.599529999999999973e+03
1.099999999999999936e-02 5.059899999999999398e-01 -1.010655000000000081e+00 9.088509999999999422e+01 1.599295000000000073e+03
1.200000000000000025e-02 5.057479999999999754e-01 -1.567124999999999879e+00 8.968215000000000714e+01 1.598974999999999909e+03
1.300000000000000114e-02 5.054480000000000084e-01 -2.233150000000000190e+00 8.816759999999999309e+01 1.598565000000000055e+03
1.400000000000000203e-02 5.051250000000000462e-01 -2.908145000000000202e+00 8.644134999999999991e+01 1.598090000000000146e+03
1.499999999999999944e-02 5.048249999999999682e-01 -3.460433500000000162e+00 8.467429999999998813e+01 1.597585000000000036e+03
1.600000000000000033e-02 5.045809999999999462e-01 -3.788994499999999821e+00 8.302924999999999045e+01 1.597090000000000146e+03
1.700000000000000122e-02 5.043980000000000130e-01 -3.858235499999999707e+00 8.159900000000000375e+01 1.596634999999999991e+03
1.800000000000000211e-02 5.042584999999999429e-01 -3.696508000000000127e+00 8.038745000000000118e+01 1.596224999999999909e+03
1.900000000000000300e-02 5.041330000000000533e-01 -3.372078000000000131e+00 7.932730000000000814e+01 1.595845000000000027e+03
2.000000000000000042e-02 5.039925000000000654e-01 -2.962378000000000178e+00 7.831700000000000728e+01 1.595474999999999909e+03
2.100000000000000130e-02 5.038179999999999881e-01 -2.527698000000000000e+00 7.726035000000000252e+01 1.595099999999999909e+03
2.200000000000000219e-02 5.036049999999999693e-01 -2.095771499999999676e+00 7.609819999999999141e+01 1.594700000000000045e+03
2.299999999999999961e-02 5.033615000000000173e-01 -1.660475000000000367e+00 7.482139999999999702e+01 1.594264999999999873e+03
2.400000000000000050e-02 5.031039999999999957e-01 -1.193394999999999984e+00 7.346469999999999345e+01 1.593815000000000055e+03
2.500000000000000139e-02 5.028494999999999493e-01 -6.625250000000000306e-01 7.208485000000000298e+01 1.593349999999999909e+03
2.600000000000000228e-02 5.026079999999999437e-01 -5.021000000000030994e-02 7.073409999999999798e+01 1.592890000000000100e+03
2.700000000000000316e-02 5.023809999999999665e-01 6.356450000000000156e-01 6.943819999999999482e+01 1.592445000000000164e+03
2.800000000000000058e-02 5.021590000000000220e-01 1.359464999999999923e+00 6.818550000000000466e+01 1.592000000000000000e+03
2.900000000000000147e-02 5.019255000000000244e-01 2.064095000000000013e+00 6.692749999999999488e+01 1.591559999999999945e+03
3.000000000000000236e-02 5.016604999999999537e-01 2.682580000000000187e+00 6.559109999999999729e+01 1.591105000000000018e+03
3.099999999999999978e-02 5.013480000000000159e-01 3.152785000000000171e+00 6.409669999999999845e+01 1.590615000000000009e+03
3.200000000000000067e-02 5.009789999999999521e-01 3.431259999999999533e+00 6.238030000000000541e+01 1.590065000000000055e+03
3.300000000000000155e-02 5.005519999999999969e-01 3.503134999999999888e+00 6.041199999999999903e+01 1.589454999999999927e+03
3.400000000000000244e-02 5.000799999999999690e-01 3.385264999999999525e+00 5.820775000000000432e+01 1.588789999999999964e+03
3.500000000000000333e-02 4.995820000000000261e-01 3.121459999999999901e+00 5.582849999999999824e+01 1.588070000000000164e+03
3.600000000000000422e-02 4.990829999999999433e-01 2.772844999999999782e+00 5.337109999999999843e+01 1.587320000000000164e+03
3.700000000000000511e-02 4.986079999999999957e-01 2.405144999999999644e+00 5.095145000000000124e+01 1.586579999999999927e+03
3.799999999999999906e-02 4.981790000000000385e-01 2.078555000000000152e+00 4.868715000000000259e+01 1.585869999999999891e+03
3.899999999999999994e-02 4.978130000000000610e-01 1.840525000000000411e+00 4.668309999999999604e+01 1.585230000000000018e+03
4.000000000000000083e-02 4.975199999999999623e-01 1.723065000000000069e+00 4.502185000000000059e+01 1.584679999999999836e+03
4.100000000000000172e-02 4.973064999999999847e-01 1.743585000000000163e+00 4.375969999999999516e+01 1.584230000000000018e+03
4.200000000000000261e-02 4.971720000000000028e-01 1.908235000000000126e+00 4.292740000000000578e+01 1.583909999999999854e+03
4.300000000000000350e-02 4.971165000000000167e-01 2.216385999999999967e+00 4.253494999999999493e+01 1.583715000000000146e+03
4.400000000000000439e-02 4.971364999999999812e-01 2.665094999999999992e+00 4.257774999999999466e+01 1.583644999999999982e+03
4.499999999999999833e-02 4.972294999999999909e-01 3.252485000000000070e+00 4.304339999999999833e+01 1.583715000000000146e+03
4.599999999999999922e-02 4.973940000000000028e-01 3.979439999999999866e+00 4.391689999999999827e+01 1.583905000000000200e+03
4.700000000000000011e-02 4.976289999999999880e-01 4.849464999999999471e+00 4.518389999999999418e+01 1.584224999999999909e+03
4.800000000000000100e-02 4.979325000000000001e-01 5.866970000000000240e+00 4.683100000000000307e+01 1.584664999999999964e+03
4.900000000000000189e-02 4.983040000000000247e-01 7.034799999999999720e+00 4.884420000000000073e+01 1.585220000000000027e+03
5.000000000000000278e-02 4.987405000000000310e-01 8.351625000000000298e+00 5.120664999999999623e+01 1.585884999999999991e+03
5.100000000000000366e-02 4.992369999999999863e-01 9.810230000000000672e+00 5.389555000000000007e+01 1.586659999999999854e+03
5.200000000000000455e-02 4.997865000000000224e-01 1.139665000000000106e+01 5.688070000000000448e+01 1.587529999999999973e+03
5.300000000000000544e-02 5.003819999999999935e-01 1.309086500000000086e+01 6.012404999999999688e+01 1.588480000000000018e+03
5.399999999999999939e-02 5.010130000000000416e-01 1.486782499999999985e+01 6.358060000000000400e+01 1.589509999999999991e+03
5.500000000000000028e-02 5.016694999999999904e-01 1.669987000000000066e+01 6.720080000000000098e+01 1.590599999999999909e+03
5.600000000000000117e-02 5.023425000000000251e-01 1.855861499999999964e+01 7.093354999999999677e+01 1.591735000000000127e+03
5.700000000000000205e-02 5.030225000000000390e-01 2.041729999999999734e+01 7.472934999999999661e+01 1.592909999999999854e+03
5.800000000000000294e-02 5.037019999999999831e-01 2.225229999999999819e+01 7.854349999999999454e+01 1.594094999999999800e+03
5.900000000000000383e-02 5.043760000000000465e-01 2.404429999999999978e+01 8.233834999999999127e+01 1.595289999999999964e+03
6.000000000000000472e-02 5.050390000000000157e-01 2.577870000000000061e+01 8.608474999999999966e+01 1.596480000000000018e+03
6.099999999999999867e-02 5.056905000000000427e-01 2.744570000000000221e+01 8.976335000000000264e+01 1.597650000000000091e+03
6.199999999999999956e-02 5.063284999999999592e-01 2.903945000000000221e+01 9.336189999999999145e+01 1.598815000000000055e+03
6.300000000000000044e-02 5.069540000000000157e-01 3.055780000000000030e+01 9.687805000000000177e+01 1.599960000000000036e+03
6.400000000000000133e-02 5.075674999999999493e-01 3.200099999999999767e+01 1.003139999999999930e+02 1.601085000000000036e+03
6.500000000000000222e-02 5.081710000000000393e-01 3.337115000000000009e+01 1.036778999999999940e+02 1.602184999999999945e+03
6.600000000000000311e-02 5.087669999999999693e-01 3.467150000000000176e+01 1.069795500000000033e+02 1.603279999999999973e+03
6.700000000000000400e-02 5.093569999999999487e-01 3.590545000000000186e+01 1.102309999999999945e+02 1.604355000000000018e+03
6.800000000000000488e-02 5.099424999999999653e-01 3.707630000000000337e+01 1.134420000000000073e+02 1.605414999999999964e+03
6.900000000000000577e-02 5.105245000000000477e-01 3.818645000000000067e+01 1.166214999999999975e+02 1.606465000000000146e+03
7.000000000000000666e-02 5.111045000000000726e-01 3.923709999999999809e+01 1.197749999999999915e+02 1.607515000000000100e+03
7.100000000000000755e-02 5.116804999999999826e-01 4.022809999999999775e+01 1.229050000000000011e+02 1.608554999999999836e+03
7.200000000000000844e-02 5.122524999999999995e-01 4.115775000000000006e+01 1.260070000000000050e+02 1.609585000000000036e+03
7.300000000000000933e-02 5.128184999999999549e-01 4.202280000000000371e+01 1.290734999999999957e+02 1.610605000000000018e+03
7.399999999999999634e-02 5.133754999999999846e-01 4.281874999999999432e+01 1.320935000000000059e+02 1.611610000000000127e+03
7.499999999999999722e-02 5.139200000000000434e-01 4.354025000000000034e+01 1.350504999999999995e+02 1.612599999999999909e+03
7.599999999999999811e-02 5.144489999999999341e-01 4.418134999999999479e+01 1.379275000000000091e+02 1.613565000000000055e+03
7.699999999999999900e-02 5.149595000000000145e-01 4.473610000000000042e+01 1.407050000000000125e+02 1.614505000000000109e+03
7.799999999999999989e-02 5.154465000000000297e-01 4.519920000000000471e+01 1.433645000000000209e+02 1.615405000000000200e+03
7.900000000000000078e-02 5.159084999999999921e-01 4.556595000000000084e+01 1.458874999999999886e+02 1.616269999999999982e+03
8.000000000000000167e-02 5.163420000000000787e-01 4.583290000000000219e+01 1.482570000000000050e+02 1.617085000000000036e+03
8.100000000000000255e-02 5.167454999999999687e-01 4.599765000000000015e+01 1.504599999999999795e+02 1.617855000000000018e+03
8.200000000000000344e-02 5.171160000000000201e-01 4.605955000000000155e+01 1.524859999999999900e+02 1.618569999999999936e+03
8.300000000000000433e-02 5.174539999999999695e-01 4.601899999999999835e+01 1.543265000000000100e+02 1.619220000000000027e+03
8.400000000000000522e-02 5.177579999999999405e-01 4.587815000000000509e+01 1.559795000000000016e+02 1.619820000000000164e+03
8.500000000000000611e-02 5.180289999999999617e-01 4.564029999999999632e+01 1.574435000000000002e+02 1.620355000000000018e+03
8.600000000000000699e-02 5.182664999999999633e-01 4.531024999999999636e+01 1.587210000000000036e+02 1.620829999999999927e+03
8.700000000000000788e-02 5.184729999999999617e-01 4.489400000000000546e+01 1.598195000000000050e+02 1.621250000000000000e+03
8.800000000000000877e-02 5.186494999999999855e-01 4.439884999999999593e+01 1.607475000000000023e+02 1.621605000000000018e+03
8.899999999999999578e-02 5.187979999999999814e-01 4.383315000000000339e+01 1.615160000000000196e+02 1.621914999999999964e+03
8.999999999999999667e-02 5.189215000000000355e-01 4.320629999999999882e+01 1.621394999999999982e+02 1.622170000000000073e+03
9.099999999999999756e-02 5.190225000000000533e-01 4.252824999999999989e+01 1.626340000000000146e+02 1.622384999999999991e+03
9.199999999999999845e-02 5.191044999999999687e-01 4.180970000000000653e+01 1.630155000000000030e+02 1.622554999999999836e+03
9.299999999999999933e-02 5.191704999999999792e-01 4.106130000000000280e+01 1.633020000000000209e+02 1.622690000000000055e+03
9.400000000000000022e-02 5.192234999999999490e-01 4.029364999999999952e+01 1.635120000000000005e+02 1.622795000000000073e+03
9.500000000000000111e-02 5.192660000000000053e-01 3.951680000000000348e+01 1.636620000000000061e+02 1.622880000000000109e+03
9.600000000000000200e-02 5.193014999999999715e-01 3.873980000000000246e+01 1.637680000000000007e+02 1.622940000000000055e+03
9.700000000000000289e-02 5.193315000000000570e-01 3.797055000000000291e+01 1.638439999999999941e+02 1.622990000000000009e+03
9.800000000000000377e-02 5.193590000000000151e-01 3.721535000000000082e+01 1.639025000000000034e+02 1.623025000000000091e+03
9.900000000000000466e-02 5.193840000000000678e-01 3.647879999999999967e+01 1.639515000000000100e+02 1.623054999999999836e+03
1.000000000000000056e-01 5.194075000000000220e-01 3.576380000000000337e+01 1.639975000000000023e+02 1.623079999999999927e+03
1.010000000000000064e-01 5.194305000000000172e-01 3.507140000000000413e+01 1.640425000000000182e+02 1.623099999999999909e+03
1.020000000000000073e-01 5.194520000000000248e-01 3.440094999999999459e+01 1.640860000000000127e+02 1.623119999999999891e+03
1.030000000000000082e-01 5.194710000000000161e-01 3.375050000000000239e+01 1.641260000000000048e+02 1.623134999999999991e+03
1.040000000000000091e-01 5.194864999999999622e-01 3.311675000000000324e+01 1.641560000000000059e+02 1.623144999999999982e+03
1.050000000000000100e-01 5.194974999999999454e-01 3.249559999999999604e+01 1.641705000000000041e+02 1.623155000000000200e+03
1.059999999999999970e-01 5.195024999999999782e-01 3.188230000000000075e+01 1.641595000000000084e+02 1.623144999999999982e+03
1.069999999999999979e-01 5.194995000000000029e-01 3.127185000000000059e+01 1.641159999999999854e+02 1.623139999999999873e+03
1.079999999999999988e-01 5.194864999999999622e-01 3.065939999999999799e+01 1.640305000000000177e+02 1.623115000000000009e+03
1.089999999999999997e-01 5.194644999999999957e-01 3.004025000000000034e+01 1.638965000000000032e+02 1.623070000000000164e+03
1.100000000000000006e-01 5.194300000000000583e-01 2.941035000000000110e+01 1.637060000000000173e+02 1.623019999999999982e+03
1.110000000000000014e-01 5.193839999999999568e-01 2.876635000000000275e+01 1.634544999999999959e+02 1.622945000000000164e+03
1.120000000000000023e-01 5.193250000000000366e-01 2.810575000000000045e+01 1.631384999999999934e+02 1.622849999999999909e+03
1.130000000000000032e-01 5.192539999999999933e-01 2.742719999999999914e+01 1.627560000000000002e+02 1.622735000000000127e+03
1.140000000000000041e-01 5.191704999999999792e-01 2.673039999999999949e+01 1.623084999999999809e+02 1.622605000000000018e+03
1.150000000000000050e-01 5.190755000000000230e-01 2.601624999999999943e+01 1.617995000000000232e+02 1.622450000000000045e+03
1.160000000000000059e-01 5.189705000000000013e-01 2.528674999999999784e+01 1.612334999999999923e+02 1.622279999999999973e+03
1.170000000000000068e-01 5.188574999999999715e-01 2.454495000000000005e+01 1.606175000000000068e+02 1.622085000000000036e+03
1.180000000000000077e-01 5.187370000000000037e-01 2.379504999999999981e+01 1.599604999999999961e+02 1.621884999999999991e+03
1.190000000000000085e-01 5.186119999999999619e-01 2.304185000000000016e+01 1.592735000000000127e+02 1.621670000000000073e+03
1.200000000000000094e-01 5.184845000000000148e-01 2.229095000000000226e+01 1.585679999999999836e+02 1.621449999999999818e+03
1.209999999999999964e-01 5.183569999999999567e-01 2.154820000000000135e+01 1.578555000000000064e+02 1.621224999999999909e+03
1.219999999999999973e-01 5.182309999999999972e-01 2.081990000000000052e+01 1.571480000000000246e+02 1.621000000000000000e+03
1.229999999999999982e-01 5.181095000000000006e-01 2.011214999999999975e+01 1.564590000000000032e+02 1.620775000000000091e+03
1.239999999999999991e-01 5.179934999999999956e-01 1.943074999999999974e+01 1.557990000000000066e+02 1.620559999999999945e+03
1.250000000000000000e-01 5.178854999999999986e-01 1.878115000000000023e+01 1.551779999999999973e+02 1.620355000000000018e+03
1.260000000000000009e-01 5.177874999999999561e-01 1.816809999999999903e+01 1.546059999999999945e+02 1.620164999999999964e+03
1.270000000000000018e-01 5.176994999999999791e-01 1.759534999999999982e+01 1.540900000000000034e+02 1.619990000000000009e+03
1.280000000000000027e-01 5.176235000000000142e-01 1.706585000000000107e+01 1.536345000000000027e+02 1.619825000000000045e+03
1.290000000000000036e-01 5.175589999999999913e-01 1.658140000000000214e+01 1.532439999999999998e+02 1.619684999999999945e+03
1.300000000000000044e-01 5.175060000000000215e-01 1.614274999999999949e+01 1.529184999999999945e+02 1.619565000000000055e+03
1.310000000000000053e-01 5.174644999999999939e-01 1.574970000000000070e+01 1.526574999999999989e+02 1.619460000000000036e+03
1.320000000000000062e-01 5.174334999999999907e-01 1.540085000000000193e+01 1.524585000000000150e+02 1.619380000000000109e+03
1.330000000000000071e-01 5.174130000000000118e-01 1.509409999999999918e+01 1.523165000000000191e+02 1.619315000000000055e+03
1.340000000000000080e-01 5.174000000000000821e-01 1.482654999999999923e+01 1.522255000000000109e+02 1.619269999999999982e+03
1.350000000000000089e-01 5.173949999999999383e-01 1.459464999999999968e+01 1.521784999999999854e+02 1.619240000000000009e+03
1.360000000000000098e-01 5.173955000000000082e-01 1.439460000000000051e+01 1.521680000000000064e+02 1.619220000000000027e+03
1.370000000000000107e-01 5.174005000000000409e-01 1.422224999999999895e+01 1.521870000000000118e+02 1.619210000000000036e+03
1.380000000000000115e-01 5.174084999999999379e-01 1.407359999999999900e+01 1.522264999999999873e+02 1.619204999999999927e+03
1.390000000000000124e-01 5.174185000000000034e-01 1.394454999999999956e+01 1.522800000000000011e+02 1.619215000000000146e+03
1.400000000000000133e-01 5.174289999999999168e-01 1.383140000000000036e+01 1.523404999999999916e+02 1.619224999999999909e+03
1.410000000000000142e-01 5.174395000000000522e-01 1.373075000000000045e+01 1.524029999999999916e+02 1.619235000000000127e+03
1.420000000000000151e-01 5.174495000000000067e-01 1.363954999999999984e+01 1.524615000000000009e+02 1.619250000000000000e+03
1.430000000000000160e-01 5.174575000000000147e-01 1.355529999999999902e+01 1.525140000000000100e+02 1.619259999999999991e+03
1.440000000000000169e-01 5.174634999999999652e-01 1.347585000000000122e+01 1.525570000000000164e+02 1.619269999999999982e+03
1.450000000000000178e-01 5.174674999999999692e-01 1.339949999999999974e+01 1.525885000000000105e+02 1.619275000000000091e+03
1.459999999999999909e-01 5.174699999999999855e-01 1.332505000000000095e+01 1.526094999999999970e+02 1.619284999999999854e+03
1.469999999999999918e-01 5.174704999999999444e-01 1.325164999999999971e+01 1.526189999999999998e+02 1.619279999999999973e+03
1.479999999999999927e-01 5.174684999999999979e-01 1.317879999999999896e+01 1.526184999999999832e+02 1.619279999999999973e+03
1.489999999999999936e-01 5.174659999999999815e-01 1.310630000000000095e+01 1.526090000000000089e+02 1.619279999999999973e+03
1.499999999999999944e-01 5.174625000000000474e-01 1.303415000000000035e+01 1.525929999999999893e+02 1.619275000000000091e+03
1.509999999999999953e-01 5.174579999999999735e-01 1.296265000000000001e+01 1.525720000000000027e+02 1.619269999999999982e+03
1.519999999999999962e-01 5.174535000000000107e-01 1.289219999999999899e+01 1.525480000000000018e+02 1.619259999999999991e+03
1.529999999999999971e-01 5.174489999999999368e-01 1.282315000000000005e+01 1.525229999999999961e+02 1.619255000000000109e+03
1.539999999999999980e-01 5.174449999999999328e-01 1.275624999999999964e+01 1.524995000000000118e+02 1.619244999999999891e+03
1.549999999999999989e-01 5.174414999999999987e-01 1.269175000000000075e+01 1.524789999999999850e+02 1.619240000000000009e+03
1.559999999999999998e-01 5.174395000000000522e-01 1.263025000000000020e+01 1.524624999999999773e+02 1.619230000000000018e+03
1.570000000000000007e-01 5.174374999999999947e-01 1.257189999999999941e+01 1.524510000000000218e+02 1.619230000000000018e+03
1.580000000000000016e-01 5.174374999999999947e-01 1.251695000000000135e+01 1.524454999999999814e+02 1.619224999999999909e+03
1.590000000000000024e-01 5.174379999999999535e-01 1.246529999999999916e+01 1.524449999999999932e+02 1.619224999999999909e+03
