# t [s], A [cm^2], U [cm/s], P [cPa], c [cm/s]
1.000000000000000021e-03 6.469000000000000306e-01 5.458200000000003327e-03 1.052129999999999939e+02 1.628404999999999973e+03
2.000000000000000042e-03 6.468895000000000062e-01 -6.556449999999998390e-04 1.051855000000000047e+02 1.628400000000000091e+03
3.000000000000000062e-03 6.469484999999999264e-01 1.009843500000000005e-01 1.052959999999999923e+02 1.628430000000000064e+03
4.000000000000000083e-03 6.469964999999999744e-01 1.949376389999999959e-01 1.054145000000000039e+02 1.628460000000000036e+03
5.000000000000000104e-03 6.469644999999999424e-01 1.607519500000000046e-01 1.053414999999999964e+02 1.628445000000000164e+03
6.000000000000000125e-03 6.468949999999999978e-01 5.709750000000002323e-02 1.051039999999999992e+02 1.628389999999999873e+03
7.000000000000000146e-03 6.468325000000000324e-01 -4.335749999999999327e-02 1.048004999999999995e+02 1.628319999999999936e+03
8.000000000000000167e-03 6.467309999999999448e-01 -2.243450000000000166e-01 1.043449999999999989e+02 1.628215000000000146e+03
9.000000000000001055e-03 6.465640000000000276e-01 -5.369800000000001239e-01 1.036465000000000032e+02 1.628055000000000064e+03
1.000000000000000194e-02 6.463284999999999725e-01 -9.815650000000000208e-01 1.026599500000000091e+02 1.627825000000000045e+03
1.099999999999999936e-02 6.460029999999999939e-01 -1.580015000000000169e+00 1.013167500000000132e+02 1.627505000000000109e+03
1.200000000000000025e-02 6.455785000000000551e-01 -2.330309999999999881e+00 9.956739999999999213e+01 1.627079999999999927e+03
1.300000000000000114e-02 6.450929999999999165e-01 -3.138875000000000082e+00 9.748820000000000618e+01 1.626570000000000164e+03
1.400000000000000203e-02 6.446190000000000531e-01 -3.840500000000000469e+00 9.528260000000000218e+01 1.626005000000000109e+03
1.499999999999999944e-02 6.442220000000000724e-01 -4.281870999999999761e+00 9.318874999999999886e+01 1.625445000000000164e+03
1.600000000000000033e-02 6.439259999999999984e-01 -4.388312500000000504e+00 9.137054999999999438e+01 1.624924999999999955e+03
1.700000000000000122e-02 6.437120000000000619e-01 -4.178012999999999977e+00 8.986779999999998836e+01 1.624469999999999800e+03
1.800000000000000211e-02 6.435329999999999107e-01 -3.735974000000000128e+00 8.860650000000001114e+01 1.624059999999999945e+03
1.900000000000000300e-02 6.433394999999999531e-01 -3.171342999999999801e+00 8.744650000000000034e+01 1.623670000000000073e+03
2.000000000000000042e-02 6.430940000000000545e-01 -2.576216500000000131e+00 8.624275000000000091e+01 1.623275000000000091e+03
2.100000000000000130e-02 6.427829999999999933e-01 -1.998155000000000125e+00 8.489770000000000039e+01 1.622855000000000018e+03
2.200000000000000219e-02 6.424199999999999910e-01 -1.434414999999999996e+00 8.338824999999999932e+01 1.622394999999999982e+03
2.299999999999999961e-02 6.420315000000000882e-01 -8.481350000000000833e-01 8.175865000000000293e+01 1.621904999999999973e+03
2.400000000000000050e-02 6.416455000000000908e-01 -1.970650000000002677e-01 8.008670000000000755e+01 1.621400000000000091e+03
2.500000000000000139e-02 6.412790000000000434e-01 5.391699999999999271e-01 7.844204999999999472e+01 1.620900000000000091e+03
2.600000000000000228e-02 6.409294999999999298e-01 1.343429999999999902e+00 7.685304999999999609e+01 1.620410000000000082e+03
2.700000000000000316e-02 6.405794999999999684e-01 2.160124999999999851e+00 7.529200000000000159e+01 1.619920000000000073e+03
2.800000000000000058e-02 6.401985000000000037e-01 2.906604999999999883e+00 7.368039999999999168e+01 1.619420000000000073e+03
2.900000000000000147e-02 6.397550000000000736e-01 3.492414999999999825e+00 7.190985000000000582e+01 1.618894999999999982e+03
3.000000000000000236e-02 6.392225000000000268e-01 3.841244999999999798e+00 6.987279999999999802e+01 1.618304999999999836e+03
3.099999999999999978e-02 6.385914999999999786e-01 3.909995000000000331e+00 6.749564999999999770e+01 1.617639999999999873e+03
3.200000000000000067e-02 6.378709999999999658e-01 3.700084999999999624e+00 6.476380000000000337e+01 1.616894999999999982e+03
3.300000000000000155e-02 6.370869999999999589e-01 3.256794999999999884e+00 6.173245000000000005e+01 1.616075000000000045e+03
3.400000000000000244e-02 6.362805000000000266e-01 2.658795000000000019e+00 5.851924999999999955e+01 1.615210000000000036e+03
3.500000000000000333e-02 6.354960000000000608e-01 2.000525000000000109e+00 5.528425000000000011e+01 1.614320000000000164e+03
3.600000000000000422e-02 6.347749999999999782e-01 1.375144999999999840e+00 5.220244999999999891e+01 1.613469999999999800e+03
3.700000000000000511e-02 6.341525000000000079e-01 8.611000000000004206e-01 4.943890000000000384e+01 1.612679999999999836e+03
3.799999999999999906e-02 6.336530000000000218e-01 5.151900000000000368e-01 4.712940000000000396e+01 1.612000000000000000e+03
3.899999999999999994e-02 6.332884999999999209e-01 3.712649999999997341e-01 4.537064999999999770e+01 1.611445000000000164e+03
4.000000000000000083e-02 6.330629999999999313e-01 4.437049999999997940e-01 4.421765000000000612e+01 1.611049999999999955e+03
4.100000000000000172e-02 6.329755000000000242e-01 7.333949999999999081e-01 4.368900000000000006e+01 1.610815000000000055e+03
4.200000000000000261e-02 6.330189999999999984e-01 1.234310000000000018e+00 4.377564999999999884e+01 1.610744999999999891e+03
4.300000000000000350e-02 6.331880000000000841e-01 1.939044999999999908e+00 4.445165000000000077e+01 1.610835000000000036e+03
4.400000000000000439e-02 6.334750000000000103e-01 2.842054999999999776e+00 4.568314999999999770e+01 1.611085000000000036e+03
4.499999999999999833e-02 6.338740000000000485e-01 3.940140500000000046e+00 4.743455000000000155e+01 1.611485000000000127e+03
4.599999999999999922e-02 6.343799999999999439e-01 5.230601500000000570e+00 4.967040000000000077e+01 1.612025000000000091e+03
4.700000000000000011e-02 6.349865000000000093e-01 6.708092500000000236e+00 5.235434999999999661e+01 1.612695000000000164e+03
4.800000000000000100e-02 6.356840000000000268e-01 8.361599999999999255e+00 5.544630000000000081e+01 1.613480000000000018e+03
4.900000000000000189e-02 6.364609999999999435e-01 1.017224500000000020e+01 5.889905000000000257e+01 1.614375000000000000e+03
5.000000000000000278e-02 6.373050000000000104e-01 1.211291499999999921e+01 6.265689999999999316e+01 1.615365000000000009e+03
5.100000000000000366e-02 6.381980000000000430e-01 1.414955499999999944e+01 6.665599999999999170e+01 1.616429999999999836e+03
5.200000000000000455e-02 6.391245000000000953e-01 1.624346500000000049e+01 7.082625000000000171e+01 1.617555000000000064e+03
5.300000000000000544e-02 6.400669999999999416e-01 1.835443499999999872e+01 7.509544999999999959e+01 1.618730000000000018e+03
5.399999999999999939e-02 6.410095000000000098e-01 2.044419999999999860e+01 7.939365000000000805e+01 1.619920000000000073e+03
5.500000000000000028e-02 6.419390000000000374e-01 2.247869999999999990e+01 8.365815000000000623e+01 1.621115000000000009e+03
5.600000000000000117e-02 6.428464999999999874e-01 2.443025000000000091e+01 8.783620000000000516e+01 1.622299999999999955e+03
5.700000000000000205e-02 6.437239999999999629e-01 2.627875000000000227e+01 9.188870000000000005e+01 1.623464999999999918e+03
5.800000000000000294e-02 6.445680000000000298e-01 2.801109999999999900e+01 9.579040000000000532e+01 1.624599999999999909e+03
5.900000000000000383e-02 6.453784999999999661e-01 2.962119999999999820e+01 9.953034999999999854e+01 1.625699999999999818e+03
6.000000000000000472e-02 6.461580000000000101e-01 3.110859999999999914e+01 1.031092999999999904e+02 1.626764999999999873e+03
6.099999999999999867e-02 6.469084999999999974e-01 3.247749999999999915e+01 1.065384999999999991e+02 1.627784999999999854e+03
6.199999999999999956e-02 6.476359999999999895e-01 3.373525000000000063e+01 1.098359999999999985e+02 1.628775000000000091e+03
6.300000000000000044e-02 6.483455000000000190e-01 3.489140000000000441e+01 1.130254999999999939e+02 1.629735000000000127e+03
6.400000000000000133e-02 6.490420000000000078e-01 3.595680000000000121e+01 1.161320000000000050e+02 1.630675000000000182e+03
6.500000000000000222e-02 6.497310000000000585e-01 3.694204999999999472e+01 1.191809999999999974e+02 1.631595000000000027e+03
6.600000000000000311e-02 6.504170000000000229e-01 3.785734999999999673e+01 1.221949999999999932e+02 1.632500000000000000e+03
6.700000000000000400e-02 6.511024999999999174e-01 3.871089999999999520e+01 1.251914999999999907e+02 1.633404999999999973e+03
6.800000000000000488e-02 6.517895000000000216e-01 3.950884999999999536e+01 1.281814999999999998e+02 1.634299999999999955e+03
6.900000000000000577e-02 6.524775000000000436e-01 4.025430000000000064e+01 1.311694999999999993e+02 1.635194999999999936e+03
7.000000000000000666e-02 6.531640000000000779e-01 4.094700000000000273e+01 1.341499999999999773e+02 1.636085000000000036e+03
7.100000000000000755e-02 6.538464999999999971e-01 4.158400000000000318e+01 1.371114999999999782e+02 1.636974999999999909e+03
7.200000000000000844e-02 6.545185000000000031e-01 4.215925000000000011e+01 1.400339999999999918e+02 1.637849999999999909e+03
7.300000000000000933e-02 6.551744999999999930e-01 4.266490000000000293e+01 1.428925000000000125e+02 1.638710000000000036e+03
7.399999999999999634e-02 6.558070000000000288e-01 4.309149999999999636e+01 1.456569999999999823e+02 1.639545000000000073e+03
7.499999999999999722e-02 6.564090000000000202e-01 4.342940000000000111e+01 1.482969999999999970e+02 1.640344999999999800e+03
7.599999999999999811e-02 6.569745000000000168e-01 4.366924999999999812e+01 1.507810000000000059e+02 1.641110000000000127e+03
7.699999999999999900e-02 6.574965000000000392e-01 4.380290000000000106e+01 1.530809999999999889e+02 1.641819999999999936e+03
7.799999999999999989e-02 6.579705000000000137e-01 4.382394999999999641e+01 1.551719999999999970e+02 1.642480000000000018e+03
7.900000000000000078e-02 6.583919999999999773e-01 4.372825000000000273e+01 1.570339999999999918e+02 1.643074999999999818e+03
8.000000000000000167e-02 6.587594999999999423e-01 4.351404999999999745e+01 1.586535000000000082e+02 1.643599999999999909e+03
8.100000000000000255e-02 6.590715000000000323e-01 4.318249999999999744e+01 1.600235000000000127e+02 1.644059999999999945e+03
8.200000000000000344e-02 6.593284999999999840e-01 4.273714999999999975e+01 1.611435000000000173e+02 1.644445000000000164e+03
8.300000000000000433e-02 6.595314999999999372e-01 4.218420000000000414e+01 1.620194999999999936e+02 1.644764999999999873e+03
8.400000000000000522e-02 6.596839999999999371e-01 4.153225000000000477e+01 1.626630000000000109e+02 1.645009999999999991e+03
8.500000000000000611e-02 6.597910000000000164e-01 4.079209999999999781e+01 1.630905000000000200e+02 1.645195000000000164e+03
8.600000000000000699e-02 6.598554999999999282e-01 3.997634999999999650e+01 1.633240000000000123e+02 1.645319999999999936e+03
8.700000000000000788e-02 6.598844999999999850e-01 3.909884999999999877e+01 1.633885000000000218e+02 1.645394999999999982e+03
8.800000000000000877e-02 6.598835000000000672e-01 3.817450000000000188e+01 1.633110000000000070e+02 1.645420000000000073e+03
8.899999999999999578e-02 6.598585000000000145e-01 3.721855000000000047e+01 1.631200000000000045e+02 1.645404999999999973e+03
8.999999999999999667e-02 6.598165000000000280e-01 3.624600000000000222e+01 1.628435000000000059e+02 1.645360000000000127e+03
9.099999999999999756e-02 6.597629999999999884e-01 3.527125000000000199e+01 1.625104999999999791e+02 1.645295000000000073e+03
9.199999999999999845e-02 6.597025000000000805e-01 3.430734999999999957e+01 1.621450000000000102e+02 1.645210000000000036e+03
9.299999999999999933e-02 6.596409999999999219e-01 3.336540000000000106e+01 1.617699999999999818e+02 1.645119999999999891e+03
9.400000000000000022e-02 6.595809999999999729e-01 3.245449999999999591e+01 1.614030000000000200e+02 1.645029999999999973e+03
9.500000000000000111e-02 6.595249999999999169e-01 3.158100000000000307e+01 1.610584999999999809e+02 1.644934999999999945e+03
9.600000000000000200e-02 6.594755000000001033e-01 3.074869999999999948e+01 1.607445000000000164e+02 1.644844999999999800e+03
9.700000000000000289e-02 6.594320000000000181e-01 2.995864999999999867e+01 1.604644999999999868e+02 1.644760000000000218e+03
9.800000000000000377e-02 6.593930000000000069e-01 2.920935000000000059e+01 1.602179999999999893e+02 1.644684999999999945e+03
9.900000000000000466e-02 6.593575000000000408e-01 2.849699999999999989e+01 1.599975000000000023e+02 1.644615000000000009e+03
1.000000000000000056e-01 6.593234999999999513e-01 2.781600000000000250e+01 1.597949999999999875e+02 1.644549999999999955e+03
1.010000000000000064e-01 6.592879999999999852e-01 2.715905000000000058e+01 1.595964999999999918e+02 1.644485000000000127e+03
1.020000000000000073e-01 6.592474999999999863e-01 2.651814999999999856e+01 1.593885000000000218e+02 1.644414999999999964e+03
1.030000000000000082e-01 6.591979999999999507e-01 2.588479999999999848e+01 1.591554999999999893e+02 1.644345000000000027e+03
1.040000000000000091e-01 6.591370000000000839e-01 2.525054999999999694e+01 1.588824999999999932e+02 1.644264999999999873e+03
1.050000000000000100e-01 6.590620000000000367e-01 2.460739999999999839e+01 1.585545000000000186e+02 1.644170000000000073e+03
1.059999999999999970e-01 6.589700000000000557e-01 2.394830000000000325e+01 1.581605000000000132e+02 1.644054999999999836e+03
1.069999999999999979e-01 6.588589999999999725e-01 2.326764999999999972e+01 1.576899999999999977e+02 1.643924999999999955e+03
1.079999999999999988e-01 6.587285000000000501e-01 2.256130000000000280e+01 1.571354999999999791e+02 1.643769999999999982e+03
1.089999999999999997e-01 6.585779999999999967e-01 2.182690000000000197e+01 1.564950000000000045e+02 1.643599999999999909e+03
1.100000000000000006e-01 6.584079999999999933e-01 2.106400000000000006e+01 1.557690000000000055e+02 1.643400000000000091e+03
1.110000000000000014e-01 6.582204999999999862e-01 2.027439999999999998e+01 1.549615000000000009e+02 1.643174999999999955e+03
1.120000000000000023e-01 6.580175000000000329e-01 1.946134999999999948e+01 1.540805000000000007e+02 1.642934999999999945e+03
1.130000000000000032e-01 6.578009999999999691e-01 1.863029999999999831e+01 1.531380000000000052e+02 1.642670000000000073e+03
1.140000000000000041e-01 6.575755000000000905e-01 1.778784999999999883e+01 1.521474999999999795e+02 1.642394999999999982e+03
1.150000000000000050e-01 6.573444999999999983e-01 1.694219999999999970e+01 1.511260000000000048e+02 1.642110000000000127e+03
1.160000000000000059e-01 6.571124999999999883e-01 1.610215000000000174e+01 1.500910000000000082e+02 1.641815000000000055e+03
1.170000000000000068e-01 6.568834999999999535e-01 1.527708999999999939e+01 1.490614999999999952e+02 1.641519999999999982e+03
1.180000000000000077e-01 6.566615000000000091e-01 1.447650499999999951e+01 1.480564999999999998e+02 1.641230000000000018e+03
1.190000000000000085e-01 6.564505000000000479e-01 1.370945999999999998e+01 1.470935000000000059e+02 1.640950000000000045e+03
1.200000000000000094e-01 6.562544999999999629e-01 1.298437500000000000e+01 1.461890000000000214e+02 1.640679999999999836e+03
1.209999999999999964e-01 6.560749999999999638e-01 1.230849999999999866e+01 1.453569999999999993e+02 1.640429999999999836e+03
1.219999999999999973e-01 6.559154999999999847e-01 1.168783999999999956e+01 1.446089999999999804e+02 1.640204999999999927e+03
1.229999999999999982e-01 6.557775000000000132e-01 1.112667499999999876e+01 1.439519999999999982e+02 1.639994999999999891e+03
1.239999999999999991e-01 6.556604999999999794e-01 1.062772000000000006e+01 1.433919999999999959e+02 1.639809999999999945e+03
1.250000000000000000e-01 6.555655000000000232e-01 1.019194500000000048e+01 1.429304999999999950e+02 1.639659999999999854e+03
1.260000000000000009e-01 6.554910000000000458e-01 9.818464999999999776e+00 1.425640000000000214e+02 1.639529999999999973e+03
1.270000000000000018e-01 6.554360000000000186e-01 9.504974999999999952e+00 1.422884999999999991e+02 1.639429999999999836e+03
1.280000000000000027e-01 6.553990000000000649e-01 9.247630000000000905e+00 1.420949999999999989e+02 1.639349999999999909e+03
1.290000000000000036e-01 6.553759999999999586e-01 9.041479999999999961e+00 1.419749999999999943e+02 1.639295000000000073e+03
1.300000000000000044e-01 6.553660000000000041e-01 8.880749999999999034e+00 1.419159999999999968e+02 1.639259999999999991e+03
1.310000000000000053e-01 6.553655000000000452e-01 8.758859999999998536e+00 1.419055000000000177e+02 1.639235000000000127e+03
1.320000000000000062e-01 6.553714999999999957e-01 8.669184999999998809e+00 1.419309999999999832e+02 1.639224999999999909e+03
1.330000000000000071e-01 6.553809999999999913e-01 8.604839999999999378e+00 1.419805000000000064e+02 1.639224999999999909e+03
1.340000000000000080e-01 6.553925000000000445e-01 8.559229999999999450e+00 1.420409999999999968e+02 1.639224999999999909e+03
1.350000000000000089e-01 6.554035000000000277e-01 8.526139999999999830e+00 1.421024999999999920e+02 1.639235000000000127e+03
1.360000000000000098e-01 6.554109999999999658e-01 8.499930000000000874e+00 1.421560000000000059e+02 1.639244999999999891e+03
1.370000000000000107e-01 6.554150000000000809e-01 8.475639999999998508e+00 1.421929999999999836e+02 1.639244999999999891e+03
1.380000000000000115e-01 6.554135000000000932e-01 8.449070000000000746e+00 1.422085000000000150e+02 1.639244999999999891e+03
1.390000000000000124e-01 6.554059999999999331e-01 8.416840000000000543e+00 1.421979999999999791e+02 1.639244999999999891e+03
1.400000000000000133e-01 6.553919999999999746e-01 8.376384999999999081e+00 1.421594999999999800e+02 1.639224999999999909e+03
1.410000000000000142e-01 6.553724999999999135e-01 8.325939999999999230e+00 1.420910000000000082e+02 1.639210000000000036e+03
1.420000000000000151e-01 6.553459999999999841e-01 8.264520000000000977e+00 1.419939999999999998e+02 1.639184999999999945e+03
1.430000000000000160e-01 6.553139999999999521e-01 8.191834999999999312e+00 1.418704999999999927e+02 1.639150000000000091e+03
1.440000000000000169e-01 6.552774999999999572e-01 8.108249999999999957e+00 1.417224999999999966e+02 1.639109999999999900e+03
1.450000000000000178e-01 6.552364999999999995e-01 8.014665000000000816e+00 1.415534999999999854e+02 1.639065000000000055e+03
1.459999999999999909e-01 6.551919999999999966e-01 7.912454999999999572e+00 1.413679999999999950e+02 1.639014999999999873e+03
1.469999999999999918e-01 6.551460000000000061e-01 7.803345000000000198e+00 1.411705000000000041e+02 1.638964999999999918e+03
1.479999999999999927e-01 6.550989999999999869e-01 7.689299999999999358e+00 1.409650000000000034e+02 1.638904999999999973e+03
1.489999999999999936e-01 6.550515000000000088e-01 7.572404999999999831e+00 1.407565000000000168e+02 1.638849999999999909e+03
1.499999999999999944e-01 6.550050000000000594e-01 7.454765000000000086e+00 1.405480000000000018e+02 1.638789999999999964e+03
1.509999999999999953e-01 6.549599999999999866e-01 7.338385000000000602e+00 1.403449999999999989e+02 1.638734999999999900e+03
1.519999999999999962e-01 6.549165000000000125e-01 7.225054999999999339e+00 1.401490000000000009e+02 1.638674999999999955e+03
1.529999999999999971e-01 6.548760000000000137e-01 7.116295000000000037e+00 1.399629999999999939e+02 1.638625000000000000e+03
1.539999999999999980e-01 6.548384999999999900e-01 7.013259999999999827e+00 1.397880000000000109e+02 1.638570000000000164e+03
1.549999999999999989e-01 6.548030000000000239e-01 6.916735000000000966e+00 1.396250000000000000e+02 1.638519999999999982e+03
1.559999999999999998e-01 6.547704999999999220e-01 6.827094999999999914e+00 1.394739999999999895e+02 1.638480000000000018e+03
1.570000000000000007e-01 6.547404999999999475e-01 6.744335000000000413e+00 1.393340000000000032e+02 1.638434999999999945e+03
1.580000000000000016e-01 6.547125000000000306e-01 6.668134999999999479e+00 1.392024999999999864e+02 1.638394999999999982e+03
1.590000000000000024e-01 6.546849999999999614e-01 6.597895000000000287e+00 1.390780000000000030e+02 1.638359999999999900e+03
