# t [s], A [cm^2], U [cm/s], P [cPa], c [cm/s]
1.000000000000000021e-03 1.733104999999999785e-01 1.412338999999999956e-01 1.017955000000000041e+02 2.130635000000000218e+03
2.000000000000000042e-03 1.732765000000000000e-01 1.470041500000000001e+00 9.893860000000000809e+01 2.130300000000000182e+03
3.000000000000000062e-03 1.731685000000000030e-01 3.209327999999999737e+00 9.480760000000000787e+01 2.129300000000000182e+03
4.000000000000000083e-03 1.730114999999999847e-01 5.204288000000000025e+00 8.995400000000000773e+01 2.127869999999999891e+03
5.000000000000000104e-03 1.728345000000000020e-01 7.391244999999999621e+00 8.522579999999999245e+01 2.126284999999999854e+03
6.000000000000000125e-03 1.726594999999999935e-01 9.644674999999999443e+00 8.111650000000000205e+01 2.124724999999999909e+03
7.000000000000000146e-03 1.724930000000000074e-01 1.176234499999999983e+01 7.760314999999999941e+01 2.123265000000000327e+03
8.000000000000000167e-03 1.723379999999999912e-01 1.359753500000000059e+01 7.444884999999999309e+01 2.121934999999999945e+03
9.000000000000001055e-03 1.721975000000000033e-01 1.513975000000000115e+01 7.161395000000000266e+01 2.120750000000000000e+03
1.000000000000000194e-02 1.720765000000000211e-01 1.642595000000000027e+01 6.919284999999999286e+01 2.119739999999999782e+03
1.099999999999999936e-02 1.719745000000000024e-01 1.748055000000000092e+01 6.722460000000000946e+01 2.118894999999999982e+03
1.200000000000000025e-02 1.718930000000000180e-01 1.832225000000000037e+01 6.568614999999999782e+01 2.118224999999999909e+03
1.300000000000000114e-02 1.718279999999999808e-01 1.896020000000000039e+01 6.450750000000000739e+01 2.117704999999999927e+03
1.400000000000000203e-02 1.717764999999999986e-01 1.939179999999999993e+01 6.356240000000000379e+01 2.117300000000000182e+03
1.499999999999999944e-02 1.717334999999999834e-01 1.963734999999999786e+01 6.274369999999999692e+01 2.116970000000000255e+03
1.600000000000000033e-02 1.717004999999999781e-01 1.977795000000000059e+01 6.209815000000000396e+01 2.116719999999999800e+03
1.700000000000000122e-02 1.716810000000000003e-01 1.994729999999999848e+01 6.186549999999999727e+01 2.116574999999999818e+03
1.800000000000000211e-02 1.716840000000000033e-01 2.027220000000000155e+01 6.235524999999999807e+01 2.116609999999999673e+03
1.900000000000000300e-02 1.717144999999999921e-01 2.080884999999999962e+01 6.374765000000000015e+01 2.116864999999999782e+03
2.000000000000000042e-02 1.717710000000000070e-01 2.151445000000000007e+01 6.595595000000000141e+01 2.117340000000000146e+03
2.100000000000000130e-02 1.718474999999999864e-01 2.226760000000000161e+01 6.862709999999999866e+01 2.117970000000000255e+03
2.200000000000000219e-02 1.719295000000000129e-01 2.291955000000000098e+01 7.126509999999998968e+01 2.118670000000000073e+03
2.299999999999999961e-02 1.720039999999999902e-01 2.334935000000000116e+01 7.340385000000000559e+01 2.119324999999999818e+03
2.400000000000000050e-02 1.720625000000000071e-01 2.350100000000000122e+01 7.475174999999998704e+01 2.119835000000000036e+03
2.500000000000000139e-02 1.720984999999999876e-01 2.339144999999999897e+01 7.525754999999999484e+01 2.120164999999999964e+03
2.600000000000000228e-02 1.721145000000000036e-01 2.309264999999999901e+01 7.508644999999999925e+01 2.120324999999999818e+03
2.700000000000000316e-02 1.721149999999999902e-01 2.269764999999999944e+01 7.452705000000000268e+01 2.120349999999999909e+03
2.800000000000000058e-02 1.721079999999999832e-01 2.228535000000000110e+01 7.387375000000000114e+01 2.120295000000000073e+03
2.900000000000000147e-02 1.720980000000000010e-01 2.189589999999999748e+01 7.332634999999999081e+01 2.120215000000000146e+03
3.000000000000000236e-02 1.720889999999999920e-01 2.152425000000000210e+01 7.294004999999999939e+01 2.120135000000000218e+03
3.099999999999999978e-02 1.720804999999999974e-01 2.112959999999999994e+01 7.263200000000000500e+01 2.120064999999999600e+03
3.200000000000000067e-02 1.720694999999999864e-01 2.065695000000000192e+01 7.223574999999999591e+01 2.119974999999999909e+03
3.300000000000000155e-02 1.720510000000000095e-01 2.006220000000000070e+01 7.157939999999999259e+01 2.119824999999999818e+03
3.400000000000000244e-02 1.720229999999999815e-01 1.933350000000000080e+01 7.056239999999999668e+01 2.119599999999999909e+03
3.500000000000000333e-02 1.719844999999999846e-01 1.850140000000000029e+01 6.920689999999999031e+01 2.119284999999999854e+03
3.600000000000000422e-02 1.719384999999999941e-01 1.763609999999999900e+01 6.766734999999999900e+01 2.118909999999999854e+03
3.700000000000000511e-02 1.718915000000000026e-01 1.683115000000000094e+01 6.619670000000000698e+01 2.118514999999999873e+03
3.799999999999999906e-02 1.718510000000000038e-01 1.618025000000000091e+01 6.507925000000000182e+01 2.118164999999999964e+03
3.899999999999999994e-02 1.718240000000000045e-01 1.575369999999999848e+01 6.455419999999999447e+01 2.117925000000000182e+03
4.000000000000000083e-02 1.718169999999999975e-01 1.558180000000000121e+01 6.475300000000000011e+01 2.117845000000000255e+03
4.100000000000000172e-02 1.718299999999999828e-01 1.564965000000000117e+01 6.566755000000000564e+01 2.117940000000000055e+03
4.200000000000000261e-02 1.718629999999999880e-01 1.590249999999999986e+01 6.715545000000000186e+01 2.118195000000000164e+03
4.300000000000000350e-02 1.719100000000000072e-01 1.625924999999999798e+01 6.897520000000000095e+01 2.118574999999999818e+03
4.400000000000000439e-02 1.719644999999999924e-01 1.662915000000000276e+01 7.083944999999999936e+01 2.119025000000000091e+03
4.499999999999999833e-02 1.720174999999999899e-01 1.692804999999999893e+01 7.247014999999998963e+01 2.119474999999999909e+03
4.599999999999999922e-02 1.720614999999999783e-01 1.709029999999999916e+01 7.364430000000000121e+01 2.119855000000000018e+03
4.700000000000000011e-02 1.720920000000000227e-01 1.707495000000000118e+01 7.422169999999999845e+01 2.120114999999999782e+03
4.800000000000000100e-02 1.721040000000000070e-01 1.686664999999999992e+01 7.415229999999999677e+01 2.120234999999999673e+03
4.900000000000000189e-02 1.720975000000000144e-01 1.647105000000000175e+01 7.346519999999999584e+01 2.120190000000000055e+03
5.000000000000000278e-02 1.720734999999999904e-01 1.590800000000000125e+01 7.224559999999999604e+01 2.120000000000000000e+03
5.100000000000000366e-02 1.720329999999999915e-01 1.520465000000000089e+01 7.060689999999999600e+01 2.119670000000000073e+03
5.200000000000000455e-02 1.719799999999999940e-01 1.438860000000000028e+01 6.866585000000000605e+01 2.119230000000000018e+03
5.300000000000000544e-02 1.719175000000000009e-01 1.348489999999999966e+01 6.652460000000000662e+01 2.118710000000000036e+03
5.399999999999999939e-02 1.718469999999999998e-01 1.251479499999999945e+01 6.426345000000000596e+01 2.118119999999999891e+03
5.500000000000000028e-02 1.717719999999999803e-01 1.149692999999999898e+01 6.194154999999999234e+01 2.117485000000000127e+03
5.600000000000000117e-02 1.716944999999999999e-01 1.044984999999999964e+01 5.960474999999999568e+01 2.116829999999999927e+03
5.700000000000000205e-02 1.716155000000000042e-01 9.394334999999999880e+00 5.729560000000000031e+01 2.116170000000000073e+03
5.800000000000000294e-02 1.715369999999999950e-01 8.355789999999998940e+00 5.506329999999999814e+01 2.115505000000000109e+03
5.900000000000000383e-02 1.714610000000000023e-01 7.364974999999999383e+00 5.296954999999999814e+01 2.114859999999999673e+03
6.000000000000000472e-02 1.713905000000000012e-01 6.457300000000000040e+00 5.109064999999999657e+01 2.114260000000000218e+03
6.099999999999999867e-02 1.713275000000000214e-01 5.671255000000000379e+00 4.951444999999999652e+01 2.113720000000000255e+03
6.199999999999999956e-02 1.712755000000000249e-01 5.045514999999999972e+00 4.833389999999999986e+01 2.113275000000000091e+03
6.300000000000000044e-02 1.712374999999999869e-01 4.615854999999999819e+00 4.763799999999999812e+01 2.112934999999999945e+03
6.400000000000000133e-02 1.712159999999999793e-01 4.412205000000000155e+00 4.750284999999999513e+01 2.112739999999999782e+03
6.500000000000000222e-02 1.712134999999999907e-01 4.456184999999999619e+00 4.798369999999999891e+01 2.112699999999999818e+03
6.600000000000000311e-02 1.712315000000000087e-01 4.759584999999999511e+00 4.910975000000000534e+01 2.112835000000000036e+03
6.700000000000000400e-02 1.712704999999999922e-01 5.323710000000000164e+00 5.088160000000000593e+01 2.113144999999999982e+03
6.800000000000000488e-02 1.713314999999999977e-01 6.139669999999999739e+00 5.327179999999999893e+01 2.113635000000000218e+03
6.900000000000000577e-02 1.714125000000000232e-01 7.189420000000000144e+00 5.622820000000000107e+01 2.114300000000000182e+03
7.000000000000000666e-02 1.715125000000000122e-01 8.447364999999999569e+00 5.967849999999999966e+01 2.115119999999999891e+03
7.100000000000000755e-02 1.716285000000000172e-01 9.882245000000001056e+00 6.353654999999999831e+01 2.116090000000000146e+03
7.200000000000000844e-02 1.717585000000000084e-01 1.145945500000000017e+01 6.770910000000000650e+01 2.117175000000000182e+03
7.300000000000000933e-02 1.718989999999999962e-01 1.314307499999999962e+01 7.210219999999999629e+01 2.118360000000000127e+03
7.399999999999999634e-02 1.720475000000000199e-01 1.489809999999999945e+01 7.662745000000001028e+01 2.119610000000000127e+03
7.499999999999999722e-02 1.722009999999999930e-01 1.669209999999999994e+01 8.120680000000000121e+01 2.120909999999999854e+03
7.599999999999999811e-02 1.723569999999999824e-01 1.849694999999999823e+01 8.577670000000000528e+01 2.122234999999999673e+03
7.699999999999999900e-02 1.725145000000000151e-01 2.028934999999999889e+01 9.029005000000000791e+01 2.123574999999999818e+03
7.799999999999999989e-02 1.726705000000000045e-01 2.205160000000000053e+01 9.471680000000000632e+01 2.124909999999999854e+03
7.900000000000000078e-02 1.728244999999999920e-01 2.377120000000000033e+01 9.904194999999999993e+01 2.126224999999999909e+03
8.000000000000000167e-02 1.729765000000000053e-01 2.544019999999999726e+01 1.032649499999999989e+02 2.127529999999999745e+03
8.100000000000000255e-02 1.731254999999999877e-01 2.705450000000000088e+01 1.073924499999999966e+02 2.128814999999999600e+03
8.200000000000000344e-02 1.732730000000000103e-01 2.861214999999999975e+01 1.114369999999999976e+02 2.130085000000000036e+03
8.300000000000000433e-02 1.734175000000000022e-01 3.011274999999999835e+01 1.154129999999999967e+02 2.131335000000000036e+03
8.400000000000000522e-02 1.735599999999999921e-01 3.155644999999999811e+01 1.193305000000000007e+02 2.132569999999999709e+03
8.500000000000000611e-02 1.737004999999999799e-01 3.294275000000000375e+01 1.231970000000000027e+02 2.133789999999999964e+03
8.600000000000000699e-02 1.738399999999999945e-01 3.427065000000000339e+01 1.270130000000000052e+02 2.134989999999999782e+03
8.700000000000000788e-02 1.739775000000000071e-01 3.553804999999999836e+01 1.307729999999999961e+02 2.136185000000000400e+03
8.800000000000000877e-02 1.741125000000000034e-01 3.674219999999999686e+01 1.344669999999999845e+02 2.137364999999999782e+03
8.899999999999999578e-02 1.742454999999999976e-01 3.787950000000000017e+01 1.380805000000000007e+02 2.138514999999999873e+03
8.999999999999999667e-02 1.743755000000000166e-01 3.894580000000000553e+01 1.415960000000000036e+02 2.139650000000000091e+03
9.099999999999999756e-02 1.745015000000000038e-01 3.993665000000000020e+01 1.449950000000000045e+02 2.140750000000000000e+03
9.199999999999999845e-02 1.746240000000000014e-01 4.084740000000000038e+01 1.482574999999999932e+02 2.141824999999999818e+03
9.299999999999999933e-02 1.747414999999999941e-01 4.167314999999999969e+01 1.513650000000000091e+02 2.142850000000000364e+03
9.400000000000000022e-02 1.748534999999999950e-01 4.240904999999999347e+01 1.542975000000000136e+02 2.143829999999999927e+03
9.500000000000000111e-02 1.749594999999999900e-01 4.304994999999999550e+01 1.570364999999999895e+02 2.144760000000000218e+03
9.600000000000000200e-02 1.750579999999999914e-01 4.359090000000000487e+01 1.595645000000000095e+02 2.145630000000000109e+03
9.700000000000000289e-02 1.751500000000000001e-01 4.402705000000000268e+01 1.618640000000000043e+02 2.146434999999999945e+03
9.800000000000000377e-02 1.752334999999999865e-01 4.435394999999999754e+01 1.639184999999999945e+02 2.147175000000000182e+03
9.900000000000000466e-02 1.753085000000000060e-01 4.456815000000000282e+01 1.657144999999999868e+02 2.147840000000000146e+03
1.000000000000000056e-01 1.753744999999999887e-01 4.466719999999999402e+01 1.672420000000000186e+02 2.148425000000000182e+03
1.010000000000000064e-01 1.754310000000000036e-01 4.465035000000000309e+01 1.684950000000000045e+02 2.148930000000000291e+03
1.020000000000000073e-01 1.754784999999999817e-01 4.451865000000000094e+01 1.694714999999999918e+02 2.149355000000000018e+03
1.030000000000000082e-01 1.755160000000000053e-01 4.427554999999999552e+01 1.701769999999999925e+02 2.149694999999999709e+03
1.040000000000000091e-01 1.755444999999999922e-01 4.392645000000000266e+01 1.706220000000000141e+02 2.149954999999999927e+03
1.050000000000000100e-01 1.755634999999999835e-01 4.347920000000000584e+01 1.708240000000000123e+02 2.150135000000000218e+03
1.059999999999999970e-01 1.755750000000000088e-01 4.294339999999999691e+01 1.708044999999999902e+02 2.150239999999999782e+03
1.069999999999999979e-01 1.755780000000000118e-01 4.233044999999999902e+01 1.705900000000000034e+02 2.150275000000000091e+03
1.079999999999999988e-01 1.755745000000000222e-01 4.165259999999999962e+01 1.702099999999999795e+02 2.150255000000000109e+03
1.089999999999999997e-01 1.755654999999999855e-01 4.092284999999999684e+01 1.696955000000000098e+02 2.150184999999999945e+03
1.100000000000000006e-01 1.755510000000000126e-01 4.015435000000000088e+01 1.690765000000000100e+02 2.150065000000000055e+03
1.110000000000000014e-01 1.755329999999999946e-01 3.935960000000000036e+01 1.683824999999999932e+02 2.149914999999999964e+03
1.120000000000000023e-01 1.755120000000000013e-01 3.855044999999999789e+01 1.676394999999999982e+02 2.149739999999999782e+03
1.130000000000000032e-01 1.754894999999999927e-01 3.773749999999999716e+01 1.668714999999999975e+02 2.149545000000000073e+03
1.140000000000000041e-01 1.754654999999999965e-01 3.692974999999999852e+01 1.660964999999999918e+02 2.149335000000000036e+03
1.150000000000000050e-01 1.754404999999999992e-01 3.613459999999999894e+01 1.653294999999999959e+02 2.149114999999999782e+03
1.160000000000000059e-01 1.754155000000000020e-01 3.535739999999999839e+01 1.645805000000000007e+02 2.148900000000000091e+03
1.170000000000000068e-01 1.753905000000000047e-01 3.460179999999999723e+01 1.638534999999999968e+02 2.148680000000000291e+03
1.180000000000000077e-01 1.753659999999999941e-01 3.386924999999999386e+01 1.631500000000000057e+02 2.148465000000000146e+03
1.190000000000000085e-01 1.753419999999999979e-01 3.315950000000000131e+01 1.624660000000000082e+02 2.148255000000000109e+03
1.200000000000000094e-01 1.753180000000000016e-01 3.247060000000000457e+01 1.617934999999999945e+02 2.148039999999999964e+03
1.209999999999999964e-01 1.752944999999999920e-01 3.179905000000000115e+01 1.611220000000000141e+02 2.147829999999999927e+03
1.219999999999999973e-01 1.752699999999999814e-01 3.114010000000000034e+01 1.604379999999999882e+02 2.147619999999999891e+03
1.229999999999999982e-01 1.752454999999999985e-01 3.048829999999999885e+01 1.597264999999999873e+02 2.147404999999999745e+03
1.239999999999999991e-01 1.752195000000000003e-01 2.983740000000000236e+01 1.589724999999999966e+02 2.147175000000000182e+03
1.250000000000000000e-01 1.751920000000000144e-01 2.918120000000000047e+01 1.581605000000000132e+02 2.146934999999999945e+03
1.260000000000000009e-01 1.751619999999999844e-01 2.851375000000000171e+01 1.572754999999999939e+02 2.146675000000000182e+03
1.270000000000000018e-01 1.751304999999999945e-01 2.782970000000000255e+01 1.563059999999999832e+02 2.146394999999999982e+03
1.280000000000000027e-01 1.750950000000000006e-01 2.712460000000000093e+01 1.552429999999999950e+02 2.146090000000000146e+03
1.290000000000000036e-01 1.750569999999999904e-01 2.639544999999999675e+01 1.540809999999999889e+02 2.145760000000000218e+03
1.300000000000000044e-01 1.750154999999999905e-01 2.564065000000000083e+01 1.528179999999999836e+02 2.145399999999999636e+03
1.310000000000000053e-01 1.749705000000000010e-01 2.486030000000000229e+01 1.514569999999999936e+02 2.145014999999999873e+03
1.320000000000000062e-01 1.749225000000000085e-01 2.405624999999999858e+01 1.500054999999999836e+02 2.144595000000000255e+03
1.330000000000000071e-01 1.748709999999999987e-01 2.323215000000000074e+01 1.484755000000000109e+02 2.144149999999999636e+03
1.340000000000000080e-01 1.748175000000000145e-01 2.239339999999999975e+01 1.468824999999999932e+02 2.143690000000000055e+03
1.350000000000000089e-01 1.747620000000000007e-01 2.154655000000000342e+01 1.452470000000000141e+02 2.143204999999999927e+03
1.360000000000000098e-01 1.747049999999999992e-01 2.069969999999999999e+01 1.435894999999999868e+02 2.142715000000000146e+03
1.370000000000000107e-01 1.746469999999999967e-01 1.986129999999999995e+01 1.419345000000000141e+02 2.142215000000000146e+03
1.380000000000000115e-01 1.745895000000000086e-01 1.904064999999999941e+01 1.403070000000000164e+02 2.141715000000000146e+03
1.390000000000000124e-01 1.745329999999999937e-01 1.824660000000000082e+01 1.387295000000000016e+02 2.141224999999999909e+03
1.400000000000000133e-01 1.744779999999999942e-01 1.748785000000000167e+01 1.372239999999999895e+02 2.140744999999999891e+03
1.410000000000000142e-01 1.744255000000000111e-01 1.677199999999999847e+01 1.358109999999999786e+02 2.140284999999999854e+03
1.420000000000000151e-01 1.743760000000000032e-01 1.610569999999999879e+01 1.345049999999999955e+02 2.139850000000000364e+03
1.430000000000000160e-01 1.743294999999999983e-01 1.549404999999999966e+01 1.333185000000000002e+02 2.139449999999999818e+03
1.440000000000000169e-01 1.742875000000000119e-01 1.494059999999999988e+01 1.322585000000000264e+02 2.139079999999999927e+03
1.450000000000000178e-01 1.742500000000000160e-01 1.444744999999999990e+01 1.313294999999999959e+02 2.138750000000000000e+03
1.459999999999999909e-01 1.742160000000000097e-01 1.401490000000000080e+01 1.305305000000000177e+02 2.138454999999999927e+03
1.469999999999999918e-01 1.741870000000000085e-01 1.364189999999999969e+01 1.298559999999999945e+02 2.138190000000000055e+03
1.479999999999999927e-01 1.741619999999999835e-01 1.332620000000000005e+01 1.293009999999999877e+02 2.137965000000000146e+03
1.489999999999999936e-01 1.741405000000000036e-01 1.306434999999999924e+01 1.288545000000000016e+02 2.137780000000000200e+03
1.499999999999999944e-01 1.741234999999999866e-01 1.285200000000000031e+01 1.285055000000000121e+02 2.137619999999999891e+03
1.509999999999999953e-01 1.741090000000000138e-01 1.268420000000000059e+01 1.282425000000000068e+02 2.137489999999999782e+03
1.519999999999999962e-01 1.740974999999999884e-01 1.255569999999999986e+01 1.280519999999999925e+02 2.137394999999999982e+03
1.529999999999999971e-01 1.740889999999999938e-01 1.246085000000000065e+01 1.279209999999999923e+02 2.137315000000000055e+03
1.539999999999999980e-01 1.740825000000000011e-01 1.239405000000000001e+01 1.278384999999999962e+02 2.137250000000000000e+03
1.549999999999999989e-01 1.740774999999999961e-01 1.234989999999999988e+01 1.277920000000000016e+02 2.137204999999999927e+03
1.559999999999999998e-01 1.740745000000000209e-01 1.232319999999999993e+01 1.277715000000000032e+02 2.137175000000000182e+03
1.570000000000000007e-01 1.740724999999999911e-01 1.230914999999999893e+01 1.277669999999999959e+02 2.137149999999999636e+03
1.580000000000000016e-01 1.740704999999999891e-01 1.230339999999999989e+01 1.277715000000000032e+02 2.137135000000000218e+03
1.590000000000000024e-01 1.740694999999999881e-01 1.230235000000000056e+01 1.277775000000000034e+02 2.137125000000000000e+03
