# t [s], A [cm^2], U [cm/s], P [cPa], c [cm/s]
1.000000000000000021e-03 1.936244999999999772e-01 4.523656000000000343e-01 9.249734999999999729e+01 2.207175000000000182e+03
2.000000000000000042e-03 1.935465000000000102e-01 2.152041999999999788e+00 8.838370000000000459e+01 2.206489999999999782e+03
3.000000000000000062e-03 1.933750000000000191e-01 4.215881999999999685e+00 8.279259999999999309e+01 2.205029999999999745e+03
4.000000000000000083e-03 1.931649999999999756e-01 6.552900000000000169e+00 7.730490000000000350e+01 2.203269999999999982e+03
5.000000000000000104e-03 1.929609999999999936e-01 8.999335000000000306e+00 7.295499999999999829e+01 2.201569999999999709e+03
6.000000000000000125e-03 1.927754999999999885e-01 1.120005000000000095e+01 6.951505000000000223e+01 2.200060000000000400e+03
7.000000000000000146e-03 1.926065000000000138e-01 1.295298999999999978e+01 6.641564999999999941e+01 2.198715000000000146e+03
8.000000000000000167e-03 1.924619999999999942e-01 1.433639999999999937e+01 6.374354999999999905e+01 2.197585000000000036e+03
9.000000000000001055e-03 1.923449999999999882e-01 1.541580000000000084e+01 6.166200000000000614e+01 2.196680000000000291e+03
1.000000000000000194e-02 1.922539999999999805e-01 1.621884999999999977e+01 6.011175000000000068e+01 2.195984999999999673e+03
1.099999999999999936e-02 1.921875000000000111e-01 1.679060000000000130e+01 5.903905000000000314e+01 2.195485000000000127e+03
1.200000000000000025e-02 1.921394999999999909e-01 1.713664999999999949e+01 5.829579999999999984e+01 2.195135000000000218e+03
1.300000000000000114e-02 1.921019999999999950e-01 1.726899999999999835e+01 5.766549999999999443e+01 2.194875000000000000e+03
1.400000000000000203e-02 1.920760000000000245e-01 1.734224999999999994e+01 5.728499999999999659e+01 2.194699999999999818e+03
1.499999999999999944e-02 1.920769999999999977e-01 1.764195000000000135e+01 5.781295000000000073e+01 2.194720000000000255e+03
1.600000000000000033e-02 1.921245000000000036e-01 1.838739999999999952e+01 5.995104999999999507e+01 2.195090000000000146e+03
1.700000000000000122e-02 1.922250000000000070e-01 1.954285000000000139e+01 6.376134999999999309e+01 2.195869999999999891e+03
1.800000000000000211e-02 1.923630000000000062e-01 2.080045000000000144e+01 6.840399999999999636e+01 2.196945000000000164e+03
1.900000000000000300e-02 1.925034999999999941e-01 2.173049999999999926e+01 7.246944999999999482e+01 2.198059999999999945e+03
2.000000000000000042e-02 1.926070000000000004e-01 2.198930000000000007e+01 7.464400000000000546e+01 2.198900000000000091e+03
2.100000000000000130e-02 1.926450000000000107e-01 2.147234999999999872e+01 7.431315000000000737e+01 2.199250000000000000e+03
2.200000000000000219e-02 1.926145000000000218e-01 2.034290000000000020e+01 7.180039999999999623e+01 2.199059999999999945e+03
2.299999999999999961e-02 1.925344999999999973e-01 1.893374999999999986e+01 6.814969999999999573e+01 2.198460000000000036e+03
2.400000000000000050e-02 1.924359999999999959e-01 1.758559999999999945e+01 6.460044999999999504e+01 2.197695000000000164e+03
2.500000000000000139e-02 1.923479999999999912e-01 1.650900000000000034e+01 6.205145000000000266e+01 2.196989999999999782e+03
2.600000000000000228e-02 1.922860000000000125e-01 1.572869999999999990e+01 6.076324999999999932e+01 2.196489999999999782e+03
2.700000000000000316e-02 1.922520000000000062e-01 1.511735000000000007e+01 6.038519999999999754e+01 2.196204999999999927e+03
2.800000000000000058e-02 1.922309999999999852e-01 1.448460000000000036e+01 6.022639999999999816e+01 2.196025000000000091e+03
2.900000000000000147e-02 1.922065000000000023e-01 1.367755000000000010e+01 5.961780000000000257e+01 2.195840000000000146e+03
3.000000000000000236e-02 1.921650000000000025e-01 1.265549999999999997e+01 5.821875000000000000e+01 2.195519999999999982e+03
3.099999999999999978e-02 1.921039999999999970e-01 1.151414499999999919e+01 5.616355000000000075e+01 2.195055000000000291e+03
3.200000000000000067e-02 1.920339999999999825e-01 1.045326999999999984e+01 5.400750000000000028e+01 2.194510000000000218e+03
3.300000000000000155e-02 1.919744999999999924e-01 9.701775000000001370e+00 5.250039999999999907e+01 2.194029999999999745e+03
3.400000000000000244e-02 1.919444999999999901e-01 9.431725000000000136e+00 5.228849999999999909e+01 2.193769999999999982e+03
3.500000000000000333e-02 1.919589999999999907e-01 9.695335000000000036e+00 5.366440000000000055e+01 2.193855000000000018e+03
3.600000000000000422e-02 1.920195000000000096e-01 1.040549000000000035e+01 5.645600000000000307e+01 2.194300000000000182e+03
3.700000000000000511e-02 1.921160000000000090e-01 1.136004999999999932e+01 6.007404999999999973e+01 2.195034999999999854e+03
3.799999999999999906e-02 1.922280000000000100e-01 1.229540000000000077e+01 6.368104999999999905e+01 2.195900000000000091e+03
3.899999999999999994e-02 1.923290000000000000e-01 1.294824999999999982e+01 6.640895000000000437e+01 2.196699999999999818e+03
4.000000000000000083e-02 1.923949999999999827e-01 1.310835000000000150e+01 6.755670000000000641e+01 2.197234999999999673e+03
4.100000000000000172e-02 1.924084999999999823e-01 1.265105000000000146e+01 6.671920000000000073e+01 2.197364999999999782e+03
4.200000000000000261e-02 1.923584999999999878e-01 1.154642000000000124e+01 6.382890000000000441e+01 2.197000000000000000e+03
4.300000000000000350e-02 1.922455000000000136e-01 9.848105000000000331e+00 5.911599999999999966e+01 2.196139999999999873e+03
4.400000000000000439e-02 1.920775000000000121e-01 7.668765000000000498e+00 5.301430000000000575e+01 2.194840000000000146e+03
4.499999999999999833e-02 1.918670000000000098e-01 5.152443500000000398e+00 4.604824999999999591e+01 2.193204999999999927e+03
4.599999999999999922e-02 1.916299999999999948e-01 2.450114999999999821e+00 3.873499999999999943e+01 2.191355000000000018e+03
4.700000000000000011e-02 1.913819999999999966e-01 -2.951500000000000234e-01 3.152199999999999847e+01 2.189404999999999745e+03
4.800000000000000100e-02 1.911364999999999870e-01 -2.954589999999999606e+00 2.476450000000000173e+01 2.187475000000000364e+03
4.900000000000000189e-02 1.909049999999999914e-01 -5.413273499999999849e+00 1.873483999999999838e+01 2.185650000000000091e+03
5.000000000000000278e-02 1.906974999999999920e-01 -7.566769999999999996e+00 1.364715999999999951e+01 2.184005000000000109e+03
5.100000000000000366e-02 1.905215000000000103e-01 -9.318725000000000591e+00 9.682894999999998475e+00 2.182604999999999563e+03
5.200000000000000455e-02 1.903845000000000121e-01 -1.058140500000000017e+01 7.004660000000000331e+00 2.181510000000000218e+03
5.300000000000000544e-02 1.902929999999999899e-01 -1.127984999999999971e+01 5.755174999999999486e+00 2.180755000000000109e+03
5.399999999999999939e-02 1.902524999999999911e-01 -1.135899999999999999e+01 6.041655000000000442e+00 2.180400000000000091e+03
5.500000000000000028e-02 1.902650000000000174e-01 -1.079133999999999993e+01 7.913425000000000153e+00 2.180460000000000036e+03
5.600000000000000117e-02 1.903330000000000022e-01 -9.583209999999999340e+00 1.134085500000000124e+01 2.180949999999999818e+03
5.700000000000000205e-02 1.904544999999999988e-01 -7.776485000000000092e+00 1.620410000000000039e+01 2.181860000000000127e+03
5.800000000000000294e-02 1.906245000000000023e-01 -5.446450999999999709e+00 2.229639999999999844e+01 2.183149999999999636e+03
5.900000000000000383e-02 1.908360000000000056e-01 -2.694665000000000088e+00 2.934175000000000111e+01 2.184779999999999745e+03
6.000000000000000472e-02 1.910795000000000132e-01 3.606599999999997586e-01 3.702320000000000277e+01 2.186664999999999964e+03
6.099999999999999867e-02 1.913445000000000007e-01 3.594780000000000086e+00 4.501409999999999911e+01 2.188734999999999673e+03
6.199999999999999956e-02 1.916205000000000269e-01 6.885640999999999678e+00 5.300674999999999670e+01 2.190904999999999745e+03
6.300000000000000044e-02 1.918974999999999986e-01 1.012069499999999955e+01 6.073274999999999579e+01 2.193090000000000146e+03
6.400000000000000133e-02 1.921669999999999767e-01 1.320176999999999978e+01 6.797440000000000282e+01 2.195224999999999909e+03
6.500000000000000222e-02 1.924210000000000087e-01 1.604785000000000039e+01 7.456950000000000500e+01 2.197255000000000109e+03
6.600000000000000311e-02 1.926549999999999929e-01 1.859734999999999872e+01 8.041114999999999213e+01 2.199125000000000000e+03
6.700000000000000400e-02 1.928639999999999799e-01 2.080959999999999965e+01 8.544774999999999920e+01 2.200809999999999945e+03
6.800000000000000488e-02 1.930470000000000241e-01 2.266665000000000063e+01 8.968164999999999054e+01 2.202295000000000073e+03
6.900000000000000577e-02 1.932039999999999869e-01 2.417354999999999876e+01 9.316830000000000211e+01 2.203574999999999818e+03
7.000000000000000666e-02 1.933364999999999945e-01 2.535770000000000124e+01 9.601339999999999009e+01 2.204664999999999964e+03
7.100000000000000755e-02 1.934490000000000098e-01 2.626695000000000135e+01 9.836574999999999136e+01 2.205590000000000146e+03
7.200000000000000844e-02 1.935459999999999958e-01 2.696475000000000222e+01 1.004071500000000015e+02 2.206394999999999982e+03
7.300000000000000933e-02 1.936335000000000139e-01 2.752519999999999811e+01 1.023361999999999910e+02 2.207119999999999891e+03
7.399999999999999634e-02 1.937180000000000013e-01 2.802575000000000216e+01 1.043524999999999920e+02 2.207815000000000055e+03
7.499999999999999722e-02 1.938060000000000060e-01 2.854029999999999845e+01 1.066374999999999886e+02 2.208534999999999854e+03
7.599999999999999811e-02 1.939035000000000064e-01 2.913275000000000148e+01 1.093354999999999961e+02 2.209319999999999709e+03
7.699999999999999900e-02 1.940144999999999786e-01 2.985150000000000148e+01 1.125455000000000041e+02 2.210220000000000255e+03
7.799999999999999989e-02 1.941424999999999956e-01 3.072544999999999860e+01 1.163085000000000093e+02 2.211239999999999782e+03
7.900000000000000078e-02 1.942875000000000019e-01 3.176250000000000284e+01 1.206065000000000111e+02 2.212400000000000091e+03
8.000000000000000167e-02 1.944494999999999973e-01 3.294965000000000543e+01 1.253665000000000020e+02 2.213699999999999818e+03
8.100000000000000255e-02 1.946249999999999925e-01 3.425515000000000043e+01 1.304685000000000059e+02 2.215105000000000018e+03
8.200000000000000344e-02 1.948110000000000119e-01 3.563190000000000168e+01 1.357565000000000168e+02 2.216600000000000364e+03
8.300000000000000433e-02 1.950014999999999943e-01 3.702219999999999800e+01 1.410540000000000020e+02 2.218139999999999873e+03
8.400000000000000522e-02 1.951910000000000034e-01 3.836270000000000380e+01 1.461769999999999925e+02 2.219664999999999964e+03
8.500000000000000611e-02 1.953729999999999911e-01 3.958934999999999604e+01 1.509490000000000123e+02 2.221144999999999982e+03
8.600000000000000699e-02 1.955429999999999946e-01 4.064199999999999591e+01 1.552150000000000034e+02 2.222525000000000091e+03
8.700000000000000788e-02 1.956940000000000068e-01 4.146895000000000664e+01 1.588464999999999918e+02 2.223760000000000218e+03
8.800000000000000877e-02 1.958234999999999837e-01 4.202934999999999377e+01 1.617515000000000214e+02 2.224829999999999927e+03
8.899999999999999578e-02 1.959279999999999911e-01 4.229610000000000269e+01 1.638774999999999977e+02 2.225689999999999600e+03
8.999999999999999667e-02 1.960060000000000136e-01 4.225665000000000049e+01 1.652115000000000009e+02 2.226345000000000255e+03
9.099999999999999756e-02 1.960565000000000224e-01 4.191340000000000288e+01 1.657780000000000200e+02 2.226779999999999745e+03
9.199999999999999845e-02 1.960810000000000053e-01 4.128289999999999793e+01 1.656374999999999886e+02 2.227000000000000000e+03
9.299999999999999933e-02 1.960814999999999919e-01 4.039395000000000380e+01 1.648774999999999977e+02 2.227029999999999745e+03
9.400000000000000022e-02 1.960609999999999853e-01 3.928575000000000017e+01 1.636059999999999945e+02 2.226880000000000109e+03
9.500000000000000111e-02 1.960224999999999884e-01 3.800469999999999970e+01 1.619449999999999932e+02 2.226585000000000036e+03
9.600000000000000200e-02 1.959710000000000063e-01 3.660200000000000387e+01 1.600240000000000009e+02 2.226184999999999945e+03
9.700000000000000289e-02 1.959100000000000008e-01 3.513049999999999784e+01 1.579689999999999941e+02 2.225699999999999818e+03
9.800000000000000377e-02 1.958435000000000037e-01 3.364200000000000301e+01 1.559000000000000057e+02 2.225170000000000073e+03
9.900000000000000466e-02 1.957765000000000200e-01 3.218495000000000061e+01 1.539270000000000209e+02 2.224630000000000109e+03
1.000000000000000056e-01 1.957119999999999971e-01 3.080205000000000126e+01 1.521415000000000077e+02 2.224109999999999673e+03
1.010000000000000064e-01 1.956534999999999802e-01 2.952870000000000061e+01 1.506154999999999973e+02 2.223625000000000000e+03
1.020000000000000073e-01 1.956025000000000125e-01 2.839144999999999897e+01 1.493994999999999891e+02 2.223215000000000146e+03
1.030000000000000082e-01 1.955620000000000136e-01 2.740709999999999980e+01 1.485194999999999936e+02 2.222875000000000000e+03
1.040000000000000091e-01 1.955319999999999836e-01 2.658220000000000027e+01 1.479789999999999850e+02 2.222625000000000000e+03
1.050000000000000100e-01 1.955135000000000067e-01 2.591335000000000122e+01 1.477570000000000050e+02 2.222460000000000036e+03
1.059999999999999970e-01 1.955044999999999977e-01 2.538774999999999693e+01 1.478104999999999905e+02 2.222369999999999891e+03
1.069999999999999979e-01 1.955044999999999977e-01 2.498404999999999987e+01 1.480780000000000030e+02 2.222359999999999673e+03
1.079999999999999988e-01 1.955109999999999904e-01 2.467445000000000022e+01 1.484845000000000255e+02 2.222400000000000091e+03
1.089999999999999997e-01 1.955210000000000004e-01 2.442624999999999957e+01 1.489465000000000146e+02 2.222480000000000018e+03
1.100000000000000006e-01 1.955334999999999990e-01 2.420429999999999993e+01 1.493740000000000236e+02 2.222570000000000164e+03
1.110000000000000014e-01 1.955439999999999956e-01 2.397274999999999778e+01 1.496804999999999950e+02 2.222644999999999982e+03
1.120000000000000023e-01 1.955500000000000016e-01 2.369794999999999874e+01 1.497869999999999777e+02 2.222694999999999709e+03
1.130000000000000032e-01 1.955494999999999872e-01 2.335034999999999883e+01 1.496259999999999764e+02 2.222689999999999600e+03
1.140000000000000041e-01 1.955390000000000184e-01 2.290610000000000213e+01 1.491479999999999961e+02 2.222610000000000127e+03
1.150000000000000050e-01 1.955184999999999840e-01 2.234870000000000090e+01 1.483215000000000146e+02 2.222440000000000055e+03
1.160000000000000059e-01 1.954854999999999787e-01 2.167024999999999935e+01 1.471399999999999864e+02 2.222190000000000055e+03
1.170000000000000068e-01 1.954410000000000036e-01 2.087160000000000082e+01 1.456170000000000186e+02 2.221835000000000036e+03
1.180000000000000077e-01 1.953854999999999897e-01 1.996229999999999905e+01 1.437889999999999873e+02 2.221389999999999873e+03
1.190000000000000085e-01 1.953199999999999936e-01 1.896005000000000251e+01 1.417110000000000127e+02 2.220864999999999782e+03
1.200000000000000094e-01 1.952459999999999751e-01 1.788905000000000101e+01 1.394549999999999841e+02 2.220275000000000091e+03
1.209999999999999964e-01 1.951660000000000061e-01 1.677895000000000181e+01 1.371014999999999873e+02 2.219635000000000218e+03
1.219999999999999973e-01 1.950839999999999796e-01 1.566250000000000142e+01 1.347379999999999995e+02 2.218974999999999909e+03
1.229999999999999982e-01 1.950010000000000077e-01 1.457359999999999900e+01 1.324524999999999864e+02 2.218309999999999945e+03
1.239999999999999991e-01 1.949215000000000253e-01 1.354524999999999935e+01 1.303265000000000100e+02 2.217659999999999854e+03
1.250000000000000000e-01 1.948469999999999924e-01 1.260774999999999935e+01 1.284339999999999975e+02 2.217059999999999945e+03
1.260000000000000009e-01 1.947810000000000097e-01 1.178696499999999858e+01 1.268340000000000032e+02 2.216519999999999982e+03
1.270000000000000018e-01 1.947249999999999814e-01 1.110290999999999961e+01 1.255705000000000098e+02 2.216060000000000400e+03
1.280000000000000027e-01 1.946800000000000197e-01 1.056899500000000103e+01 1.246689999999999969e+02 2.215684999999999945e+03
1.290000000000000036e-01 1.946475000000000011e-01 1.019141499999999922e+01 1.241370000000000005e+02 2.215409999999999854e+03
1.300000000000000044e-01 1.946275000000000088e-01 9.969205000000000538e+00 1.239639999999999986e+02 2.215244999999999891e+03
1.310000000000000053e-01 1.946200000000000152e-01 9.894605000000000317e+00 1.241229999999999905e+02 2.215164999999999964e+03
1.320000000000000062e-01 1.946235000000000048e-01 9.953594999999999970e+00 1.245740000000000123e+02 2.215184999999999945e+03
1.330000000000000071e-01 1.946370000000000045e-01 1.012718999999999880e+01 1.252644999999999982e+02 2.215284999999999854e+03
1.340000000000000080e-01 1.946585000000000121e-01 1.039235000000000042e+01 1.261345000000000027e+02 2.215444999999999709e+03
1.350000000000000089e-01 1.946859999999999979e-01 1.072354999999999947e+01 1.271214999999999975e+02 2.215659999999999854e+03
1.360000000000000098e-01 1.947174999999999878e-01 1.109400000000000119e+01 1.281585000000000036e+02 2.215909999999999854e+03
1.370000000000000107e-01 1.947514999999999941e-01 1.147705000000000020e+01 1.291850000000000023e+02 2.216175000000000182e+03
1.380000000000000115e-01 1.947850000000000137e-01 1.184745000000000026e+01 1.301419999999999959e+02 2.216445000000000164e+03
1.390000000000000124e-01 1.948159999999999892e-01 1.218240000000000123e+01 1.309805000000000064e+02 2.216694999999999709e+03
1.400000000000000133e-01 1.948435000000000028e-01 1.246245000000000047e+01 1.316599999999999966e+02 2.216914999999999964e+03
1.410000000000000142e-01 1.948655000000000248e-01 1.267239999999999966e+01 1.321505000000000223e+02 2.217095000000000255e+03
1.420000000000000151e-01 1.948814999999999853e-01 1.280160000000000053e+01 1.324334999999999809e+02 2.217234999999999673e+03
1.430000000000000160e-01 1.948904999999999943e-01 1.284420000000000073e+01 1.325040000000000191e+02 2.217309999999999945e+03
1.440000000000000169e-01 1.948929999999999829e-01 1.279940000000000033e+01 1.323650000000000091e+02 2.217335000000000036e+03
1.450000000000000178e-01 1.948880000000000057e-01 1.267065000000000019e+01 1.320324999999999989e+02 2.217295000000000073e+03
1.459999999999999909e-01 1.948770000000000224e-01 1.246590000000000131e+01 1.315319999999999823e+02 2.217215000000000146e+03
1.469999999999999918e-01 1.948600000000000054e-01 1.219640000000000057e+01 1.308930000000000007e+02 2.217085000000000036e+03
1.479999999999999927e-01 1.948380000000000112e-01 1.187594999999999956e+01 1.301530000000000200e+02 2.216914999999999964e+03
1.489999999999999936e-01 1.948135000000000006e-01 1.152005000000000123e+01 1.293514999999999873e+02 2.216715000000000146e+03
1.499999999999999944e-01 1.947865000000000013e-01 1.114496000000000109e+01 1.285260000000000105e+02 2.216505000000000109e+03
1.509999999999999953e-01 1.947585000000000011e-01 1.076656000000000013e+01 1.277150000000000034e+02 2.216284999999999854e+03
1.519999999999999962e-01 1.947309999999999874e-01 1.039968000000000004e+01 1.269504999999999910e+02 2.216059999999999945e+03
1.529999999999999971e-01 1.947050000000000169e-01 1.005717999999999890e+01 1.262605000000000075e+02 2.215855000000000018e+03
1.539999999999999980e-01 1.946815000000000073e-01 9.749539999999999651e+00 1.256645000000000039e+02 2.215664999999999964e+03
1.549999999999999989e-01 1.946610000000000007e-01 9.484189999999999898e+00 1.251769999999999925e+02 2.215494999999999891e+03
1.559999999999999998e-01 1.946439999999999837e-01 9.265654999999998864e+00 1.248015000000000043e+02 2.215355000000000018e+03
1.570000000000000007e-01 1.946304999999999841e-01 9.095255000000001644e+00 1.245360000000000014e+02 2.215244999999999891e+03
1.580000000000000016e-01 1.946209999999999885e-01 8.971289999999999765e+00 1.243719999999999999e+02 2.215164999999999964e+03
1.590000000000000024e-01 1.946140000000000092e-01 8.889475000000000904e+00 1.242940000000000111e+02 2.215105000000000018e+03
