# t [s], A [cm^2], U [cm/s], P [cPa], c [cm/s]
1.000000000000000021e-03 5.322875000000000245e-01 3.562200000000001476e-03 1.054934999999999974e+02 1.424319999999999936e+03
2.000000000000000042e-03 5.322804999999999342e-01 2.558414999999999865e-04 1.054784999999999968e+02 1.424315000000000055e+03
3.000000000000000062e-03 5.323074999999999335e-01 4.654315000000000535e-02 1.055194999999999936e+02 1.424324999999999818e+03
4.000000000000000083e-03 5.323550000000000226e-01 1.291066499999999895e-01 1.056169999999999902e+02 1.424349999999999909e+03
5.000000000000000104e-03 5.323674999999999935e-01 1.543230500000000172e-01 1.056509999999999962e+02 1.424369999999999891e+03
6.000000000000000125e-03 5.323390000000000066e-01 1.074301000000000006e-01 1.055759999999999934e+02 1.424349999999999909e+03
7.000000000000000146e-03 5.322999999999999954e-01 4.005749999999999589e-02 1.054300000000000068e+02 1.424324999999999818e+03
8.000000000000000167e-03 5.322624999999999718e-01 -2.910450000000003312e-02 1.052409999999999997e+02 1.424279999999999973e+03
9.000000000000001055e-03 5.322025000000000228e-01 -1.441344999999999987e-01 1.049650000000000034e+02 1.424210000000000036e+03
1.000000000000000194e-02 5.321050000000000502e-01 -3.364500000000000268e-01 1.045540000000000020e+02 1.424119999999999891e+03
1.099999999999999936e-02 5.319639999999999924e-01 -6.116699999999999360e-01 1.039795000000000016e+02 1.423980000000000018e+03
1.200000000000000025e-02 5.317724999999999813e-01 -9.775650000000001283e-01 1.032069999999999936e+02 1.423795000000000073e+03
1.300000000000000114e-02 5.315205000000000624e-01 -1.439169999999999838e+00 1.022049999999999983e+02 1.423545000000000073e+03
1.400000000000000203e-02 5.312135000000000051e-01 -1.972659999999999858e+00 1.009726499999999874e+02 1.423230000000000018e+03
1.499999999999999944e-02 5.308749999999999858e-01 -2.515840000000000298e+00 9.955924999999999159e+01 1.422860000000000127e+03
1.600000000000000033e-02 5.305370000000000363e-01 -2.986225000000000129e+00 9.805559999999999832e+01 1.422454999999999927e+03
1.700000000000000122e-02 5.302265000000000450e-01 -3.310224999999999973e+00 9.656029999999999802e+01 1.422034999999999854e+03
1.800000000000000211e-02 5.299584999999999990e-01 -3.444617000000000040e+00 9.514959999999999241e+01 1.421619999999999891e+03
1.900000000000000300e-02 5.297309999999999519e-01 -3.382753500000000191e+00 9.386154999999999404e+01 1.421224999999999909e+03
2.000000000000000042e-02 5.295294999999999863e-01 -3.148477999999999888e+00 9.269265000000000043e+01 1.420845000000000027e+03
2.100000000000000130e-02 5.293345000000000411e-01 -2.783482999999999929e+00 9.160864999999999725e+01 1.420485000000000127e+03
2.200000000000000219e-02 5.291285000000000016e-01 -2.333320000000000061e+00 9.055960000000000321e+01 1.420125000000000000e+03
2.299999999999999961e-02 5.288985000000000491e-01 -1.835529999999999884e+00 8.949674999999999159e+01 1.419759999999999991e+03
2.400000000000000050e-02 5.286399999999999988e-01 -1.312264999999999793e+00 8.838540000000000418e+01 1.419380000000000109e+03
2.500000000000000139e-02 5.283554999999999779e-01 -7.688700000000001644e-01 8.721229999999999905e+01 1.418994999999999891e+03
2.600000000000000228e-02 5.280534999999999535e-01 -1.982099999999999973e-01 8.598480000000000700e+01 1.418585000000000036e+03
2.700000000000000316e-02 5.277435000000000320e-01 4.112700000000000244e-01 8.472344999999999970e+01 1.418170000000000073e+03
2.800000000000000058e-02 5.274339999999999584e-01 1.066855000000000331e+00 8.345194999999999652e+01 1.417744999999999891e+03
2.900000000000000147e-02 5.271280000000000410e-01 1.765040000000000164e+00 8.218649999999999523e+01 1.417325000000000045e+03
3.000000000000000236e-02 5.268215000000000536e-01 2.488704999999999501e+00 8.092924999999999613e+01 1.416905000000000200e+03
3.099999999999999978e-02 5.265075000000000172e-01 3.208230000000000359e+00 7.966579999999999018e+01 1.416474999999999909e+03
3.200000000000000067e-02 5.261744999999999894e-01 3.885739999999999750e+00 7.836750000000000682e+01 1.416045000000000073e+03
3.300000000000000155e-02 5.258110000000000284e-01 4.481455000000000410e+00 7.699739999999999895e+01 1.415595000000000027e+03
3.400000000000000244e-02 5.254075000000000273e-01 4.960214999999999819e+00 7.551850000000000307e+01 1.415125000000000000e+03
3.500000000000000333e-02 5.249595000000000233e-01 5.297954999999999970e+00 7.390260000000000673e+01 1.414615000000000009e+03
3.600000000000000422e-02 5.244674999999999754e-01 5.485685000000000144e+00 7.213769999999999527e+01 1.414074999999999818e+03
3.700000000000000511e-02 5.239389999999999326e-01 5.530795000000000350e+00 7.023265000000000668e+01 1.413500000000000000e+03
3.799999999999999906e-02 5.233875000000000055e-01 5.455940000000000012e+00 6.821819999999999595e+01 1.412894999999999982e+03
3.899999999999999994e-02 5.228289999999999882e-01 5.294774999999999565e+00 6.614419999999999789e+01 1.412279999999999973e+03
4.000000000000000083e-02 5.222824999999999829e-01 5.087060000000000137e+00 6.407370000000000232e+01 1.411654999999999973e+03
4.100000000000000172e-02 5.217665000000000219e-01 4.873350000000000293e+00 6.207620000000000005e+01 1.411050000000000182e+03
4.200000000000000261e-02 5.212970000000000104e-01 4.690640000000000143e+00 6.022034999999999627e+01 1.410480000000000018e+03
4.300000000000000350e-02 5.208874999999999478e-01 4.569520000000000692e+00 5.856830000000000069e+01 1.409954999999999927e+03
4.400000000000000439e-02 5.205469999999999819e-01 4.533205000000000595e+00 5.717170000000000130e+01 1.409500000000000000e+03
4.499999999999999833e-02 5.202815000000000634e-01 4.597410499999999622e+00 5.606940000000000168e+01 1.409119999999999891e+03
4.599999999999999922e-02 5.200955000000000439e-01 4.771861000000000352e+00 5.528775000000000261e+01 1.408829999999999927e+03
4.700000000000000011e-02 5.199905000000000221e-01 5.061925000000000452e+00 5.484165000000000134e+01 1.408630000000000109e+03
4.800000000000000100e-02 5.199655000000000804e-01 5.470399999999999707e+00 5.473675000000000068e+01 1.408529999999999973e+03
4.900000000000000189e-02 5.200204999999999966e-01 5.999005000000000365e+00 5.497194999999999965e+01 1.408529999999999973e+03
5.000000000000000278e-02 5.201534999999999354e-01 6.649255000000000138e+00 5.554155000000000086e+01 1.408630000000000109e+03
5.100000000000000366e-02 5.203640000000000487e-01 7.422670000000000101e+00 5.643699999999999761e+01 1.408824999999999818e+03
5.200000000000000455e-02 5.206494999999999873e-01 8.320349999999999469e+00 5.764764999999999873e+01 1.409115000000000009e+03
5.300000000000000544e-02 5.210084999999999855e-01 9.342164999999999608e+00 5.916079999999999472e+01 1.409505000000000109e+03
5.399999999999999939e-02 5.214360000000000106e-01 1.048583499999999979e+01 6.096144999999999925e+01 1.409974999999999909e+03
5.500000000000000028e-02 5.219289999999999763e-01 1.174600500000000025e+01 6.303125000000000000e+01 1.410534999999999854e+03
5.600000000000000117e-02 5.224809999999999732e-01 1.311384499999999953e+01 6.534839999999999804e+01 1.411170000000000073e+03
5.700000000000000205e-02 5.230865000000000098e-01 1.457690500000000000e+01 6.788705000000000211e+01 1.411875000000000000e+03
5.800000000000000294e-02 5.237359999999999793e-01 1.611930999999999869e+01 7.061750000000000682e+01 1.412650000000000091e+03
5.900000000000000383e-02 5.244225000000000136e-01 1.772271500000000088e+01 7.350695000000000334e+01 1.413474999999999909e+03
6.000000000000000472e-02 5.251365000000000061e-01 1.936724999999999852e+01 7.652039999999999509e+01 1.414345000000000027e+03
6.099999999999999867e-02 5.258684999999999610e-01 2.103235000000000099e+01 7.962225000000000819e+01 1.415250000000000000e+03
6.199999999999999956e-02 5.266115000000000101e-01 2.269804999999999851e+01 8.277764999999999418e+01 1.416190000000000055e+03
6.300000000000000044e-02 5.273569999999999647e-01 2.434580000000000410e+01 8.595394999999999186e+01 1.417134999999999991e+03
6.400000000000000133e-02 5.280989999999999851e-01 2.595939999999999870e+01 8.912154999999999916e+01 1.418095000000000027e+03
6.500000000000000222e-02 5.288329999999999975e-01 2.752509999999999835e+01 9.225570000000000448e+01 1.419049999999999955e+03
6.600000000000000311e-02 5.295539999999999692e-01 2.903215000000000146e+01 9.533689999999999998e+01 1.420000000000000000e+03
6.700000000000000400e-02 5.302599999999999536e-01 3.047259999999999991e+01 9.835075000000000500e+01 1.420940000000000055e+03
6.800000000000000488e-02 5.309494999999999632e-01 3.184134999999999849e+01 1.012873999999999910e+02 1.421865000000000009e+03
6.900000000000000577e-02 5.316220000000000390e-01 3.313550000000000040e+01 1.041431000000000040e+02 1.422769999999999982e+03
7.000000000000000666e-02 5.322780000000000289e-01 3.435414999999999708e+01 1.069162499999999909e+02 1.423654999999999973e+03
7.100000000000000755e-02 5.329180000000000028e-01 3.549804999999999922e+01 1.096110000000000042e+02 1.424519999999999982e+03
7.200000000000000844e-02 5.335444999999999771e-01 3.656905000000000427e+01 1.122315000000000111e+02 1.425365000000000009e+03
7.300000000000000933e-02 5.341580000000000217e-01 3.756964999999999577e+01 1.147849999999999966e+02 1.426195000000000164e+03
7.399999999999999634e-02 5.347604999999999720e-01 3.850254999999999939e+01 1.172779999999999916e+02 1.427005000000000109e+03
7.499999999999999722e-02 5.353525000000000089e-01 3.937069999999999936e+01 1.197185000000000059e+02 1.427799999999999955e+03
7.599999999999999811e-02 5.359365000000000379e-01 4.017645000000000266e+01 1.221119999999999948e+02 1.428579999999999927e+03
7.699999999999999900e-02 5.365119999999999889e-01 4.092175000000000296e+01 1.244625000000000057e+02 1.429345000000000027e+03
7.799999999999999989e-02 5.370794999999999320e-01 4.160769999999999413e+01 1.267729999999999961e+02 1.430099999999999909e+03
7.900000000000000078e-02 5.376389999999999780e-01 4.223454999999999870e+01 1.290430000000000064e+02 1.430845000000000027e+03
8.000000000000000167e-02 5.381875000000000409e-01 4.280169999999999675e+01 1.312694999999999936e+02 1.431579999999999927e+03
8.100000000000000255e-02 5.387254999999999683e-01 4.330780000000000030e+01 1.334480000000000075e+02 1.432295000000000073e+03
8.200000000000000344e-02 5.392500000000000071e-01 4.375065000000000026e+01 1.355709999999999980e+02 1.432994999999999891e+03
8.300000000000000433e-02 5.397589999999999888e-01 4.412770000000000437e+01 1.376299999999999955e+02 1.433679999999999836e+03
8.400000000000000522e-02 5.402495000000000491e-01 4.443594999999999828e+01 1.396134999999999877e+02 1.434335000000000036e+03
8.500000000000000611e-02 5.407189999999999497e-01 4.467239999999999611e+01 1.415115000000000123e+02 1.434974999999999909e+03
8.600000000000000699e-02 5.411639999999999784e-01 4.483435000000000059e+01 1.433125000000000000e+02 1.435579999999999927e+03
8.700000000000000788e-02 5.415834999999999955e-01 4.491925000000000523e+01 1.450060000000000002e+02 1.436154999999999973e+03
8.800000000000000877e-02 5.419739999999999558e-01 4.492534999999999457e+01 1.465810000000000173e+02 1.436700000000000045e+03
8.899999999999999578e-02 5.423340000000000938e-01 4.485144999999999982e+01 1.480294999999999845e+02 1.437200000000000045e+03
8.999999999999999667e-02 5.426615000000000189e-01 4.469729999999999848e+01 1.493439999999999941e+02 1.437664999999999964e+03
9.099999999999999756e-02 5.429559999999999942e-01 4.446359999999999957e+01 1.505204999999999984e+02 1.438090000000000146e+03
9.199999999999999845e-02 5.432170000000000609e-01 4.415174999999999983e+01 1.515550000000000068e+02 1.438465000000000146e+03
9.299999999999999933e-02 5.434444999999999970e-01 4.376425000000000409e+01 1.524470000000000027e+02 1.438795000000000073e+03
9.400000000000000022e-02 5.436380000000000656e-01 4.330449999999999733e+01 1.531980000000000075e+02 1.439090000000000146e+03
9.500000000000000111e-02 5.437994999999999912e-01 4.277679999999999438e+01 1.538110000000000070e+02 1.439340000000000146e+03
9.600000000000000200e-02 5.439294999999999547e-01 4.218609999999999616e+01 1.542909999999999968e+02 1.439539999999999964e+03
9.700000000000000289e-02 5.440294999999999437e-01 4.153825000000000500e+01 1.546449999999999818e+02 1.439704999999999927e+03
9.800000000000000377e-02 5.441024999999999334e-01 4.083960000000000434e+01 1.548815000000000168e+02 1.439829999999999927e+03
9.900000000000000466e-02 5.441500000000000226e-01 4.009705000000000297e+01 1.550104999999999791e+02 1.439914999999999964e+03
1.000000000000000056e-01 5.441745000000000054e-01 3.931784999999999997e+01 1.550425000000000182e+02 1.439970000000000027e+03
1.010000000000000064e-01 5.441795000000000382e-01 3.850954999999999728e+01 1.549875000000000114e+02 1.439994999999999891e+03
1.020000000000000073e-01 5.441664999999999974e-01 3.767969999999999686e+01 1.548600000000000136e+02 1.439990000000000009e+03
1.030000000000000082e-01 5.441384999999999694e-01 3.683590000000000231e+01 1.546694999999999993e+02 1.439965000000000146e+03
1.040000000000000091e-01 5.440994999999999582e-01 3.598525000000000063e+01 1.544295000000000186e+02 1.439924999999999955e+03
1.050000000000000100e-01 5.440504999999999924e-01 3.513470000000000226e+01 1.541504999999999939e+02 1.439860000000000127e+03
1.059999999999999970e-01 5.439950000000000063e-01 3.429035000000000366e+01 1.538439999999999941e+02 1.439784999999999854e+03
1.069999999999999979e-01 5.439344999999999875e-01 3.345754999999999768e+01 1.535180000000000007e+02 1.439700000000000045e+03
1.079999999999999988e-01 5.438709999999999933e-01 3.264079999999999870e+01 1.531814999999999998e+02 1.439609999999999900e+03
1.089999999999999997e-01 5.438054999999999417e-01 3.184365000000000379e+01 1.528410000000000082e+02 1.439514999999999873e+03
1.100000000000000006e-01 5.437400000000000011e-01 3.106840000000000046e+01 1.525015000000000214e+02 1.439414999999999964e+03
1.110000000000000014e-01 5.436734999999999207e-01 3.031629999999999825e+01 1.521659999999999968e+02 1.439309999999999945e+03
1.120000000000000023e-01 5.436075000000000212e-01 2.958755000000000024e+01 1.518365000000000009e+02 1.439215000000000146e+03
1.130000000000000032e-01 5.435415000000000108e-01 2.888125000000000142e+01 1.515124999999999886e+02 1.439110000000000127e+03
1.140000000000000041e-01 5.434740000000000126e-01 2.819569999999999865e+01 1.511924999999999955e+02 1.439005000000000109e+03
1.150000000000000050e-01 5.434060000000000556e-01 2.752834999999999965e+01 1.508725000000000023e+02 1.438900000000000091e+03
1.160000000000000059e-01 5.433350000000000124e-01 2.687594999999999956e+01 1.505494999999999948e+02 1.438800000000000182e+03
1.170000000000000068e-01 5.432599999999999651e-01 2.623485000000000156e+01 1.502180000000000177e+02 1.438695000000000164e+03
1.180000000000000077e-01 5.431805000000000661e-01 2.560119999999999862e+01 1.498725000000000023e+02 1.438579999999999927e+03
1.190000000000000085e-01 5.430945000000000356e-01 2.497109999999999985e+01 1.495070000000000050e+02 1.438465000000000146e+03
1.200000000000000094e-01 5.430009999999999559e-01 2.434060000000000201e+01 1.491165000000000020e+02 1.438339999999999918e+03
1.209999999999999964e-01 5.428990000000000204e-01 2.370599999999999952e+01 1.486965000000000146e+02 1.438210000000000036e+03
1.219999999999999973e-01 5.427874999999999783e-01 2.306425000000000125e+01 1.482409999999999854e+02 1.438069999999999936e+03
1.229999999999999982e-01 5.426655000000000229e-01 2.241254999999999953e+01 1.477479999999999905e+02 1.437914999999999964e+03
1.239999999999999991e-01 5.425335000000000019e-01 2.174889999999999901e+01 1.472139999999999986e+02 1.437755000000000109e+03
1.250000000000000000e-01 5.423904999999999976e-01 2.107195000000000107e+01 1.466380000000000052e+02 1.437579999999999927e+03
1.260000000000000009e-01 5.422374999999999279e-01 2.038109999999999999e+01 1.460199999999999818e+02 1.437389999999999873e+03
1.270000000000000018e-01 5.420745000000000147e-01 1.967660000000000053e+01 1.453605000000000018e+02 1.437190000000000055e+03
1.280000000000000027e-01 5.419024999999999537e-01 1.895945000000000036e+01 1.446634999999999991e+02 1.436974999999999909e+03
1.290000000000000036e-01 5.417220000000000368e-01 1.823130000000000095e+01 1.439319999999999879e+02 1.436755000000000109e+03
1.300000000000000044e-01 5.415349999999999886e-01 1.749479999999999791e+01 1.431705000000000041e+02 1.436525000000000091e+03
1.310000000000000053e-01 5.413430000000000186e-01 1.675300000000000011e+01 1.423855000000000075e+02 1.436284999999999854e+03
1.320000000000000062e-01 5.411475000000000035e-01 1.600955000000000084e+01 1.415840000000000032e+02 1.436039999999999964e+03
1.330000000000000071e-01 5.409505000000000008e-01 1.526859999999999928e+01 1.407729999999999961e+02 1.435789999999999964e+03
1.340000000000000080e-01 5.407539999999999569e-01 1.453462000000000032e+01 1.399604999999999961e+02 1.435539999999999964e+03
1.350000000000000089e-01 5.405600000000000405e-01 1.381222999999999956e+01 1.391544999999999845e+02 1.435289999999999964e+03
1.360000000000000098e-01 5.403700000000000170e-01 1.310609499999999983e+01 1.383639999999999759e+02 1.435039999999999964e+03
1.370000000000000107e-01 5.401865000000000139e-01 1.242086500000000093e+01 1.375955000000000155e+02 1.434799999999999955e+03
1.380000000000000115e-01 5.400110000000000188e-01 1.176087500000000041e+01 1.368564999999999827e+02 1.434559999999999945e+03
1.390000000000000124e-01 5.398445000000000604e-01 1.113024500000000039e+01 1.361544999999999845e+02 1.434340000000000146e+03
1.400000000000000133e-01 5.396889999999999743e-01 1.053251000000000026e+01 1.354950000000000045e+02 1.434119999999999891e+03
1.410000000000000142e-01 5.395450000000000523e-01 9.970734999999999459e+00 1.348830000000000098e+02 1.433920000000000073e+03
1.420000000000000151e-01 5.394134999999999902e-01 9.447295000000000442e+00 1.343215000000000146e+02 1.433730000000000018e+03
1.430000000000000160e-01 5.392954999999999277e-01 8.963945000000000718e+00 1.338135000000000048e+02 1.433559999999999945e+03
1.440000000000000169e-01 5.391900000000000581e-01 8.521665000000000489e+00 1.333600000000000136e+02 1.433400000000000091e+03
1.450000000000000178e-01 5.390975000000000072e-01 8.120744999999999436e+00 1.329615000000000009e+02 1.433259999999999991e+03
1.459999999999999909e-01 5.390175000000000383e-01 7.760839999999999961e+00 1.326159999999999854e+02 1.433134999999999991e+03
1.469999999999999918e-01 5.389500000000000401e-01 7.440894999999999371e+00 1.323220000000000027e+02 1.433025000000000091e+03
1.479999999999999927e-01 5.388930000000000664e-01 7.159245000000000303e+00 1.320765000000000100e+02 1.432929999999999836e+03
1.489999999999999936e-01 5.388465000000000060e-01 6.913759999999999906e+00 1.318745000000000118e+02 1.432849999999999909e+03
1.499999999999999944e-01 5.388085000000000235e-01 6.701889999999999681e+00 1.317119999999999891e+02 1.432775000000000091e+03
1.509999999999999953e-01 5.387779999999999792e-01 6.520749999999999602e+00 1.315834999999999866e+02 1.432720000000000027e+03
1.519999999999999962e-01 5.387539999999999552e-01 6.367240000000000677e+00 1.314834999999999923e+02 1.432675000000000182e+03
1.529999999999999971e-01 5.387349999999999639e-01 6.238115000000000521e+00 1.314074999999999989e+02 1.432634999999999991e+03
1.539999999999999980e-01 5.387200000000000877e-01 6.130134999999999224e+00 1.313494999999999777e+02 1.432599999999999909e+03
1.549999999999999989e-01 5.387075000000000058e-01 6.040060000000000429e+00 1.313044999999999902e+02 1.432574999999999818e+03
1.559999999999999998e-01 5.386965000000000225e-01 5.964800000000000324e+00 1.312674999999999841e+02 1.432549999999999955e+03
1.570000000000000007e-01 5.386859999999999982e-01 5.901434999999999320e+00 1.312344999999999970e+02 1.432534999999999854e+03
1.580000000000000016e-01 5.386750000000000149e-01 5.847269999999999968e+00 1.312015000000000100e+02 1.432514999999999873e+03
1.590000000000000024e-01 5.386634999999999618e-01 5.799875000000000114e+00 1.311650000000000205e+02 1.432494999999999891e+03
