# t [s], A [cm^2], U [cm/s], P [cPa], c [cm/s]
1.000000000000000021e-03 1.413999999999999979e-01 2.638969999999999927e-01 1.005625000000000000e+02 1.793279999999999973e+03
2.000000000000000042e-03 1.413794999999999913e-01 1.759086499999999997e+00 9.770749999999999602e+01 1.793075000000000045e+03
3.000000000000000062e-03 1.412915000000000143e-01 3.608798000000000172e+00 9.400274999999999181e+01 1.792244999999999891e+03
4.000000000000000083e-03 1.411545000000000161e-01 5.660293499999999867e+00 8.979290000000000305e+01 1.790985000000000127e+03
5.000000000000000104e-03 1.409925000000000206e-01 7.863384999999999181e+00 8.572145000000000437e+01 1.789505000000000109e+03
6.000000000000000125e-03 1.408240000000000047e-01 1.013021499999999975e+01 8.217249999999999943e+01 1.787980000000000018e+03
7.000000000000000146e-03 1.406584999999999919e-01 1.232336000000000098e+01 7.918000000000000682e+01 1.786500000000000000e+03
8.000000000000000167e-03 1.405009999999999870e-01 1.431911500000000004e+01 7.657710000000000150e+01 1.785110000000000127e+03
9.000000000000001055e-03 1.403540000000000065e-01 1.607174499999999995e+01 7.423939999999998918e+01 1.783829999999999927e+03
1.000000000000000194e-02 1.402200000000000113e-01 1.759700000000000131e+01 7.217119999999999891e+01 1.782674999999999955e+03
1.099999999999999936e-02 1.401010000000000033e-01 1.891754999999999853e+01 7.040725000000000477e+01 1.781664999999999964e+03
1.200000000000000025e-02 1.399989999999999846e-01 2.004455000000000098e+01 6.894089999999999918e+01 1.780795000000000073e+03
1.300000000000000114e-02 1.399115000000000220e-01 2.098629999999999995e+01 6.773600000000000421e+01 1.780069999999999936e+03
1.400000000000000203e-02 1.398375000000000035e-01 2.174990000000000023e+01 6.674514999999999532e+01 1.779454999999999927e+03
1.499999999999999944e-02 1.397754999999999970e-01 2.234094999999999942e+01 6.591055000000000064e+01 1.778954999999999927e+03
1.600000000000000033e-02 1.397235000000000005e-01 2.277475000000000094e+01 6.518444999999999823e+01 1.778534999999999854e+03
1.700000000000000122e-02 1.396795000000000120e-01 2.309100000000000108e+01 6.457214999999999350e+01 1.778190000000000055e+03
1.800000000000000211e-02 1.396450000000000191e-01 2.335750000000000171e+01 6.415995000000000914e+01 1.777925000000000182e+03
1.900000000000000300e-02 1.396239999999999981e-01 2.365319999999999823e+01 6.409319999999999595e+01 1.777759999999999991e+03
2.000000000000000042e-02 1.396184999999999787e-01 2.404075000000000273e+01 6.451089999999999236e+01 1.777735000000000127e+03
2.100000000000000130e-02 1.396324999999999927e-01 2.454330000000000211e+01 6.547374999999999545e+01 1.777860000000000127e+03
2.200000000000000219e-02 1.396649999999999836e-01 2.513680000000000092e+01 6.692300000000000182e+01 1.778139999999999873e+03
2.299999999999999961e-02 1.397130000000000039e-01 2.575889999999999702e+01 6.868530000000001223e+01 1.778555000000000064e+03
2.400000000000000050e-02 1.397710000000000063e-01 2.632939999999999969e+01 7.051795000000001323e+01 1.779055000000000064e+03
2.500000000000000139e-02 1.398309999999999831e-01 2.677329999999999899e+01 7.217220000000000368e+01 1.779574999999999818e+03
2.600000000000000228e-02 1.398864999999999970e-01 2.703950000000000031e+01 7.345319999999999538e+01 1.780059999999999945e+03
2.700000000000000316e-02 1.399325000000000152e-01 2.711009999999999920e+01 7.425934999999999775e+01 1.780470000000000027e+03
2.800000000000000058e-02 1.399655000000000205e-01 2.700019999999999953e+01 7.459239999999999782e+01 1.780775000000000091e+03
2.900000000000000147e-02 1.399854999999999849e-01 2.674860000000000326e+01 7.453945000000000221e+01 1.780960000000000036e+03
3.000000000000000236e-02 1.399949999999999806e-01 2.640375000000000227e+01 7.423635000000000161e+01 1.781059999999999945e+03
3.099999999999999978e-02 1.399964999999999959e-01 2.601014999999999944e+01 7.382384999999999309e+01 1.781085000000000036e+03
3.200000000000000067e-02 1.399934999999999929e-01 2.559779999999999944e+01 7.341149999999998954e+01 1.781065000000000055e+03
3.300000000000000155e-02 1.399890000000000023e-01 2.517824999999999847e+01 7.305574999999998909e+01 1.781034999999999854e+03
3.400000000000000244e-02 1.399835000000000107e-01 2.474654999999999916e+01 7.275775000000000148e+01 1.780990000000000009e+03
3.500000000000000333e-02 1.399770000000000181e-01 2.428730000000000189e+01 7.247644999999999982e+01 1.780934999999999945e+03
3.600000000000000422e-02 1.399680000000000091e-01 2.378355000000000175e+01 7.215174999999999272e+01 1.780869999999999891e+03
3.700000000000000511e-02 1.399569999999999981e-01 2.322484999999999999e+01 7.173064999999999714e+01 1.780779999999999973e+03
3.799999999999999906e-02 1.399420000000000108e-01 2.261355000000000004e+01 7.118854999999999222e+01 1.780654999999999973e+03
3.899999999999999994e-02 1.399225000000000052e-01 2.196710000000000207e+01 7.054214999999999236e+01 1.780494999999999891e+03
4.000000000000000083e-02 1.399009999999999976e-01 2.131685000000000230e+01 6.985034999999999172e+01 1.780309999999999945e+03
4.100000000000000172e-02 1.398774999999999880e-01 2.070284999999999798e+01 6.920404999999999518e+01 1.780119999999999891e+03
4.200000000000000261e-02 1.398564999999999947e-01 2.016669999999999874e+01 6.870794999999999675e+01 1.779944999999999936e+03
4.300000000000000350e-02 1.398415000000000075e-01 1.974349999999999739e+01 6.845820000000000505e+01 1.779809999999999945e+03
4.400000000000000439e-02 1.398340000000000138e-01 1.945544999999999902e+01 6.852199999999999136e+01 1.779744999999999891e+03
4.499999999999999833e-02 1.398365000000000025e-01 1.930780000000000030e+01 6.892324999999999591e+01 1.779755000000000109e+03
4.599999999999999922e-02 1.398495000000000155e-01 1.928775000000000261e+01 6.963669999999999050e+01 1.779855000000000018e+03
4.700000000000000011e-02 1.398725000000000107e-01 1.936690000000000111e+01 7.059215000000000373e+01 1.780045000000000073e+03
4.800000000000000100e-02 1.399029999999999996e-01 1.950549999999999784e+01 7.168484999999999729e+01 1.780295000000000073e+03
4.900000000000000189e-02 1.399380000000000068e-01 1.965814999999999912e+01 7.279204999999998904e+01 1.780585000000000036e+03
5.000000000000000278e-02 1.399739999999999873e-01 1.977974999999999994e+01 7.378969999999999629e+01 1.780894999999999982e+03
5.100000000000000366e-02 1.400069999999999926e-01 1.983015000000000327e+01 7.456825000000000614e+01 1.781170000000000073e+03
5.200000000000000455e-02 1.400339999999999918e-01 1.977799999999999869e+01 7.504364999999999952e+01 1.781400000000000091e+03
5.300000000000000544e-02 1.400514999999999954e-01 1.960244999999999749e+01 7.516384999999999650e+01 1.781554999999999836e+03
5.399999999999999939e-02 1.400580000000000158e-01 1.929335000000000022e+01 7.490964999999999918e+01 1.781615000000000009e+03
5.500000000000000028e-02 1.400524999999999964e-01 1.885040000000000049e+01 7.429160000000000252e+01 1.781569999999999936e+03
5.600000000000000117e-02 1.400339999999999918e-01 1.828105000000000047e+01 7.334340000000000259e+01 1.781420000000000073e+03
5.700000000000000205e-02 1.400045000000000039e-01 1.759834999999999994e+01 7.211435000000000173e+01 1.781174999999999955e+03
5.800000000000000294e-02 1.399644999999999917e-01 1.681925000000000026e+01 7.066210000000000946e+01 1.780839999999999918e+03
5.900000000000000383e-02 1.399159999999999848e-01 1.596269999999999989e+01 6.904640000000000555e+01 1.780434999999999945e+03
6.000000000000000472e-02 1.398599999999999843e-01 1.504865000000000030e+01 6.732524999999999693e+01 1.779960000000000036e+03
6.099999999999999867e-02 1.397984999999999922e-01 1.409779999999999944e+01 6.555279999999999063e+01 1.779444999999999936e+03
6.199999999999999956e-02 1.397345000000000115e-01 1.313124999999999964e+01 6.377939999999999543e+01 1.778900000000000091e+03
6.300000000000000044e-02 1.396684999999999732e-01 1.217084999999999972e+01 6.205245000000000033e+01 1.778339999999999918e+03
6.400000000000000133e-02 1.396034999999999915e-01 1.123940999999999946e+01 6.041809999999999548e+01 1.777789999999999964e+03
6.500000000000000222e-02 1.395405000000000117e-01 1.036079999999999934e+01 5.892249999999999943e+01 1.777250000000000000e+03
6.600000000000000311e-02 1.394814999999999805e-01 9.559705000000001007e+00 5.761260000000000048e+01 1.776744999999999891e+03
6.700000000000000400e-02 1.394285000000000108e-01 8.861264999999999503e+00 5.653624999999999545e+01 1.776289999999999964e+03
6.800000000000000488e-02 1.393840000000000079e-01 8.290300000000000225e+00 5.574110000000000298e+01 1.775905000000000200e+03
6.900000000000000577e-02 1.393490000000000006e-01 7.870490000000000208e+00 5.527289999999999992e+01 1.775599999999999909e+03
7.000000000000000666e-02 1.393250000000000044e-01 7.623120000000000118e+00 5.517319999999999425e+01 1.775389999999999873e+03
7.100000000000000755e-02 1.393145000000000078e-01 7.566164999999999807e+00 5.547679999999999723e+01 1.775295000000000073e+03
7.200000000000000844e-02 1.393189999999999984e-01 7.713300000000000267e+00 5.620974999999999966e+01 1.775315000000000055e+03
7.300000000000000933e-02 1.393389999999999906e-01 8.073130000000000805e+00 5.738700000000000045e+01 1.775469999999999800e+03
7.399999999999999634e-02 1.393754999999999855e-01 8.648765000000000924e+00 5.901160000000000139e+01 1.775769999999999982e+03
7.499999999999999722e-02 1.394289999999999974e-01 9.437619999999999010e+00 6.107385000000000019e+01 1.776210000000000036e+03
7.599999999999999811e-02 1.394989999999999841e-01 1.043151500000000098e+01 6.355225000000000080e+01 1.776784999999999854e+03
7.699999999999999900e-02 1.395845000000000002e-01 1.161730499999999999e+01 6.641415000000000646e+01 1.777500000000000000e+03
7.799999999999999989e-02 1.396855000000000180e-01 1.297729999999999961e+01 6.961780000000000257e+01 1.778349999999999909e+03
7.900000000000000078e-02 1.398004999999999942e-01 1.449024999999999963e+01 7.311430000000000007e+01 1.779319999999999936e+03
8.000000000000000167e-02 1.399274999999999824e-01 1.613230000000000075e+01 7.685044999999999504e+01 1.780389999999999873e+03
8.100000000000000255e-02 1.400649999999999951e-01 1.787804999999999822e+01 8.077080000000000837e+01 1.781559999999999945e+03
8.200000000000000344e-02 1.402114999999999889e-01 1.970145000000000124e+01 8.482065000000000055e+01 1.782799999999999955e+03
8.300000000000000433e-02 1.403639999999999888e-01 2.157695000000000007e+01 8.894804999999999495e+01 1.784105000000000018e+03
8.400000000000000522e-02 1.405215000000000214e-01 2.348019999999999996e+01 9.310595000000000709e+01 1.785449999999999818e+03
8.500000000000000611e-02 1.406815000000000149e-01 2.538915000000000077e+01 9.725294999999999845e+01 1.786825000000000045e+03
8.600000000000000699e-02 1.408435000000000104e-01 2.728410000000000224e+01 1.013563000000000045e+02 1.788215000000000146e+03
8.700000000000000788e-02 1.410049999999999915e-01 2.914855000000000018e+01 1.053897499999999923e+02 1.789615000000000009e+03
8.800000000000000877e-02 1.411660000000000137e-01 3.096909999999999741e+01 1.093365000000000009e+02 1.791000000000000000e+03
8.899999999999999578e-02 1.413244999999999918e-01 3.273569999999999425e+01 1.131864999999999952e+02 1.792380000000000109e+03
8.999999999999999667e-02 1.414815000000000100e-01 3.444129999999999825e+01 1.169360000000000070e+02 1.793735000000000127e+03
9.099999999999999756e-02 1.416350000000000109e-01 3.608155000000000001e+01 1.205884999999999962e+02 1.795074999999999818e+03
9.199999999999999845e-02 1.417855000000000087e-01 3.765425000000000466e+01 1.241485000000000127e+02 1.796389999999999873e+03
9.299999999999999933e-02 1.419330000000000036e-01 3.915900000000000603e+01 1.276254999999999882e+02 1.797679999999999836e+03
9.400000000000000022e-02 1.420779999999999821e-01 4.059655000000000058e+01 1.310289999999999964e+02 1.798950000000000045e+03
9.500000000000000111e-02 1.422204999999999997e-01 4.196840000000000259e+01 1.343684999999999832e+02 1.800199999999999818e+03
9.600000000000000200e-02 1.423605000000000009e-01 4.327609999999999957e+01 1.376500000000000057e+02 1.801429999999999836e+03
9.700000000000000289e-02 1.424980000000000135e-01 4.452089999999999748e+01 1.408784999999999741e+02 1.802644999999999982e+03
9.800000000000000377e-02 1.426339999999999830e-01 4.570364999999999611e+01 1.440564999999999998e+02 1.803840000000000146e+03
9.900000000000000466e-02 1.427674999999999916e-01 4.682420000000000471e+01 1.471809999999999832e+02 1.805019999999999982e+03
1.000000000000000056e-01 1.428989999999999982e-01 4.788179999999999836e+01 1.502470000000000141e+02 1.806184999999999945e+03
1.010000000000000064e-01 1.430279999999999885e-01 4.887454999999999927e+01 1.532460000000000093e+02 1.807325000000000045e+03
1.020000000000000073e-01 1.431550000000000045e-01 4.979990000000000094e+01 1.561670000000000016e+02 1.808445000000000164e+03
1.030000000000000082e-01 1.432785000000000031e-01 5.065435000000000088e+01 1.589970000000000141e+02 1.809539999999999964e+03
1.040000000000000091e-01 1.433979999999999977e-01 5.143399999999999750e+01 1.617205000000000155e+02 1.810605000000000018e+03
1.050000000000000100e-01 1.435140000000000027e-01 5.213445000000000107e+01 1.643230000000000075e+02 1.811634999999999991e+03
1.059999999999999970e-01 1.436254999999999893e-01 5.275119999999999720e+01 1.667874999999999943e+02 1.812625000000000000e+03
1.069999999999999979e-01 1.437315000000000120e-01 5.327989999999999782e+01 1.691009999999999991e+02 1.813570000000000164e+03
1.079999999999999988e-01 1.438315000000000010e-01 5.371614999999999895e+01 1.712479999999999905e+02 1.814465000000000146e+03
1.089999999999999997e-01 1.439254999999999840e-01 5.405630000000000024e+01 1.732164999999999964e+02 1.815309999999999945e+03
1.100000000000000006e-01 1.440130000000000021e-01 5.429710000000000036e+01 1.749954999999999927e+02 1.816085000000000036e+03
1.110000000000000014e-01 1.440929999999999989e-01 5.443605000000000160e+01 1.765759999999999934e+02 1.816805000000000064e+03
1.120000000000000023e-01 1.441655000000000020e-01 5.447190000000000509e+01 1.779519999999999982e+02 1.817460000000000036e+03
1.130000000000000032e-01 1.442295000000000105e-01 5.440409999999999968e+01 1.791200000000000045e+02 1.818039999999999964e+03
1.140000000000000041e-01 1.442855000000000110e-01 5.423329999999999984e+01 1.800790000000000077e+02 1.818549999999999955e+03
1.150000000000000050e-01 1.443344999999999767e-01 5.396160000000000423e+01 1.808310000000000173e+02 1.818984999999999900e+03
1.160000000000000059e-01 1.443740000000000023e-01 5.359215000000000373e+01 1.813810000000000002e+02 1.819355000000000018e+03
1.170000000000000068e-01 1.444060000000000066e-01 5.312939999999999685e+01 1.817355000000000018e+02 1.819644999999999982e+03
1.180000000000000077e-01 1.444300000000000028e-01 5.257909999999999684e+01 1.819060000000000059e+02 1.819869999999999891e+03
1.190000000000000085e-01 1.444464999999999777e-01 5.194804999999999495e+01 1.819044999999999845e+02 1.820030000000000200e+03
1.200000000000000094e-01 1.444560000000000011e-01 5.124405000000000143e+01 1.817454999999999927e+02 1.820115000000000009e+03
1.209999999999999964e-01 1.444590000000000041e-01 5.047574999999999790e+01 1.814465000000000146e+02 1.820154999999999973e+03
1.219999999999999973e-01 1.444560000000000011e-01 4.965250000000000341e+01 1.810244999999999891e+02 1.820134999999999991e+03
1.229999999999999982e-01 1.444469999999999921e-01 4.878385000000000105e+01 1.804975000000000023e+02 1.820065000000000055e+03
1.239999999999999991e-01 1.444340000000000068e-01 4.787969999999999970e+01 1.798854999999999791e+02 1.819949999999999818e+03
1.250000000000000000e-01 1.444169999999999898e-01 4.694955000000000211e+01 1.792055000000000007e+02 1.819805000000000064e+03
1.260000000000000009e-01 1.443960000000000243e-01 4.600284999999999513e+01 1.784755000000000109e+02 1.819625000000000000e+03
1.270000000000000018e-01 1.443725000000000147e-01 4.504814999999999969e+01 1.777110000000000127e+02 1.819420000000000073e+03
1.280000000000000027e-01 1.443470000000000031e-01 4.409345000000000425e+01 1.769265000000000043e+02 1.819200000000000045e+03
1.290000000000000036e-01 1.443200000000000038e-01 4.314555000000000007e+01 1.761329999999999814e+02 1.818960000000000036e+03
1.300000000000000044e-01 1.442920000000000036e-01 4.221025000000000205e+01 1.753414999999999964e+02 1.818710000000000036e+03
1.310000000000000053e-01 1.442630000000000023e-01 4.129210000000000491e+01 1.745570000000000164e+02 1.818454999999999927e+03
1.320000000000000062e-01 1.442340000000000011e-01 4.039449999999999363e+01 1.737860000000000014e+02 1.818194999999999936e+03
1.330000000000000071e-01 1.442045000000000132e-01 3.951944999999999908e+01 1.730289999999999964e+02 1.817934999999999945e+03
1.340000000000000080e-01 1.441755000000000120e-01 3.866779999999999973e+01 1.722864999999999895e+02 1.817675000000000182e+03
1.350000000000000089e-01 1.441459999999999964e-01 3.783930000000000149e+01 1.715554999999999950e+02 1.817410000000000082e+03
1.360000000000000098e-01 1.441175000000000095e-01 3.703255000000000052e+01 1.708310000000000173e+02 1.817155000000000200e+03
1.370000000000000107e-01 1.440879999999999939e-01 3.624535000000000196e+01 1.701075000000000159e+02 1.816894999999999982e+03
1.380000000000000115e-01 1.440584999999999782e-01 3.547464999999999691e+01 1.693774999999999977e+02 1.816630000000000109e+03
1.390000000000000124e-01 1.440289999999999904e-01 3.471705000000000041e+01 1.686329999999999814e+02 1.816365000000000009e+03
1.400000000000000133e-01 1.439989999999999881e-01 3.396840000000000259e+01 1.678665000000000020e+02 1.816090000000000146e+03
1.410000000000000142e-01 1.439670000000000116e-01 3.322480000000000189e+01 1.670674999999999955e+02 1.815815000000000055e+03
1.420000000000000151e-01 1.439354999999999940e-01 3.248199999999999932e+01 1.662300000000000182e+02 1.815525000000000091e+03
1.430000000000000160e-01 1.439015000000000155e-01 3.173610000000000042e+01 1.653460000000000036e+02 1.815224999999999909e+03
1.440000000000000169e-01 1.438654999999999795e-01 3.098349999999999937e+01 1.644085000000000036e+02 1.814905000000000200e+03
1.450000000000000178e-01 1.438274999999999970e-01 3.022114999999999796e+01 1.634125000000000227e+02 1.814574999999999818e+03
1.459999999999999909e-01 1.437884999999999858e-01 2.944664999999999822e+01 1.623555000000000064e+02 1.814220000000000027e+03
1.469999999999999918e-01 1.437459999999999849e-01 2.865820000000000078e+01 1.612355000000000018e+02 1.813849999999999909e+03
1.479999999999999927e-01 1.437019999999999964e-01 2.785500000000000043e+01 1.600529999999999973e+02 1.813454999999999927e+03
1.489999999999999936e-01 1.436549999999999772e-01 2.703709999999999880e+01 1.588095000000000141e+02 1.813045000000000073e+03
1.499999999999999944e-01 1.436060000000000114e-01 2.620544999999999902e+01 1.575090000000000146e+02 1.812615000000000009e+03
1.509999999999999953e-01 1.435549999999999882e-01 2.536179999999999879e+01 1.561585000000000036e+02 1.812159999999999854e+03
1.519999999999999962e-01 1.435015000000000041e-01 2.450889999999999702e+01 1.547640000000000100e+02 1.811690000000000055e+03
1.529999999999999971e-01 1.434464999999999768e-01 2.365015000000000001e+01 1.533354999999999961e+02 1.811204999999999927e+03
1.539999999999999980e-01 1.433900000000000174e-01 2.278965000000000174e+01 1.518829999999999814e+02 1.810704999999999927e+03
1.549999999999999989e-01 1.433325000000000016e-01 2.193220000000000169e+01 1.504184999999999945e+02 1.810200000000000045e+03
1.559999999999999998e-01 1.432740000000000125e-01 2.108279999999999887e+01 1.489535000000000196e+02 1.809684999999999945e+03
1.570000000000000007e-01 1.432154999999999956e-01 2.024680000000000035e+01 1.475004999999999882e+02 1.809170000000000073e+03
1.580000000000000016e-01 1.431570000000000065e-01 1.942965000000000231e+01 1.460705000000000098e+02 1.808654999999999973e+03
1.590000000000000024e-01 1.430990000000000040e-01 1.863659999999999783e+01 1.446759999999999877e+02 1.808144999999999982e+03
