# t [s], A [cm^2], U [cm/s], P [cPa], c [cm/s]
1.000000000000000021e-03 6.729264999999999830e-01 7.090100000000001956e-03 1.089770000000000039e+02 1.796869999999999891e+03
2.000000000000000042e-03 6.729164999999999175e-01 -6.636649999999999147e-04 1.089449999999999932e+02 1.796865000000000009e+03
3.000000000000000062e-03 6.729750000000001009e-01 1.072224999999999984e-01 1.090799999999999983e+02 1.796894999999999982e+03
4.000000000000000083e-03 6.730169999999999764e-01 1.984687499999999993e-01 1.092060000000000031e+02 1.796924999999999955e+03
5.000000000000000104e-03 6.729769999999999364e-01 1.496788500000000022e-01 1.090960000000000036e+02 1.796904999999999973e+03
6.000000000000000125e-03 6.729125000000000245e-01 5.141050000000002562e-02 1.088299999999999983e+02 1.796844999999999800e+03
7.000000000000000146e-03 6.728555000000000508e-01 -4.320150000000000379e-02 1.085035000000000025e+02 1.796769999999999982e+03
8.000000000000000167e-03 6.727529999999999344e-01 -2.369350000000000067e-01 1.079890000000000043e+02 1.796659999999999854e+03
9.000000000000001055e-03 6.725864999999999760e-01 -5.703550000000000564e-01 1.071955000000000098e+02 1.796485000000000127e+03
1.000000000000000194e-02 6.723419999999999952e-01 -1.062610000000000054e+00 1.060494999999999948e+02 1.796230000000000018e+03
1.099999999999999936e-02 6.719979999999999842e-01 -1.742124999999999924e+00 1.044534500000000037e+02 1.795875000000000000e+03
1.200000000000000025e-02 6.715704999999999592e-01 -2.555754999999999555e+00 1.024206000000000074e+02 1.795409999999999854e+03
1.300000000000000114e-02 6.711279999999999468e-01 -3.342340000000000089e+00 1.001452000000000027e+02 1.794869999999999891e+03
1.400000000000000203e-02 6.707460000000000644e-01 -3.920469999999999899e+00 9.790715000000000146e+01 1.794325000000000045e+03
1.499999999999999944e-02 6.704579999999999984e-01 -4.184916499999999928e+00 9.591970000000000596e+01 1.793804999999999836e+03
1.600000000000000033e-02 6.702489999999999837e-01 -4.136937999999999782e+00 9.424930000000000518e+01 1.793340000000000146e+03
1.700000000000000122e-02 6.700744999999999063e-01 -3.855699999999999683e+00 9.282319999999999993e+01 1.792920000000000073e+03
1.800000000000000211e-02 6.698859999999999815e-01 -3.446604999999999919e+00 9.149349999999999739e+01 1.792514999999999873e+03
1.900000000000000300e-02 6.696495000000000086e-01 -2.994375999999999927e+00 9.011390000000000100e+01 1.792105000000000018e+03
2.000000000000000042e-02 6.693584999999999674e-01 -2.536124000000000045e+00 8.859794999999999732e+01 1.791670000000000073e+03
2.100000000000000130e-02 6.690285000000000259e-01 -2.059979999999999922e+00 8.694235000000000468e+01 1.791200000000000045e+03
2.200000000000000219e-02 6.686875000000001013e-01 -1.526150000000000118e+00 8.520950000000000557e+01 1.790704999999999927e+03
2.299999999999999961e-02 6.683584999999999665e-01 -8.982350000000001167e-01 8.348419999999998709e+01 1.790219999999999800e+03
2.400000000000000050e-02 6.680515000000000203e-01 -1.699250000000001037e-01 8.182570000000001187e+01 1.789735000000000127e+03
2.500000000000000139e-02 6.677575000000000038e-01 6.229950000000001875e-01 8.023564999999999259e+01 1.789264999999999873e+03
2.600000000000000228e-02 6.674504999999999466e-01 1.407040000000000068e+00 7.865059999999999718e+01 1.788799999999999955e+03
2.700000000000000316e-02 6.670985000000000387e-01 2.088239999999999874e+00 7.695830000000000837e+01 1.788315000000000055e+03
2.800000000000000058e-02 6.666725000000000012e-01 2.576155000000000417e+00 7.503085000000000093e+01 1.787784999999999854e+03
2.900000000000000147e-02 6.661555000000000115e-01 2.807830000000000048e+00 7.276545000000000130e+01 1.787179999999999836e+03
3.000000000000000236e-02 6.655500000000000860e-01 2.764440000000000008e+00 7.011955000000000382e+01 1.786494999999999891e+03
3.099999999999999978e-02 6.648764999999999814e-01 2.475194999999999812e+00 6.712940000000000396e+01 1.785730000000000018e+03
3.200000000000000067e-02 6.641719999999999846e-01 2.007235000000000547e+00 6.390524999999999523e+01 1.784914999999999964e+03
3.300000000000000155e-02 6.634765000000000246e-01 1.447104999999999642e+00 6.060769999999999413e+01 1.784070000000000164e+03
3.400000000000000244e-02 6.628285000000000426e-01 8.805650000000002642e-01 5.741490000000000293e+01 1.783240000000000009e+03
3.500000000000000333e-02 6.622574999999999434e-01 3.778199999999993786e-01 5.449200000000000443e+01 1.782465000000000146e+03
3.600000000000000422e-02 6.617819999999999814e-01 -1.341499999999973269e-02 5.197044999999999959e+01 1.781779999999999973e+03
3.700000000000000511e-02 6.614109999999999712e-01 -2.676600000000002311e-01 4.993820000000000192e+01 1.781200000000000045e+03
3.799999999999999906e-02 6.611445000000000238e-01 -3.762449999999999406e-01 4.844134999999999991e+01 1.780755000000000109e+03
3.899999999999999994e-02 6.609814999999999996e-01 -3.397049999999999237e-01 4.749255000000000138e+01 1.780440000000000055e+03
4.000000000000000083e-02 6.609165000000000179e-01 -1.603899999999999770e-01 4.708339999999999748e+01 1.780259999999999991e+03
4.100000000000000172e-02 6.609480000000000910e-01 1.626354999999999884e-01 4.719629999999999370e+01 1.780220000000000027e+03
4.200000000000000261e-02 6.610724999999999518e-01 6.353150000000000741e-01 4.781269999999999953e+01 1.780309999999999945e+03
4.300000000000000350e-02 6.612909999999999622e-01 1.266990000000000283e+00 4.891665000000000418e+01 1.780535000000000082e+03
4.400000000000000439e-02 6.616014999999999535e-01 2.066529999999999756e+00 5.049275000000000091e+01 1.780880000000000109e+03
4.499999999999999833e-02 6.620010000000000616e-01 3.037789999999999324e+00 5.252199999999999847e+01 1.781345000000000027e+03
4.599999999999999922e-02 6.624840000000000728e-01 4.176000000000000156e+00 5.497589999999999577e+01 1.781920000000000073e+03
4.700000000000000011e-02 6.630404999999999216e-01 5.466039999999999566e+00 5.781320000000000192e+01 1.782610000000000127e+03
4.800000000000000100e-02 6.636575000000000113e-01 6.882839500000000221e+00 6.097820000000000107e+01 1.783380000000000109e+03
4.900000000000000189e-02 6.643194999999999517e-01 8.393731500000001233e+00 6.440315000000001078e+01 1.784235000000000127e+03
5.000000000000000278e-02 6.650099999999999900e-01 9.961954999999999671e+00 6.801229999999999620e+01 1.785144999999999982e+03
5.100000000000000366e-02 6.657140000000000279e-01 1.155035499999999971e+01 7.172809999999999775e+01 1.786090000000000146e+03
5.200000000000000455e-02 6.664179999999999549e-01 1.312477499999999964e+01 7.547729999999999961e+01 1.787065000000000055e+03
5.300000000000000544e-02 6.671110000000000095e-01 1.465686000000000000e+01 7.919674999999999443e+01 1.788034999999999854e+03
5.399999999999999939e-02 6.677855000000000318e-01 1.612528999999999968e+01 8.283670000000000755e+01 1.789000000000000000e+03
5.500000000000000028e-02 6.684364999999999890e-01 1.751600000000000179e+01 8.636324999999999363e+01 1.789954999999999927e+03
5.600000000000000117e-02 6.690639999999999921e-01 1.882169999999999987e+01 8.975794999999999391e+01 1.790875000000000000e+03
5.700000000000000205e-02 6.696684999999999999e-01 2.004059999999999775e+01 9.301689999999999259e+01 1.791769999999999982e+03
5.800000000000000294e-02 6.702529999999999877e-01 2.117520000000000024e+01 9.614679999999999893e+01 1.792634999999999991e+03
5.900000000000000383e-02 6.708194999999999020e-01 2.223015000000000185e+01 9.916239999999999100e+01 1.793470000000000027e+03
6.000000000000000472e-02 6.713739999999999153e-01 2.321170000000000044e+01 1.020828999999999951e+02 1.794279999999999973e+03
6.099999999999999867e-02 6.719180000000000152e-01 2.412604999999999933e+01 1.049283499999999947e+02 1.795075000000000045e+03
6.199999999999999956e-02 6.724559999999999427e-01 2.497824999999999918e+01 1.077179999999999893e+02 1.795855000000000018e+03
6.300000000000000044e-02 6.729879999999999196e-01 2.577190000000000225e+01 1.104645000000000010e+02 1.796619999999999891e+03
6.400000000000000133e-02 6.735160000000000036e-01 2.650840000000000174e+01 1.131750000000000114e+02 1.797375000000000000e+03
6.500000000000000222e-02 6.740380000000000260e-01 2.718684999999999974e+01 1.158515000000000015e+02 1.798125000000000000e+03
6.600000000000000311e-02 6.745514999999999706e-01 2.780434999999999945e+01 1.184855000000000018e+02 1.798860000000000127e+03
6.700000000000000400e-02 6.750545000000000018e-01 2.835630000000000095e+01 1.210645000000000095e+02 1.799579999999999927e+03
6.800000000000000488e-02 6.755420000000000869e-01 2.883720000000000283e+01 1.235699999999999932e+02 1.800284999999999854e+03
6.900000000000000577e-02 6.760094999999999299e-01 2.924119999999999919e+01 1.259805000000000064e+02 1.800965000000000146e+03
7.000000000000000666e-02 6.764535000000000409e-01 2.956265000000000143e+01 1.282735000000000127e+02 1.801615000000000009e+03
7.100000000000000755e-02 6.768695000000000128e-01 2.979690000000000083e+01 1.304269999999999925e+02 1.802234999999999900e+03
7.200000000000000844e-02 6.772540000000000227e-01 2.994059999999999988e+01 1.324200000000000159e+02 1.802809999999999945e+03
7.300000000000000933e-02 6.776039999999999841e-01 2.999170000000000158e+01 1.342375000000000114e+02 1.803345000000000027e+03
7.399999999999999634e-02 6.779180000000000206e-01 2.994955000000000211e+01 1.358654999999999973e+02 1.803820000000000164e+03
7.499999999999999722e-02 6.781939999999999635e-01 2.981494999999999962e+01 1.372944999999999993e+02 1.804255000000000109e+03
7.599999999999999811e-02 6.784319999999999240e-01 2.959015000000000128e+01 1.385204999999999984e+02 1.804630000000000109e+03
7.699999999999999900e-02 6.786315000000000541e-01 2.927864999999999895e+01 1.395420000000000016e+02 1.804950000000000045e+03
7.799999999999999989e-02 6.787935000000000496e-01 2.888524999999999920e+01 1.403625000000000114e+02 1.805220000000000027e+03
7.900000000000000078e-02 6.789195000000000091e-01 2.841629999999999967e+01 1.409894999999999925e+02 1.805434999999999945e+03
8.000000000000000167e-02 6.790114999999999901e-01 2.787950000000000017e+01 1.414329999999999927e+02 1.805599999999999909e+03
8.100000000000000255e-02 6.790720000000000089e-01 2.728385000000000105e+01 1.417074999999999818e+02 1.805715000000000146e+03
8.200000000000000344e-02 6.791050000000000697e-01 2.663969999999999771e+01 1.418310000000000173e+02 1.805789999999999964e+03
8.300000000000000433e-02 6.791139999999999954e-01 2.595814999999999984e+01 1.418224999999999909e+02 1.805820000000000164e+03
8.400000000000000522e-02 6.791039999999999299e-01 2.525099999999999767e+01 1.417050000000000125e+02 1.805820000000000164e+03
8.500000000000000611e-02 6.790785000000000293e-01 2.453004999999999924e+01 1.415014999999999930e+02 1.805795000000000073e+03
8.600000000000000699e-02 6.790415000000000756e-01 2.380669999999999931e+01 1.412339999999999804e+02 1.805744999999999891e+03
8.700000000000000788e-02 6.789985000000000603e-01 2.309120000000000061e+01 1.409244999999999948e+02 1.805679999999999836e+03
8.800000000000000877e-02 6.789514999999999301e-01 2.239229999999999876e+01 1.405930000000000177e+02 1.805599999999999909e+03
8.899999999999999578e-02 6.789030000000000342e-01 2.171669999999999945e+01 1.402560000000000002e+02 1.805519999999999982e+03
8.999999999999999667e-02 6.788549999999999862e-01 2.106895000000000095e+01 1.399240000000000066e+02 1.805440000000000055e+03
9.099999999999999756e-02 6.788095000000000656e-01 2.045125000000000171e+01 1.396059999999999945e+02 1.805355000000000018e+03
9.199999999999999845e-02 6.787650000000000627e-01 1.986345000000000027e+01 1.393054999999999950e+02 1.805269999999999982e+03
9.299999999999999933e-02 6.787220000000000475e-01 1.930355000000000132e+01 1.390219999999999914e+02 1.805190000000000055e+03
9.400000000000000022e-02 6.786794999999999911e-01 1.876774999999999949e+01 1.387504999999999882e+02 1.805110000000000127e+03
9.500000000000000111e-02 6.786354999999999471e-01 1.825094999999999956e+01 1.384839999999999804e+02 1.805034999999999854e+03
9.600000000000000200e-02 6.785879999999999690e-01 1.774714999999999776e+01 1.382135000000000105e+02 1.804954999999999927e+03
9.700000000000000289e-02 6.785354999999999581e-01 1.724990000000000023e+01 1.379284999999999854e+02 1.804875000000000000e+03
9.800000000000000377e-02 6.784755000000000091e-01 1.675280000000000058e+01 1.376185000000000116e+02 1.804789999999999964e+03
9.900000000000000466e-02 6.784075000000000522e-01 1.624974999999999881e+01 1.372744999999999891e+02 1.804690000000000055e+03
1.000000000000000056e-01 6.783289999999999598e-01 1.573539999999999850e+01 1.368874999999999886e+02 1.804590000000000146e+03
1.010000000000000064e-01 6.782394999999999952e-01 1.520550000000000068e+01 1.364505000000000052e+02 1.804474999999999909e+03
1.020000000000000073e-01 6.781395000000000062e-01 1.465700000000000003e+01 1.359604999999999961e+02 1.804345000000000027e+03
1.030000000000000082e-01 6.780280000000000751e-01 1.408844999999999992e+01 1.354175000000000182e+02 1.804204999999999927e+03
1.040000000000000091e-01 6.779070000000000373e-01 1.350007000000000090e+01 1.348240000000000123e+02 1.804049999999999955e+03
1.050000000000000100e-01 6.777774999999999217e-01 1.289382499999999965e+01 1.341850000000000023e+02 1.803880000000000109e+03
1.059999999999999970e-01 6.776415000000000077e-01 1.227319499999999941e+01 1.335115000000000123e+02 1.803699999999999818e+03
1.069999999999999979e-01 6.775024999999998965e-01 1.164316499999999976e+01 1.328145000000000095e+02 1.803519999999999982e+03
1.079999999999999988e-01 6.773629999999999374e-01 1.101019499999999951e+01 1.321090000000000089e+02 1.803335000000000036e+03
1.089999999999999997e-01 6.772274999999999823e-01 1.038139999999999930e+01 1.314110000000000014e+02 1.803150000000000091e+03
1.100000000000000006e-01 6.770975000000000188e-01 9.764789999999999637e+00 1.307390000000000043e+02 1.802965000000000146e+03
1.110000000000000014e-01 6.769775000000000098e-01 9.168385000000000673e+00 1.301099999999999852e+02 1.802789999999999964e+03
1.120000000000000023e-01 6.768710000000000004e-01 8.600080000000000169e+00 1.295405000000000086e+02 1.802634999999999991e+03
1.130000000000000032e-01 6.767805000000000071e-01 8.067154999999999632e+00 1.290465000000000089e+02 1.802494999999999891e+03
1.140000000000000041e-01 6.767079999999999762e-01 7.575919999999999987e+00 1.286410000000000196e+02 1.802380000000000109e+03
1.150000000000000050e-01 6.766555000000000764e-01 7.131445000000000256e+00 1.283334999999999866e+02 1.802280000000000200e+03
1.160000000000000059e-01 6.766235000000000444e-01 6.737244999999999706e+00 1.281320000000000050e+02 1.802215000000000146e+03
1.170000000000000068e-01 6.766134999999999788e-01 6.395199999999999996e+00 1.280384999999999991e+02 1.802170000000000073e+03
1.180000000000000077e-01 6.766229999999999745e-01 6.105499999999999261e+00 1.280525000000000091e+02 1.802160000000000082e+03
1.190000000000000085e-01 6.766529999999999490e-01 5.866730000000000445e+00 1.281699999999999875e+02 1.802170000000000073e+03
1.200000000000000094e-01 6.766995000000000093e-01 5.676000000000000156e+00 1.283824999999999932e+02 1.802210000000000036e+03
1.209999999999999964e-01 6.767620000000000857e-01 5.529199999999999449e+00 1.286794999999999902e+02 1.802269999999999982e+03
1.219999999999999973e-01 6.768370000000000219e-01 5.421265000000000001e+00 1.290495000000000232e+02 1.802349999999999909e+03
1.229999999999999982e-01 6.769225000000000936e-01 5.346484999999999488e+00 1.294770000000000039e+02 1.802449999999999818e+03
1.239999999999999991e-01 6.770145000000000746e-01 5.298815000000000275e+00 1.299485000000000241e+02 1.802570000000000164e+03
1.250000000000000000e-01 6.771115000000000883e-01 5.272149999999999892e+00 1.304495000000000005e+02 1.802695000000000164e+03
1.260000000000000009e-01 6.772105000000000485e-01 5.260584999999999845e+00 1.309660000000000082e+02 1.802819999999999936e+03
1.270000000000000018e-01 6.773089999999999389e-01 5.258580000000000254e+00 1.314850000000000136e+02 1.802950000000000045e+03
1.280000000000000027e-01 6.774055000000001048e-01 5.261150000000000659e+00 1.319954999999999927e+02 1.803085000000000036e+03
1.290000000000000036e-01 6.774985000000000035e-01 5.263925000000000409e+00 1.324890000000000043e+02 1.803220000000000027e+03
1.300000000000000044e-01 6.775864999999999805e-01 5.263249999999999318e+00 1.329579999999999984e+02 1.803344999999999800e+03
1.310000000000000053e-01 6.776685000000000070e-01 5.256174999999999820e+00 1.333954999999999984e+02 1.803465000000000146e+03
1.320000000000000062e-01 6.777444999999999720e-01 5.240489999999999426e+00 1.337994999999999948e+02 1.803574999999999818e+03
1.330000000000000071e-01 6.778129999999999988e-01 5.214695000000000746e+00 1.341669999999999732e+02 1.803679999999999836e+03
1.340000000000000080e-01 6.778754999999999642e-01 5.177960000000000562e+00 1.344970000000000141e+02 1.803775000000000091e+03
1.350000000000000089e-01 6.779310000000000613e-01 5.130074999999999719e+00 1.347914999999999850e+02 1.803860000000000127e+03
1.360000000000000098e-01 6.779809999999999448e-01 5.071379999999999555e+00 1.350509999999999877e+02 1.803934999999999945e+03
1.370000000000000107e-01 6.780250000000000998e-01 5.002670000000000172e+00 1.352789999999999964e+02 1.804005000000000109e+03
1.380000000000000115e-01 6.780640000000000001e-01 4.925095000000000667e+00 1.354775000000000205e+02 1.804065000000000055e+03
1.390000000000000124e-01 6.780984999999999374e-01 4.840059999999999363e+00 1.356504999999999939e+02 1.804115000000000009e+03
1.400000000000000133e-01 6.781295000000000517e-01 4.749085000000000001e+00 1.358015000000000043e+02 1.804164999999999964e+03
1.410000000000000142e-01 6.781570000000000098e-01 4.653690000000000104e+00 1.359329999999999927e+02 1.804210000000000036e+03
1.420000000000000151e-01 6.781824999999999104e-01 4.555299999999999905e+00 1.360484999999999900e+02 1.804240000000000009e+03
1.430000000000000160e-01 6.782045000000000989e-01 4.455135000000000289e+00 1.361500000000000057e+02 1.804275000000000091e+03
1.440000000000000169e-01 6.782250000000000778e-01 4.354155000000000442e+00 1.362389999999999759e+02 1.804305000000000064e+03
1.450000000000000178e-01 6.782434999999999992e-01 4.253025000000000055e+00 1.363149999999999977e+02 1.804325000000000045e+03
1.459999999999999909e-01 6.782589999999999453e-01 4.152110000000000412e+00 1.363790000000000191e+02 1.804349999999999909e+03
1.469999999999999918e-01 6.782725000000000559e-01 4.051499999999999879e+00 1.364300000000000068e+02 1.804369999999999891e+03
1.479999999999999927e-01 6.782824999999998994e-01 3.951070000000000082e+00 1.364664999999999964e+02 1.804375000000000000e+03
1.489999999999999936e-01 6.782889999999999198e-01 3.850545000000000329e+00 1.364864999999999782e+02 1.804389999999999873e+03
1.499999999999999944e-01 6.782920000000000060e-01 3.749614999999999920e+00 1.364884999999999877e+02 1.804389999999999873e+03
1.509999999999999953e-01 6.782909999999999773e-01 3.647999999999999687e+00 1.364699999999999989e+02 1.804389999999999873e+03
1.519999999999999962e-01 6.782850000000000268e-01 3.545545000000000169e+00 1.364304999999999950e+02 1.804380000000000109e+03
1.529999999999999971e-01 6.782755000000000312e-01 3.442289999999999850e+00 1.363689999999999998e+02 1.804369999999999891e+03
1.539999999999999980e-01 6.782610000000000028e-01 3.338510000000000311e+00 1.362849999999999966e+02 1.804349999999999909e+03
1.549999999999999989e-01 6.782429999999999293e-01 3.234765000000000335e+00 1.361790000000000020e+02 1.804325000000000045e+03
1.559999999999999998e-01 6.782200000000000450e-01 3.131870000000000154e+00 1.360525000000000091e+02 1.804295000000000073e+03
1.570000000000000007e-01 6.781939999999999635e-01 3.030885000000000051e+00 1.359080000000000155e+02 1.804255000000000109e+03
1.580000000000000016e-01 6.781654999999999767e-01 2.933085000000000164e+00 1.357490000000000236e+02 1.804220000000000027e+03
1.590000000000000024e-01 6.781345000000000844e-01 2.839904999999999902e+00 1.355784999999999911e+02 1.804174999999999955e+03
