# t [s], A [cm^2], U [cm/s], P [cPa], c [cm/s]
1.000000000000000021e-03 1.527910000000000101e-01 2.897680000000000256e-01 1.011549499999999995e+02 1.749034999999999854e+03
2.000000000000000042e-03 1.527689999999999881e-01 1.833388500000000088e+00 9.825254999999999939e+01 1.748820000000000164e+03
3.000000000000000062e-03 1.526715000000000155e-01 3.729055999999999926e+00 9.453480000000000416e+01 1.747925000000000182e+03
4.000000000000000083e-03 1.525199999999999889e-01 5.822912999999999784e+00 9.034000000000000341e+01 1.746565000000000055e+03
5.000000000000000104e-03 1.523395000000000166e-01 8.065104999999999080e+00 8.630154999999999177e+01 1.744960000000000036e+03
6.000000000000000125e-03 1.521504999999999941e-01 1.036841500000000060e+01 8.279134999999999422e+01 1.743295000000000073e+03
7.000000000000000146e-03 1.519649999999999890e-01 1.259820500000000010e+01 7.983924999999999272e+01 1.741675000000000182e+03
8.000000000000000167e-03 1.517874999999999919e-01 1.463394500000000065e+01 7.728225000000000477e+01 1.740150000000000091e+03
9.000000000000001055e-03 1.516215000000000201e-01 1.642909999999999826e+01 7.499415000000000475e+01 1.738740000000000009e+03
1.000000000000000194e-02 1.514695000000000069e-01 1.799715000000000131e+01 7.296999999999999886e+01 1.737460000000000036e+03
1.099999999999999936e-02 1.513344999999999829e-01 1.935989999999999966e+01 7.123869999999999436e+01 1.736340000000000146e+03
1.200000000000000025e-02 1.512169999999999903e-01 2.052844999999999942e+01 6.979240000000000066e+01 1.735369999999999891e+03
1.300000000000000114e-02 1.511160000000000003e-01 2.151095000000000113e+01 6.859559999999999036e+01 1.734550000000000182e+03
1.400000000000000203e-02 1.510305000000000120e-01 2.231535000000000224e+01 6.760450000000000159e+01 1.733860000000000127e+03
1.499999999999999944e-02 1.509584999999999955e-01 2.294825000000000159e+01 6.676789999999999736e+01 1.733289999999999964e+03
1.600000000000000033e-02 1.508975000000000177e-01 2.342334999999999923e+01 6.604049999999999443e+01 1.732804999999999836e+03
1.700000000000000122e-02 1.508455000000000212e-01 2.377505000000000024e+01 6.541965000000000430e+01 1.732404999999999973e+03
1.800000000000000211e-02 1.508035000000000070e-01 2.406439999999999912e+01 6.497505000000001019e+01 1.732085000000000036e+03
1.900000000000000300e-02 1.507755000000000067e-01 2.436655000000000015e+01 6.483650000000000091e+01 1.731875000000000000e+03
2.000000000000000042e-02 1.507634999999999947e-01 2.474584999999999724e+01 6.513970000000000482e+01 1.731804999999999836e+03
2.100000000000000130e-02 1.507725000000000037e-01 2.523324999999999818e+01 6.595929999999999893e+01 1.731884999999999991e+03
2.200000000000000219e-02 1.508019999999999916e-01 2.581524999999999892e+01 6.726375000000000171e+01 1.732140000000000100e+03
2.299999999999999961e-02 1.508500000000000119e-01 2.643905000000000172e+01 6.891094999999999970e+01 1.732539999999999964e+03
2.400000000000000050e-02 1.509094999999999742e-01 2.702989999999999782e+01 7.068225000000001046e+01 1.733039999999999964e+03
2.500000000000000139e-02 1.509749999999999981e-01 2.751245000000000118e+01 7.233865000000000123e+01 1.733595000000000027e+03
2.600000000000000228e-02 1.510374999999999912e-01 2.782959999999999923e+01 7.367820000000000391e+01 1.734125000000000000e+03
2.700000000000000316e-02 1.510914999999999897e-01 2.795434999999999803e+01 7.457824999999999704e+01 1.734585000000000036e+03
2.800000000000000058e-02 1.511314999999999742e-01 2.789199999999999946e+01 7.501249999999998863e+01 1.734940000000000055e+03
2.900000000000000147e-02 1.511585000000000012e-01 2.767385000000000161e+01 7.504169999999999163e+01 1.735184999999999945e+03
3.000000000000000236e-02 1.511720000000000008e-01 2.734530000000000172e+01 7.478460000000001173e+01 1.735315000000000055e+03
3.099999999999999978e-02 1.511759999999999771e-01 2.695279999999999987e+01 7.437850000000000250e+01 1.735360000000000127e+03
3.200000000000000067e-02 1.511740000000000028e-01 2.653249999999999886e+01 7.394325000000000614e+01 1.735355000000000018e+03
3.300000000000000155e-02 1.511684999999999834e-01 2.610450000000000159e+01 7.355555000000001087e+01 1.735320000000000164e+03
3.400000000000000244e-02 1.511624999999999774e-01 2.567195000000000249e+01 7.324014999999999986e+01 1.735269999999999982e+03
3.500000000000000333e-02 1.511560000000000126e-01 2.522530000000000072e+01 7.297589999999999577e+01 1.735224999999999909e+03
3.600000000000000422e-02 1.511480000000000046e-01 2.474924999999999997e+01 7.271349999999999625e+01 1.735160000000000082e+03
3.700000000000000511e-02 1.511385000000000089e-01 2.423045000000000115e+01 7.239789999999999281e+01 1.735090000000000146e+03
3.799999999999999906e-02 1.511264999999999969e-01 2.366420000000000101e+01 7.198980000000000246e+01 1.734990000000000009e+03
3.899999999999999994e-02 1.511100000000000221e-01 2.305839999999999890e+01 7.148125000000000284e+01 1.734864999999999782e+03
4.000000000000000083e-02 1.510900000000000021e-01 2.243420000000000059e+01 7.090200000000000102e+01 1.734704999999999927e+03
4.100000000000000172e-02 1.510684999999999945e-01 2.182325000000000159e+01 7.031604999999998995e+01 1.734530000000000200e+03
4.200000000000000261e-02 1.510469999999999868e-01 2.126270000000000238e+01 6.980949999999999989e+01 1.734355000000000018e+03
4.300000000000000350e-02 1.510285000000000100e-01 2.078799999999999670e+01 6.947284999999999400e+01 1.734204999999999927e+03
4.400000000000000439e-02 1.510164999999999980e-01 2.042694999999999794e+01 6.938209999999999411e+01 1.734099999999999909e+03
4.499999999999999833e-02 1.510134999999999950e-01 2.019404999999999717e+01 6.958299999999999841e+01 1.734070000000000164e+03
4.599999999999999922e-02 1.510210000000000163e-01 2.008824999999999861e+01 7.008105000000000473e+01 1.734119999999999891e+03
4.700000000000000011e-02 1.510390000000000066e-01 2.009284999999999854e+01 7.083944999999999936e+01 1.734260000000000218e+03
4.800000000000000100e-02 1.510659999999999781e-01 2.017820000000000036e+01 7.178430000000000177e+01 1.734474999999999909e+03
4.900000000000000189e-02 1.511004999999999987e-01 2.030579999999999785e+01 7.281569999999999254e+01 1.734750000000000000e+03
5.000000000000000278e-02 1.511379999999999946e-01 2.043339999999999890e+01 7.382200000000000273e+01 1.735054999999999836e+03
5.100000000000000366e-02 1.511755000000000182e-01 2.051999999999999957e+01 7.469415000000000759e+01 1.735365000000000009e+03
5.200000000000000455e-02 1.512084999999999957e-01 2.053014999999999901e+01 7.533854999999999791e+01 1.735639999999999873e+03
5.300000000000000544e-02 1.512350000000000083e-01 2.043650000000000233e+01 7.568569999999999709e+01 1.735860000000000127e+03
5.399999999999999939e-02 1.512509999999999966e-01 2.022155000000000058e+01 7.569505000000000905e+01 1.735990000000000009e+03
5.500000000000000028e-02 1.512545000000000139e-01 1.987754999999999939e+01 7.535499999999998977e+01 1.736029999999999973e+03
5.600000000000000117e-02 1.512455000000000049e-01 1.940570000000000306e+01 7.467980000000000018e+01 1.735960000000000036e+03
5.700000000000000205e-02 1.512235000000000107e-01 1.881430000000000291e+01 7.370394999999999186e+01 1.735784999999999854e+03
5.800000000000000294e-02 1.511895000000000044e-01 1.811724999999999852e+01 7.247575000000000500e+01 1.735509999999999991e+03
5.900000000000000383e-02 1.511445000000000149e-01 1.733200000000000074e+01 7.105124999999999602e+01 1.735144999999999982e+03
6.000000000000000472e-02 1.510905000000000165e-01 1.647855000000000203e+01 6.948894999999998845e+01 1.734700000000000045e+03
6.099999999999999867e-02 1.510299999999999976e-01 1.557815000000000083e+01 6.784669999999999845e+01 1.734204999999999927e+03
6.199999999999999956e-02 1.509639999999999871e-01 1.465315000000000012e+01 6.618010000000001014e+01 1.733664999999999964e+03
6.300000000000000044e-02 1.508955000000000157e-01 1.372665000000000113e+01 6.454175000000000750e+01 1.733095000000000027e+03
6.400000000000000133e-02 1.508269999999999889e-01 1.282252000000000081e+01 6.298215000000000430e+01 1.732525000000000091e+03
6.500000000000000222e-02 1.507600000000000051e-01 1.196540500000000051e+01 6.155060000000000286e+01 1.731974999999999909e+03
6.600000000000000311e-02 1.506965000000000110e-01 1.118069999999999986e+01 6.029579999999999984e+01 1.731444999999999936e+03
6.700000000000000400e-02 1.506390000000000229e-01 1.049420500000000089e+01 5.926654999999999518e+01 1.730969999999999800e+03
6.800000000000000488e-02 1.505905000000000160e-01 9.931575000000000486e+00 5.851089999999999947e+01 1.730565000000000055e+03
6.900000000000000577e-02 1.505520000000000191e-01 9.517599999999999838e+00 5.807545000000000357e+01 1.730240000000000009e+03
7.000000000000000666e-02 1.505259999999999931e-01 9.275285000000000224e+00 5.800355000000000416e+01 1.730014999999999873e+03
7.100000000000000755e-02 1.505150000000000099e-01 9.224849999999999994e+00 5.833324999999999960e+01 1.729914999999999964e+03
7.200000000000000844e-02 1.505205000000000015e-01 9.382884999999999920e+00 5.909534999999999627e+01 1.729950000000000045e+03
7.300000000000000933e-02 1.505430000000000101e-01 9.761385000000000645e+00 6.031114999999999782e+01 1.730125000000000000e+03
7.399999999999999634e-02 1.505849999999999966e-01 1.036712999999999951e+01 6.199115000000000464e+01 1.730460000000000036e+03
7.499999999999999722e-02 1.506470000000000031e-01 1.120133500000000026e+01 6.413405000000000200e+01 1.730950000000000045e+03
7.599999999999999811e-02 1.507280000000000009e-01 1.225957499999999989e+01 6.672669999999999391e+01 1.731605000000000018e+03
7.699999999999999900e-02 1.508285000000000042e-01 1.353185000000000038e+01 6.974405000000000143e+01 1.732429999999999836e+03
7.799999999999999989e-02 1.509489999999999998e-01 1.500324999999999953e+01 7.315099999999999625e+01 1.733409999999999854e+03
7.900000000000000078e-02 1.510859999999999981e-01 1.665424999999999756e+01 7.690360000000001151e+01 1.734529999999999973e+03
8.000000000000000167e-02 1.512394999999999989e-01 1.846209999999999951e+01 8.095130000000000337e+01 1.735795000000000073e+03
8.100000000000000255e-02 1.514070000000000138e-01 2.040129999999999910e+01 8.523945000000000505e+01 1.737179999999999836e+03
8.200000000000000344e-02 1.515874999999999861e-01 2.244474999999999909e+01 8.971139999999999759e+01 1.738670000000000073e+03
8.300000000000000433e-02 1.517769999999999953e-01 2.456490000000000151e+01 9.431114999999999782e+01 1.740244999999999891e+03
8.400000000000000522e-02 1.519739999999999980e-01 2.673450000000000060e+01 9.898550000000000182e+01 1.741889999999999873e+03
8.500000000000000611e-02 1.521770000000000067e-01 2.892774999999999963e+01 1.036851000000000056e+02 1.743590000000000146e+03
8.600000000000000699e-02 1.523835000000000051e-01 3.112064999999999770e+01 1.083684499999999957e+02 1.745315000000000055e+03
8.700000000000000788e-02 1.525914999999999910e-01 3.329200000000000159e+01 1.129989999999999952e+02 1.747070000000000164e+03
8.800000000000000877e-02 1.527990000000000181e-01 3.542365000000000208e+01 1.175500000000000114e+02 1.748820000000000164e+03
8.899999999999999578e-02 1.530055000000000165e-01 3.750074999999999648e+01 1.220004999999999882e+02 1.750565000000000055e+03
8.999999999999999667e-02 1.532089999999999841e-01 3.951160000000000139e+01 1.263400000000000034e+02 1.752295000000000073e+03
9.099999999999999756e-02 1.534094999999999764e-01 4.144800000000000040e+01 1.305620000000000118e+02 1.754005000000000109e+03
9.199999999999999845e-02 1.536065000000000069e-01 4.330450000000000443e+01 1.346670000000000016e+02 1.755675000000000182e+03
9.299999999999999933e-02 1.537990000000000190e-01 4.507820000000000249e+01 1.386600000000000250e+02 1.757324999999999818e+03
9.400000000000000022e-02 1.539874999999999994e-01 4.676829999999999643e+01 1.425490000000000066e+02 1.758944999999999936e+03
9.500000000000000111e-02 1.541720000000000035e-01 4.837545000000000073e+01 1.463435000000000059e+02 1.760529999999999973e+03
9.600000000000000200e-02 1.543530000000000180e-01 4.990124999999999744e+01 1.500525000000000091e+02 1.762079999999999927e+03
9.700000000000000289e-02 1.545300000000000007e-01 5.134774999999999778e+01 1.536839999999999975e+02 1.763614999999999782e+03
9.800000000000000377e-02 1.547034999999999938e-01 5.271685000000000088e+01 1.572450000000000045e+02 1.765115000000000009e+03
9.900000000000000466e-02 1.548744999999999983e-01 5.401030000000000086e+01 1.607379999999999995e+02 1.766594999999999800e+03
1.000000000000000056e-01 1.550414999999999988e-01 5.522894999999999754e+01 1.641630000000000109e+02 1.768045000000000073e+03
1.010000000000000064e-01 1.552060000000000106e-01 5.637290000000000134e+01 1.675169999999999959e+02 1.769470000000000027e+03
1.020000000000000073e-01 1.553669999999999773e-01 5.744115000000000038e+01 1.707925000000000182e+02 1.770875000000000000e+03
1.030000000000000082e-01 1.555245000000000100e-01 5.843205000000000382e+01 1.739800000000000182e+02 1.772244999999999891e+03
1.040000000000000091e-01 1.556780000000000108e-01 5.934275000000000233e+01 1.770674999999999955e+02 1.773585000000000036e+03
1.050000000000000100e-01 1.558275000000000077e-01 6.016995000000000005e+01 1.800395000000000039e+02 1.774889999999999873e+03
1.059999999999999970e-01 1.559709999999999985e-01 6.090975000000000250e+01 1.828830000000000098e+02 1.776144999999999982e+03
1.069999999999999979e-01 1.561099999999999988e-01 6.155790000000000362e+01 1.855805000000000007e+02 1.777365000000000009e+03
1.079999999999999988e-01 1.562415000000000054e-01 6.211025000000000063e+01 1.881175000000000068e+02 1.778525000000000091e+03
1.089999999999999997e-01 1.563670000000000060e-01 6.256264999999999787e+01 1.904789999999999850e+02 1.779625000000000000e+03
1.100000000000000006e-01 1.564849999999999852e-01 6.291155000000000541e+01 1.926514999999999986e+02 1.780660000000000082e+03
1.110000000000000014e-01 1.565940000000000110e-01 6.315384999999999849e+01 1.946250000000000000e+02 1.781625000000000000e+03
1.120000000000000023e-01 1.566950000000000010e-01 6.328739999999999810e+01 1.963894999999999982e+02 1.782519999999999982e+03
1.130000000000000032e-01 1.567870000000000097e-01 6.331090000000000373e+01 1.979390000000000214e+02 1.783335000000000036e+03
1.140000000000000041e-01 1.568694999999999951e-01 6.322404999999999831e+01 1.992694999999999936e+02 1.784070000000000164e+03
1.150000000000000050e-01 1.569429999999999992e-01 6.302799999999999869e+01 2.003804999999999836e+02 1.784720000000000027e+03
1.160000000000000059e-01 1.570055000000000200e-01 6.272485000000000355e+01 2.012729999999999961e+02 1.785279999999999973e+03
1.170000000000000068e-01 1.570590000000000042e-01 6.231814999999999571e+01 2.019530000000000030e+02 1.785759999999999991e+03
1.180000000000000077e-01 1.571029999999999927e-01 6.181255000000000166e+01 2.024279999999999973e+02 1.786159999999999854e+03
1.190000000000000085e-01 1.571374999999999855e-01 6.121394999999999698e+01 2.027074999999999818e+02 1.786469999999999800e+03
1.200000000000000094e-01 1.571624999999999828e-01 6.052944999999999709e+01 2.028045000000000186e+02 1.786710000000000036e+03
1.209999999999999964e-01 1.571799999999999864e-01 5.976699999999999591e+01 2.027339999999999804e+02 1.786865000000000009e+03
1.219999999999999973e-01 1.571889999999999954e-01 5.893540000000000134e+01 2.025109999999999957e+02 1.786954999999999927e+03
1.229999999999999982e-01 1.571899999999999964e-01 5.804415000000000191e+01 2.021544999999999845e+02 1.786974999999999909e+03
1.239999999999999991e-01 1.571849999999999914e-01 5.710300000000000153e+01 2.016814999999999998e+02 1.786940000000000055e+03
1.250000000000000000e-01 1.571739999999999804e-01 5.612210000000000321e+01 2.011114999999999782e+02 1.786849999999999909e+03
1.260000000000000009e-01 1.571575000000000055e-01 5.511135000000000161e+01 2.004619999999999891e+02 1.786714999999999918e+03
1.270000000000000018e-01 1.571369999999999989e-01 5.408030000000000115e+01 1.997520000000000095e+02 1.786539999999999964e+03
1.280000000000000027e-01 1.571124999999999883e-01 5.303820000000000334e+01 1.989964999999999975e+02 1.786324999999999818e+03
1.290000000000000036e-01 1.570854999999999890e-01 5.199335000000000662e+01 1.982110000000000127e+02 1.786095000000000027e+03
1.300000000000000044e-01 1.570560000000000012e-01 5.095324999999999704e+01 1.974075000000000273e+02 1.785835000000000036e+03
1.310000000000000053e-01 1.570245000000000113e-01 4.992425000000000068e+01 1.965974999999999966e+02 1.785559999999999945e+03
1.320000000000000062e-01 1.569924999999999793e-01 4.891159999999999997e+01 1.957894999999999754e+02 1.785279999999999973e+03
1.330000000000000071e-01 1.569585000000000008e-01 4.791935000000000144e+01 1.949894999999999925e+02 1.784985000000000127e+03
1.340000000000000080e-01 1.569254999999999955e-01 4.695014999999999361e+01 1.941995000000000005e+02 1.784690000000000055e+03
1.350000000000000089e-01 1.568915000000000171e-01 4.600554999999999950e+01 1.934220000000000255e+02 1.784389999999999873e+03
1.360000000000000098e-01 1.568569999999999964e-01 4.508594999999999686e+01 1.926550000000000011e+02 1.784094999999999800e+03
1.370000000000000107e-01 1.568235000000000046e-01 4.419039999999999679e+01 1.918949999999999818e+02 1.783795000000000073e+03
1.380000000000000115e-01 1.567890000000000117e-01 4.331725000000000136e+01 1.911374999999999886e+02 1.783494999999999891e+03
1.390000000000000124e-01 1.567550000000000054e-01 4.246370000000000289e+01 1.903764999999999930e+02 1.783190000000000055e+03
1.400000000000000133e-01 1.567204999999999848e-01 4.162650000000000006e+01 1.896045000000000016e+02 1.782880000000000109e+03
1.410000000000000142e-01 1.566849999999999909e-01 4.080169999999999675e+01 1.888125000000000000e+02 1.782570000000000164e+03
1.420000000000000151e-01 1.566485000000000238e-01 3.998520000000000607e+01 1.879925000000000068e+02 1.782250000000000000e+03
1.430000000000000160e-01 1.566110000000000002e-01 3.917235000000000156e+01 1.871355000000000075e+02 1.781920000000000073e+03
1.440000000000000169e-01 1.565719999999999890e-01 3.835899999999999466e+01 1.862339999999999804e+02 1.781574999999999818e+03
1.450000000000000178e-01 1.565310000000000035e-01 3.754079999999999728e+01 1.852794999999999845e+02 1.781215000000000146e+03
1.459999999999999909e-01 1.564880000000000160e-01 3.671399999999999864e+01 1.842665000000000077e+02 1.780840000000000146e+03
1.469999999999999918e-01 1.564424999999999844e-01 3.587529999999999575e+01 1.831890000000000214e+02 1.780440000000000055e+03
1.479999999999999927e-01 1.563940000000000052e-01 3.502195000000000391e+01 1.820440000000000111e+02 1.780019999999999982e+03
1.489999999999999936e-01 1.563430000000000097e-01 3.415220000000000056e+01 1.808290000000000077e+02 1.779570000000000164e+03
1.499999999999999944e-01 1.562890000000000112e-01 3.326489999999999725e+01 1.795444999999999993e+02 1.779105000000000018e+03
1.509999999999999953e-01 1.562319999999999820e-01 3.236010000000000275e+01 1.781920000000000073e+02 1.778605000000000018e+03
1.519999999999999962e-01 1.561719999999999775e-01 3.143860000000000099e+01 1.767754999999999939e+02 1.778085000000000036e+03
1.529999999999999971e-01 1.561089999999999978e-01 3.050215000000000032e+01 1.753004999999999995e+02 1.777539999999999964e+03
1.539999999999999980e-01 1.560435000000000016e-01 2.955349999999999966e+01 1.737744999999999891e+02 1.776969999999999800e+03
1.549999999999999989e-01 1.559765000000000179e-01 2.859629999999999939e+01 1.722069999999999936e+02 1.776384999999999991e+03
1.559999999999999998e-01 1.559065000000000034e-01 2.763475000000000037e+01 1.706094999999999970e+02 1.775780000000000200e+03
1.570000000000000007e-01 1.558350000000000013e-01 2.667379999999999995e+01 1.689915000000000020e+02 1.775159999999999854e+03
1.580000000000000016e-01 1.557624999999999982e-01 2.571875000000000000e+01 1.673670000000000186e+02 1.774530000000000200e+03
1.590000000000000024e-01 1.556889999999999941e-01 2.477530000000000143e+01 1.657479999999999905e+02 1.773889999999999873e+03
