# t [s], A [cm^2], U [cm/s], P [cPa], c [cm/s]
1.000000000000000021e-03 4.506375000000000242e-01 4.062249999999996419e-03 9.124304999999999666e+01 1.563220000000000027e+03
2.000000000000000042e-03 4.506299999999999750e-01 -1.819991499999999924e-03 9.121824999999999761e+01 1.563210000000000036e+03
3.000000000000000062e-03 4.506669999999999843e-01 8.680564999999999809e-02 9.130629999999999313e+01 1.563235000000000127e+03
4.000000000000000083e-03 4.507030000000000203e-01 1.831626000000000087e-01 9.142189999999999372e+01 1.563264999999999873e+03
5.000000000000000104e-03 4.506899999999999795e-01 1.692023500000000014e-01 9.138765000000000782e+01 1.563259999999999991e+03
6.000000000000000125e-03 4.506445000000000034e-01 7.390499999999999847e-02 9.119429999999999836e+01 1.563215000000000146e+03
7.000000000000000146e-03 4.506029999999999758e-01 -1.989200000000002078e-02 9.093694999999999595e+01 1.563150000000000091e+03
8.000000000000000167e-03 4.505440000000000000e-01 -1.640760000000000551e-01 9.057255000000000678e+01 1.563065000000000055e+03
9.000000000000001055e-03 4.504445000000000254e-01 -4.201700000000000434e-01 9.001264999999999361e+01 1.562930000000000064e+03
1.000000000000000194e-02 4.503019999999999801e-01 -7.909100000000000019e-01 8.921924999999998818e+01 1.562740000000000009e+03
1.099999999999999936e-02 4.501079999999999526e-01 -1.288054999999999950e+00 8.814539999999999509e+01 1.562470000000000027e+03
1.200000000000000025e-02 4.498499999999999721e-01 -1.926749999999999741e+00 8.673545000000000016e+01 1.562119999999999891e+03
1.300000000000000114e-02 4.495384999999999520e-01 -2.663514999999999855e+00 8.500329999999999586e+01 1.561679999999999836e+03
1.400000000000000203e-02 4.492114999999999858e-01 -3.379554999999999865e+00 8.307535000000000025e+01 1.561170000000000073e+03
1.499999999999999944e-02 4.489144999999999941e-01 -3.931261999999999812e+00 8.114619999999999322e+01 1.560639999999999873e+03
1.600000000000000033e-02 4.486784999999999801e-01 -4.215820149999999877e+00 7.939324999999999477e+01 1.560139999999999873e+03
1.700000000000000122e-02 4.485049999999999870e-01 -4.204945500000000003e+00 7.791200000000000614e+01 1.559680000000000064e+03
1.800000000000000211e-02 4.483770000000000255e-01 -3.940446000000000115e+00 7.669785000000000252e+01 1.559279999999999973e+03
1.900000000000000300e-02 4.482629999999999670e-01 -3.506629500000000288e+00 7.566659999999998831e+01 1.558914999999999964e+03
2.000000000000000042e-02 4.481325000000000447e-01 -2.995684500000000305e+00 7.469610000000000127e+01 1.558570000000000164e+03
2.100000000000000130e-02 4.479674999999999629e-01 -2.477543499999999899e+00 7.367195000000000960e+01 1.558215000000000146e+03
2.200000000000000219e-02 4.477630000000000221e-01 -1.982244999999999813e+00 7.252455000000000496e+01 1.557835000000000036e+03
2.299999999999999961e-02 4.475274999999999670e-01 -1.499695000000000000e+00 7.124370000000000402e+01 1.557425000000000182e+03
2.400000000000000050e-02 4.472800000000000109e-01 -9.953400000000001135e-01 6.986939999999999884e+01 1.556994999999999891e+03
2.500000000000000139e-02 4.470355000000000301e-01 -4.336150000000000837e-01 6.846399999999999864e+01 1.556545000000000073e+03
2.600000000000000228e-02 4.468024999999999913e-01 2.011599999999997834e-01 6.708050000000000068e+01 1.556099999999999909e+03
2.700000000000000316e-02 4.465799999999999770e-01 8.933449999999998337e-01 6.573839999999999861e+01 1.555664999999999964e+03
2.800000000000000058e-02 4.463559999999999750e-01 1.595814999999999761e+00 6.441315000000000168e+01 1.555235000000000127e+03
2.900000000000000147e-02 4.461120000000000085e-01 2.239234999999999864e+00 6.303995000000000459e+01 1.554785000000000082e+03
3.000000000000000236e-02 4.458280000000000021e-01 2.747240000000000570e+00 6.152974999999999994e+01 1.554309999999999945e+03
3.099999999999999978e-02 4.454869999999999663e-01 3.053769999999999651e+00 5.979224999999999568e+01 1.553784999999999854e+03
3.200000000000000067e-02 4.450819999999999776e-01 3.118524999999999991e+00 5.776115000000000066e+01 1.553190000000000055e+03
3.300000000000000155e-02 4.446155000000000523e-01 2.936694999999999833e+00 5.541465000000000174e+01 1.552514999999999873e+03
3.400000000000000244e-02 4.441024999999999556e-01 2.540244999999999642e+00 5.278569999999999851e+01 1.551769999999999982e+03
3.500000000000000333e-02 4.435644999999999727e-01 1.990780000000000438e+00 4.995964999999999634e+01 1.550974999999999909e+03
3.600000000000000422e-02 4.430304999999999938e-01 1.366775000000000517e+00 4.706045000000000300e+01 1.550150000000000091e+03
3.700000000000000511e-02 4.425264999999999893e-01 7.494399999999998840e-01 4.423090000000000543e+01 1.549329999999999927e+03
3.799999999999999906e-02 4.420755000000000101e-01 2.109350000000000946e-01 4.161265000000000214e+01 1.548555000000000064e+03
3.899999999999999994e-02 4.416964999999999919e-01 -1.930350000000000676e-01 3.932925000000000182e+01 1.547860000000000127e+03
4.000000000000000083e-02 4.413989999999999858e-01 -4.258500000000000618e-01 3.747549999999999670e+01 1.547269999999999982e+03
4.100000000000000172e-02 4.411895000000000122e-01 -4.686449999999999783e-01 3.611310000000000286e+01 1.546804999999999836e+03
4.200000000000000261e-02 4.410675000000000012e-01 -3.162800000000001166e-01 3.527219999999999800e+01 1.546480000000000018e+03
4.300000000000000350e-02 4.410320000000000351e-01 2.782999999999991037e-02 3.495664999999999623e+01 1.546295000000000073e+03
4.400000000000000439e-02 4.410769999999999968e-01 5.567450499999999636e-01 3.515180000000000149e+01 1.546259999999999991e+03
4.499999999999999833e-02 4.412004999999999955e-01 1.263708000000000053e+00 3.583245000000000147e+01 1.546365000000000009e+03
4.599999999999999922e-02 4.413964999999999694e-01 2.143950000000000244e+00 3.696904999999999575e+01 1.546605000000000018e+03
4.700000000000000011e-02 4.416619999999999990e-01 3.194410000000000416e+00 3.853164999999999907e+01 1.546974999999999909e+03
4.800000000000000100e-02 4.419945000000000124e-01 4.411944999999999339e+00 4.049075000000000557e+01 1.547470000000000027e+03
4.900000000000000189e-02 4.423880000000000035e-01 5.790864000000000011e+00 4.281580000000000297e+01 1.548065000000000055e+03
5.000000000000000278e-02 4.428379999999999539e-01 7.320678450000000836e+00 4.547334999999999638e+01 1.548775000000000091e+03
5.100000000000000366e-02 4.433370000000000366e-01 8.984443999999999875e+00 4.842480000000000473e+01 1.549575000000000045e+03
5.200000000000000455e-02 4.438769999999999660e-01 1.075913500000000056e+01 5.162510000000000332e+01 1.550449999999999818e+03
5.300000000000000544e-02 4.444480000000000097e-01 1.261617500000000014e+01 5.502344999999999686e+01 1.551400000000000091e+03
5.399999999999999939e-02 4.450404999999999500e-01 1.452367500000000078e+01 5.856475000000000364e+01 1.552400000000000091e+03
5.500000000000000028e-02 4.456435000000000257e-01 1.644894500000000193e+01 6.219265000000000043e+01 1.553440000000000055e+03
5.600000000000000117e-02 4.462490000000000068e-01 1.836062000000000083e+01 6.585290000000000532e+01 1.554494999999999891e+03
5.700000000000000205e-02 4.468484999999999818e-01 2.023134999999999906e+01 6.949690000000001078e+01 1.555565000000000055e+03
5.800000000000000294e-02 4.474359999999999449e-01 2.203865000000000052e+01 7.308414999999999395e+01 1.556630000000000109e+03
5.900000000000000383e-02 4.480084999999999762e-01 2.376624999999999943e+01 7.658484999999998877e+01 1.557680000000000064e+03
6.000000000000000472e-02 4.485640000000000183e-01 2.540399999999999991e+01 7.998015000000000896e+01 1.558715000000000146e+03
6.099999999999999867e-02 4.491014999999999868e-01 2.694739999999999824e+01 8.326230000000001041e+01 1.559719999999999800e+03
6.199999999999999956e-02 4.496235000000000093e-01 2.839675000000000082e+01 8.643349999999999511e+01 1.560700000000000045e+03
6.300000000000000044e-02 4.501315000000000177e-01 2.975635000000000119e+01 8.950430000000000064e+01 1.561659999999999854e+03
6.400000000000000133e-02 4.506295000000000162e-01 3.103329999999999700e+01 9.249209999999999354e+01 1.562595000000000027e+03
6.500000000000000222e-02 4.511215000000000086e-01 3.223659999999999570e+01 9.541765000000000896e+01 1.563514999999999873e+03
6.600000000000000311e-02 4.516109999999999847e-01 3.337610000000000099e+01 9.830469999999999686e+01 1.564420000000000073e+03
6.700000000000000400e-02 4.521005000000000162e-01 3.446189999999999998e+01 1.011755499999999870e+02 1.565320000000000164e+03
6.800000000000000488e-02 4.525949999999999696e-01 3.550329999999999586e+01 1.040524000000000058e+02 1.566220000000000027e+03
6.900000000000000577e-02 4.530954999999999844e-01 3.650835000000000008e+01 1.069519999999999982e+02 1.567125000000000000e+03
7.000000000000000666e-02 4.536040000000000072e-01 3.748295000000000243e+01 1.098874999999999886e+02 1.568039999999999964e+03
7.100000000000000755e-02 4.541214999999999558e-01 3.843039999999999878e+01 1.128650000000000091e+02 1.568960000000000036e+03
7.200000000000000844e-02 4.546459999999999946e-01 3.935134999999999650e+01 1.158845000000000027e+02 1.569900000000000091e+03
7.300000000000000933e-02 4.551764999999999839e-01 4.024325000000000330e+01 1.189364999999999952e+02 1.570845000000000027e+03
7.399999999999999634e-02 4.557094999999999896e-01 4.110075000000000500e+01 1.220084999999999980e+02 1.571799999999999955e+03
7.499999999999999722e-02 4.562410000000000077e-01 4.191635000000000133e+01 1.250784999999999911e+02 1.572755000000000109e+03
7.599999999999999811e-02 4.567664999999999642e-01 4.268059999999999832e+01 1.281214999999999975e+02 1.573704999999999927e+03
7.699999999999999900e-02 4.572815000000000074e-01 4.338295000000000101e+01 1.311105000000000018e+02 1.574634999999999991e+03
7.799999999999999989e-02 4.577804999999999791e-01 4.401265000000000072e+01 1.340140000000000100e+02 1.575549999999999955e+03
7.900000000000000078e-02 4.582579999999999432e-01 4.455930000000000035e+01 1.368040000000000020e+02 1.576434999999999945e+03
8.000000000000000167e-02 4.587109999999999799e-01 4.501370000000000005e+01 1.394524999999999864e+02 1.577284999999999854e+03
8.100000000000000255e-02 4.591355000000000297e-01 4.536795000000000044e+01 1.419364999999999952e+02 1.578085000000000036e+03
8.200000000000000344e-02 4.595279999999999920e-01 4.561625000000000085e+01 1.442355000000000018e+02 1.578839999999999918e+03
8.300000000000000433e-02 4.598864999999999759e-01 4.575504999999999711e+01 1.463344999999999914e+02 1.579534999999999854e+03
8.400000000000000522e-02 4.602100000000000080e-01 4.578289999999999793e+01 1.482244999999999777e+02 1.580170000000000073e+03
8.500000000000000611e-02 4.604980000000000184e-01 4.570100000000000051e+01 1.499014999999999986e+02 1.580740000000000009e+03
8.600000000000000699e-02 4.607514999999999805e-01 4.551269999999999527e+01 1.513670000000000186e+02 1.581250000000000000e+03
8.700000000000000788e-02 4.609710000000000196e-01 4.522359999999999758e+01 1.526274999999999977e+02 1.581700000000000045e+03
8.800000000000000877e-02 4.611589999999999856e-01 4.484130000000000393e+01 1.536939999999999884e+02 1.582085000000000036e+03
8.899999999999999578e-02 4.613184999999999647e-01 4.437515000000000498e+01 1.545819999999999936e+02 1.582420000000000073e+03
8.999999999999999667e-02 4.614515000000000144e-01 4.383605000000000018e+01 1.553085000000000093e+02 1.582700000000000045e+03
9.099999999999999756e-02 4.615630000000000011e-01 4.323574999999999591e+01 1.558954999999999984e+02 1.582940000000000055e+03
9.199999999999999845e-02 4.616549999999999820e-01 4.258700000000000330e+01 1.563634999999999877e+02 1.583130000000000109e+03
9.299999999999999933e-02 4.617314999999999614e-01 4.190245000000000175e+01 1.567359999999999900e+02 1.583289999999999964e+03
9.400000000000000022e-02 4.617975000000000274e-01 4.119485000000000241e+01 1.570355000000000132e+02 1.583420000000000073e+03
9.500000000000000111e-02 4.618550000000000155e-01 4.047585000000000122e+01 1.572830000000000155e+02 1.583529999999999973e+03
9.600000000000000200e-02 4.619079999999999853e-01 3.975639999999999930e+01 1.574970000000000141e+02 1.583625000000000000e+03
9.700000000000000289e-02 4.619579999999999798e-01 3.904564999999999486e+01 1.576945000000000050e+02 1.583710000000000036e+03
9.800000000000000377e-02 4.620075000000000154e-01 3.835089999999999577e+01 1.578894999999999982e+02 1.583784999999999854e+03
9.900000000000000466e-02 4.620570000000000510e-01 3.767764999999999986e+01 1.580900000000000034e+02 1.583865000000000009e+03
1.000000000000000056e-01 4.621085000000000331e-01 3.702899999999999636e+01 1.583015000000000043e+02 1.583934999999999945e+03
1.010000000000000064e-01 4.621604999999999741e-01 3.640610000000000213e+01 1.585264999999999986e+02 1.584014999999999873e+03
1.020000000000000073e-01 4.622135000000000549e-01 3.580794999999999817e+01 1.587624999999999886e+02 1.584090000000000146e+03
1.030000000000000082e-01 4.622665000000000246e-01 3.523189999999999600e+01 1.590035000000000025e+02 1.584164999999999964e+03
1.040000000000000091e-01 4.623165000000000191e-01 3.467379999999999995e+01 1.592425000000000068e+02 1.584240000000000009e+03
1.050000000000000100e-01 4.623629999999999685e-01 3.412830000000000297e+01 1.594679999999999893e+02 1.584309999999999945e+03
1.059999999999999970e-01 4.624034999999999673e-01 3.358935000000000315e+01 1.596684999999999945e+02 1.584375000000000000e+03
1.069999999999999979e-01 4.624359999999999582e-01 3.305055000000000121e+01 1.598319999999999936e+02 1.584420000000000073e+03
1.079999999999999988e-01 4.624584999999999946e-01 3.250534999999999997e+01 1.599459999999999980e+02 1.584464999999999918e+03
1.089999999999999997e-01 4.624694999999999778e-01 3.194785000000000252e+01 1.599989999999999952e+02 1.584485000000000127e+03
1.100000000000000006e-01 4.624674999999999758e-01 3.137249999999999872e+01 1.599815000000000111e+02 1.584490000000000009e+03
1.110000000000000014e-01 4.624515000000000153e-01 3.077495000000000047e+01 1.598854999999999791e+02 1.584470000000000027e+03
1.120000000000000023e-01 4.624199999999999977e-01 3.015205000000000268e+01 1.597049999999999841e+02 1.584429999999999836e+03
1.130000000000000032e-01 4.623740000000000072e-01 2.950180000000000291e+01 1.594370000000000118e+02 1.584365000000000009e+03
1.140000000000000041e-01 4.623125000000000151e-01 2.882404999999999973e+01 1.590829999999999984e+02 1.584269999999999982e+03
1.150000000000000050e-01 4.622374999999999678e-01 2.811994999999999933e+01 1.586449999999999818e+02 1.584150000000000091e+03
1.160000000000000059e-01 4.621490000000000320e-01 2.739215000000000089e+01 1.581299999999999955e+02 1.584009999999999991e+03
1.170000000000000068e-01 4.620495000000000019e-01 2.664499999999999957e+01 1.575455000000000041e+02 1.583849999999999909e+03
1.180000000000000077e-01 4.619409999999999350e-01 2.588385000000000247e+01 1.569039999999999964e+02 1.583670000000000073e+03
1.190000000000000085e-01 4.618259999999999588e-01 2.511540000000000106e+01 1.562185000000000059e+02 1.583470000000000027e+03
1.200000000000000094e-01 4.617069999999999785e-01 2.434710000000000107e+01 1.555035000000000025e+02 1.583264999999999873e+03
1.209999999999999964e-01 4.615865000000000107e-01 2.358680000000000021e+01 1.547749999999999773e+02 1.583055000000000064e+03
1.219999999999999973e-01 4.614675000000000304e-01 2.284280000000000044e+01 1.540489999999999782e+02 1.582835000000000036e+03
1.229999999999999982e-01 4.613519999999999843e-01 2.212314999999999898e+01 1.533414999999999964e+02 1.582625000000000000e+03
1.239999999999999991e-01 4.612435000000000285e-01 2.143560000000000088e+01 1.526670000000000016e+02 1.582414999999999964e+03
1.250000000000000000e-01 4.611430000000000251e-01 2.078709999999999880e+01 1.520389999999999873e+02 1.582214999999999918e+03
1.260000000000000009e-01 4.610529999999999906e-01 2.018379999999999797e+01 1.514704999999999870e+02 1.582034999999999854e+03
1.270000000000000018e-01 4.609750000000000236e-01 1.963054999999999950e+01 1.509689999999999941e+02 1.581875000000000000e+03
1.280000000000000027e-01 4.609099999999999864e-01 1.913084999999999880e+01 1.505425000000000182e+02 1.581724999999999909e+03
1.290000000000000036e-01 4.608575000000000310e-01 1.868700000000000117e+01 1.501949999999999932e+02 1.581605000000000018e+03
1.300000000000000044e-01 4.608189999999999786e-01 1.829954999999999998e+01 1.499275000000000091e+02 1.581505000000000109e+03
1.310000000000000053e-01 4.607924999999999938e-01 1.796794999999999831e+01 1.497384999999999877e+02 1.581430000000000064e+03
1.320000000000000062e-01 4.607784999999999798e-01 1.769004999999999939e+01 1.496254999999999882e+02 1.581375000000000000e+03
1.330000000000000071e-01 4.607755000000000045e-01 1.746280000000000143e+01 1.495810000000000173e+02 1.581340000000000146e+03
1.340000000000000080e-01 4.607820000000000249e-01 1.728215000000000146e+01 1.495985000000000014e+02 1.581325000000000045e+03
1.350000000000000089e-01 4.607965000000000533e-01 1.714310000000000045e+01 1.496694999999999993e+02 1.581324999999999818e+03
1.360000000000000098e-01 4.608174999999999910e-01 1.704039999999999822e+01 1.497824999999999989e+02 1.581340000000000146e+03
1.370000000000000107e-01 4.608434999999999615e-01 1.696855000000000047e+01 1.499294999999999902e+02 1.581369999999999891e+03
1.380000000000000115e-01 4.608719999999999484e-01 1.692174999999999940e+01 1.501000000000000227e+02 1.581404999999999973e+03
1.390000000000000124e-01 4.609024999999999928e-01 1.689470000000000027e+01 1.502855000000000132e+02 1.581449999999999818e+03
1.400000000000000133e-01 4.609334999999999960e-01 1.688224999999999909e+01 1.504764999999999873e+02 1.581494999999999891e+03
1.410000000000000142e-01 4.609639999999999849e-01 1.687969999999999970e+01 1.506670000000000016e+02 1.581545000000000073e+03
1.420000000000000151e-01 4.609925000000000272e-01 1.688295000000000101e+01 1.508499999999999943e+02 1.581595000000000027e+03
1.430000000000000160e-01 4.610195000000000265e-01 1.688855000000000217e+01 1.510225000000000080e+02 1.581644999999999982e+03
1.440000000000000169e-01 4.610440000000000094e-01 1.689369999999999905e+01 1.511804999999999950e+02 1.581684999999999945e+03
1.450000000000000178e-01 4.610650000000000026e-01 1.689614999999999867e+01 1.513224999999999909e+02 1.581730000000000018e+03
1.459999999999999909e-01 4.610839999999999383e-01 1.689439999999999742e+01 1.514474999999999909e+02 1.581759999999999991e+03
1.469999999999999918e-01 4.611005000000000242e-01 1.688739999999999952e+01 1.515569999999999879e+02 1.581795000000000073e+03
1.479999999999999927e-01 4.611144999999999827e-01 1.687474999999999881e+01 1.516514999999999986e+02 1.581829999999999927e+03
1.489999999999999936e-01 4.611264999999999947e-01 1.685630000000000095e+01 1.517334999999999923e+02 1.581855000000000018e+03
1.499999999999999944e-01 4.611374999999999780e-01 1.683254999999999768e+01 1.518054999999999950e+02 1.581880000000000109e+03
1.509999999999999953e-01 4.611474999999999880e-01 1.680409999999999826e+01 1.518700000000000045e+02 1.581900000000000091e+03
1.519999999999999962e-01 4.611569999999999836e-01 1.677190000000000225e+01 1.519304999999999950e+02 1.581925000000000182e+03
1.529999999999999971e-01 4.611664999999999792e-01 1.673710000000000164e+01 1.519900000000000091e+02 1.581940000000000055e+03
1.539999999999999980e-01 4.611770000000000591e-01 1.670080000000000098e+01 1.520509999999999877e+02 1.581960000000000036e+03
1.549999999999999989e-01 4.611885000000000012e-01 1.666430000000000078e+01 1.521175000000000068e+02 1.581980000000000018e+03
1.559999999999999998e-01 4.612014999999999865e-01 1.662875000000000014e+01 1.521895000000000095e+02 1.582009999999999991e+03
1.570000000000000007e-01 4.612155000000000005e-01 1.659534999999999982e+01 1.522715000000000032e+02 1.582029999999999973e+03
1.580000000000000016e-01 4.612319999999999753e-01 1.656484999999999985e+01 1.523634999999999877e+02 1.582059999999999945e+03
1.590000000000000024e-01 4.612505000000000077e-01 1.653815000000000168e+01 1.524669999999999845e+02 1.582089999999999918e+03
