# t [s], A [cm^2], U [cm/s], P [cPa], c [cm/s]
1.000000000000000021e-03 7.925165000000000681e-01 6.350800000000003664e-03 1.091784999999999997e+02 1.728025000000000091e+03
2.000000000000000042e-03 7.925070000000000725e-01 3.703450000000000492e-03 1.091490000000000009e+02 1.728019999999999982e+03
3.000000000000000062e-03 7.925915000000000044e-01 1.345140000000000224e-01 1.093034999999999997e+02 1.728050000000000182e+03
4.000000000000000083e-03 7.926334999999999908e-01 2.181806000000000023e-01 1.094074999999999989e+02 1.728074999999999818e+03
5.000000000000000104e-03 7.925630000000000175e-01 1.403554999999999664e-01 1.092390000000000043e+02 1.728045000000000073e+03
6.000000000000000125e-03 7.924719999999999542e-01 2.308700000000002417e-02 1.089155000000000086e+02 1.727974999999999909e+03
7.000000000000000146e-03 7.923755000000000104e-01 -1.160949999999999482e-01 1.084909999999999997e+02 1.727889999999999873e+03
8.000000000000000167e-03 7.921970000000000400e-01 -3.986299999999999288e-01 1.078064999999999998e+02 1.727750000000000000e+03
9.000000000000001055e-03 7.919264999999999777e-01 -8.433150000000000368e-01 1.067844999999999942e+02 1.727539999999999964e+03
1.000000000000000194e-02 7.915484999999999882e-01 -1.461320000000000174e+00 1.053555000000000064e+02 1.727250000000000000e+03
1.099999999999999936e-02 7.910314999999999985e-01 -2.277244999999999742e+00 1.034257499999999936e+02 1.726840000000000146e+03
1.200000000000000025e-02 7.904074999999999296e-01 -3.215704999999999814e+00 1.010305500000000052e+02 1.726329999999999927e+03
1.300000000000000114e-02 7.897784999999999389e-01 -4.078065000000000495e+00 9.841659999999998831e+01 1.725750000000000000e+03
1.400000000000000203e-02 7.892509999999999248e-01 -4.650775999999999577e+00 9.591849999999999454e+01 1.725174999999999955e+03
1.499999999999999944e-02 7.888729999999999354e-01 -4.818191999999999808e+00 9.378569999999999141e+01 1.724650000000000091e+03
1.600000000000000033e-02 7.886189999999999589e-01 -4.596389999999999532e+00 9.208539999999999281e+01 1.724194999999999936e+03
1.700000000000000122e-02 7.884169999999999234e-01 -4.098264999999999603e+00 9.071099999999999852e+01 1.723804999999999836e+03
1.800000000000000211e-02 7.881899999999999462e-01 -3.469965000000000188e+00 8.945930000000001314e+01 1.723434999999999945e+03
1.900000000000000300e-02 7.878830000000000000e-01 -2.829255999999999993e+00 8.812800000000000011e+01 1.723055000000000064e+03
2.000000000000000042e-02 7.874844999999999207e-01 -2.226719999999999811e+00 8.659704999999999586e+01 1.722639999999999873e+03
2.100000000000000130e-02 7.870219999999999994e-01 -1.643115000000000103e+00 8.486209999999999809e+01 1.722184999999999945e+03
2.200000000000000219e-02 7.865415000000000045e-01 -1.020800000000000152e+00 8.300889999999999702e+01 1.721704999999999927e+03
2.299999999999999961e-02 7.860810000000000297e-01 -3.096499999999999808e-01 8.115064999999999884e+01 1.721220000000000027e+03
2.400000000000000050e-02 7.856529999999999347e-01 4.963850000000000762e-01 7.936140000000000327e+01 1.720744999999999891e+03
2.500000000000000139e-02 7.852399999999999380e-01 1.345445000000000224e+00 7.763530000000000086e+01 1.720285000000000082e+03
2.600000000000000228e-02 7.847975000000000367e-01 2.136880000000000113e+00 7.588024999999998954e+01 1.719815000000000055e+03
2.700000000000000316e-02 7.842729999999999979e-01 2.746864999999999668e+00 7.394254999999999711e+01 1.719309999999999945e+03
2.800000000000000058e-02 7.836194999999999133e-01 3.061860000000000248e+00 7.165420000000000300e+01 1.718740000000000009e+03
2.900000000000000147e-02 7.828135000000000510e-01 3.010530000000000150e+00 6.888745000000000118e+01 1.718074999999999818e+03
3.000000000000000236e-02 7.818635000000000446e-01 2.584754999999999470e+00 6.560115000000000407e+01 1.717305000000000064e+03
3.099999999999999978e-02 7.808090000000000863e-01 1.841809999999999725e+00 6.186204999999999643e+01 1.716440000000000055e+03
3.200000000000000067e-02 7.797119999999999607e-01 8.889250000000004093e-01 5.783579999999999899e+01 1.715505000000000109e+03
3.300000000000000155e-02 7.786420000000000563e-01 -1.439000000000003610e-01 5.375284999999999513e+01 1.714545000000000073e+03
3.400000000000000244e-02 7.776650000000000507e-01 -1.130885000000000140e+00 4.986329999999999529e+01 1.713615000000000009e+03
3.500000000000000333e-02 7.768304999999999794e-01 -1.970190000000000552e+00 4.639600000000000080e+01 1.712759999999999991e+03
3.600000000000000422e-02 7.761700000000000266e-01 -2.593299999999999716e+00 4.352974999999999994e+01 1.712030000000000200e+03
3.700000000000000511e-02 7.756974999999999287e-01 -2.964545000000000208e+00 4.137969999999999970e+01 1.711445000000000164e+03
3.799999999999999906e-02 7.754134999999999778e-01 -3.074408400000000263e+00 3.999845000000000539e+01 1.711035000000000082e+03
3.899999999999999994e-02 7.753099999999999437e-01 -2.929364999999999775e+00 3.938705000000000211e+01 1.710795000000000073e+03
4.000000000000000083e-02 7.753750000000000364e-01 -2.541884999999999728e+00 3.951214999999999833e+01 1.710735000000000127e+03
4.100000000000000172e-02 7.755955000000001043e-01 -1.923182999999999865e+00 4.032319999999999993e+01 1.710840000000000146e+03
4.200000000000000261e-02 7.759624999999999995e-01 -1.080329999999999790e+00 4.176489999999999725e+01 1.711099999999999909e+03
4.300000000000000350e-02 7.764645000000000019e-01 -1.765499999999997627e-02 4.378390000000000271e+01 1.711505000000000109e+03
4.400000000000000439e-02 7.770939999999999515e-01 1.258865000000000123e+00 4.632800000000000296e+01 1.712039999999999964e+03
4.499999999999999833e-02 7.778374999999999595e-01 2.736609999999999765e+00 4.934194999999999709e+01 1.712695000000000164e+03
4.599999999999999922e-02 7.786785000000000512e-01 4.392590000000000217e+00 5.276224999999999454e+01 1.713454999999999927e+03
4.700000000000000011e-02 7.795965000000000256e-01 6.192365000000000563e+00 5.651340000000000430e+01 1.714309999999999945e+03
4.800000000000000100e-02 7.805684999999999985e-01 8.091549999999999798e+00 6.050840000000000174e+01 1.715230000000000018e+03
4.900000000000000189e-02 7.815674999999999706e-01 1.003956400000000038e+01 6.465160000000000196e+01 1.716195000000000164e+03
5.000000000000000278e-02 7.825690000000000701e-01 1.198453999999999908e+01 6.884539999999999793e+01 1.717190000000000055e+03
5.100000000000000366e-02 7.835520000000000262e-01 1.387798500000000068e+01 7.299710000000000321e+01 1.718190000000000055e+03
5.200000000000000455e-02 7.844964999999999300e-01 1.567895499999999842e+01 7.702660000000000196e+01 1.719175000000000182e+03
5.300000000000000544e-02 7.853920000000000901e-01 1.735630000000000095e+01 8.087130000000000507e+01 1.720130000000000109e+03
5.399999999999999939e-02 7.862310000000000132e-01 1.889010000000000034e+01 8.448990000000000578e+01 1.721039999999999964e+03
5.500000000000000028e-02 7.870125000000000037e-01 2.027090000000000103e+01 8.786254999999999882e+01 1.721904999999999973e+03
5.600000000000000117e-02 7.877389999999999670e-01 2.149849999999999994e+01 9.098940000000000339e+01 1.722710000000000036e+03
5.700000000000000205e-02 7.884174999999999933e-01 2.258019999999999783e+01 9.388859999999999673e+01 1.723470000000000027e+03
5.800000000000000294e-02 7.890559999999999796e-01 2.352875000000000227e+01 9.658965000000000600e+01 1.724184999999999945e+03
5.900000000000000383e-02 7.896649999999999503e-01 2.436070000000000135e+01 9.913259999999999650e+01 1.724855000000000018e+03
6.000000000000000472e-02 7.902554999999999996e-01 2.509445000000000192e+01 1.015606500000000096e+02 1.725505000000000109e+03
6.099999999999999867e-02 7.908364999999999423e-01 2.574909999999999854e+01 1.039184500000000071e+02 1.726125000000000000e+03
6.199999999999999956e-02 7.914170000000000371e-01 2.634270000000000067e+01 1.062464999999999975e+02 1.726740000000000009e+03
6.300000000000000044e-02 7.920045000000000002e-01 2.689095000000000013e+01 1.085784999999999911e+02 1.727345000000000027e+03
6.400000000000000133e-02 7.926035000000000164e-01 2.740589999999999904e+01 1.109389999999999930e+02 1.727965000000000146e+03
6.500000000000000222e-02 7.932150000000000034e-01 2.789500000000000313e+01 1.133400000000000034e+02 1.728579999999999927e+03
6.600000000000000311e-02 7.938365000000000560e-01 2.836059999999999803e+01 1.157810000000000059e+02 1.729210000000000036e+03
6.700000000000000400e-02 7.944634999999999891e-01 2.879990000000000094e+01 1.182489999999999952e+02 1.729840000000000146e+03
6.800000000000000488e-02 7.950880000000000170e-01 2.920555000000000234e+01 1.207175000000000011e+02 1.730469999999999800e+03
6.900000000000000577e-02 7.957015000000000615e-01 2.956644999999999968e+01 1.231514999999999986e+02 1.731090000000000146e+03
7.000000000000000666e-02 7.962919999999999998e-01 2.986945000000000050e+01 1.255109999999999957e+02 1.731704999999999927e+03
7.100000000000000755e-02 7.968500000000000583e-01 3.010034999999999883e+01 1.277504999999999882e+02 1.732285000000000082e+03
7.200000000000000844e-02 7.973630000000000440e-01 3.024555000000000149e+01 1.298274999999999864e+02 1.732829999999999927e+03
7.300000000000000933e-02 7.978240000000000887e-01 3.029290000000000305e+01 1.317009999999999934e+02 1.733329999999999927e+03
7.399999999999999634e-02 7.982245000000000035e-01 3.023304999999999865e+01 1.333380000000000223e+02 1.733775000000000091e+03
7.499999999999999722e-02 7.985594999999999777e-01 3.005964999999999776e+01 1.347124999999999773e+02 1.734160000000000082e+03
7.599999999999999811e-02 7.988264999999999949e-01 2.976995000000000147e+01 1.358075000000000045e+02 1.734480000000000018e+03
7.699999999999999900e-02 7.990234999999999976e-01 2.936489999999999867e+01 1.366184999999999832e+02 1.734730000000000018e+03
7.799999999999999989e-02 7.991535000000000721e-01 2.884920000000000329e+01 1.371465000000000032e+02 1.734910000000000082e+03
7.900000000000000078e-02 7.992190000000000127e-01 2.823100000000000165e+01 1.374050000000000011e+02 1.735025000000000091e+03
8.000000000000000167e-02 7.992269999999999097e-01 2.752159999999999940e+01 1.374145000000000039e+02 1.735074999999999818e+03
8.100000000000000255e-02 7.991829999999999767e-01 2.673510000000000275e+01 1.372019999999999982e+02 1.735070000000000164e+03
8.200000000000000344e-02 7.990954999999999586e-01 2.588749999999999929e+01 1.368015000000000043e+02 1.735009999999999991e+03
8.300000000000000433e-02 7.989740000000000730e-01 2.499634999999999962e+01 1.362485000000000070e+02 1.734909999999999854e+03
8.400000000000000522e-02 7.988279999999999825e-01 2.407990000000000208e+01 1.355824999999999818e+02 1.734779999999999973e+03
8.500000000000000611e-02 7.986655000000000282e-01 2.315614999999999668e+01 1.348425000000000011e+02 1.734615000000000009e+03
8.600000000000000699e-02 7.984964999999999424e-01 2.224214999999999876e+01 1.340654999999999859e+02 1.734445000000000164e+03
8.700000000000000788e-02 7.983289999999999553e-01 2.135320000000000107e+01 1.332864999999999895e+02 1.734264999999999873e+03
8.800000000000000877e-02 7.981674999999999187e-01 2.050199999999999889e+01 1.325345000000000084e+02 1.734079999999999927e+03
8.899999999999999578e-02 7.980190000000000339e-01 1.969834999999999781e+01 1.318319999999999936e+02 1.733910000000000082e+03
8.999999999999999667e-02 7.978855000000000253e-01 1.894849999999999923e+01 1.311974999999999909e+02 1.733750000000000000e+03
9.099999999999999756e-02 7.977689999999999504e-01 1.825529999999999831e+01 1.306380000000000052e+02 1.733605000000000018e+03
9.199999999999999845e-02 7.976689999999999614e-01 1.761789999999999878e+01 1.301580000000000155e+02 1.733470000000000027e+03
9.299999999999999933e-02 7.975844999999999185e-01 1.703245000000000076e+01 1.297504999999999882e+02 1.733360000000000127e+03
9.400000000000000022e-02 7.975114999999999288e-01 1.649204999999999899e+01 1.294064999999999941e+02 1.733255000000000109e+03
9.500000000000000111e-02 7.974459999999999882e-01 1.598764999999999858e+01 1.291094999999999970e+02 1.733170000000000073e+03
9.600000000000000200e-02 7.973844999999999406e-01 1.550860000000000127e+01 1.288404999999999916e+02 1.733090000000000146e+03
9.700000000000000289e-02 7.973200000000000287e-01 1.504349999999999987e+01 1.285785000000000196e+02 1.733014999999999873e+03
9.800000000000000377e-02 7.972485000000000266e-01 1.458050000000000068e+01 1.283009999999999877e+02 1.732934999999999945e+03
9.900000000000000466e-02 7.971645000000000536e-01 1.410834999999999972e+01 1.279874999999999972e+02 1.732849999999999909e+03
1.000000000000000056e-01 7.970645000000000646e-01 1.361700000000000088e+01 1.276195000000000022e+02 1.732759999999999991e+03
1.010000000000000064e-01 7.969450000000000145e-01 1.309815499999999844e+01 1.271804999999999950e+02 1.732650000000000091e+03
1.020000000000000073e-01 7.968045000000000266e-01 1.254571499999999951e+01 1.266594999999999942e+02 1.732525000000000091e+03
1.030000000000000082e-01 7.966420000000000723e-01 1.195613499999999974e+01 1.260515000000000043e+02 1.732380000000000109e+03
1.040000000000000091e-01 7.964579999999999993e-01 1.132884999999999920e+01 1.253549999999999898e+02 1.732215000000000146e+03
1.050000000000000100e-01 7.962544999999999762e-01 1.066620999999999952e+01 1.245769999999999982e+02 1.732029999999999973e+03
1.059999999999999970e-01 7.960359999999999658e-01 9.973264999999999603e+00 1.237274999999999920e+02 1.731829999999999927e+03
1.069999999999999979e-01 7.958060000000000134e-01 9.257844999999999658e+00 1.228245000000000005e+02 1.731615000000000009e+03
1.079999999999999988e-01 7.955695000000000405e-01 8.529804999999999637e+00 1.218864999999999981e+02 1.731384999999999991e+03
1.089999999999999997e-01 7.953345000000000553e-01 7.800655000000000783e+00 1.209394999999999953e+02 1.731154999999999973e+03
1.100000000000000006e-01 7.951070000000000082e-01 7.082950000000000301e+00 1.200079999999999956e+02 1.730929999999999836e+03
1.110000000000000014e-01 7.948919999999999320e-01 6.389689999999999870e+00 1.191195000000000022e+02 1.730710000000000036e+03
1.120000000000000023e-01 7.946964999999999169e-01 5.733335000000000292e+00 1.182990000000000066e+02 1.730500000000000000e+03
1.130000000000000032e-01 7.945264999999999134e-01 5.125454999999999650e+00 1.175699999999999932e+02 1.730315000000000055e+03
1.140000000000000041e-01 7.943860000000000365e-01 4.575969999999999871e+00 1.169519999999999982e+02 1.730150000000000091e+03
1.150000000000000050e-01 7.942774999999999697e-01 4.092715000000000103e+00 1.164615000000000009e+02 1.730009999999999991e+03
1.160000000000000059e-01 7.942029999999999923e-01 3.681049999999999933e+00 1.161065000000000111e+02 1.729909999999999854e+03
1.170000000000000068e-01 7.941635000000000222e-01 3.343659999999999854e+00 1.158930000000000007e+02 1.729835000000000036e+03
1.180000000000000077e-01 7.941579999999999195e-01 3.080540000000000056e+00 1.158199999999999932e+02 1.729799999999999955e+03
1.190000000000000085e-01 7.941834999999999312e-01 2.889064999999999994e+00 1.158795000000000073e+02 1.729789999999999964e+03
1.200000000000000094e-01 7.942374999999999297e-01 2.764289999999999914e+00 1.160594999999999999e+02 1.729809999999999945e+03
1.209999999999999964e-01 7.943149999999999933e-01 2.699284999999999712e+00 1.163455000000000013e+02 1.729864999999999782e+03
1.219999999999999973e-01 7.944109999999999783e-01 2.685559999999999725e+00 1.167169999999999987e+02 1.729929999999999836e+03
1.229999999999999982e-01 7.945214999999999916e-01 2.713600000000000012e+00 1.171544999999999987e+02 1.730025000000000091e+03
1.239999999999999991e-01 7.946405000000000829e-01 2.773330000000000073e+00 1.176359999999999957e+02 1.730130000000000109e+03
1.250000000000000000e-01 7.947625000000000384e-01 2.854585000000000150e+00 1.181389999999999958e+02 1.730240000000000009e+03
1.260000000000000009e-01 7.948824999999999363e-01 2.947549999999999670e+00 1.186444999999999936e+02 1.730355000000000018e+03
1.270000000000000018e-01 7.949979999999999825e-01 3.043115000000000236e+00 1.191330000000000098e+02 1.730469999999999800e+03
1.280000000000000027e-01 7.951044999999999918e-01 3.133185000000000109e+00 1.195900000000000034e+02 1.730579999999999927e+03
1.290000000000000036e-01 7.951985000000000303e-01 3.210885000000000211e+00 1.200010000000000048e+02 1.730679999999999836e+03
1.300000000000000044e-01 7.952795000000000281e-01 3.270690000000000097e+00 1.203580000000000041e+02 1.730769999999999982e+03
1.310000000000000053e-01 7.953455000000000386e-01 3.308525000000000382e+00 1.206539999999999964e+02 1.730849999999999909e+03
1.320000000000000062e-01 7.953959999999999919e-01 3.321760000000000268e+00 1.208859999999999957e+02 1.730914999999999964e+03
1.330000000000000071e-01 7.954315000000000691e-01 3.309135000000000382e+00 1.210534999999999997e+02 1.730965000000000146e+03
1.340000000000000080e-01 7.954525000000000068e-01 3.270704999999999973e+00 1.211585000000000036e+02 1.731000000000000000e+03
1.350000000000000089e-01 7.954604999999999038e-01 3.207684999999999675e+00 1.212060000000000031e+02 1.731019999999999982e+03
1.360000000000000098e-01 7.954570000000000807e-01 3.122259999999999813e+00 1.212019999999999982e+02 1.731025000000000091e+03
1.370000000000000107e-01 7.954440000000000399e-01 3.017409999999999926e+00 1.211529999999999916e+02 1.731025000000000091e+03
1.380000000000000115e-01 7.954229999999999912e-01 2.896689999999999987e+00 1.210689999999999884e+02 1.731009999999999991e+03
1.390000000000000124e-01 7.953969999999999096e-01 2.763975000000000293e+00 1.209560000000000031e+02 1.730994999999999891e+03
1.400000000000000133e-01 7.953669999999999352e-01 2.623289999999999900e+00 1.208239999999999981e+02 1.730965000000000146e+03
1.410000000000000142e-01 7.953345000000000553e-01 2.478524999999999867e+00 1.206794999999999902e+02 1.730940000000000055e+03
1.420000000000000151e-01 7.953019999999999534e-01 2.333309999999999995e+00 1.205294999999999987e+02 1.730904999999999973e+03
1.430000000000000160e-01 7.952699999999999214e-01 2.190784999999999982e+00 1.203795000000000073e+02 1.730875000000000000e+03
1.440000000000000169e-01 7.952390000000000292e-01 2.053499999999999659e+00 1.202325000000000017e+02 1.730839999999999918e+03
1.450000000000000178e-01 7.952099999999999724e-01 1.923319999999999919e+00 1.200914999999999964e+02 1.730804999999999836e+03
1.459999999999999909e-01 7.951820000000000555e-01 1.801405000000000145e+00 1.199565000000000055e+02 1.730775000000000091e+03
1.469999999999999918e-01 7.951555000000000151e-01 1.688235000000000152e+00 1.198275000000000006e+02 1.730740000000000009e+03
1.479999999999999927e-01 7.951295000000000446e-01 1.583629999999999871e+00 1.197019999999999982e+02 1.730710000000000036e+03
1.489999999999999936e-01 7.951025000000000453e-01 1.486896999999999913e+00 1.195769999999999982e+02 1.730679999999999836e+03
1.499999999999999944e-01 7.950745000000000173e-01 1.396965000000000012e+00 1.194484999999999957e+02 1.730644999999999982e+03
1.509999999999999953e-01 7.950440000000000840e-01 1.312501499999999988e+00 1.193119999999999976e+02 1.730610000000000127e+03
1.519999999999999962e-01 7.950099999999999945e-01 1.232114999999999849e+00 1.191640000000000015e+02 1.730575000000000045e+03
1.529999999999999971e-01 7.949714999999999421e-01 1.154456499999999997e+00 1.190010000000000048e+02 1.730534999999999854e+03
1.539999999999999980e-01 7.949279999999999680e-01 1.078383000000000091e+00 1.188195000000000050e+02 1.730490000000000009e+03
1.549999999999999989e-01 7.948800000000000310e-01 1.003039500000000084e+00 1.186184999999999974e+02 1.730440000000000055e+03
1.559999999999999998e-01 7.948254999999999626e-01 9.279054999999999387e-01 1.183960000000000008e+02 1.730384999999999991e+03
1.570000000000000007e-01 7.947660000000000835e-01 8.528554999999999886e-01 1.181525000000000034e+02 1.730325000000000045e+03
1.580000000000000016e-01 7.947014999999999496e-01 7.781556949999999251e-01 1.178900000000000006e+02 1.730259999999999991e+03
1.590000000000000024e-01 7.946334999999999926e-01 7.044189999999999063e-01 1.176105000000000018e+02 1.730195000000000164e+03
