# t [s], A [cm^2], U [cm/s], P [cPa], c [cm/s]
1.000000000000000021e-03 6.868944999999999634e-01 4.113499999999999102e-03 1.023845000000000027e+02 1.667465000000000146e+03
2.000000000000000042e-03 6.868890000000000828e-01 8.185250000000001552e-03 1.023625000000000114e+02 1.667460000000000036e+03
3.000000000000000062e-03 6.869655000000000067e-01 1.404498499999999872e-01 1.025120000000000005e+02 1.667490000000000009e+03
4.000000000000000083e-03 6.870000000000000551e-01 2.150309999999999999e-01 1.026045000000000016e+02 1.667509999999999991e+03
5.000000000000000104e-03 6.869425000000000114e-01 1.394775000000000320e-01 1.024519999999999982e+02 1.667485000000000127e+03
6.000000000000000125e-03 6.868665000000000465e-01 2.194949999999995516e-02 1.021475000000000080e+02 1.667425000000000182e+03
7.000000000000000146e-03 6.867784999999999584e-01 -1.263949999999999241e-01 1.017270000000000039e+02 1.667340000000000146e+03
8.000000000000000167e-03 6.866200000000000081e-01 -4.125250000000001416e-01 1.010499999999999972e+02 1.667200000000000045e+03
9.000000000000001055e-03 6.863764999999999450e-01 -8.591200000000001058e-01 1.000374500000000069e+02 1.666994999999999891e+03
1.000000000000000194e-02 6.860355000000000203e-01 -1.473484999999999934e+00 9.862669999999999959e+01 1.666704999999999927e+03
1.099999999999999936e-02 6.855770000000001030e-01 -2.272854999999999848e+00 9.674234999999998763e+01 1.666304999999999836e+03
1.200000000000000025e-02 6.850195000000000034e-01 -3.195174999999999876e+00 9.440919999999999845e+01 1.665804999999999836e+03
1.300000000000000114e-02 6.844419999999999948e-01 -4.070269999999999833e+00 9.183070000000000732e+01 1.665234999999999900e+03
1.400000000000000203e-02 6.839334999999999720e-01 -4.700553000000000203e+00 8.930665000000000475e+01 1.664650000000000091e+03
1.499999999999999944e-02 6.835450000000000692e-01 -4.960372500000000073e+00 8.709299999999998931e+01 1.664110000000000127e+03
1.600000000000000033e-02 6.832730000000000192e-01 -4.837934999999999874e+00 8.530019999999998959e+01 1.663630000000000109e+03
1.700000000000000122e-02 6.830705000000000249e-01 -4.416954999999999742e+00 8.388040000000000873e+01 1.663224999999999909e+03
1.800000000000000211e-02 6.828754999999999686e-01 -3.826920000000000321e+00 8.267599999999998772e+01 1.662860000000000127e+03
1.900000000000000300e-02 6.826360000000000205e-01 -3.188425499999999690e+00 8.149799999999999045e+01 1.662505000000000109e+03
2.000000000000000042e-02 6.823299999999999921e-01 -2.572557999999999900e+00 8.020165000000000077e+01 1.662130000000000109e+03
2.100000000000000130e-02 6.819634999999999447e-01 -1.988010000000000055e+00 7.873140000000000782e+01 1.661730000000000018e+03
2.200000000000000219e-02 6.815664999999999640e-01 -1.398985000000000145e+00 7.711830000000000496e+01 1.661299999999999955e+03
2.299999999999999961e-02 6.811670000000000780e-01 -7.614899999999997782e-01 7.543904999999999461e+01 1.660855000000000018e+03
2.400000000000000050e-02 6.807819999999999983e-01 -5.819999999999980744e-02 7.376095000000000823e+01 1.660404999999999973e+03
2.500000000000000139e-02 6.804049999999999265e-01 6.826499999999997570e-01 7.209989999999999100e+01 1.659954999999999927e+03
2.600000000000000228e-02 6.800085000000000157e-01 1.388240000000000141e+00 7.040324999999999989e+01 1.659494999999999891e+03
2.700000000000000316e-02 6.795554999999999790e-01 1.958119999999999861e+00 6.856040000000000134e+01 1.659009999999999991e+03
2.800000000000000058e-02 6.790069999999999162e-01 2.290170000000000261e+00 6.643395000000001005e+01 1.658464999999999918e+03
2.900000000000000147e-02 6.783390000000000253e-01 2.307964999999999822e+00 6.390189999999999770e+01 1.657845000000000027e+03
3.000000000000000236e-02 6.775444999999999940e-01 1.982069999999999776e+00 6.089844999999999686e+01 1.657125000000000000e+03
3.099999999999999978e-02 6.766450000000000520e-01 1.338804999999999801e+00 5.744124999999999659e+01 1.656309999999999945e+03
3.200000000000000067e-02 6.756809999999999761e-01 4.547100000000003917e-01 5.363669999999999760e+01 1.655420000000000073e+03
3.300000000000000155e-02 6.747049999999999992e-01 -5.612500000000002487e-01 4.966360000000000241e+01 1.654474999999999909e+03
3.400000000000000244e-02 6.737744999999999429e-01 -1.589984999999999538e+00 4.574125000000000085e+01 1.653534999999999854e+03
3.500000000000000333e-02 6.729385000000001060e-01 -2.522149999999999892e+00 4.209375000000000000e+01 1.652644999999999982e+03
3.600000000000000422e-02 6.722354999999999858e-01 -3.271814999999999696e+00 3.891960000000000264e+01 1.651835000000000036e+03
3.700000000000000511e-02 6.716910000000000380e-01 -3.781420000000000226e+00 3.637089999999999890e+01 1.651159999999999854e+03
3.799999999999999906e-02 6.713169999999999416e-01 -4.020688999999999957e+00 3.454480000000000217e+01 1.650634999999999991e+03
3.899999999999999994e-02 6.711145000000000582e-01 -3.980260000000000353e+00 3.348545000000000016e+01 1.650280000000000200e+03
4.000000000000000083e-02 6.710789999999999811e-01 -3.664019999999999833e+00 3.319355000000000189e+01 1.650110000000000127e+03
4.100000000000000172e-02 6.712015000000000065e-01 -3.081870000000000331e+00 3.363935000000000031e+01 1.650109999999999900e+03
4.200000000000000261e-02 6.714710000000000401e-01 -2.244909999999999961e+00 3.477575000000000216e+01 1.650285000000000082e+03
4.300000000000000350e-02 6.718779999999999752e-01 -1.163905000000000189e+00 3.654704999999999870e+01 1.650610000000000127e+03
4.400000000000000439e-02 6.724114999999999398e-01 1.493849999999996569e-01 3.889419999999999789e+01 1.651089999999999918e+03
4.499999999999999833e-02 6.730579999999999341e-01 1.679255000000000386e+00 4.175485000000000468e+01 1.651700000000000045e+03
4.599999999999999922e-02 6.738030000000000408e-01 3.403004999999999836e+00 4.506145000000000067e+01 1.652424999999999955e+03
4.700000000000000011e-02 6.746300000000000630e-01 5.289209999999999745e+00 4.873899999999999721e+01 1.653255000000000109e+03
4.800000000000000100e-02 6.755185000000000217e-01 7.297699999999998965e+00 5.270405000000000229e+01 1.654164999999999964e+03
4.900000000000000189e-02 6.764455000000000329e-01 9.381715500000000318e+00 5.686609999999999587e+01 1.655130000000000109e+03
5.000000000000000278e-02 6.773899999999999366e-01 1.149104999999999954e+01 6.113139999999999930e+01 1.656139999999999873e+03
5.100000000000000366e-02 6.783304999999999474e-01 1.357626999999999917e+01 6.540800000000000125e+01 1.657170000000000073e+03
5.200000000000000455e-02 6.792489999999999917e-01 1.559234000000000009e+01 6.961180000000000234e+01 1.658199999999999818e+03
5.300000000000000544e-02 6.801315000000000000e-01 1.750183499999999981e+01 7.367189999999999372e+01 1.659210000000000036e+03
5.399999999999999939e-02 6.809674999999999478e-01 1.927659999999999840e+01 7.753449999999999420e+01 1.660184999999999945e+03
5.500000000000000028e-02 6.817524999999999835e-01 2.089874999999999972e+01 8.116534999999998945e+01 1.661119999999999891e+03
5.600000000000000117e-02 6.824844999999999384e-01 2.235999999999999943e+01 8.454999999999999716e+01 1.662000000000000000e+03
5.700000000000000205e-02 6.831679999999999975e-01 2.366104999999999947e+01 8.769185000000000230e+01 1.662829999999999927e+03
5.800000000000000294e-02 6.838070000000000537e-01 2.480935000000000201e+01 9.061034999999999684e+01 1.663605000000000018e+03
5.900000000000000383e-02 6.844105000000000327e-01 2.581835000000000235e+01 9.333679999999999666e+01 1.664344999999999800e+03
6.000000000000000472e-02 6.849874999999999714e-01 2.670495000000000019e+01 9.591030000000000655e+01 1.665045000000000073e+03
6.099999999999999867e-02 6.855480000000000462e-01 2.748864999999999981e+01 9.837444999999999595e+01 1.665710000000000036e+03
6.199999999999999956e-02 6.861005000000000020e-01 2.818939999999999912e+01 1.007745500000000050e+02 1.666360000000000127e+03
6.300000000000000044e-02 6.866535000000000277e-01 2.882675000000000054e+01 1.031512999999999920e+02 1.667000000000000000e+03
6.400000000000000133e-02 6.872150000000000203e-01 2.941814999999999714e+01 1.055395000000000039e+02 1.667634999999999991e+03
6.500000000000000222e-02 6.877884999999999138e-01 2.997780000000000200e+01 1.079675000000000011e+02 1.668279999999999973e+03
6.600000000000000311e-02 6.883774999999999755e-01 3.051555000000000106e+01 1.104495000000000005e+02 1.668934999999999945e+03
6.700000000000000400e-02 6.889800000000000368e-01 3.103634999999999877e+01 1.129900000000000091e+02 1.669595000000000027e+03
6.800000000000000488e-02 6.895934999999999704e-01 3.153989999999999938e+01 1.155799999999999983e+02 1.670269999999999982e+03
6.900000000000000577e-02 6.902120000000000477e-01 3.202105000000000246e+01 1.181980000000000075e+02 1.670945000000000164e+03
7.000000000000000666e-02 6.908279999999999976e-01 3.247044999999999959e+01 1.208139999999999930e+02 1.671630000000000109e+03
7.100000000000000755e-02 6.914320000000000466e-01 3.287545000000000073e+01 1.233889999999999958e+02 1.672300000000000182e+03
7.200000000000000844e-02 6.920129999999999892e-01 3.322155000000000058e+01 1.258805000000000121e+02 1.672950000000000045e+03
7.300000000000000933e-02 6.925615000000000521e-01 3.349349999999999739e+01 1.282420000000000186e+02 1.673575000000000045e+03
7.399999999999999634e-02 6.930680000000000174e-01 3.367680000000000007e+01 1.304309999999999832e+02 1.674164999999999964e+03
7.499999999999999722e-02 6.935234999999999594e-01 3.375865000000000293e+01 1.324070000000000107e+02 1.674704999999999927e+03
7.599999999999999811e-02 6.939224999999999977e-01 3.372879999999999967e+01 1.341390000000000100e+02 1.675184999999999945e+03
7.699999999999999900e-02 6.942589999999999595e-01 3.358030000000000115e+01 1.356014999999999873e+02 1.675605000000000018e+03
7.799999999999999989e-02 6.945304999999999396e-01 3.330964999999999776e+01 1.367785000000000082e+02 1.675954999999999927e+03
7.900000000000000078e-02 6.947375000000000078e-01 3.291765000000000185e+01 1.376659999999999968e+02 1.676235000000000127e+03
8.000000000000000167e-02 6.948795000000000943e-01 3.240849999999999653e+01 1.382660000000000196e+02 1.676445000000000164e+03
8.100000000000000255e-02 6.949620000000000797e-01 3.179025000000000034e+01 1.385939999999999941e+02 1.676585000000000036e+03
8.200000000000000344e-02 6.949890000000000789e-01 3.107434999999999903e+01 1.386689999999999827e+02 1.676660000000000082e+03
8.300000000000000433e-02 6.949669999999998904e-01 3.027485000000000070e+01 1.385204999999999984e+02 1.676679999999999836e+03
8.400000000000000522e-02 6.949045000000000361e-01 2.940814999999999912e+01 1.381820000000000164e+02 1.676639999999999873e+03
8.500000000000000611e-02 6.948090000000000099e-01 2.849200000000000088e+01 1.376895000000000095e+02 1.676559999999999945e+03
8.600000000000000699e-02 6.946890000000000009e-01 2.754495000000000005e+01 1.370829999999999984e+02 1.676445000000000164e+03
8.700000000000000788e-02 6.945544999999999636e-01 2.658544999999999803e+01 1.364010000000000105e+02 1.676305000000000064e+03
8.800000000000000877e-02 6.944114999999999593e-01 2.563100000000000023e+01 1.356804999999999950e+02 1.676144999999999982e+03
8.899999999999999578e-02 6.942690000000000250e-01 2.469744999999999990e+01 1.349560000000000173e+02 1.675985000000000127e+03
8.999999999999999667e-02 6.941319999999999713e-01 2.379830000000000112e+01 1.342574999999999932e+02 1.675815000000000055e+03
9.099999999999999756e-02 6.940055000000000529e-01 2.294409999999999883e+01 1.336074999999999875e+02 1.675659999999999854e+03
9.199999999999999845e-02 6.938929999999999820e-01 2.214229999999999876e+01 1.330235000000000127e+02 1.675509999999999991e+03
9.299999999999999933e-02 6.937964999999999272e-01 2.139675000000000082e+01 1.325155000000000030e+02 1.675375000000000000e+03
9.400000000000000022e-02 6.937154999999999294e-01 2.070790000000000219e+01 1.320865000000000009e+02 1.675255000000000109e+03
9.500000000000000111e-02 6.936489999999999601e-01 2.007300000000000040e+01 1.317325000000000159e+02 1.675150000000000091e+03
9.600000000000000200e-02 6.935945000000000027e-01 1.948624999999999829e+01 1.314440000000000168e+02 1.675065000000000055e+03
9.700000000000000289e-02 6.935485000000000122e-01 1.893970000000000198e+01 1.312065000000000055e+02 1.674990000000000009e+03
9.800000000000000377e-02 6.935059999999999558e-01 1.842334999999999923e+01 1.310009999999999764e+02 1.674925000000000182e+03
9.900000000000000466e-02 6.934635000000000105e-01 1.792605000000000004e+01 1.308070000000000164e+02 1.674865000000000009e+03
1.000000000000000056e-01 6.934154999999999625e-01 1.743634999999999735e+01 1.306014999999999873e+02 1.674800000000000182e+03
1.010000000000000064e-01 6.933574999999999600e-01 1.694275000000000020e+01 1.303634999999999877e+02 1.674735000000000127e+03
1.020000000000000073e-01 6.932844999999999702e-01 1.643475000000000108e+01 1.300730000000000075e+02 1.674659999999999854e+03
1.030000000000000082e-01 6.931939999999999769e-01 1.590315000000000012e+01 1.297124999999999773e+02 1.674570000000000164e+03
1.040000000000000091e-01 6.930840000000000334e-01 1.534080000000000155e+01 1.292694999999999936e+02 1.674460000000000036e+03
1.050000000000000100e-01 6.929514999999999425e-01 1.474265000000000114e+01 1.287340000000000089e+02 1.674329999999999927e+03
1.059999999999999970e-01 6.927980000000000249e-01 1.410655000000000037e+01 1.281034999999999968e+02 1.674179999999999836e+03
1.069999999999999979e-01 6.926235000000000586e-01 1.343276000000000003e+01 1.273795000000000073e+02 1.674009999999999991e+03
1.079999999999999988e-01 6.924304999999999488e-01 1.272446000000000055e+01 1.265695000000000050e+02 1.673815000000000055e+03
1.089999999999999997e-01 6.922224999999999628e-01 1.198723000000000027e+01 1.256859999999999928e+02 1.673599999999999909e+03
1.100000000000000006e-01 6.920024999999999649e-01 1.122905499999999890e+01 1.247460000000000093e+02 1.673380000000000109e+03
1.110000000000000014e-01 6.917769999999999753e-01 1.045976999999999890e+01 1.237694999999999936e+02 1.673140000000000100e+03
1.120000000000000023e-01 6.915510000000000268e-01 9.690599999999999881e+00 1.227800000000000011e+02 1.672900000000000091e+03
1.130000000000000032e-01 6.913290000000000823e-01 8.933499999999998664e+00 1.218010000000000019e+02 1.672654999999999973e+03
1.140000000000000041e-01 6.911175000000000512e-01 8.200839999999999463e+00 1.208580000000000041e+02 1.672414999999999964e+03
1.150000000000000050e-01 6.909214999999999662e-01 7.504419999999999646e+00 1.199749999999999943e+02 1.672195000000000164e+03
1.160000000000000059e-01 6.907460000000000822e-01 6.855164999999999509e+00 1.191730000000000018e+02 1.671980000000000018e+03
1.170000000000000068e-01 6.905939999999999301e-01 6.262484999999999857e+00 1.184704999999999870e+02 1.671795000000000073e+03
1.180000000000000077e-01 6.904684999999999295e-01 5.733824999999999505e+00 1.178814999999999884e+02 1.671630000000000109e+03
1.190000000000000085e-01 6.903719999999999857e-01 5.274409999999999599e+00 1.174164999999999992e+02 1.671494999999999891e+03
1.200000000000000094e-01 6.903044999999999876e-01 4.887005000000000265e+00 1.170790000000000077e+02 1.671389999999999873e+03
1.209999999999999964e-01 6.902654999999999763e-01 4.571894999999999598e+00 1.168689999999999998e+02 1.671320000000000164e+03
1.219999999999999973e-01 6.902524999999999356e-01 4.326959999999999695e+00 1.167804999999999893e+02 1.671269999999999982e+03
1.229999999999999982e-01 6.902645000000000586e-01 4.147890000000000299e+00 1.168034999999999997e+02 1.671255000000000109e+03
1.239999999999999991e-01 6.902969999999999384e-01 4.028494999999999493e+00 1.169254999999999995e+02 1.671259999999999991e+03
1.250000000000000000e-01 6.903464999999999741e-01 3.961079999999999934e+00 1.171289999999999907e+02 1.671289999999999964e+03
1.260000000000000009e-01 6.904080000000000217e-01 3.936879999999999935e+00 1.173954999999999984e+02 1.671335000000000036e+03
1.270000000000000018e-01 6.904790000000000649e-01 3.946509999999999962e+00 1.177065000000000055e+02 1.671400000000000091e+03
1.280000000000000027e-01 6.905529999999999724e-01 3.980389999999999873e+00 1.180420000000000016e+02 1.671470000000000027e+03
1.290000000000000036e-01 6.906274999999999498e-01 4.029154999999999376e+00 1.183840000000000003e+02 1.671539999999999964e+03
1.300000000000000044e-01 6.906984999999999930e-01 4.084005000000000329e+00 1.187154999999999916e+02 1.671615000000000009e+03
1.310000000000000053e-01 6.907630000000000159e-01 4.136999999999999567e+00 1.190215000000000032e+02 1.671684999999999945e+03
1.320000000000000062e-01 6.908179999999999321e-01 4.181305000000000049e+00 1.192905000000000086e+02 1.671750000000000000e+03
1.330000000000000071e-01 6.908630000000000049e-01 4.211325000000000429e+00 1.195130000000000052e+02 1.671805000000000064e+03
1.340000000000000080e-01 6.908959999999999546e-01 4.222820000000000462e+00 1.196835000000000093e+02 1.671855000000000018e+03
1.350000000000000089e-01 6.909160000000000856e-01 4.212894999999999612e+00 1.197980000000000018e+02 1.671884999999999991e+03
1.360000000000000098e-01 6.909239999999999826e-01 4.180019999999999847e+00 1.198565000000000111e+02 1.671905000000000200e+03
1.370000000000000107e-01 6.909210000000000074e-01 4.123915000000000219e+00 1.198594999999999970e+02 1.671914999999999964e+03
1.380000000000000115e-01 6.909069999999999379e-01 4.045424999999999827e+00 1.198135000000000048e+02 1.671909999999999854e+03
1.390000000000000124e-01 6.908834999999999837e-01 3.946379999999999999e+00 1.197215000000000060e+02 1.671894999999999982e+03
1.400000000000000133e-01 6.908524999999999805e-01 3.829405000000000392e+00 1.195914999999999964e+02 1.671869999999999891e+03
1.410000000000000142e-01 6.908155000000000268e-01 3.697700000000000209e+00 1.194320000000000022e+02 1.671839999999999918e+03
1.420000000000000151e-01 6.907745000000000690e-01 3.554855000000000320e+00 1.192489999999999952e+02 1.671799999999999955e+03
1.430000000000000160e-01 6.907304999999999140e-01 3.404619999999999980e+00 1.190519999999999925e+02 1.671755000000000109e+03
1.440000000000000169e-01 6.906864999999999810e-01 3.250700000000000145e+00 1.188470000000000084e+02 1.671710000000000036e+03
1.450000000000000178e-01 6.906425000000000480e-01 3.096579999999999888e+00 1.186405000000000030e+02 1.671664999999999964e+03
1.459999999999999909e-01 6.905995000000000328e-01 2.945370000000000044e+00 1.184385000000000048e+02 1.671615000000000009e+03
1.469999999999999918e-01 6.905589999999999229e-01 2.799640000000000128e+00 1.182445000000000022e+02 1.671565000000000055e+03
1.479999999999999927e-01 6.905204999999999815e-01 2.661385000000000112e+00 1.180610000000000070e+02 1.671525000000000091e+03
1.489999999999999936e-01 6.904855000000000853e-01 2.531940000000000079e+00 1.178884999999999934e+02 1.671480000000000018e+03
1.499999999999999944e-01 6.904529999999999834e-01 2.412005000000000177e+00 1.177284999999999968e+02 1.671440000000000055e+03
1.509999999999999953e-01 6.904219999999999802e-01 2.301670000000000105e+00 1.175780000000000030e+02 1.671400000000000091e+03
1.519999999999999962e-01 6.903924999999999645e-01 2.200515000000000221e+00 1.174339999999999975e+02 1.671365000000000009e+03
1.529999999999999971e-01 6.903630000000000599e-01 2.107685000000000031e+00 1.172944999999999993e+02 1.671325000000000045e+03
1.539999999999999980e-01 6.903330000000000854e-01 2.022054999999999936e+00 1.171550000000000011e+02 1.671289999999999964e+03
1.549999999999999989e-01 6.903025000000000411e-01 1.942334999999999923e+00 1.170124999999999886e+02 1.671255000000000109e+03
1.559999999999999998e-01 6.902695000000000913e-01 1.867215000000000069e+00 1.168624999999999972e+02 1.671210000000000036e+03
1.570000000000000007e-01 6.902340000000000142e-01 1.795490000000000030e+00 1.167025000000000006e+02 1.671170000000000073e+03
1.580000000000000016e-01 6.901949999999998919e-01 1.726169999999999760e+00 1.165300000000000011e+02 1.671130000000000109e+03
1.590000000000000024e-01 6.901530000000000165e-01 1.658519000000000077e+00 1.163435000000000059e+02 1.671079999999999927e+03
