# t [s], A [cm^2], U [cm/s], P [cPa], c [cm/s]
1.000000000000000021e-03 1.824534999999999907e-01 4.437855499999999731e-01 9.717904999999998950e+01 2.099210000000000036e+03
2.000000000000000042e-03 1.823969999999999758e-01 2.119454999999999867e+00 9.338470000000000937e+01 2.098755000000000109e+03
3.000000000000000062e-03 1.822535000000000127e-01 4.130999500000000602e+00 8.833655000000000257e+01 2.097635000000000218e+03
4.000000000000000083e-03 1.820645000000000180e-01 6.374799999999999578e+00 8.319039999999999679e+01 2.096175000000000182e+03
5.000000000000000104e-03 1.818675000000000153e-01 8.746315000000000950e+00 7.887774999999999181e+01 2.094675000000000182e+03
6.000000000000000125e-03 1.816814999999999958e-01 1.100483000000000011e+01 7.545785000000000764e+01 2.093264999999999873e+03
7.000000000000000146e-03 1.815074999999999883e-01 1.294057499999999905e+01 7.250435000000000230e+01 2.091980000000000018e+03
8.000000000000000167e-03 1.813514999999999988e-01 1.453867999999999938e+01 6.987215000000000487e+01 2.090845000000000255e+03
9.000000000000001055e-03 1.812170000000000170e-01 1.585845000000000127e+01 6.768430000000000746e+01 2.089880000000000109e+03
1.000000000000000194e-02 1.811059999999999892e-01 1.692299999999999827e+01 6.595919999999999561e+01 2.089095000000000255e+03
1.099999999999999936e-02 1.810169999999999835e-01 1.774579999999999913e+01 6.462160000000000082e+01 2.088469999999999800e+03
1.200000000000000025e-02 1.809465000000000101e-01 1.833939999999999770e+01 6.357770000000000721e+01 2.087985000000000127e+03
1.300000000000000114e-02 1.808890000000000220e-01 1.871204999999999785e+01 6.270260000000000389e+01 2.087595000000000255e+03
1.400000000000000203e-02 1.808424999999999894e-01 1.891324999999999790e+01 6.194494999999999862e+01 2.087284999999999854e+03
1.499999999999999944e-02 1.808079999999999965e-01 1.907504999999999740e+01 6.149524999999999864e+01 2.087065000000000055e+03
1.600000000000000033e-02 1.807960000000000123e-01 1.937434999999999974e+01 6.176454999999999984e+01 2.086994999999999891e+03
1.700000000000000122e-02 1.808164999999999911e-01 1.993489999999999895e+01 6.312354999999999450e+01 2.087149999999999636e+03
1.800000000000000211e-02 1.808744999999999936e-01 2.074859999999999971e+01 6.560885000000000389e+01 2.087564999999999600e+03
1.900000000000000300e-02 1.809634999999999994e-01 2.167014999999999958e+01 6.881600000000000250e+01 2.088199999999999818e+03
2.000000000000000042e-02 1.810665000000000191e-01 2.248059999999999903e+01 7.203385000000000105e+01 2.088949999999999818e+03
2.100000000000000130e-02 1.811639999999999917e-01 2.297769999999999868e+01 7.452185000000000059e+01 2.089659999999999854e+03
2.200000000000000219e-02 1.812354999999999938e-01 2.304959999999999809e+01 7.578329999999999700e+01 2.090204999999999927e+03
2.299999999999999961e-02 1.812719999999999887e-01 2.270384999999999920e+01 7.571684999999999377e+01 2.090494999999999891e+03
2.400000000000000050e-02 1.812739999999999907e-01 2.204694999999999894e+01 7.459914999999999452e+01 2.090534999999999854e+03
2.500000000000000139e-02 1.812489999999999934e-01 2.122935000000000016e+01 7.292770000000000152e+01 2.090375000000000000e+03
2.600000000000000228e-02 1.812099999999999822e-01 2.038494999999999990e+01 7.120625000000001137e+01 2.090104999999999563e+03
2.700000000000000316e-02 1.811689999999999967e-01 1.958885000000000076e+01 6.976920000000001210e+01 2.089810000000000400e+03
2.800000000000000058e-02 1.811315000000000008e-01 1.884690000000000154e+01 6.870449999999999591e+01 2.089539999999999964e+03
2.900000000000000147e-02 1.810990000000000100e-01 1.811415000000000219e+01 6.788509999999999422e+01 2.089305000000000291e+03
3.000000000000000236e-02 1.810680000000000067e-01 1.732954999999999757e+01 6.707554999999999268e+01 2.089079999999999927e+03
3.099999999999999978e-02 1.810329999999999995e-01 1.645255000000000223e+01 6.606255000000000166e+01 2.088835000000000036e+03
3.200000000000000067e-02 1.809910000000000130e-01 1.548840000000000039e+01 6.476135000000000730e+01 2.088534999999999854e+03
3.300000000000000155e-02 1.809419999999999917e-01 1.449559999999999960e+01 6.326520000000000010e+01 2.088185000000000400e+03
3.400000000000000244e-02 1.808905000000000096e-01 1.357294999999999874e+01 6.182535000000000025e+01 2.087819999999999709e+03
3.500000000000000333e-02 1.808454999999999924e-01 1.283210000000000051e+01 6.077309999999999945e+01 2.087494999999999891e+03
3.600000000000000422e-02 1.808159999999999767e-01 1.236444999999999972e+01 6.041159999999999997e+01 2.087275000000000091e+03
3.700000000000000511e-02 1.808105000000000129e-01 1.221365000000000123e+01 6.091629999999999967e+01 2.087220000000000255e+03
3.799999999999999906e-02 1.808319999999999927e-01 1.236240000000000094e+01 6.227510000000000190e+01 2.087355000000000018e+03
3.899999999999999994e-02 1.808775000000000244e-01 1.273489999999999966e+01 6.428315000000000623e+01 2.087670000000000073e+03
4.000000000000000083e-02 1.809415000000000051e-01 1.321349999999999980e+01 6.658844999999999459e+01 2.088110000000000127e+03
4.100000000000000172e-02 1.810114999999999919e-01 1.366254999999999953e+01 6.876834999999999809e+01 2.088609999999999673e+03
4.200000000000000261e-02 1.810755000000000003e-01 1.395299999999999940e+01 7.041540000000000532e+01 2.089069999999999709e+03
4.300000000000000350e-02 1.811225000000000196e-01 1.398205000000000098e+01 7.120799999999999841e+01 2.089409999999999854e+03
4.400000000000000439e-02 1.811415000000000108e-01 1.368469999999999942e+01 7.095474999999999000e+01 2.089560000000000400e+03
4.499999999999999833e-02 1.811284999999999978e-01 1.303705000000000069e+01 6.960644999999999527e+01 2.089474999999999909e+03
4.599999999999999922e-02 1.810805000000000053e-01 1.205153999999999925e+01 6.724035000000000650e+01 2.089144999999999982e+03
4.700000000000000011e-02 1.809999999999999942e-01 1.076839499999999994e+01 6.402540000000000475e+01 2.088574999999999818e+03
4.800000000000000100e-02 1.808915000000000106e-01 9.245670000000000499e+00 6.018134999999999479e+01 2.087805000000000291e+03
4.900000000000000189e-02 1.807604999999999906e-01 7.549865000000000492e+00 5.594159999999999400e+01 2.086875000000000000e+03
5.000000000000000278e-02 1.806154999999999844e-01 5.749755000000000393e+00 5.152724999999999511e+01 2.085829999999999927e+03
5.100000000000000366e-02 1.804620000000000113e-01 3.912747999999999671e+00 4.713320000000000221e+01 2.084730000000000018e+03
5.200000000000000455e-02 1.803065000000000084e-01 2.104000000000000092e+00 4.292660000000000053e+01 2.083614999999999782e+03
5.300000000000000544e-02 1.801559999999999828e-01 3.865449999999999164e-01 3.905195000000000505e+01 2.082529999999999745e+03
5.399999999999999939e-02 1.800154999999999950e-01 -1.178264999999999896e+00 3.563824999999999932e+01 2.081510000000000218e+03
5.500000000000000028e-02 1.798894999999999800e-01 -2.530975999999999893e+00 3.280499999999999972e+01 2.080599999999999909e+03
5.600000000000000117e-02 1.797834999999999850e-01 -3.615380000000000038e+00 3.066404999999999959e+01 2.079824999999999818e+03
5.700000000000000205e-02 1.797009999999999996e-01 -4.380945000000000533e+00 2.931610000000000227e+01 2.079215000000000146e+03
5.800000000000000294e-02 1.796460000000000001e-01 -4.785885000000000389e+00 2.884494999999999720e+01 2.078805000000000291e+03
5.900000000000000383e-02 1.796230000000000049e-01 -4.800440000000000040e+00 2.930835000000000079e+01 2.078619999999999891e+03
6.000000000000000472e-02 1.796325000000000005e-01 -4.409499999999999531e+00 3.073049999999999926e+01 2.078659999999999854e+03
6.099999999999999867e-02 1.796760000000000024e-01 -3.614269999999999872e+00 3.309669999999999845e+01 2.078949999999999818e+03
6.199999999999999956e-02 1.797529999999999961e-01 -2.432487850000000229e+00 3.635174999999999557e+01 2.079480000000000018e+03
6.300000000000000044e-02 1.798615000000000075e-01 -8.973399999999998045e-01 4.040250000000000341e+01 2.080239999999999782e+03
6.400000000000000133e-02 1.799999999999999933e-01 9.448350000000000914e-01 4.512470000000000425e+01 2.081215000000000146e+03
6.500000000000000222e-02 1.801625000000000032e-01 3.037679999999999936e+00 5.037144999999999584e+01 2.082364999999999782e+03
6.600000000000000311e-02 1.803454999999999919e-01 5.318299999999999805e+00 5.598364999999999725e+01 2.083670000000000073e+03
6.700000000000000400e-02 1.805430000000000090e-01 7.720909999999999940e+00 6.180044999999999789e+01 2.085079999999999927e+03
6.800000000000000488e-02 1.807495000000000074e-01 1.018044500000000063e+01 6.766845000000000709e+01 2.086565000000000055e+03
6.900000000000000577e-02 1.809600000000000097e-01 1.263538499999999942e+01 7.344980000000001041e+01 2.088090000000000146e+03
7.000000000000000666e-02 1.811705000000000121e-01 1.503109999999999857e+01 7.902889999999999304e+01 2.089605000000000018e+03
7.100000000000000755e-02 1.813754999999999951e-01 1.732169999999999987e+01 8.431700000000000728e+01 2.091099999999999909e+03
7.200000000000000844e-02 1.815724999999999978e-01 1.947180000000000177e+01 8.925554999999999950e+01 2.092539999999999964e+03
7.300000000000000933e-02 1.817590000000000039e-01 2.145799999999999841e+01 9.381640000000000157e+01 2.093909999999999854e+03
7.399999999999999634e-02 1.819344999999999990e-01 2.326839999999999975e+01 9.800254999999999939e+01 2.095194999999999709e+03
7.499999999999999722e-02 1.820974999999999955e-01 2.490265000000000128e+01 1.018421000000000021e+02 2.096400000000000091e+03
7.599999999999999811e-02 1.822500000000000231e-01 2.636999999999999744e+01 1.053864000000000090e+02 2.097524999999999636e+03
7.699999999999999900e-02 1.823929999999999996e-01 2.768795000000000073e+01 1.087009999999999934e+02 2.098579999999999927e+03
7.799999999999999989e-02 1.825275000000000092e-01 2.887910000000000110e+01 1.118605000000000018e+02 2.099579999999999927e+03
7.900000000000000078e-02 1.826575000000000004e-01 2.996894999999999953e+01 1.149380000000000024e+02 2.100545000000000073e+03
8.000000000000000167e-02 1.827834999999999877e-01 3.098310000000000031e+01 1.180019999999999953e+02 2.101484999999999673e+03
8.100000000000000255e-02 1.829089999999999883e-01 3.194494999999999862e+01 1.211080000000000041e+02 2.102414999999999964e+03
8.200000000000000344e-02 1.830359999999999765e-01 3.287389999999999901e+01 1.242955000000000041e+02 2.103349999999999909e+03
8.300000000000000433e-02 1.831639999999999935e-01 3.378355000000000530e+01 1.275835000000000008e+02 2.104300000000000182e+03
8.400000000000000522e-02 1.832949999999999857e-01 3.468135000000000190e+01 1.309735000000000014e+02 2.105269999999999982e+03
8.500000000000000611e-02 1.834284999999999943e-01 3.556819999999999737e+01 1.344470000000000027e+02 2.106260000000000218e+03
8.600000000000000699e-02 1.835649999999999782e-01 3.643854999999999933e+01 1.379685000000000059e+02 2.107269999999999982e+03
8.700000000000000788e-02 1.837020000000000042e-01 3.728159999999999741e+01 1.414904999999999973e+02 2.108279999999999745e+03
8.800000000000000877e-02 1.838385000000000158e-01 3.808189999999999742e+01 1.449550000000000125e+02 2.109289999999999964e+03
8.899999999999999578e-02 1.839729999999999976e-01 3.882094999999999629e+01 1.483000000000000114e+02 2.110284999999999854e+03
8.999999999999999667e-02 1.841019999999999879e-01 3.947849999999999682e+01 1.514610000000000127e+02 2.111244999999999891e+03
9.099999999999999756e-02 1.842249999999999999e-01 4.003395000000000437e+01 1.543779999999999859e+02 2.112159999999999854e+03
9.199999999999999845e-02 1.843390000000000029e-01 4.046779999999999688e+01 1.569945000000000164e+02 2.113010000000000218e+03
9.299999999999999933e-02 1.844425000000000092e-01 4.076279999999999859e+01 1.592655000000000030e+02 2.113779999999999745e+03
9.400000000000000022e-02 1.845334999999999892e-01 4.090505000000000280e+01 1.611550000000000011e+02 2.114465000000000146e+03
9.500000000000000111e-02 1.846109999999999973e-01 4.088495000000000346e+01 1.626399999999999864e+02 2.115045000000000073e+03
9.600000000000000200e-02 1.846740000000000048e-01 4.069740000000000180e+01 1.637110000000000127e+02 2.115519999999999982e+03
9.700000000000000289e-02 1.847214999999999829e-01 4.034255000000000280e+01 1.643714999999999975e+02 2.115890000000000327e+03
9.800000000000000377e-02 1.847550000000000026e-01 3.982580000000000098e+01 1.646385000000000218e+02 2.116144999999999982e+03
9.900000000000000466e-02 1.847735000000000072e-01 3.915729999999999933e+01 1.645400000000000205e+02 2.116295000000000073e+03
1.000000000000000056e-01 1.847785000000000122e-01 3.835174999999999557e+01 1.641145000000000209e+02 2.116345000000000255e+03
1.010000000000000064e-01 1.847715000000000052e-01 3.742759999999999820e+01 1.634079999999999870e+02 2.116304999999999836e+03
1.020000000000000073e-01 1.847540000000000016e-01 3.640619999999999834e+01 1.624730000000000132e+02 2.116179999999999836e+03
1.030000000000000082e-01 1.847274999999999889e-01 3.531080000000000041e+01 1.613650000000000091e+02 2.115994999999999891e+03
1.040000000000000091e-01 1.846935000000000104e-01 3.416544999999999987e+01 1.601394999999999982e+02 2.115750000000000000e+03
1.050000000000000100e-01 1.846544999999999992e-01 3.299419999999999931e+01 1.588505000000000109e+02 2.115475000000000364e+03
1.059999999999999970e-01 1.846129999999999993e-01 3.181970000000000098e+01 1.575475000000000136e+02 2.115164999999999964e+03
1.069999999999999979e-01 1.845689999999999831e-01 3.066254999999999953e+01 1.562735000000000127e+02 2.114845000000000255e+03
1.079999999999999988e-01 1.845255000000000090e-01 2.954064999999999941e+01 1.550649999999999977e+02 2.114519999999999982e+03
1.089999999999999997e-01 1.844835000000000225e-01 2.846819999999999951e+01 1.539484999999999957e+02 2.114210000000000036e+03
1.100000000000000006e-01 1.844434999999999825e-01 2.745579999999999998e+01 1.529399999999999977e+02 2.113909999999999854e+03
1.110000000000000014e-01 1.844065000000000010e-01 2.650955000000000084e+01 1.520480000000000018e+02 2.113640000000000327e+03
1.120000000000000023e-01 1.843730000000000091e-01 2.563170000000000215e+01 1.512699999999999818e+02 2.113389999999999873e+03
1.130000000000000032e-01 1.843429999999999791e-01 2.482034999999999769e+01 1.505949999999999989e+02 2.113159999999999854e+03
1.140000000000000041e-01 1.843159999999999799e-01 2.407005000000000194e+01 1.500029999999999859e+02 2.112954999999999927e+03
1.150000000000000050e-01 1.842920000000000114e-01 2.337215000000000131e+01 1.494689999999999941e+02 2.112769999999999982e+03
1.160000000000000059e-01 1.842695000000000027e-01 2.271560000000000201e+01 1.489635000000000105e+02 2.112599999999999909e+03
1.170000000000000068e-01 1.842475000000000085e-01 2.208749999999999858e+01 1.484529999999999745e+02 2.112434999999999945e+03
1.180000000000000077e-01 1.842260000000000009e-01 2.147415000000000163e+01 1.479044999999999845e+02 2.112269999999999982e+03
1.190000000000000085e-01 1.842024999999999912e-01 2.086169999999999902e+01 1.472839999999999918e+02 2.112095000000000255e+03
1.200000000000000094e-01 1.841764999999999930e-01 2.023720000000000141e+01 1.465639999999999930e+02 2.111905000000000200e+03
1.209999999999999964e-01 1.841480000000000061e-01 1.958905000000000030e+01 1.457199999999999989e+02 2.111684999999999945e+03
1.219999999999999973e-01 1.841145000000000143e-01 1.890790000000000148e+01 1.447334999999999923e+02 2.111435000000000400e+03
1.229999999999999982e-01 1.840760000000000174e-01 1.818719999999999715e+01 1.435939999999999941e+02 2.111154999999999745e+03
1.239999999999999991e-01 1.840324999999999878e-01 1.742360000000000042e+01 1.422994999999999948e+02 2.110835000000000036e+03
1.250000000000000000e-01 1.839835000000000220e-01 1.661694999999999922e+01 1.408559999999999945e+02 2.110474999999999909e+03
1.260000000000000009e-01 1.839300000000000102e-01 1.577059999999999995e+01 1.392785000000000082e+02 2.110079999999999927e+03
1.270000000000000018e-01 1.838710000000000067e-01 1.489109999999999978e+01 1.375885000000000105e+02 2.109644999999999982e+03
1.280000000000000027e-01 1.838079999999999992e-01 1.398789999999999978e+01 1.358154999999999859e+02 2.109184999999999945e+03
1.290000000000000036e-01 1.837424999999999753e-01 1.307280000000000086e+01 1.339925000000000068e+02 2.108704999999999927e+03
1.300000000000000044e-01 1.836750000000000049e-01 1.215934000000000026e+01 1.321560000000000059e+02 2.108204999999999927e+03
1.310000000000000053e-01 1.836065000000000058e-01 1.126202499999999951e+01 1.303449999999999989e+02 2.107704999999999927e+03
1.320000000000000062e-01 1.835390000000000077e-01 1.039569000000000010e+01 1.285955000000000155e+02 2.107204999999999927e+03
1.330000000000000071e-01 1.834735000000000116e-01 9.574600000000000222e+00 1.269445000000000050e+02 2.106719999999999800e+03
1.340000000000000080e-01 1.834109999999999907e-01 8.811830000000000496e+00 1.254219999999999970e+02 2.106260000000000218e+03
1.350000000000000089e-01 1.833529999999999882e-01 8.118615000000000137e+00 1.240540000000000020e+02 2.105829999999999927e+03
1.360000000000000098e-01 1.833000000000000185e-01 7.503814999999999458e+00 1.228590000000000089e+02 2.105430000000000291e+03
1.370000000000000107e-01 1.832524999999999848e-01 6.973705000000000709e+00 1.218489999999999895e+02 2.105085000000000036e+03
1.380000000000000115e-01 1.832119999999999860e-01 6.531649999999999956e+00 1.210285000000000082e+02 2.104775000000000091e+03
1.390000000000000124e-01 1.831780000000000075e-01 6.178115000000000023e+00 1.203959999999999866e+02 2.104519999999999982e+03
1.400000000000000133e-01 1.831510000000000082e-01 5.910759999999999792e+00 1.199410000000000025e+02 2.104315000000000055e+03
1.410000000000000142e-01 1.831295000000000006e-01 5.724709999999999965e+00 1.196504999999999939e+02 2.104150000000000091e+03
1.420000000000000151e-01 1.831145000000000134e-01 5.612864999999999327e+00 1.195045000000000073e+02 2.104034999999999854e+03
1.430000000000000160e-01 1.831050000000000177e-01 5.566324999999999967e+00 1.194795000000000016e+02 2.103960000000000036e+03
1.440000000000000169e-01 1.830994999999999984e-01 5.574894999999999712e+00 1.195510000000000019e+02 2.103914999999999964e+03
1.450000000000000178e-01 1.830984999999999974e-01 5.627525000000000333e+00 1.196940000000000026e+02 2.103894999999999982e+03
1.459999999999999909e-01 1.830994999999999984e-01 5.712844999999999729e+00 1.198814999999999884e+02 2.103904999999999745e+03
1.469999999999999918e-01 1.831030000000000157e-01 5.819589999999999819e+00 1.200894999999999868e+02 2.103925000000000182e+03
1.479999999999999927e-01 1.831079999999999930e-01 5.937054999999999971e+00 1.202955000000000041e+02 2.103954999999999927e+03
1.489999999999999936e-01 1.831129999999999980e-01 6.055414999999999992e+00 1.204805000000000064e+02 2.103989999999999782e+03
1.499999999999999944e-01 1.831174999999999886e-01 6.166080000000000005e+00 1.206274999999999977e+02 2.104019999999999982e+03
1.509999999999999953e-01 1.831210000000000060e-01 6.261845000000000105e+00 1.207239999999999895e+02 2.104050000000000182e+03
1.519999999999999962e-01 1.831234999999999946e-01 6.337114999999999831e+00 1.207620000000000005e+02 2.104065000000000055e+03
1.529999999999999971e-01 1.831240000000000090e-01 6.387919999999999376e+00 1.207369999999999948e+02 2.104070000000000164e+03
1.539999999999999980e-01 1.831225000000000214e-01 6.411965000000000359e+00 1.206465000000000032e+02 2.104060000000000400e+03
1.549999999999999989e-01 1.831190000000000040e-01 6.408525000000000027e+00 1.204939999999999998e+02 2.104034999999999854e+03
1.559999999999999998e-01 1.831134999999999846e-01 6.378330000000000055e+00 1.202839999999999918e+02 2.103994999999999891e+03
1.570000000000000007e-01 1.831059999999999910e-01 6.323375000000000412e+00 1.200234999999999985e+02 2.103939999999999600e+03
1.580000000000000016e-01 1.830964999999999954e-01 6.246655000000000513e+00 1.197235000000000014e+02 2.103875000000000000e+03
1.590000000000000024e-01 1.830859999999999987e-01 6.151939999999999742e+00 1.193925000000000125e+02 2.103800000000000182e+03
