# t [s], A [cm^2], U [cm/s], P [cPa], c [cm/s]
1.000000000000000021e-03 1.600349999999999828e-01 3.811539999999999928e-01 9.097190000000000509e+01 1.932480000000000018e+03
2.000000000000000042e-03 1.599904999999999800e-01 1.968310500000000074e+00 8.770199999999999818e+01 1.932035000000000082e+03
3.000000000000000062e-03 1.598674999999999957e-01 3.884038000000000324e+00 8.331510000000000105e+01 1.930845000000000027e+03
4.000000000000000083e-03 1.596985000000000210e-01 6.016384000000000398e+00 7.866374999999999318e+01 1.929230000000000018e+03
5.000000000000000104e-03 1.595159999999999911e-01 8.295719999999999317e+00 7.459225000000000705e+01 1.927500000000000000e+03
6.000000000000000125e-03 1.593404999999999960e-01 1.054286500000000082e+01 7.132404999999999973e+01 1.925860000000000127e+03
7.000000000000000146e-03 1.591764999999999985e-01 1.254650999999999961e+01 6.857019999999999982e+01 1.924349999999999909e+03
8.000000000000000167e-03 1.590245000000000131e-01 1.423114499999999971e+01 6.608299999999999841e+01 1.922980000000000018e+03
9.000000000000001055e-03 1.588904999999999901e-01 1.564210000000000100e+01 6.391049999999999898e+01 1.921779999999999973e+03
1.000000000000000194e-02 1.587759999999999727e-01 1.681739999999999924e+01 6.212805000000000177e+01 1.920775000000000091e+03
1.099999999999999936e-02 1.586814999999999753e-01 1.777134999999999820e+01 6.070644999999999669e+01 1.919949999999999818e+03
1.200000000000000025e-02 1.586045000000000094e-01 1.852280000000000015e+01 5.959429999999999694e+01 1.919284999999999854e+03
1.300000000000000114e-02 1.585435000000000039e-01 1.908399999999999963e+01 5.872700000000000387e+01 1.918769999999999982e+03
1.400000000000000203e-02 1.584939999999999960e-01 1.946020000000000039e+01 5.800430000000000064e+01 1.918355000000000018e+03
1.499999999999999944e-02 1.584530000000000105e-01 1.969180000000000064e+01 5.738119999999999976e+01 1.918025000000000091e+03
1.600000000000000033e-02 1.584229999999999805e-01 1.988820000000000121e+01 5.699784999999999968e+01 1.917784999999999854e+03
1.700000000000000122e-02 1.584105000000000096e-01 2.019964999999999833e+01 5.717024999999999579e+01 1.917690000000000055e+03
1.800000000000000211e-02 1.584249999999999825e-01 2.074024999999999963e+01 5.820745000000000147e+01 1.917829999999999927e+03
1.900000000000000300e-02 1.584705000000000141e-01 2.152060000000000173e+01 6.018980000000000530e+01 1.918235000000000127e+03
2.000000000000000042e-02 1.585445000000000049e-01 2.243264999999999887e+01 6.286064999999999969e+01 1.918884999999999991e+03
2.100000000000000130e-02 1.586349999999999982e-01 2.329050000000000153e+01 6.568869999999999720e+01 1.919690000000000055e+03
2.200000000000000219e-02 1.587244999999999906e-01 2.390075000000000216e+01 6.805344999999999800e+01 1.920494999999999891e+03
2.299999999999999961e-02 1.587959999999999927e-01 2.412944999999999851e+01 6.945935000000000059e+01 1.921154999999999973e+03
2.400000000000000050e-02 1.588380000000000070e-01 2.394165000000000276e+01 6.969069999999999254e+01 1.921559999999999945e+03
2.500000000000000139e-02 1.588465000000000016e-01 2.340229999999999677e+01 6.885580000000000211e+01 1.921670000000000073e+03
2.600000000000000228e-02 1.588264999999999816e-01 2.264289999999999736e+01 6.731579999999999586e+01 1.921514999999999873e+03
2.700000000000000316e-02 1.587884999999999991e-01 2.181125000000000114e+01 6.553700000000000614e+01 1.921195000000000164e+03
2.800000000000000058e-02 1.587434999999999818e-01 2.102374999999999972e+01 6.393064999999999998e+01 1.920800000000000182e+03
2.900000000000000147e-02 1.587014999999999953e-01 2.033749999999999858e+01 6.273754999999999882e+01 1.920434999999999945e+03
3.000000000000000236e-02 1.586684999999999901e-01 1.974674999999999869e+01 6.198940000000000339e+01 1.920134999999999991e+03
3.099999999999999978e-02 1.586434999999999929e-01 1.920065000000000310e+01 6.154430000000000689e+01 1.919909999999999854e+03
3.200000000000000067e-02 1.586235000000000006e-01 1.863224999999999909e+01 6.117110000000000269e+01 1.919730000000000018e+03
3.300000000000000155e-02 1.586029999999999940e-01 1.798839999999999861e+01 6.064865000000000350e+01 1.919545000000000073e+03
3.400000000000000244e-02 1.585765000000000091e-01 1.725244999999999962e+01 5.984909999999999997e+01 1.919315000000000055e+03
3.500000000000000333e-02 1.585415000000000019e-01 1.645380000000000109e+01 5.878430000000000177e+01 1.919015000000000100e+03
3.600000000000000422e-02 1.585020000000000040e-01 1.566244999999999976e+01 5.760555000000000092e+01 1.918664999999999964e+03
3.700000000000000511e-02 1.584625000000000061e-01 1.497124999999999950e+01 5.655934999999999491e+01 1.918315000000000055e+03
3.799999999999999906e-02 1.584304999999999741e-01 1.447074999999999889e+01 5.591460000000000008e+01 1.918025000000000091e+03
3.899999999999999994e-02 1.584130000000000260e-01 1.422449999999999903e+01 5.588410000000000366e+01 1.917860000000000127e+03
4.000000000000000083e-02 1.584165000000000156e-01 1.425240000000000151e+01 5.656300000000000239e+01 1.917869999999999891e+03
4.100000000000000172e-02 1.584419999999999995e-01 1.452400000000000091e+01 5.789979999999999905e+01 1.918079999999999927e+03
4.200000000000000261e-02 1.584865000000000024e-01 1.496444999999999936e+01 5.970414999999999850e+01 1.918464999999999918e+03
4.300000000000000350e-02 1.585449999999999915e-01 1.546860000000000035e+01 6.168554999999999922e+01 1.918969999999999800e+03
4.400000000000000439e-02 1.586075000000000124e-01 1.591995000000000005e+01 6.351005000000000678e+01 1.919509999999999991e+03
4.499999999999999833e-02 1.586635000000000129e-01 1.620889999999999986e+01 6.485980000000000700e+01 1.920009999999999991e+03
4.599999999999999922e-02 1.587040000000000117e-01 1.624820000000000064e+01 6.548279999999999745e+01 1.920375000000000000e+03
4.700000000000000011e-02 1.587204999999999866e-01 1.598170000000000002e+01 6.522464999999999691e+01 1.920529999999999973e+03
4.800000000000000100e-02 1.587085000000000024e-01 1.538775000000000048e+01 6.403954999999999131e+01 1.920440000000000055e+03
4.900000000000000189e-02 1.586660000000000015e-01 1.447630000000000017e+01 6.198125000000000284e+01 1.920079999999999927e+03
5.000000000000000278e-02 1.585949999999999860e-01 1.328260000000000041e+01 5.918080000000000496e+01 1.919460000000000036e+03
5.100000000000000366e-02 1.584980000000000000e-01 1.185924999999999940e+01 5.581690000000000396e+01 1.918615000000000009e+03
5.200000000000000455e-02 1.583809999999999940e-01 1.026809000000000083e+01 5.208724999999999739e+01 1.917590000000000146e+03
5.300000000000000544e-02 1.582494999999999874e-01 8.573969999999999203e+00 4.818524999999999636e+01 1.916430000000000064e+03
5.399999999999999939e-02 1.581100000000000005e-01 6.840605000000000047e+00 4.428570000000000562e+01 1.915200000000000045e+03
5.500000000000000028e-02 1.579685000000000117e-01 5.128626999999999825e+00 4.053894999999999982e+01 1.913944999999999936e+03
5.600000000000000117e-02 1.578299999999999981e-01 3.495106999999999964e+00 3.707175000000000153e+01 1.912720000000000027e+03
5.700000000000000205e-02 1.576994999999999925e-01 1.993910000000000071e+00 3.399244999999999806e+01 1.911559999999999945e+03
5.800000000000000294e-02 1.575814999999999855e-01 6.760049999999999670e-01 3.139584999999999937e+01 1.910505000000000109e+03
5.900000000000000383e-02 1.574800000000000089e-01 -4.106950000000000323e-01 2.936795000000000044e+01 1.909599999999999909e+03
6.000000000000000472e-02 1.573980000000000101e-01 -1.222374999999999989e+00 2.798669999999999902e+01 1.908855000000000018e+03
6.099999999999999867e-02 1.573390000000000066e-01 -1.721074999999999910e+00 2.731974999999999909e+01 1.908324999999999818e+03
6.199999999999999956e-02 1.573065000000000158e-01 -1.877009999999999845e+00 2.742025000000000290e+01 1.908014999999999873e+03
6.300000000000000044e-02 1.573019999999999974e-01 -1.670859999999999790e+00 2.832090000000000174e+01 1.907950000000000045e+03
6.400000000000000133e-02 1.573275000000000090e-01 -1.095761900000000066e+00 3.002819999999999823e+01 1.908144999999999982e+03
6.500000000000000222e-02 1.573819999999999941e-01 -1.583300000000000818e-01 3.251915000000000333e+01 1.908605000000000018e+03
6.600000000000000311e-02 1.574665000000000092e-01 1.121285000000000087e+00 3.574034999999999940e+01 1.909320000000000164e+03
6.700000000000000400e-02 1.575775000000000092e-01 2.710513499999999798e+00 3.960999999999999943e+01 1.910279999999999973e+03
6.800000000000000488e-02 1.577140000000000208e-01 4.566450999999999816e+00 4.402315000000000111e+01 1.911465000000000146e+03
6.900000000000000577e-02 1.578714999999999979e-01 6.638555000000000206e+00 4.885885000000000389e+01 1.912835000000000036e+03
7.000000000000000666e-02 1.580455000000000054e-01 8.871604999999998853e+00 5.398799999999999955e+01 1.914369999999999891e+03
7.100000000000000755e-02 1.582330000000000125e-01 1.120874500000000040e+01 5.928135000000000332e+01 1.916019999999999982e+03
7.200000000000000844e-02 1.584284999999999999e-01 1.359417000000000186e+01 6.461650000000000205e+01 1.917755000000000109e+03
7.300000000000000933e-02 1.586275000000000046e-01 1.597529999999999895e+01 6.988325000000000387e+01 1.919519999999999982e+03
7.399999999999999634e-02 1.588264999999999816e-01 1.830494999999999806e+01 7.498779999999999291e+01 1.921299999999999955e+03
7.499999999999999722e-02 1.590214999999999823e-01 2.054249999999999687e+01 7.985535000000000139e+01 1.923050000000000182e+03
7.599999999999999811e-02 1.592100000000000182e-01 2.265540000000000020e+01 8.443195000000000050e+01 1.924744999999999891e+03
7.699999999999999900e-02 1.593894999999999895e-01 2.461979999999999791e+01 8.868514999999999304e+01 1.926369999999999891e+03
7.799999999999999989e-02 1.595590000000000064e-01 2.642130000000000223e+01 9.260374999999999091e+01 1.927909999999999854e+03
7.900000000000000078e-02 1.597175000000000122e-01 2.805470000000000041e+01 9.619764999999999588e+01 1.929349999999999909e+03
8.000000000000000167e-02 1.598650000000000071e-01 2.952389999999999759e+01 9.949514999999999532e+01 1.930699999999999818e+03
8.100000000000000255e-02 1.600030000000000063e-01 3.084074999999999989e+01 1.025409500000000094e+02 1.931960000000000036e+03
8.200000000000000344e-02 1.601314999999999822e-01 3.202380000000000138e+01 1.053909999999999911e+02 1.933139999999999873e+03
8.300000000000000433e-02 1.602530000000000066e-01 3.309655000000000058e+01 1.081094999999999970e+02 1.934259999999999991e+03
8.400000000000000522e-02 1.603700000000000125e-01 3.408530000000000371e+01 1.107634999999999934e+02 1.935335000000000036e+03
8.500000000000000611e-02 1.604840000000000155e-01 3.501689999999999969e+01 1.134170000000000016e+02 1.936384999999999991e+03
8.600000000000000699e-02 1.605975000000000041e-01 3.591689999999999827e+01 1.161250000000000000e+02 1.937430000000000064e+03
8.700000000000000788e-02 1.607124999999999804e-01 3.680740000000000123e+01 1.189339999999999975e+02 1.938480000000000018e+03
8.800000000000000877e-02 1.608300000000000007e-01 3.770550000000000068e+01 1.218725000000000023e+02 1.939559999999999945e+03
8.899999999999999578e-02 1.609510000000000107e-01 3.862250000000000227e+01 1.249530000000000030e+02 1.940675000000000182e+03
8.999999999999999667e-02 1.610769999999999980e-01 3.956295000000000073e+01 1.281724999999999852e+02 1.941829999999999927e+03
9.099999999999999756e-02 1.612069999999999892e-01 4.052474999999999739e+01 1.315090000000000146e+02 1.943025000000000091e+03
9.199999999999999845e-02 1.613410000000000122e-01 4.149954999999999927e+01 1.349269999999999925e+02 1.944244999999999891e+03
9.299999999999999933e-02 1.614770000000000094e-01 4.247344999999999970e+01 1.383774999999999977e+02 1.945494999999999891e+03
9.400000000000000022e-02 1.616139999999999799e-01 4.342820000000000391e+01 1.418059999999999832e+02 1.946755000000000109e+03
9.500000000000000111e-02 1.617494999999999905e-01 4.434250000000000114e+01 1.451500000000000057e+02 1.948000000000000000e+03
9.600000000000000200e-02 1.618819999999999981e-01 4.519355000000000189e+01 1.483474999999999966e+02 1.949224999999999909e+03
9.700000000000000289e-02 1.620095000000000007e-01 4.595810000000000173e+01 1.513375000000000057e+02 1.950400000000000091e+03
9.800000000000000377e-02 1.621294999999999820e-01 4.661424999999999841e+01 1.540670000000000073e+02 1.951505000000000109e+03
9.900000000000000466e-02 1.622394999999999810e-01 4.714220000000000255e+01 1.564879999999999995e+02 1.952529999999999973e+03
1.000000000000000056e-01 1.623384999999999967e-01 4.752544999999999931e+01 1.585640000000000214e+02 1.953454999999999927e+03
1.010000000000000064e-01 1.624255000000000004e-01 4.775164999999999793e+01 1.602694999999999936e+02 1.954264999999999873e+03
1.020000000000000073e-01 1.624984999999999902e-01 4.781295000000000073e+01 1.615905000000000200e+02 1.954954999999999927e+03
1.030000000000000082e-01 1.625570000000000070e-01 4.770650000000000546e+01 1.625250000000000057e+02 1.955509999999999991e+03
1.040000000000000091e-01 1.626019999999999965e-01 4.743415000000000248e+01 1.630825000000000102e+02 1.955940000000000055e+03
1.050000000000000100e-01 1.626329999999999998e-01 4.700289999999999679e+01 1.632824999999999989e+02 1.956234999999999900e+03
1.059999999999999970e-01 1.626500000000000168e-01 4.642390000000000327e+01 1.631550000000000011e+02 1.956409999999999854e+03
1.069999999999999979e-01 1.626544999999999797e-01 4.571209999999999951e+01 1.627355000000000018e+02 1.956465000000000146e+03
1.079999999999999988e-01 1.626480000000000148e-01 4.488575000000000159e+01 1.620685000000000002e+02 1.956414999999999964e+03
1.089999999999999997e-01 1.626309999999999978e-01 4.396529999999999916e+01 1.611995000000000005e+02 1.956279999999999973e+03
1.100000000000000006e-01 1.626060000000000005e-01 4.297285000000000110e+01 1.601769999999999925e+02 1.956059999999999945e+03
1.110000000000000014e-01 1.625750000000000250e-01 4.193090000000000117e+01 1.590504999999999995e+02 1.955775000000000091e+03
1.120000000000000023e-01 1.625379999999999880e-01 4.086175000000000068e+01 1.578654999999999973e+02 1.955449999999999818e+03
1.130000000000000032e-01 1.624990000000000046e-01 3.978659999999999997e+01 1.566659999999999968e+02 1.955085000000000036e+03
1.140000000000000041e-01 1.624579999999999913e-01 3.872485000000000355e+01 1.554895000000000209e+02 1.954710000000000036e+03
1.150000000000000050e-01 1.624165000000000192e-01 3.769344999999999857e+01 1.543684999999999832e+02 1.954335000000000036e+03
1.160000000000000059e-01 1.623764999999999792e-01 3.670645000000000380e+01 1.533284999999999911e+02 1.953965000000000146e+03
1.170000000000000068e-01 1.623384999999999967e-01 3.577450000000000330e+01 1.523870000000000005e+02 1.953610000000000127e+03
1.180000000000000077e-01 1.623030000000000028e-01 3.490480000000000160e+01 1.515545000000000186e+02 1.953279999999999973e+03
1.190000000000000085e-01 1.622704999999999842e-01 3.410094999999999743e+01 1.508325000000000102e+02 1.952980000000000018e+03
1.200000000000000094e-01 1.622419999999999973e-01 3.336289999999999623e+01 1.502175000000000011e+02 1.952710000000000036e+03
1.209999999999999964e-01 1.622170000000000001e-01 3.268735000000000213e+01 1.496965000000000146e+02 1.952470000000000027e+03
1.219999999999999973e-01 1.621945000000000192e-01 3.206799999999999784e+01 1.492520000000000095e+02 1.952259999999999991e+03
1.229999999999999982e-01 1.621750000000000136e-01 3.149579999999999913e+01 1.488609999999999900e+02 1.952075000000000045e+03
1.239999999999999991e-01 1.621575000000000100e-01 3.096000000000000085e+01 1.484979999999999905e+02 1.951904999999999973e+03
1.250000000000000000e-01 1.621404999999999930e-01 3.044810000000000016e+01 1.481340000000000146e+02 1.951744999999999891e+03
1.260000000000000009e-01 1.621230000000000171e-01 2.994705000000000439e+01 1.477395000000000209e+02 1.951579999999999927e+03
1.270000000000000018e-01 1.621055000000000135e-01 2.944359999999999999e+01 1.472874999999999943e+02 1.951414999999999964e+03
1.280000000000000027e-01 1.620854999999999935e-01 2.892515000000000214e+01 1.467495000000000118e+02 1.951230000000000018e+03
1.290000000000000036e-01 1.620624999999999982e-01 2.838020000000000209e+01 1.461039999999999850e+02 1.951019999999999982e+03
1.300000000000000044e-01 1.620360000000000134e-01 2.779905000000000115e+01 1.453324999999999818e+02 1.950775000000000091e+03
1.310000000000000053e-01 1.620054999999999967e-01 2.717425000000000068e+01 1.444219999999999970e+02 1.950485000000000127e+03
1.320000000000000062e-01 1.619694999999999885e-01 2.650100000000000122e+01 1.433665000000000020e+02 1.950159999999999854e+03
1.330000000000000071e-01 1.619285000000000030e-01 2.577725000000000222e+01 1.421659999999999968e+02 1.949785000000000082e+03
1.340000000000000080e-01 1.618824999999999847e-01 2.500410000000000110e+01 1.408280000000000030e+02 1.949365000000000009e+03
1.350000000000000089e-01 1.618315000000000170e-01 2.418550000000000111e+01 1.393659999999999854e+02 1.948894999999999982e+03
1.360000000000000098e-01 1.617755000000000165e-01 2.332835000000000036e+01 1.377995000000000232e+02 1.948384999999999991e+03
1.370000000000000107e-01 1.617164999999999853e-01 2.244180000000000064e+01 1.361535000000000082e+02 1.947845000000000027e+03
1.380000000000000115e-01 1.616535000000000055e-01 2.153715000000000046e+01 1.344559999999999889e+02 1.947269999999999982e+03
1.390000000000000124e-01 1.615889999999999826e-01 2.062729999999999819e+01 1.327400000000000091e+02 1.946684999999999945e+03
1.400000000000000133e-01 1.615234999999999865e-01 1.972605000000000075e+01 1.310380000000000109e+02 1.946079999999999927e+03
1.410000000000000142e-01 1.614579999999999904e-01 1.884744999999999848e+01 1.293824999999999932e+02 1.945484999999999900e+03
1.420000000000000151e-01 1.613940000000000097e-01 1.800534999999999997e+01 1.278044999999999902e+02 1.944894999999999982e+03
1.430000000000000160e-01 1.613324999999999898e-01 1.721265000000000001e+01 1.263329999999999984e+02 1.944329999999999927e+03
1.440000000000000169e-01 1.612744999999999873e-01 1.648069999999999879e+01 1.249915000000000020e+02 1.943795000000000073e+03
1.450000000000000178e-01 1.612215000000000176e-01 1.581920000000000037e+01 1.238000000000000114e+02 1.943304999999999836e+03
1.459999999999999909e-01 1.611730000000000107e-01 1.523540000000000028e+01 1.227725000000000080e+02 1.942860000000000127e+03
1.469999999999999918e-01 1.611305000000000098e-01 1.473424999999999940e+01 1.219170000000000016e+02 1.942464999999999918e+03
1.479999999999999927e-01 1.610940000000000150e-01 1.431800000000000139e+01 1.212365000000000066e+02 1.942119999999999891e+03
1.489999999999999936e-01 1.610644999999999993e-01 1.398645000000000138e+01 1.207270000000000039e+02 1.941840000000000146e+03
1.499999999999999944e-01 1.610404999999999753e-01 1.373689999999999856e+01 1.203799999999999955e+02 1.941619999999999891e+03
1.509999999999999953e-01 1.610225000000000128e-01 1.356439999999999912e+01 1.201819999999999879e+02 1.941445000000000164e+03
1.519999999999999962e-01 1.610110000000000152e-01 1.346209999999999951e+01 1.201159999999999997e+02 1.941329999999999927e+03
1.529999999999999971e-01 1.610035000000000216e-01 1.342164999999999964e+01 1.201620000000000061e+02 1.941259999999999991e+03
1.539999999999999980e-01 1.610010000000000052e-01 1.343355000000000032e+01 1.202990000000000066e+02 1.941230000000000018e+03
1.549999999999999989e-01 1.610024999999999928e-01 1.348734999999999928e+01 1.205035000000000025e+02 1.941235000000000127e+03
1.559999999999999998e-01 1.610064999999999968e-01 1.357259999999999955e+01 1.207530000000000001e+02 1.941264999999999873e+03
1.570000000000000007e-01 1.610125000000000028e-01 1.367859999999999943e+01 1.210260000000000105e+02 1.941315000000000055e+03
1.580000000000000016e-01 1.610194999999999821e-01 1.379534999999999911e+01 1.213019999999999925e+02 1.941380000000000109e+03
1.590000000000000024e-01 1.610280000000000045e-01 1.391355000000000075e+01 1.215639999999999930e+02 1.941450000000000045e+03
