# t [s], A [cm^2], U [cm/s], P [cPa], c [cm/s]
1.000000000000000021e-03 6.829184999999999839e-01 7.009849999999998027e-03 9.876160000000000139e+01 1.738215000000000146e+03
2.000000000000000042e-03 6.829050000000000953e-01 -6.426235000000000627e-03 9.872614999999998986e+01 1.738210000000000036e+03
3.000000000000000062e-03 6.829515000000000446e-01 7.475634999999999919e-02 9.882035000000000480e+01 1.738230000000000018e+03
4.000000000000000083e-03 6.830049999999999732e-01 1.794650499999999871e-01 9.895815000000000339e+01 1.738259999999999991e+03
5.000000000000000104e-03 6.829825000000000479e-01 1.690330500000000180e-01 9.891599999999999682e+01 1.738255000000000109e+03
6.000000000000000125e-03 6.829125000000000334e-01 7.237700000000002465e-02 9.868959999999999866e+01 1.738210000000000036e+03
7.000000000000000146e-03 6.828610000000000513e-01 9.774999999999645084e-04 9.843385000000000673e+01 1.738150000000000091e+03
8.000000000000000167e-03 6.827870000000000328e-01 -1.220545000000000657e-01 9.807734999999999559e+01 1.738070000000000164e+03
9.000000000000001055e-03 6.826570000000000693e-01 -3.634850000000000581e-01 9.751675000000000182e+01 1.737950000000000045e+03
1.000000000000000194e-02 6.824689999999999923e-01 -7.264349999999999419e-01 9.671320000000000050e+01 1.737775000000000091e+03
1.099999999999999936e-02 6.822030000000000038e-01 -1.239879999999999871e+00 9.559019999999999584e+01 1.737534999999999854e+03
1.200000000000000025e-02 6.818450000000000344e-01 -1.914030000000000120e+00 9.408435000000000059e+01 1.737204999999999927e+03
1.300000000000000114e-02 6.814329999999999554e-01 -2.661369999999999791e+00 9.226685000000000514e+01 1.736795000000000073e+03
1.400000000000000203e-02 6.810399999999999787e-01 -3.319751999999999814e+00 9.034454999999999814e+01 1.736355000000000018e+03
1.499999999999999944e-02 6.807259999999999422e-01 -3.745404499999999803e+00 8.854264999999999475e+01 1.735914999999999964e+03
1.600000000000000033e-02 6.805029999999999690e-01 -3.879217499999999763e+00 8.699279999999998836e+01 1.735514999999999873e+03
1.700000000000000122e-02 6.803425000000000722e-01 -3.751889999999999947e+00 8.569599999999999795e+01 1.735154999999999973e+03
1.800000000000000211e-02 6.801960000000000228e-01 -3.448615000000000208e+00 8.455205000000000837e+01 1.734829999999999927e+03
1.900000000000000300e-02 6.800174999999999415e-01 -3.063066999999999762e+00 8.342170000000000130e+01 1.734500000000000000e+03
2.000000000000000042e-02 6.797805000000000097e-01 -2.660668300000000208e+00 8.218829999999999814e+01 1.734159999999999854e+03
2.100000000000000130e-02 6.794860000000000344e-01 -2.260926500000000061e+00 8.079869999999999663e+01 1.733779999999999973e+03
2.200000000000000219e-02 6.791555000000000231e-01 -1.841090000000000115e+00 7.927369999999999095e+01 1.733369999999999891e+03
2.299999999999999961e-02 6.788190000000000612e-01 -1.356744999999999868e+00 7.768720000000000425e+01 1.732940000000000055e+03
2.400000000000000050e-02 6.785014999999999796e-01 -7.693000000000000949e-01 7.612704999999999700e+01 1.732509999999999991e+03
2.500000000000000139e-02 6.782150000000000123e-01 -6.873499999999976851e-02 7.465504999999998859e+01 1.732099999999999909e+03
2.600000000000000228e-02 6.779494999999999827e-01 7.157849999999998936e-01 7.328020000000000778e+01 1.731715000000000146e+03
2.700000000000000316e-02 6.776820000000000066e-01 1.518960000000000088e+00 7.195144999999999413e+01 1.731329999999999927e+03
2.800000000000000058e-02 6.773795000000000233e-01 2.253280000000000172e+00 7.057054999999999723e+01 1.730944999999999936e+03
2.900000000000000147e-02 6.770095000000000418e-01 2.829765000000000086e+00 6.901859999999999218e+01 1.730529999999999973e+03
3.000000000000000236e-02 6.765525000000000011e-01 3.180234999999999701e+00 6.719129999999999825e+01 1.730054999999999836e+03
3.099999999999999978e-02 6.760049999999999670e-01 3.275055000000000049e+00 6.503249999999999886e+01 1.729509999999999991e+03
3.200000000000000067e-02 6.753835000000000255e-01 3.130290000000000461e+00 6.255469999999999686e+01 1.728904999999999973e+03
3.300000000000000155e-02 6.747225000000000028e-01 2.801515000000000200e+00 5.984004999999999797e+01 1.728240000000000009e+03
3.400000000000000244e-02 6.740619999999999390e-01 2.367629999999999679e+00 5.702224999999999966e+01 1.727550000000000182e+03
3.500000000000000333e-02 6.734419999999999851e-01 1.911410000000000498e+00 5.425795000000000101e+01 1.726865000000000009e+03
3.600000000000000422e-02 6.728929999999999634e-01 1.503464999999999829e+00 5.169800000000000040e+01 1.726215000000000146e+03
3.700000000000000511e-02 6.724360000000000337e-01 1.193489999999999718e+00 4.946625000000000227e+01 1.725634999999999991e+03
3.799999999999999906e-02 6.720794999999999408e-01 1.008830000000000116e+00 4.764874999999999972e+01 1.725144999999999982e+03
3.899999999999999994e-02 6.718254999999999644e-01 9.583399999999999697e-01 4.629269999999999641e+01 1.724759999999999991e+03
4.000000000000000083e-02 6.716699999999999893e-01 1.039394999999999847e+00 4.541299999999999670e+01 1.724485000000000127e+03
4.100000000000000172e-02 6.716070000000000650e-01 1.245631999999999850e+00 4.500284999999999513e+01 1.724329999999999927e+03
4.200000000000000261e-02 6.716320000000000068e-01 1.573399999999999910e+00 4.504595000000000482e+01 1.724284999999999854e+03
4.300000000000000350e-02 6.717435000000000489e-01 2.025551000000000101e+00 4.552599999999999625e+01 1.724349999999999909e+03
4.400000000000000439e-02 6.719414999999999694e-01 2.611793500000000101e+00 4.643240000000000123e+01 1.724529999999999973e+03
4.499999999999999833e-02 6.722299999999999942e-01 3.345961500000000033e+00 4.776085000000000491e+01 1.724809999999999945e+03
4.599999999999999922e-02 6.726090000000000124e-01 4.241425000000000445e+00 4.950939999999999941e+01 1.725199999999999818e+03
4.700000000000000011e-02 6.730789999999999829e-01 5.306197000000000052e+00 5.167275000000000063e+01 1.725700000000000045e+03
4.800000000000000100e-02 6.736355000000000537e-01 6.539284999999999570e+00 5.423590000000000089e+01 1.726295000000000073e+03
4.900000000000000189e-02 6.742695000000000771e-01 7.928944999999999688e+00 5.717034999999999911e+01 1.726985000000000127e+03
5.000000000000000278e-02 6.749700000000000699e-01 9.453199999999998937e+00 6.043289999999999651e+01 1.727769999999999982e+03
5.100000000000000366e-02 6.757210000000000161e-01 1.108190500000000078e+01 6.396679999999999922e+01 1.728619999999999891e+03
5.200000000000000455e-02 6.765079999999999982e-01 1.278019500000000086e+01 6.770605000000000473e+01 1.729539999999999964e+03
5.300000000000000544e-02 6.773139999999999716e-01 1.451202499999999951e+01 7.158084999999999809e+01 1.730494999999999891e+03
5.399999999999999939e-02 6.781255000000000477e-01 1.624347000000000207e+01 7.552309999999999945e+01 1.731480000000000018e+03
5.500000000000000028e-02 6.789315000000000211e-01 1.794534499999999966e+01 7.947159999999999513e+01 1.732480000000000018e+03
5.600000000000000117e-02 6.797219999999999374e-01 1.959465000000000146e+01 8.337584999999999980e+01 1.733474999999999909e+03
5.700000000000000205e-02 6.804930000000000145e-01 2.117484999999999928e+01 8.719829999999998904e+01 1.734465000000000146e+03
5.800000000000000294e-02 6.812415000000000553e-01 2.267559999999999931e+01 9.091429999999999723e+01 1.735430000000000064e+03
5.900000000000000383e-02 6.819659999999999611e-01 2.409159999999999968e+01 9.451120000000000232e+01 1.736380000000000109e+03
6.000000000000000472e-02 6.826689999999999703e-01 2.542159999999999798e+01 9.798680000000000234e+01 1.737300000000000182e+03
6.099999999999999867e-02 6.833519999999999595e-01 2.666689999999999827e+01 1.013465500000000077e+02 1.738190000000000055e+03
6.199999999999999956e-02 6.840169999999999861e-01 2.783034999999999926e+01 1.046008500000000083e+02 1.739055000000000064e+03
6.300000000000000044e-02 6.846680000000000543e-01 2.891550000000000153e+01 1.077624999999999886e+02 1.739904999999999973e+03
6.400000000000000133e-02 6.853059999999999707e-01 2.992569999999999908e+01 1.108445000000000107e+02 1.740730000000000018e+03
6.500000000000000222e-02 6.859340000000000437e-01 3.086355000000000004e+01 1.138580000000000041e+02 1.741535000000000082e+03
6.600000000000000311e-02 6.865514999999999812e-01 3.173020000000000351e+01 1.168094999999999999e+02 1.742329999999999927e+03
6.700000000000000400e-02 6.871585000000000054e-01 3.252519999999999811e+01 1.197015000000000100e+02 1.743105000000000018e+03
6.800000000000000488e-02 6.877530000000000587e-01 3.324654999999999916e+01 1.225310000000000059e+02 1.743865000000000009e+03
6.900000000000000577e-02 6.883329999999999727e-01 3.389065000000000083e+01 1.252899999999999920e+02 1.744610000000000127e+03
7.000000000000000666e-02 6.888939999999998953e-01 3.445315000000000083e+01 1.279650000000000034e+02 1.745335000000000036e+03
7.100000000000000755e-02 6.894335000000000324e-01 3.492900000000000205e+01 1.305405000000000086e+02 1.746034999999999854e+03
7.200000000000000844e-02 6.899465000000000181e-01 3.531364999999999554e+01 1.329985000000000070e+02 1.746704999999999927e+03
7.300000000000000933e-02 6.904304999999999470e-01 3.560334999999999894e+01 1.353209999999999980e+02 1.747345000000000027e+03
7.399999999999999634e-02 6.908819999999999961e-01 3.579545000000000243e+01 1.374914999999999736e+02 1.747949999999999818e+03
7.499999999999999722e-02 6.912985000000000380e-01 3.588880000000000337e+01 1.394970000000000141e+02 1.748505000000000109e+03
7.599999999999999811e-02 6.916780000000000150e-01 3.588375000000000625e+01 1.413269999999999982e+02 1.749019999999999982e+03
7.699999999999999900e-02 6.920195000000000096e-01 3.578180000000000405e+01 1.429724999999999966e+02 1.749490000000000009e+03
7.799999999999999989e-02 6.923230000000000217e-01 3.558570000000000277e+01 1.444295000000000186e+02 1.749914999999999964e+03
7.900000000000000078e-02 6.925879999999999814e-01 3.529919999999999902e+01 1.456974999999999909e+02 1.750280000000000200e+03
8.000000000000000167e-02 6.928144999999999998e-01 3.492685000000000173e+01 1.467780000000000200e+02 1.750605000000000018e+03
8.100000000000000255e-02 6.930039999999999534e-01 3.447409999999999997e+01 1.476745000000000232e+02 1.750880000000000109e+03
8.200000000000000344e-02 6.931579999999999409e-01 3.394715000000000060e+01 1.483935000000000173e+02 1.751105000000000018e+03
8.300000000000000433e-02 6.932779999999999498e-01 3.335360000000000014e+01 1.489449999999999932e+02 1.751289999999999964e+03
8.400000000000000522e-02 6.933664999999999967e-01 3.270165000000000077e+01 1.493414999999999964e+02 1.751429999999999836e+03
8.500000000000000611e-02 6.934274999999999745e-01 3.200079999999999814e+01 1.495955000000000155e+02 1.751529999999999973e+03
8.600000000000000699e-02 6.934635000000000105e-01 3.126145000000000351e+01 1.497249999999999943e+02 1.751595000000000027e+03
8.700000000000000788e-02 6.934789999999999566e-01 3.049445000000000050e+01 1.497470000000000141e+02 1.751625000000000000e+03
8.800000000000000877e-02 6.934784999999999977e-01 2.971085000000000065e+01 1.496825000000000045e+02 1.751634999999999991e+03
8.899999999999999578e-02 6.934645000000000392e-01 2.892154999999999632e+01 1.495495000000000232e+02 1.751619999999999891e+03
8.999999999999999667e-02 6.934424999999999617e-01 2.813649999999999807e+01 1.493679999999999950e+02 1.751590000000000146e+03
9.099999999999999756e-02 6.934149999999998926e-01 2.736449999999999960e+01 1.491544999999999845e+02 1.751545000000000073e+03
9.199999999999999845e-02 6.933840000000000003e-01 2.661265000000000214e+01 1.489239999999999782e+02 1.751494999999999891e+03
9.299999999999999933e-02 6.933519999999999683e-01 2.588584999999999781e+01 1.486895000000000095e+02 1.751440000000000055e+03
9.400000000000000022e-02 6.933205000000000062e-01 2.518720000000000070e+01 1.484569999999999936e+02 1.751384999999999991e+03
9.500000000000000111e-02 6.932899999999999618e-01 2.451745000000000019e+01 1.482334999999999923e+02 1.751324999999999818e+03
9.600000000000000200e-02 6.932589999999999586e-01 2.387565000000000026e+01 1.480180000000000007e+02 1.751264999999999873e+03
9.700000000000000289e-02 6.932274999999999965e-01 2.325910000000000011e+01 1.478084999999999809e+02 1.751210000000000036e+03
9.800000000000000377e-02 6.931939999999999769e-01 2.266369999999999862e+01 1.476009999999999991e+02 1.751150000000000091e+03
9.900000000000000466e-02 6.931570000000000231e-01 2.208464999999999989e+01 1.473874999999999886e+02 1.751090000000000146e+03
1.000000000000000056e-01 6.931145000000000778e-01 2.151630000000000109e+01 1.471599999999999966e+02 1.751030000000000200e+03
1.010000000000000064e-01 6.930650000000000421e-01 2.095295000000000130e+01 1.469099999999999966e+02 1.750964999999999918e+03
1.020000000000000073e-01 6.930065000000000808e-01 2.038895000000000124e+01 1.466290000000000191e+02 1.750889999999999873e+03
1.030000000000000082e-01 6.929380000000000539e-01 1.981879999999999953e+01 1.463079999999999927e+02 1.750805000000000064e+03
1.040000000000000091e-01 6.928579999999999739e-01 1.923805000000000121e+01 1.459420000000000073e+02 1.750710000000000036e+03
1.050000000000000100e-01 6.927654999999999230e-01 1.864274999999999949e+01 1.455244999999999891e+02 1.750599999999999909e+03
1.059999999999999970e-01 6.926615000000000411e-01 1.803030000000000044e+01 1.450534999999999854e+02 1.750485000000000127e+03
1.069999999999999979e-01 6.925449999999999662e-01 1.739909999999999712e+01 1.445289999999999964e+02 1.750349999999999909e+03
1.079999999999999988e-01 6.924175000000000191e-01 1.674924999999999997e+01 1.439515000000000100e+02 1.750210000000000036e+03
1.089999999999999997e-01 6.922804999999999653e-01 1.608200000000000074e+01 1.433269999999999982e+02 1.750050000000000182e+03
1.100000000000000006e-01 6.921355000000000146e-01 1.540005000000000024e+01 1.426619999999999777e+02 1.749880000000000109e+03
1.110000000000000014e-01 6.919849999999999612e-01 1.470739999999999981e+01 1.419669999999999845e+02 1.749704999999999927e+03
1.120000000000000023e-01 6.918320000000000025e-01 1.400910000000000011e+01 1.412520000000000095e+02 1.749525000000000091e+03
1.130000000000000032e-01 6.916789999999999328e-01 1.331128000000000000e+01 1.405310000000000059e+02 1.749344999999999800e+03
1.140000000000000041e-01 6.915295000000000192e-01 1.262043500000000051e+01 1.398185000000000002e+02 1.749155000000000200e+03
1.150000000000000050e-01 6.913860000000000561e-01 1.194345999999999997e+01 1.391279999999999859e+02 1.748980000000000018e+03
1.160000000000000059e-01 6.912519999999999776e-01 1.128732499999999916e+01 1.384735000000000014e+02 1.748804999999999836e+03
1.170000000000000068e-01 6.911300000000000221e-01 1.065845999999999982e+01 1.378679999999999950e+02 1.748644999999999982e+03
1.180000000000000077e-01 6.910224999999999840e-01 1.006287000000000020e+01 1.373240000000000123e+02 1.748494999999999891e+03
1.190000000000000085e-01 6.909305000000000030e-01 9.505560000000000898e+00 1.368505000000000109e+02 1.748364999999999782e+03
1.200000000000000094e-01 6.908560000000000256e-01 8.990484999999999616e+00 1.364555000000000007e+02 1.748255000000000109e+03
1.209999999999999964e-01 6.907989999999999409e-01 8.520405000000000229e+00 1.361424999999999841e+02 1.748160000000000082e+03
1.219999999999999973e-01 6.907600000000000406e-01 8.096585000000001031e+00 1.359139999999999873e+02 1.748090000000000146e+03
1.229999999999999982e-01 6.907380000000000742e-01 7.719115000000000393e+00 1.357690000000000055e+02 1.748034999999999854e+03
1.239999999999999991e-01 6.907324999999999715e-01 7.386734999999999829e+00 1.357029999999999745e+02 1.748005000000000109e+03
1.250000000000000000e-01 6.907410000000000494e-01 7.097064999999999735e+00 1.357094999999999914e+02 1.747994999999999891e+03
1.260000000000000009e-01 6.907619999999999871e-01 6.846770000000000245e+00 1.357814999999999941e+02 1.748000000000000000e+03
1.270000000000000018e-01 6.907940000000000191e-01 6.631809999999999761e+00 1.359079999999999870e+02 1.748019999999999982e+03
1.280000000000000027e-01 6.908339999999999481e-01 6.447659999999999947e+00 1.360790000000000077e+02 1.748054999999999836e+03
1.290000000000000036e-01 6.908799999999999386e-01 6.289559999999999818e+00 1.362835000000000036e+02 1.748095000000000027e+03
1.300000000000000044e-01 6.909290000000000154e-01 6.152720000000000411e+00 1.365109999999999957e+02 1.748144999999999982e+03
1.310000000000000053e-01 6.909800000000000386e-01 6.032499999999999751e+00 1.367504999999999882e+02 1.748204999999999927e+03
1.320000000000000062e-01 6.910300000000000331e-01 5.924570000000000114e+00 1.369934999999999832e+02 1.748259999999999991e+03
1.330000000000000071e-01 6.910789999999999988e-01 5.824975000000000236e+00 1.372314999999999827e+02 1.748315000000000055e+03
1.340000000000000080e-01 6.911255000000000592e-01 5.730220000000000091e+00 1.374574999999999818e+02 1.748375000000000000e+03
1.350000000000000089e-01 6.911669999999999758e-01 5.637309999999999377e+00 1.376664999999999850e+02 1.748424999999999955e+03
1.360000000000000098e-01 6.912044999999999995e-01 5.543744999999999479e+00 1.378534999999999968e+02 1.748470000000000027e+03
1.370000000000000107e-01 6.912370000000001014e-01 5.447525000000000617e+00 1.380159999999999911e+02 1.748514999999999873e+03
1.380000000000000115e-01 6.912635000000000307e-01 5.347154999999999880e+00 1.381524999999999750e+02 1.748550000000000182e+03
1.390000000000000124e-01 6.912845000000000795e-01 5.241590000000000416e+00 1.382624999999999886e+02 1.748585000000000036e+03
1.400000000000000133e-01 6.913009999999999433e-01 5.130264999999999631e+00 1.383449999999999989e+02 1.748610000000000127e+03
1.410000000000000142e-01 6.913115000000000787e-01 5.013020000000000032e+00 1.384019999999999868e+02 1.748625000000000000e+03
1.420000000000000151e-01 6.913179999999999881e-01 4.890055000000000263e+00 1.384345000000000141e+02 1.748634999999999991e+03
1.430000000000000160e-01 6.913199999999999346e-01 4.761905000000000499e+00 1.384449999999999932e+02 1.748644999999999982e+03
1.440000000000000169e-01 6.913175000000000292e-01 4.629319999999999879e+00 1.384354999999999905e+02 1.748644999999999982e+03
1.450000000000000178e-01 6.913124999999999964e-01 4.493235000000000312e+00 1.384079999999999870e+02 1.748644999999999982e+03
1.459999999999999909e-01 6.913050000000000583e-01 4.354639999999999844e+00 1.383659999999999854e+02 1.748634999999999991e+03
1.469999999999999918e-01 6.912945000000000340e-01 4.214534999999999698e+00 1.383109999999999786e+02 1.748619999999999891e+03
1.479999999999999927e-01 6.912819999999999521e-01 4.073819999999999553e+00 1.382445000000000164e+02 1.748610000000000127e+03
1.489999999999999936e-01 6.912685000000000635e-01 3.933270000000000266e+00 1.381689999999999827e+02 1.748589999999999918e+03
1.499999999999999944e-01 6.912525000000000475e-01 3.793480000000000185e+00 1.380850000000000080e+02 1.748569999999999936e+03
1.509999999999999953e-01 6.912355000000000027e-01 3.654819999999999958e+00 1.379925000000000068e+02 1.748545000000000073e+03
1.519999999999999962e-01 6.912169999999999703e-01 3.517504999999999882e+00 1.378919999999999959e+02 1.748525000000000091e+03
1.529999999999999971e-01 6.911955000000000737e-01 3.381590000000000096e+00 1.377830000000000155e+02 1.748500000000000000e+03
1.539999999999999980e-01 6.911724999999999675e-01 3.246989999999999821e+00 1.376639999999999873e+02 1.748465000000000146e+03
1.549999999999999989e-01 6.911475000000000257e-01 3.113635000000000375e+00 1.375344999999999800e+02 1.748440000000000055e+03
1.559999999999999998e-01 6.911194999999999977e-01 2.981450000000000156e+00 1.373934999999999889e+02 1.748400000000000091e+03
1.570000000000000007e-01 6.910884999999999945e-01 2.850505000000000067e+00 1.372404999999999973e+02 1.748365000000000009e+03
1.580000000000000016e-01 6.910545000000000160e-01 2.721025000000000027e+00 1.370745000000000005e+02 1.748319999999999936e+03
1.590000000000000024e-01 6.910190000000000499e-01 2.593490000000000073e+00 1.368960000000000150e+02 1.748275000000000091e+03
