# t [s], A [cm^2], U [cm/s], P [cPa], c [cm/s]
1.000000000000000021e-03 4.491055000000000463e-01 4.087000000000000355e-03 1.097254999999999967e+02 1.449134999999999991e+03
2.000000000000000042e-03 4.490994999999999848e-01 -7.982750000000001455e-05 1.097065000000000055e+02 1.449130000000000109e+03
3.000000000000000062e-03 4.491324999999999901e-01 7.078044999999999476e-02 1.097729999999999961e+02 1.449150000000000091e+03
4.000000000000000083e-03 4.491740000000000177e-01 1.612802500000000139e-01 1.098795000000000073e+02 1.449184999999999945e+03
5.000000000000000104e-03 4.491715000000000568e-01 1.640759999999999996e-01 1.098799999999999955e+02 1.449194999999999936e+03
6.000000000000000125e-03 4.491330000000000044e-01 8.638899999999999357e-02 1.097400000000000091e+02 1.449159999999999854e+03
7.000000000000000146e-03 4.490930000000000200e-01 -1.069500000000001005e-03 1.095270000000000010e+02 1.449105000000000018e+03
8.000000000000000167e-03 4.490434999999999843e-01 -1.136954999999999494e-01 1.092365000000000066e+02 1.449025000000000091e+03
9.000000000000001055e-03 4.489589999999999970e-01 -3.125900000000000345e-01 1.087949999999999875e+02 1.448909999999999854e+03
1.000000000000000194e-02 4.488330000000000375e-01 -6.113350000000000728e-01 1.081580000000000013e+02 1.448734999999999900e+03
1.099999999999999936e-02 4.486615000000000464e-01 -1.008879999999999999e+00 1.072965000000000089e+02 1.448494999999999891e+03
1.200000000000000025e-02 4.484325000000000117e-01 -1.518040000000000056e+00 1.061634999999999991e+02 1.448170000000000073e+03
1.300000000000000114e-02 4.481410000000000116e-01 -2.132539999999999658e+00 1.047314999999999969e+02 1.447750000000000000e+03
1.400000000000000203e-02 4.478050000000000086e-01 -2.790235000000000021e+00 1.030397499999999980e+02 1.447240000000000009e+03
1.499999999999999944e-02 4.474615000000000120e-01 -3.380619999999999958e+00 1.012051500000000033e+02 1.446675000000000182e+03
1.600000000000000033e-02 4.471479999999999899e-01 -3.788734999999999964e+00 9.937975000000000136e+01 1.446090000000000146e+03
1.700000000000000122e-02 4.468874999999999931e-01 -3.938530500000000156e+00 9.769350000000000023e+01 1.445514999999999873e+03
1.800000000000000211e-02 4.466814999999999536e-01 -3.812414500000000039e+00 9.621609999999999729e+01 1.444985000000000127e+03
1.900000000000000300e-02 4.465139999999999665e-01 -3.446208500000000008e+00 9.494544999999999391e+01 1.444494999999999891e+03
2.000000000000000042e-02 4.463584999999999914e-01 -2.909325500000000009e+00 9.382159999999998945e+01 1.444045000000000073e+03
2.100000000000000130e-02 4.461890000000000023e-01 -2.279879999999999907e+00 9.275344999999998663e+01 1.443610000000000127e+03
2.200000000000000219e-02 4.459875000000000367e-01 -1.622095000000000287e+00 9.165029999999998722e+01 1.443160000000000082e+03
2.299999999999999961e-02 4.457464999999999899e-01 -9.716199999999999282e-01 9.044854999999999734e+01 1.442684999999999945e+03
2.400000000000000050e-02 4.454700000000000326e-01 -3.324750000000000760e-01 8.912584999999999980e+01 1.442180000000000064e+03
2.500000000000000139e-02 4.451720000000000121e-01 3.144499999999998963e-01 8.769984999999999786e+01 1.441650000000000091e+03
2.600000000000000228e-02 4.448659999999999837e-01 9.958399999999998364e-01 8.621299999999999386e+01 1.441095000000000027e+03
2.700000000000000316e-02 4.445649999999999880e-01 1.729824999999999946e+00 8.471174999999999500e+01 1.440534999999999854e+03
2.800000000000000058e-02 4.442705000000000126e-01 2.514769999999999506e+00 8.322775000000000034e+01 1.439970000000000027e+03
2.900000000000000147e-02 4.439805000000000001e-01 3.325369999999999937e+00 8.176545000000000130e+01 1.439409999999999854e+03
3.000000000000000236e-02 4.436824999999999797e-01 4.115664999999999907e+00 8.029974999999998886e+01 1.438849999999999909e+03
3.099999999999999978e-02 4.433610000000000051e-01 4.827455000000000496e+00 7.878065000000000850e+01 1.438275000000000091e+03
3.200000000000000067e-02 4.430025000000000213e-01 5.401360000000000383e+00 7.714570000000000505e+01 1.437670000000000073e+03
3.300000000000000155e-02 4.425935000000000286e-01 5.788630000000000386e+00 7.533474999999999966e+01 1.437019999999999982e+03
3.400000000000000244e-02 4.421299999999999675e-01 5.960929999999999396e+00 7.330604999999999905e+01 1.436309999999999945e+03
3.500000000000000333e-02 4.416150000000000353e-01 5.916359999999999175e+00 7.104859999999999332e+01 1.435539999999999964e+03
3.600000000000000422e-02 4.410610000000000364e-01 5.679925000000000779e+00 6.858830000000000382e+01 1.434704999999999927e+03
3.700000000000000511e-02 4.404865000000000030e-01 5.299089999999999634e+00 6.598720000000000141e+01 1.433835000000000036e+03
3.799999999999999906e-02 4.399150000000000005e-01 4.835589999999999833e+00 6.333584999999999354e+01 1.432940000000000055e+03
3.899999999999999994e-02 4.393699999999999828e-01 4.356044999999999945e+00 6.074130000000000251e+01 1.432054999999999836e+03
4.000000000000000083e-02 4.388735000000000275e-01 3.923535000000000217e+00 5.831444999999999368e+01 1.431214999999999918e+03
4.100000000000000172e-02 4.384434999999999860e-01 3.591099999999999959e+00 5.615805000000000291e+01 1.430444999999999936e+03
4.200000000000000261e-02 4.380939999999999834e-01 3.398735000000000284e+00 5.435804999999999865e+01 1.429775000000000091e+03
4.300000000000000350e-02 4.378330000000000277e-01 3.372575000000000323e+00 5.297840000000000060e+01 1.429234999999999900e+03
4.400000000000000439e-02 4.376649999999999707e-01 3.526336500000000207e+00 5.205944999999999823e+01 1.428829999999999927e+03
4.499999999999999833e-02 4.375895000000000201e-01 3.864285000000000192e+00 5.161934999999999718e+01 1.428579999999999927e+03
4.599999999999999922e-02 4.376054999999999806e-01 4.384459999999999802e+00 5.165805000000000291e+01 1.428490000000000009e+03
4.700000000000000011e-02 4.377085000000000004e-01 5.081744999999999735e+00 5.216169999999999618e+01 1.428549999999999955e+03
4.800000000000000100e-02 4.378949999999999787e-01 5.950014999999999610e+00 5.310800000000000409e+01 1.428759999999999991e+03
4.900000000000000189e-02 4.381594999999999795e-01 6.983134999999999870e+00 5.446949999999999648e+01 1.429119999999999891e+03
5.000000000000000278e-02 4.384974999999999845e-01 8.174915000000000376e+00 5.621650000000000347e+01 1.429615000000000009e+03
5.100000000000000366e-02 4.389039999999999608e-01 9.517960000000000420e+00 5.831770000000000209e+01 1.430240000000000009e+03
5.200000000000000455e-02 4.393730000000000135e-01 1.100250499999999931e+01 6.074009999999999820e+01 1.430980000000000018e+03
5.300000000000000544e-02 4.398975000000000524e-01 1.261509000000000036e+01 6.344840000000000657e+01 1.431825000000000045e+03
5.399999999999999939e-02 4.404694999999999583e-01 1.433810000000000073e+01 6.640395000000000891e+01 1.432769999999999982e+03
5.500000000000000028e-02 4.410804999999999865e-01 1.614949500000000171e+01 6.956454999999999700e+01 1.433789999999999964e+03
5.600000000000000117e-02 4.417214999999999892e-01 1.802400000000000091e+01 7.288505000000000678e+01 1.434880000000000109e+03
5.700000000000000205e-02 4.423825000000000118e-01 1.993390000000000128e+01 7.631829999999999359e+01 1.436019999999999982e+03
5.800000000000000294e-02 4.430540000000000589e-01 2.185119999999999862e+01 7.981709999999999638e+01 1.437195000000000164e+03
5.900000000000000383e-02 4.437275000000000524e-01 2.374900000000000233e+01 8.333634999999999593e+01 1.438400000000000091e+03
6.000000000000000472e-02 4.443939999999999557e-01 2.560299999999999798e+01 8.683539999999999281e+01 1.439605000000000018e+03
6.099999999999999867e-02 4.450494999999999868e-01 2.739294999999999902e+01 9.027960000000000207e+01 1.440809999999999945e+03
6.199999999999999956e-02 4.456885000000000430e-01 2.910314999999999941e+01 9.364170000000000016e+01 1.441994999999999891e+03
6.300000000000000044e-02 4.463084999999999969e-01 3.072269999999999612e+01 9.690285000000000082e+01 1.443159999999999854e+03
6.400000000000000133e-02 4.469090000000000007e-01 3.224549999999999983e+01 1.000533999999999963e+02 1.444299999999999955e+03
6.500000000000000222e-02 4.474894999999999845e-01 3.366969999999999885e+01 1.030909000000000049e+02 1.445404999999999973e+03
6.600000000000000311e-02 4.480524999999999647e-01 3.499694999999999823e+01 1.060202999999999918e+02 1.446485000000000127e+03
6.700000000000000400e-02 4.485999999999999988e-01 3.623179999999999978e+01 1.088512000000000057e+02 1.447529999999999973e+03
6.800000000000000488e-02 4.491344999999999921e-01 3.738075000000000614e+01 1.115989999999999895e+02 1.448554999999999836e+03
6.900000000000000577e-02 4.496599999999999486e-01 3.845165000000000077e+01 1.142794999999999987e+02 1.449554999999999836e+03
7.000000000000000666e-02 4.501800000000000246e-01 3.945284999999999798e+01 1.169110000000000014e+02 1.450534999999999854e+03
7.100000000000000755e-02 4.506965000000000554e-01 4.039289999999999736e+01 1.195114999999999981e+02 1.451505000000000109e+03
7.200000000000000844e-02 4.512129999999999752e-01 4.127970000000000539e+01 1.220964999999999918e+02 1.452470000000000027e+03
7.300000000000000933e-02 4.517309999999999937e-01 4.212019999999999698e+01 1.246790000000000020e+02 1.453434999999999945e+03
7.399999999999999634e-02 4.522530000000000161e-01 4.291984999999999673e+01 1.272694999999999936e+02 1.454389999999999873e+03
7.499999999999999722e-02 4.527780000000000138e-01 4.368229999999999791e+01 1.298720000000000141e+02 1.455360000000000127e+03
7.599999999999999811e-02 4.533059999999999867e-01 4.440900000000000603e+01 1.324869999999999948e+02 1.456324999999999818e+03
7.699999999999999900e-02 4.538360000000000172e-01 4.509919999999999618e+01 1.351100000000000136e+02 1.457295000000000073e+03
7.799999999999999989e-02 4.543650000000000189e-01 4.574989999999999668e+01 1.377305000000000064e+02 1.458264999999999873e+03
7.900000000000000078e-02 4.548900000000000166e-01 4.635609999999999786e+01 1.403340000000000032e+02 1.459230000000000018e+03
8.000000000000000167e-02 4.554070000000000062e-01 4.691089999999999804e+01 1.429024999999999750e+02 1.460184999999999945e+03
8.100000000000000255e-02 4.559119999999999839e-01 4.740635000000000332e+01 1.454134999999999991e+02 1.461125000000000000e+03
8.200000000000000344e-02 4.563994999999999580e-01 4.783360000000000412e+01 1.478445000000000107e+02 1.462034999999999854e+03
8.300000000000000433e-02 4.568655000000000355e-01 4.818365000000000009e+01 1.501709999999999923e+02 1.462920000000000073e+03
8.400000000000000522e-02 4.573054999999999759e-01 4.844819999999999993e+01 1.523704999999999927e+02 1.463755000000000109e+03
8.500000000000000611e-02 4.577149999999999830e-01 4.861960000000000548e+01 1.544209999999999923e+02 1.464549999999999955e+03
8.600000000000000699e-02 4.580909999999999704e-01 4.869169999999999732e+01 1.563034999999999854e+02 1.465284999999999854e+03
8.700000000000000788e-02 4.584314999999999918e-01 4.866020000000000323e+01 1.580024999999999977e+02 1.465965000000000146e+03
8.800000000000000877e-02 4.587335000000000163e-01 4.852259999999999707e+01 1.595080000000000098e+02 1.466575000000000045e+03
8.899999999999999578e-02 4.589964999999999740e-01 4.827875000000000227e+01 1.608125000000000000e+02 1.467115000000000009e+03
8.999999999999999667e-02 4.592209999999999903e-01 4.793049999999999500e+01 1.619145000000000039e+02 1.467590000000000146e+03
9.099999999999999756e-02 4.594065000000000509e-01 4.748179999999999978e+01 1.628170000000000073e+02 1.467990000000000009e+03
9.199999999999999845e-02 4.595555000000000057e-01 4.693864999999999554e+01 1.635260000000000105e+02 1.468319999999999936e+03
9.299999999999999933e-02 4.596704999999999819e-01 4.630865000000000009e+01 1.640529999999999973e+02 1.468585000000000036e+03
9.400000000000000022e-02 4.597529999999999673e-01 4.560115000000000407e+01 1.644124999999999943e+02 1.468789999999999964e+03
9.500000000000000111e-02 4.598075000000000356e-01 4.482649999999999579e+01 1.646200000000000045e+02 1.468930000000000064e+03
9.600000000000000200e-02 4.598370000000000513e-01 4.399600000000000222e+01 1.646949999999999932e+02 1.469025000000000091e+03
9.700000000000000289e-02 4.598455000000000181e-01 4.312160000000000082e+01 1.646569999999999823e+02 1.469070000000000164e+03
9.800000000000000377e-02 4.598364999999999814e-01 4.221529999999999916e+01 1.645275000000000034e+02 1.469079999999999927e+03
9.900000000000000466e-02 4.598145000000000149e-01 4.128900000000000148e+01 1.643254999999999768e+02 1.469059999999999945e+03
1.000000000000000056e-01 4.597824999999999829e-01 4.035415000000000418e+01 1.640720000000000027e+02 1.469009999999999991e+03
1.010000000000000064e-01 4.597440000000000415e-01 3.942130000000000223e+01 1.637839999999999918e+02 1.468934999999999945e+03
1.020000000000000073e-01 4.597020000000000550e-01 3.849985000000000213e+01 1.634784999999999968e+02 1.468855000000000018e+03
1.030000000000000082e-01 4.596590000000000398e-01 3.759779999999999944e+01 1.631694999999999993e+02 1.468764999999999873e+03
1.040000000000000091e-01 4.596164999999999834e-01 3.672149999999999892e+01 1.628670000000000186e+02 1.468670000000000073e+03
1.050000000000000100e-01 4.595764999999999989e-01 3.587559999999999860e+01 1.625805000000000007e+02 1.468574999999999818e+03
1.059999999999999970e-01 4.595400000000000040e-01 3.506279999999999575e+01 1.623135000000000048e+02 1.468485000000000127e+03
1.069999999999999979e-01 4.595055000000000112e-01 3.428405000000000058e+01 1.620685000000000002e+02 1.468400000000000091e+03
1.079999999999999988e-01 4.594739999999999380e-01 3.353855000000000075e+01 1.618449999999999989e+02 1.468320000000000164e+03
1.089999999999999997e-01 4.594445000000000334e-01 3.282385000000000019e+01 1.616374999999999886e+02 1.468235000000000127e+03
1.100000000000000006e-01 4.594155000000000322e-01 3.213620000000000232e+01 1.614399999999999977e+02 1.468159999999999854e+03
1.110000000000000014e-01 4.593844999999999734e-01 3.147070000000000078e+01 1.612454999999999927e+02 1.468085000000000036e+03
1.120000000000000023e-01 4.593515000000000237e-01 3.082169999999999987e+01 1.610434999999999945e+02 1.468005000000000109e+03
1.130000000000000032e-01 4.593125000000000124e-01 3.018299999999999983e+01 1.608234999999999957e+02 1.467920000000000073e+03
1.140000000000000041e-01 4.592659999999999521e-01 2.954834999999999923e+01 1.605749999999999886e+02 1.467829999999999927e+03
1.150000000000000050e-01 4.592114999999999947e-01 2.891140000000000043e+01 1.602880000000000109e+02 1.467730000000000018e+03
1.160000000000000059e-01 4.591454999999999842e-01 2.826655000000000229e+01 1.599524999999999864e+02 1.467610000000000127e+03
1.170000000000000068e-01 4.590675000000000172e-01 2.760855000000000103e+01 1.595610000000000070e+02 1.467469999999999800e+03
1.180000000000000077e-01 4.589765000000000095e-01 2.693329999999999913e+01 1.591065000000000111e+02 1.467315000000000055e+03
1.190000000000000085e-01 4.588719999999999466e-01 2.623755000000000237e+01 1.585835000000000150e+02 1.467134999999999991e+03
1.200000000000000094e-01 4.587525000000000075e-01 2.551944999999999908e+01 1.579915000000000020e+02 1.466934999999999945e+03
1.209999999999999964e-01 4.586194999999999578e-01 2.477824999999999989e+01 1.573279999999999745e+02 1.466710000000000036e+03
1.219999999999999973e-01 4.584740000000000482e-01 2.401469999999999771e+01 1.565975000000000250e+02 1.466465000000000146e+03
1.229999999999999982e-01 4.583154999999999868e-01 2.323080000000000211e+01 1.558029999999999973e+02 1.466190000000000055e+03
1.239999999999999991e-01 4.581465000000000121e-01 2.242970000000000041e+01 1.549515000000000100e+02 1.465900000000000091e+03
1.250000000000000000e-01 4.579685000000000006e-01 2.161585000000000178e+01 1.540520000000000209e+02 1.465590000000000146e+03
1.260000000000000009e-01 4.577835000000000099e-01 2.079460000000000264e+01 1.531140000000000043e+02 1.465264999999999873e+03
1.270000000000000018e-01 4.575949999999999740e-01 1.997220000000000084e+01 1.521490000000000009e+02 1.464930000000000064e+03
1.280000000000000027e-01 4.574040000000000328e-01 1.915549999999999997e+01 1.511705000000000041e+02 1.464589999999999918e+03
1.290000000000000036e-01 4.572140000000000093e-01 1.835174999999999912e+01 1.501915000000000191e+02 1.464235000000000127e+03
1.300000000000000044e-01 4.570265000000000022e-01 1.756834999999999880e+01 1.492245000000000061e+02 1.463894999999999982e+03
1.310000000000000053e-01 4.568449999999999456e-01 1.681259999999999977e+01 1.482825000000000273e+02 1.463555000000000064e+03
1.320000000000000062e-01 4.566715000000000080e-01 1.609134999999999849e+01 1.473779999999999859e+02 1.463224999999999909e+03
1.330000000000000071e-01 4.565079999999999694e-01 1.541105000000000125e+01 1.465224999999999795e+02 1.462909999999999854e+03
1.340000000000000080e-01 4.563570000000000126e-01 1.477725500000000025e+01 1.457255000000000109e+02 1.462610000000000127e+03
1.350000000000000089e-01 4.562190000000000412e-01 1.419466500000000053e+01 1.449944999999999879e+02 1.462329999999999927e+03
1.360000000000000098e-01 4.560945000000000138e-01 1.366674500000000059e+01 1.443360000000000127e+02 1.462074999999999818e+03
1.370000000000000107e-01 4.559854999999999881e-01 1.319581499999999963e+01 1.437540000000000191e+02 1.461840000000000146e+03
1.380000000000000115e-01 4.558919999999999639e-01 1.278300500000000106e+01 1.432500000000000000e+02 1.461639999999999873e+03
1.390000000000000124e-01 4.558124999999999538e-01 1.242811000000000021e+01 1.428234999999999957e+02 1.461454999999999927e+03
1.400000000000000133e-01 4.557474999999999721e-01 1.212975499999999940e+01 1.424730000000000132e+02 1.461304999999999836e+03
1.410000000000000142e-01 4.556955000000000311e-01 1.188550000000000040e+01 1.421935000000000002e+02 1.461174999999999955e+03
1.420000000000000151e-01 4.556560000000000055e-01 1.169191500000000161e+01 1.419789999999999850e+02 1.461075000000000045e+03
1.430000000000000160e-01 4.556265000000000454e-01 1.154476499999999994e+01 1.418229999999999791e+02 1.460985000000000127e+03
1.440000000000000169e-01 4.556065000000000254e-01 1.143919999999999959e+01 1.417169999999999845e+02 1.460924999999999955e+03
1.450000000000000178e-01 4.555930000000000257e-01 1.136987000000000059e+01 1.416519999999999868e+02 1.460869999999999891e+03
1.459999999999999909e-01 4.555850000000000177e-01 1.133125000000000071e+01 1.416200000000000045e+02 1.460840000000000146e+03
1.469999999999999918e-01 4.555814999999999726e-01 1.131777500000000103e+01 1.416105000000000018e+02 1.460815000000000055e+03
1.479999999999999927e-01 4.555799999999999850e-01 1.132394999999999996e+01 1.416175000000000068e+02 1.460795000000000073e+03
1.489999999999999936e-01 4.555790000000000117e-01 1.134461500000000100e+01 1.416310000000000002e+02 1.460784999999999854e+03
1.499999999999999944e-01 4.555779999999999830e-01 1.137497499999999917e+01 1.416450000000000102e+02 1.460775000000000091e+03
1.509999999999999953e-01 4.555755000000000221e-01 1.141079000000000043e+01 1.416539999999999964e+02 1.460769999999999982e+03
1.519999999999999962e-01 4.555710000000000037e-01 1.144833999999999996e+01 1.416535000000000082e+02 1.460760000000000218e+03
1.529999999999999971e-01 4.555635000000000101e-01 1.148457499999999953e+01 1.416394999999999982e+02 1.460750000000000000e+03
1.539999999999999980e-01 4.555535000000000556e-01 1.151713999999999949e+01 1.416094999999999970e+02 1.460735000000000127e+03
1.549999999999999989e-01 4.555399999999999450e-01 1.154424500000000009e+01 1.415635000000000048e+02 1.460710000000000036e+03
1.559999999999999998e-01 4.555240000000000400e-01 1.156470000000000020e+01 1.415014999999999930e+02 1.460690000000000055e+03
1.570000000000000007e-01 4.555044999999999789e-01 1.157803000000000004e+01 1.414244999999999948e+02 1.460660000000000082e+03
1.580000000000000016e-01 4.554835000000000411e-01 1.158419500000000113e+01 1.413340000000000032e+02 1.460630000000000109e+03
1.590000000000000024e-01 4.554604999999999904e-01 1.158350499999999883e+01 1.412319999999999993e+02 1.460595000000000027e+03
