# t [s], A [cm^2], U [cm/s], P [cPa], c [cm/s]
1.000000000000000021e-03 6.458424999999999860e-01 4.757999999999998342e-03 9.560444999999999993e+01 1.613384999999999991e+03
2.000000000000000042e-03 6.458340000000000192e-01 3.317920000000000244e-03 9.557489999999999952e+01 1.613384999999999991e+03
3.000000000000000062e-03 6.459084999999999965e-01 1.398012499999999880e-01 9.571734999999999616e+01 1.613414999999999964e+03
4.000000000000000083e-03 6.459460000000000202e-01 2.282205000000000206e-01 9.581470000000000198e+01 1.613434999999999945e+03
5.000000000000000104e-03 6.458819999999999562e-01 1.474344999999999684e-01 9.564994999999998981e+01 1.613404999999999973e+03
6.000000000000000125e-03 6.457930000000000614e-01 1.091449999999999365e-02 9.531494999999999607e+01 1.613324999999999818e+03
7.000000000000000146e-03 6.456990000000000229e-01 -1.470900000000000540e-01 9.487690000000000623e+01 1.613230000000000018e+03
8.000000000000000167e-03 6.455305000000000071e-01 -4.544900000000000606e-01 9.418179999999999552e+01 1.613075000000000045e+03
9.000000000000001055e-03 6.452800000000000757e-01 -9.255750000000000366e-01 9.315975000000000250e+01 1.612845000000000027e+03
1.000000000000000194e-02 6.449469999999999370e-01 -1.546980000000000022e+00 9.177934999999999377e+01 1.612525000000000091e+03
1.099999999999999936e-02 6.445005000000000317e-01 -2.350200000000000067e+00 8.995510000000000161e+01 1.612099999999999909e+03
1.200000000000000025e-02 6.439429999999999321e-01 -3.306454999999999700e+00 8.766630000000000678e+01 1.611555000000000064e+03
1.300000000000000114e-02 6.433480000000000310e-01 -4.248985000000000234e+00 8.508990000000000009e+01 1.610924999999999955e+03
1.400000000000000203e-02 6.428234999999999921e-01 -4.942048500000000288e+00 8.255610000000000070e+01 1.610279999999999973e+03
1.499999999999999944e-02 6.424434999999999452e-01 -5.211524999999999963e+00 8.037860000000000582e+01 1.609690000000000055e+03
1.600000000000000033e-02 6.422134999999999927e-01 -5.019359999999999822e+00 7.871395000000001119e+01 1.609199999999999818e+03
1.700000000000000122e-02 6.420810000000000128e-01 -4.457365000000000244e+00 7.752100000000000080e+01 1.608805000000000064e+03
1.800000000000000211e-02 6.419654999999999667e-01 -3.693035000000000068e+00 7.660429999999999495e+01 1.608470000000000027e+03
1.900000000000000300e-02 6.417905000000000415e-01 -2.899220499999999756e+00 7.570600000000000307e+01 1.608154999999999973e+03
2.000000000000000042e-02 6.415144999999999875e-01 -2.191543499999999867e+00 7.460944999999999538e+01 1.607804999999999836e+03
2.100000000000000130e-02 6.411405000000000021e-01 -1.596149999999999958e+00 7.321519999999999584e+01 1.607394999999999982e+03
2.200000000000000219e-02 6.407054999999999279e-01 -1.061790000000000234e+00 7.155664999999999054e+01 1.606924999999999955e+03
2.299999999999999961e-02 6.402594999999999814e-01 -5.064549999999998775e-01 6.975444999999999141e+01 1.606420000000000073e+03
2.400000000000000050e-02 6.398380000000000178e-01 1.293850000000000833e-01 6.794084999999999752e+01 1.605909999999999854e+03
2.500000000000000139e-02 6.394484999999999753e-01 8.478750000000001563e-01 6.619270000000000209e+01 1.605400000000000091e+03
2.600000000000000228e-02 6.390694999999999570e-01 1.585684999999999789e+00 6.449625000000000341e+01 1.604900000000000091e+03
2.700000000000000316e-02 6.386560000000000015e-01 2.229095000000000049e+00 6.274729999999999563e+01 1.604389999999999873e+03
2.800000000000000058e-02 6.381580000000000030e-01 2.643969999999999931e+00 6.078064999999999429e+01 1.603829999999999927e+03
2.900000000000000147e-02 6.375299999999999301e-01 2.711924999999999919e+00 5.842045000000000243e+01 1.603190000000000055e+03
3.000000000000000236e-02 6.367515000000000258e-01 2.363825000000000287e+00 5.553575000000000017e+01 1.602440000000000055e+03
3.099999999999999978e-02 6.358300000000000063e-01 1.600830000000000197e+00 5.208724999999999739e+01 1.601559999999999945e+03
3.200000000000000067e-02 6.348055000000000225e-01 4.962500000000007461e-01 4.814939999999999998e+01 1.600559999999999945e+03
3.300000000000000155e-02 6.337379999999999125e-01 -8.219500000000001805e-01 4.390085000000000548e+01 1.599474999999999909e+03
3.400000000000000244e-02 6.326970000000000649e-01 -2.200115000000000265e+00 3.959084999999999610e+01 1.598365000000000009e+03
3.500000000000000333e-02 6.317485000000000461e-01 -3.487919999999999909e+00 3.549385000000000190e+01 1.597279999999999973e+03
3.600000000000000422e-02 6.309454999999999369e-01 -4.560460000000000846e+00 3.186664999999999992e+01 1.596289999999999964e+03
3.700000000000000511e-02 6.303239999999999954e-01 -5.329684999999999562e+00 2.891659999999999897e+01 1.595449999999999818e+03
3.799999999999999906e-02 6.299019999999999619e-01 -5.746512000000000064e+00 2.678394999999999726e+01 1.594795000000000073e+03
3.899999999999999994e-02 6.296850000000000502e-01 -5.794940000000000424e+00 2.553845000000000098e+01 1.594355000000000018e+03
4.000000000000000083e-02 6.296634999999999316e-01 -5.482730000000000103e+00 2.518764999999999787e+01 1.594139999999999873e+03
4.100000000000000172e-02 6.298239999999999394e-01 -4.830599999999999561e+00 2.569234999999999758e+01 1.594150000000000091e+03
4.200000000000000261e-02 6.301510000000000167e-01 -3.863268499999999772e+00 2.698519999999999897e+01 1.594365000000000009e+03
4.300000000000000350e-02 6.306270000000000486e-01 -2.604235000000000078e+00 2.898605000000000231e+01 1.594779999999999973e+03
4.400000000000000439e-02 6.312364999999999782e-01 -1.074959999999999916e+00 3.161285000000000167e+01 1.595369999999999891e+03
4.499999999999999833e-02 6.319649999999999990e-01 7.024399999999992872e-01 3.478484999999999872e+01 1.596119999999999891e+03
4.599999999999999922e-02 6.327949999999999964e-01 2.700795000000000279e+00 3.842119999999999891e+01 1.597000000000000000e+03
4.700000000000000011e-02 6.337085000000000079e-01 4.884264999999999191e+00 4.243715000000000259e+01 1.597994999999999891e+03
4.800000000000000100e-02 6.346825000000000383e-01 7.206525000000000958e+00 4.674075000000000557e+01 1.599079999999999927e+03
4.900000000000000189e-02 6.356929999999999525e-01 9.612214999999999065e+00 5.123220000000000596e+01 1.600235000000000127e+03
5.000000000000000278e-02 6.367150000000000309e-01 1.204025500000000015e+01 5.580689999999999884e+01 1.601424999999999955e+03
5.100000000000000366e-02 6.377230000000000398e-01 1.442905499999999996e+01 6.036050000000000182e+01 1.602630000000000109e+03
5.200000000000000455e-02 6.386959999999999305e-01 1.672172000000000125e+01 6.479630000000000223e+01 1.603825000000000045e+03
5.300000000000000544e-02 6.396169999999999911e-01 1.887075000000000102e+01 6.903229999999999222e+01 1.604985000000000127e+03
5.399999999999999939e-02 6.404760000000000453e-01 2.084100000000000108e+01 7.300730000000000075e+01 1.606089999999999918e+03
5.500000000000000028e-02 6.412664999999999615e-01 2.261115000000000208e+01 7.668375000000000341e+01 1.607125000000000000e+03
5.600000000000000117e-02 6.419894999999999907e-01 2.417314999999999969e+01 8.004894999999999072e+01 1.608099999999999909e+03
5.700000000000000205e-02 6.426505000000000134e-01 2.553074999999999761e+01 8.311275000000000546e+01 1.608994999999999891e+03
5.800000000000000294e-02 6.432575000000000376e-01 2.669709999999999894e+01 8.590425000000000466e+01 1.609819999999999936e+03
5.900000000000000383e-02 6.438220000000000054e-01 2.769219999999999970e+01 8.846684999999999377e+01 1.610589999999999918e+03
6.000000000000000472e-02 6.443559999999999288e-01 2.854090000000000060e+01 9.085354999999999848e+01 1.611309999999999945e+03
6.099999999999999867e-02 6.448724999999999596e-01 2.927120000000000033e+01 9.312284999999999968e+01 1.611990000000000009e+03
6.199999999999999956e-02 6.453845000000000276e-01 2.991254999999999953e+01 9.533465000000001055e+01 1.612654999999999973e+03
6.300000000000000044e-02 6.459040000000000337e-01 3.049504999999999910e+01 9.754725000000000534e+01 1.613304999999999836e+03
6.400000000000000133e-02 6.464425000000000310e-01 3.104765000000000086e+01 9.981465000000000032e+01 1.613970000000000027e+03
6.500000000000000222e-02 6.470099999999999740e-01 3.159705000000000297e+01 1.021827499999999986e+02 1.614650000000000091e+03
6.600000000000000311e-02 6.476125000000000353e-01 3.216549999999999443e+01 1.046880000000000024e+02 1.615360000000000127e+03
6.700000000000000400e-02 6.482544999999999558e-01 3.276939999999999742e+01 1.073539999999999992e+02 1.616109999999999900e+03
6.800000000000000488e-02 6.489365000000000272e-01 3.341754999999999853e+01 1.101880000000000024e+02 1.616900000000000091e+03
6.900000000000000577e-02 6.496539999999999537e-01 3.411059999999999803e+01 1.131810000000000116e+02 1.617730000000000018e+03
7.000000000000000666e-02 6.504000000000000892e-01 3.484044999999999703e+01 1.163079999999999927e+02 1.618590000000000146e+03
7.100000000000000755e-02 6.511635000000000062e-01 3.559149999999999636e+01 1.195285000000000082e+02 1.619480000000000018e+03
7.200000000000000844e-02 6.519304999999999684e-01 3.634154999999999802e+01 1.227879999999999967e+02 1.620380000000000109e+03
7.300000000000000933e-02 6.526864999999999473e-01 3.706430000000000291e+01 1.260245000000000033e+02 1.621284999999999854e+03
7.399999999999999634e-02 6.534159999999999968e-01 3.773099999999999454e+01 1.291700000000000159e+02 1.622170000000000073e+03
7.499999999999999722e-02 6.541040000000000187e-01 3.831329999999999814e+01 1.321585000000000036e+02 1.623025000000000091e+03
7.599999999999999811e-02 6.547359999999999847e-01 3.878459999999999752e+01 1.349264999999999759e+02 1.623820000000000164e+03
7.699999999999999900e-02 6.553020000000000511e-01 3.912229999999999563e+01 1.374209999999999923e+02 1.624555000000000064e+03
7.799999999999999989e-02 6.557930000000000703e-01 3.930865000000000009e+01 1.395980000000000132e+02 1.625204999999999927e+03
7.900000000000000078e-02 6.562034999999999396e-01 3.933190000000000452e+01 1.414279999999999973e+02 1.625775000000000091e+03
8.000000000000000167e-02 6.565315000000000456e-01 3.918665000000000020e+01 1.428960000000000150e+02 1.626244999999999891e+03
8.100000000000000255e-02 6.567780000000000840e-01 3.887385000000000446e+01 1.440000000000000000e+02 1.626615000000000009e+03
8.200000000000000344e-02 6.569464999999999888e-01 3.840044999999999931e+01 1.447529999999999859e+02 1.626900000000000091e+03
8.300000000000000433e-02 6.570439999999999614e-01 3.777925000000000466e+01 1.451800000000000068e+02 1.627085000000000036e+03
8.400000000000000522e-02 6.570785000000000098e-01 3.702759999999999962e+01 1.453159999999999741e+02 1.627190000000000055e+03
8.500000000000000611e-02 6.570599999999999774e-01 3.616694999999999993e+01 1.452035000000000196e+02 1.627224999999999909e+03
8.600000000000000699e-02 6.570000000000000284e-01 3.522160000000000224e+01 1.448930000000000007e+02 1.627200000000000045e+03
8.700000000000000788e-02 6.569110000000000227e-01 3.421739999999999782e+01 1.444359999999999786e+02 1.627119999999999891e+03
8.800000000000000877e-02 6.568039999999999434e-01 3.318075000000000330e+01 1.438854999999999791e+02 1.627014999999999873e+03
8.899999999999999578e-02 6.566899999999999959e-01 3.213730000000000331e+01 1.432914999999999850e+02 1.626884999999999991e+03
8.999999999999999667e-02 6.565784999999999538e-01 3.111084999999999923e+01 1.427015000000000100e+02 1.626744999999999891e+03
9.099999999999999756e-02 6.564790000000000347e-01 3.012225000000000108e+01 1.421560000000000059e+02 1.626605000000000018e+03
9.199999999999999845e-02 6.563980000000000370e-01 2.918864999999999910e+01 1.416870000000000118e+02 1.626485000000000127e+03
9.299999999999999933e-02 6.563399999999999235e-01 2.832289999999999708e+01 1.413190000000000168e+02 1.626380000000000109e+03
9.400000000000000022e-02 6.563075000000000436e-01 2.753320000000000078e+01 1.410674999999999955e+02 1.626304999999999836e+03
9.500000000000000111e-02 6.563010000000000232e-01 2.682290000000000063e+01 1.409364999999999952e+02 1.626255000000000109e+03
9.600000000000000200e-02 6.563179999999999570e-01 2.619089999999999918e+01 1.409225000000000136e+02 1.626235000000000127e+03
9.700000000000000289e-02 6.563570000000000793e-01 2.563154999999999717e+01 1.410134999999999934e+02 1.626240000000000009e+03
9.800000000000000377e-02 6.564119999999999955e-01 2.513579999999999970e+01 1.411914999999999907e+02 1.626269999999999982e+03
9.900000000000000466e-02 6.564775000000000471e-01 2.469134999999999991e+01 1.414309999999999832e+02 1.626319999999999936e+03
1.000000000000000056e-01 6.565464999999999218e-01 2.428359999999999985e+01 1.417024999999999864e+02 1.626380000000000109e+03
1.010000000000000064e-01 6.566119999999999735e-01 2.389654999999999774e+01 1.419759999999999991e+02 1.626440000000000055e+03
1.020000000000000073e-01 6.566670000000000007e-01 2.351360000000000028e+01 1.422189999999999941e+02 1.626500000000000000e+03
1.030000000000000082e-01 6.567049999999999832e-01 2.311850000000000094e+01 1.424010000000000105e+02 1.626545000000000073e+03
1.040000000000000091e-01 6.567205000000000403e-01 2.269624999999999915e+01 1.424945000000000164e+02 1.626575000000000045e+03
1.050000000000000100e-01 6.567069999999999297e-01 2.223369999999999891e+01 1.424744999999999777e+02 1.626575000000000045e+03
1.059999999999999970e-01 6.566620000000000790e-01 2.172064999999999912e+01 1.423230000000000075e+02 1.626545000000000073e+03
1.069999999999999979e-01 6.565830000000000277e-01 2.115005000000000024e+01 1.420285000000000082e+02 1.626474999999999909e+03
1.079999999999999988e-01 6.564704999999999568e-01 2.051849999999999952e+01 1.415855000000000246e+02 1.626375000000000000e+03
1.089999999999999997e-01 6.563255000000000061e-01 1.982645000000000124e+01 1.409970000000000141e+02 1.626230000000000018e+03
1.100000000000000006e-01 6.561509999999999287e-01 1.907835000000000036e+01 1.402735000000000127e+02 1.626045000000000073e+03
1.110000000000000014e-01 6.559504999999999919e-01 1.828204999999999814e+01 1.394309999999999832e+02 1.625835000000000036e+03
1.120000000000000023e-01 6.557309999999999528e-01 1.744870000000000232e+01 1.384925000000000068e+02 1.625599999999999909e+03
1.130000000000000032e-01 6.554979999999999141e-01 1.659219999999999828e+01 1.374859999999999900e+02 1.625340000000000146e+03
1.140000000000000041e-01 6.552610000000000934e-01 1.572845000000000049e+01 1.364435000000000002e+02 1.625059999999999945e+03
1.150000000000000050e-01 6.550249999999999684e-01 1.487420499999999990e+01 1.353975000000000080e+02 1.624779999999999973e+03
1.160000000000000059e-01 6.547994999999999788e-01 1.404686500000000038e+01 1.343824999999999932e+02 1.624509999999999991e+03
1.170000000000000068e-01 6.545914999999999928e-01 1.326315999999999917e+01 1.334300000000000068e+02 1.624244999999999891e+03
1.180000000000000077e-01 6.544060000000000432e-01 1.253844499999999940e+01 1.325699999999999932e+02 1.624000000000000000e+03
1.190000000000000085e-01 6.542494999999999283e-01 1.188592000000000048e+01 1.318269999999999982e+02 1.623780000000000200e+03
1.200000000000000094e-01 6.541254999999999153e-01 1.131606500000000004e+01 1.312210000000000036e+02 1.623599999999999909e+03
1.209999999999999964e-01 6.540365000000000206e-01 1.083618500000000040e+01 1.307655000000000030e+02 1.623454999999999927e+03
1.219999999999999973e-01 6.539825000000000221e-01 1.045004499999999936e+01 1.304660000000000082e+02 1.623345000000000027e+03
1.229999999999999982e-01 6.539634999999999199e-01 1.015810000000000102e+01 1.303220000000000027e+02 1.623279999999999973e+03
1.239999999999999991e-01 6.539775000000001004e-01 9.957214999999999705e+00 1.303280000000000030e+02 1.623250000000000000e+03
1.250000000000000000e-01 6.540205000000000046e-01 9.841264999999999930e+00 1.304699999999999989e+02 1.623259999999999991e+03
1.260000000000000009e-01 6.540889999999999205e-01 9.801545000000000840e+00 1.307309999999999945e+02 1.623304999999999836e+03
1.270000000000000018e-01 6.541764999999999386e-01 9.827120000000000744e+00 1.310894999999999868e+02 1.623375000000000000e+03
1.280000000000000027e-01 6.542784999999999851e-01 9.905640000000000001e+00 1.315210000000000150e+02 1.623469999999999800e+03
1.290000000000000036e-01 6.543885000000000396e-01 1.002381000000000100e+01 1.320010000000000048e+02 1.623579999999999927e+03
1.300000000000000044e-01 6.545019999999999172e-01 1.016797000000000040e+01 1.325035000000000025e+02 1.623704999999999927e+03
1.310000000000000053e-01 6.546125000000000416e-01 1.032484999999999964e+01 1.330045000000000073e+02 1.623829999999999927e+03
1.320000000000000062e-01 6.547160000000000757e-01 1.048199999999999932e+01 1.334830000000000041e+02 1.623954999999999927e+03
1.330000000000000071e-01 6.548085000000000155e-01 1.062800000000000011e+01 1.339194999999999993e+02 1.624069999999999936e+03
1.340000000000000080e-01 6.548869999999999969e-01 1.075329500000000138e+01 1.342980000000000018e+02 1.624170000000000073e+03
1.350000000000000089e-01 6.549490000000000034e-01 1.084993500000000033e+01 1.346069999999999993e+02 1.624259999999999991e+03
1.360000000000000098e-01 6.549929999999999364e-01 1.091206000000000031e+01 1.348389999999999986e+02 1.624329999999999927e+03
1.370000000000000107e-01 6.550190000000000179e-01 1.093590499999999999e+01 1.349904999999999973e+02 1.624380000000000109e+03
1.380000000000000115e-01 6.550270000000000259e-01 1.091965000000000074e+01 1.350610000000000070e+02 1.624409999999999854e+03
1.390000000000000124e-01 6.550184999999999480e-01 1.086348500000000072e+01 1.350545000000000186e+02 1.624420000000000073e+03
1.400000000000000133e-01 6.549949999999999939e-01 1.076941000000000059e+01 1.349775000000000205e+02 1.624409999999999854e+03
1.410000000000000142e-01 6.549584999999999990e-01 1.064094500000000032e+01 1.348385000000000105e+02 1.624384999999999991e+03
1.420000000000000151e-01 6.549119999999999386e-01 1.048302499999999959e+01 1.346494999999999891e+02 1.624344999999999800e+03
1.430000000000000160e-01 6.548579999999999401e-01 1.030142999999999986e+01 1.344225000000000136e+02 1.624295000000000073e+03
1.440000000000000169e-01 6.548000000000000487e-01 1.010271999999999970e+01 1.341694999999999993e+02 1.624234999999999900e+03
1.450000000000000178e-01 6.547404999999999475e-01 9.893779999999999575e+00 1.339050000000000011e+02 1.624174999999999955e+03
1.459999999999999909e-01 6.546825000000000561e-01 9.681529999999998637e+00 1.336394999999999982e+02 1.624105000000000018e+03
1.469999999999999918e-01 6.546279999999999877e-01 9.472535000000000593e+00 1.333860000000000241e+02 1.624039999999999964e+03
1.479999999999999927e-01 6.545795000000000918e-01 9.272780000000000911e+00 1.331530000000000200e+02 1.623980000000000018e+03
1.489999999999999936e-01 6.545380000000000642e-01 9.087455000000000283e+00 1.329495000000000005e+02 1.623920000000000073e+03
1.499999999999999944e-01 6.545050000000000034e-01 8.920655000000000001e+00 1.327800000000000011e+02 1.623875000000000000e+03
1.509999999999999953e-01 6.544805000000000206e-01 8.775280000000000413e+00 1.326490000000000009e+02 1.623835000000000036e+03
1.519999999999999962e-01 6.544649999999999634e-01 8.653130000000000877e+00 1.325570000000000164e+02 1.623804999999999836e+03
1.529999999999999971e-01 6.544585000000000541e-01 8.554660000000000153e+00 1.325024999999999977e+02 1.623785000000000082e+03
1.539999999999999980e-01 6.544590000000000130e-01 8.479145000000000820e+00 1.324825000000000159e+02 1.623775000000000091e+03
1.549999999999999989e-01 6.544654999999999223e-01 8.424960000000000448e+00 1.324929999999999950e+02 1.623769999999999982e+03
1.559999999999999998e-01 6.544760000000000577e-01 8.389509999999999579e+00 1.325260000000000105e+02 1.623769999999999982e+03
1.570000000000000007e-01 6.544900000000000162e-01 8.369595000000000340e+00 1.325745000000000005e+02 1.623784999999999854e+03
1.580000000000000016e-01 6.545050000000000034e-01 8.361544999999999561e+00 1.326315000000000168e+02 1.623789999999999964e+03
1.590000000000000024e-01 6.545185000000000031e-01 8.361494999999999678e+00 1.326889999999999930e+02 1.623805000000000064e+03
