# t [s], A [cm^2], U [cm/s], P [cPa], c [cm/s]
1.000000000000000021e-03 1.387335000000000096e-01 1.867825000000000180e-01 9.646209999999999241e+01 2.050015000000000327e+03
2.000000000000000042e-03 1.387094999999999856e-01 1.494842000000000004e+00 9.369984999999999786e+01 2.049715000000000146e+03
3.000000000000000062e-03 1.386284999999999878e-01 3.160775499999999738e+00 8.986674999999999613e+01 2.048775000000000091e+03
4.000000000000000083e-03 1.385100000000000220e-01 5.045370000000000132e+00 8.544794999999999163e+01 2.047414999999999964e+03
5.000000000000000104e-03 1.383739999999999970e-01 7.095274999999999999e+00 8.119120000000000914e+01 2.045875000000000000e+03
6.000000000000000125e-03 1.382379999999999998e-01 9.202859999999999374e+00 7.752035000000000764e+01 2.044349999999999909e+03
7.000000000000000146e-03 1.381080000000000085e-01 1.119597499999999890e+01 7.441030000000000655e+01 2.042904999999999973e+03
8.000000000000000167e-03 1.379854999999999832e-01 1.294401500000000027e+01 7.163764999999999361e+01 2.041575000000000045e+03
9.000000000000001055e-03 1.378734999999999822e-01 1.443122499999999953e+01 6.913560000000001082e+01 2.040375000000000000e+03
1.000000000000000194e-02 1.377754999999999952e-01 1.569055000000000177e+01 6.697780000000000200e+01 2.039340000000000146e+03
1.099999999999999936e-02 1.376914999999999945e-01 1.674334999999999951e+01 6.520349999999999113e+01 2.038460000000000036e+03
1.200000000000000025e-02 1.376224999999999810e-01 1.760154999999999959e+01 6.379019999999999868e+01 2.037744999999999891e+03
1.300000000000000114e-02 1.375665000000000082e-01 1.827084999999999937e+01 6.267735000000000412e+01 2.037174999999999955e+03
1.400000000000000203e-02 1.375204999999999900e-01 1.874924999999999997e+01 6.176595000000000368e+01 2.036715000000000146e+03
1.499999999999999944e-02 1.374819999999999931e-01 1.904829999999999757e+01 6.096160000000000423e+01 2.036335000000000036e+03
1.600000000000000033e-02 1.374505000000000032e-01 1.922449999999999903e+01 6.027309999999999945e+01 2.036029999999999973e+03
1.700000000000000122e-02 1.374274999999999802e-01 1.938219999999999743e+01 5.986664999999999992e+01 2.035815000000000055e+03
1.800000000000000211e-02 1.374190000000000134e-01 1.963599999999999923e+01 6.000114999999999554e+01 2.035740000000000009e+03
1.900000000000000300e-02 1.374294999999999822e-01 2.005835000000000079e+01 6.088159999999999883e+01 2.035860000000000127e+03
2.000000000000000042e-02 1.374604999999999855e-01 2.064620000000000033e+01 6.252819999999999823e+01 2.036184999999999945e+03
2.100000000000000130e-02 1.375089999999999923e-01 2.132350000000000279e+01 6.473629999999999995e+01 2.036695000000000164e+03
2.200000000000000219e-02 1.375684999999999825e-01 2.197285000000000110e+01 6.713739999999999952e+01 2.037329999999999927e+03
2.299999999999999961e-02 1.376295000000000157e-01 2.247870000000000346e+01 6.932179999999999609e+01 2.037985000000000127e+03
2.400000000000000050e-02 1.376829999999999998e-01 2.276330000000000098e+01 7.096359999999999957e+01 2.038570000000000164e+03
2.500000000000000139e-02 1.377234999999999987e-01 2.280505000000000138e+01 7.190399999999999636e+01 2.039019999999999982e+03
2.600000000000000228e-02 1.377484999999999959e-01 2.263524999999999920e+01 7.217000000000000171e+01 2.039315000000000055e+03
2.700000000000000316e-02 1.377599999999999936e-01 2.231899999999999906e+01 7.193264999999999532e+01 2.039460000000000036e+03
2.800000000000000058e-02 1.377614999999999812e-01 2.192824999999999847e+01 7.142735000000000412e+01 2.039484999999999900e+03
2.900000000000000147e-02 1.377570000000000183e-01 2.151769999999999783e+01 7.086799999999999500e+01 2.039450000000000045e+03
3.000000000000000236e-02 1.377504999999999979e-01 2.111104999999999876e+01 7.038374999999999204e+01 2.039384999999999991e+03
3.099999999999999978e-02 1.377435000000000187e-01 2.069955000000000211e+01 6.999519999999999698e+01 2.039309999999999945e+03
3.200000000000000067e-02 1.377359999999999973e-01 2.025229999999999819e+01 6.963009999999999877e+01 2.039230000000000018e+03
3.300000000000000155e-02 1.377255000000000007e-01 1.973245000000000005e+01 6.916849999999999454e+01 2.039125000000000000e+03
3.400000000000000244e-02 1.377099999999999991e-01 1.911500000000000199e+01 6.849890000000000612e+01 2.038970000000000027e+03
3.500000000000000333e-02 1.376884999999999915e-01 1.839999999999999858e+01 6.756919999999999504e+01 2.038750000000000000e+03
3.600000000000000422e-02 1.376605000000000190e-01 1.761780000000000257e+01 6.641655000000000086e+01 2.038465000000000146e+03
3.700000000000000511e-02 1.376290000000000013e-01 1.682545000000000002e+01 6.516825000000000045e+01 2.038130000000000109e+03
3.799999999999999906e-02 1.375970000000000248e-01 1.609454999999999814e+01 6.401484999999999559e+01 2.037789999999999964e+03
3.899999999999999994e-02 1.375689999999999968e-01 1.549484999999999957e+01 6.316290000000000759e+01 2.037494999999999891e+03
4.000000000000000083e-02 1.375500000000000056e-01 1.507819999999999894e+01 6.278314999999999912e+01 2.037285000000000082e+03
4.100000000000000172e-02 1.375439999999999996e-01 1.486730000000000018e+01 6.296845000000000425e+01 2.037204999999999927e+03
4.200000000000000261e-02 1.375514999999999932e-01 1.485190000000000055e+01 6.371209999999999951e+01 2.037275000000000091e+03
4.300000000000000350e-02 1.375724999999999865e-01 1.499205000000000076e+01 6.491049999999999898e+01 2.037480000000000018e+03
4.400000000000000439e-02 1.376040000000000041e-01 1.522694999999999865e+01 6.638625000000000398e+01 2.037795000000000073e+03
4.499999999999999833e-02 1.376404999999999990e-01 1.548685000000000045e+01 6.792390000000000327e+01 2.038179999999999836e+03
4.599999999999999922e-02 1.376780000000000226e-01 1.570420000000000016e+01 6.930870000000000175e+01 2.038570000000000164e+03
4.700000000000000011e-02 1.377114999999999867e-01 1.582329999999999970e+01 7.035970000000000368e+01 2.038929999999999836e+03
4.800000000000000100e-02 1.377359999999999973e-01 1.580525000000000091e+01 7.095185000000000741e+01 2.039194999999999936e+03
4.900000000000000189e-02 1.377499999999999836e-01 1.562989999999999924e+01 7.102455000000000496e+01 2.039345000000000027e+03
5.000000000000000278e-02 1.377504999999999979e-01 1.529389999999999894e+01 7.057765000000000555e+01 2.039360000000000127e+03
5.100000000000000366e-02 1.377380000000000271e-01 1.480675000000000097e+01 6.965800000000000125e+01 2.039240000000000009e+03
5.200000000000000455e-02 1.377134999999999887e-01 1.418580000000000041e+01 6.834215000000000373e+01 2.038990000000000009e+03
5.300000000000000544e-02 1.376785000000000092e-01 1.345224999999999937e+01 6.671815000000000850e+01 2.038625000000000000e+03
5.399999999999999939e-02 1.376344999999999930e-01 1.262785000000000046e+01 6.487229999999999563e+01 2.038170000000000073e+03
5.500000000000000028e-02 1.375839999999999841e-01 1.173331500000000105e+01 6.288064999999999571e+01 2.037634999999999991e+03
5.600000000000000117e-02 1.375284999999999980e-01 1.078856000000000037e+01 6.080709999999999837e+01 2.037050000000000182e+03
5.700000000000000205e-02 1.374699999999999811e-01 9.813425000000000509e+00 5.870589999999999975e+01 2.036430000000000064e+03
5.800000000000000294e-02 1.374095000000000177e-01 8.829360000000001207e+00 5.662684999999999746e+01 2.035795000000000073e+03
5.900000000000000383e-02 1.373495000000000132e-01 7.860529999999999795e+00 5.462115000000000009e+01 2.035154999999999973e+03
6.000000000000000472e-02 1.372915000000000108e-01 6.934585000000000221e+00 5.274594999999999345e+01 2.034535000000000082e+03
6.099999999999999867e-02 1.372364999999999835e-01 6.082380000000000564e+00 5.106645000000000323e+01 2.033954999999999927e+03
6.199999999999999956e-02 1.371875000000000178e-01 5.337170000000000414e+00 4.965524999999999523e+01 2.033424999999999955e+03
6.300000000000000044e-02 1.371459999999999901e-01 4.732820000000000249e+00 4.858880000000000621e+01 2.032980000000000018e+03
6.400000000000000133e-02 1.371140000000000136e-01 4.301714999999999733e+00 4.794230000000000302e+01 2.032630000000000109e+03
6.500000000000000222e-02 1.370949999999999946e-01 4.072530000000000427e+00 4.778340000000000032e+01 2.032410000000000082e+03
6.600000000000000311e-02 1.370895000000000030e-01 4.068209999999999660e+00 4.816639999999999588e+01 2.032335000000000036e+03
6.700000000000000400e-02 1.370989999999999986e-01 4.304389999999999716e+00 4.912744999999999607e+01 2.032420000000000073e+03
6.800000000000000488e-02 1.371255000000000113e-01 4.788444999999999396e+00 5.068135000000000190e+01 2.032679999999999836e+03
6.900000000000000577e-02 1.371684999999999988e-01 5.519140000000000157e+00 5.282059999999999889e+01 2.033119999999999891e+03
7.000000000000000666e-02 1.372285000000000033e-01 6.486959999999999837e+00 5.551635000000000275e+01 2.033735000000000127e+03
7.100000000000000755e-02 1.373039999999999816e-01 7.674950000000000827e+00 5.872055000000000291e+01 2.034519999999999982e+03
7.200000000000000844e-02 1.373939999999999884e-01 9.059940000000000992e+00 6.237024999999999864e+01 2.035460000000000036e+03
7.300000000000000933e-02 1.374974999999999947e-01 1.061406500000000008e+01 6.639164999999999850e+01 2.036545000000000073e+03
7.399999999999999634e-02 1.376124999999999987e-01 1.230651500000000098e+01 7.070555000000000234e+01 2.037755000000000109e+03
7.499999999999999722e-02 1.377365000000000117e-01 1.410510000000000019e+01 7.523170000000000357e+01 2.039065000000000055e+03
7.599999999999999811e-02 1.378675000000000039e-01 1.597809999999999953e+01 7.989414999999999623e+01 2.040454999999999927e+03
7.699999999999999900e-02 1.380025000000000002e-01 1.789555000000000007e+01 8.462415000000000020e+01 2.041894999999999982e+03
7.799999999999999989e-02 1.381410000000000138e-01 1.983040000000000092e+01 8.936395000000000266e+01 2.043380000000000109e+03
7.900000000000000078e-02 1.382815000000000016e-01 2.175955000000000084e+01 9.406825000000000614e+01 2.044875000000000000e+03
8.000000000000000167e-02 1.384210000000000163e-01 2.366400000000000148e+01 9.870394999999999186e+01 2.046384999999999764e+03
8.100000000000000255e-02 1.385600000000000165e-01 2.552890000000000015e+01 1.032512499999999989e+02 2.047884999999999764e+03
8.200000000000000344e-02 1.386979999999999880e-01 2.734344999999999715e+01 1.077007000000000119e+02 2.049369999999999891e+03
8.300000000000000433e-02 1.388334999999999986e-01 2.910020000000000095e+01 1.120510000000000019e+02 2.050845000000000255e+03
8.400000000000000522e-02 1.389670000000000072e-01 3.079410000000000025e+01 1.163064999999999998e+02 2.052289999999999964e+03
8.500000000000000611e-02 1.390979999999999994e-01 3.242195000000000249e+01 1.204735000000000014e+02 2.053715000000000146e+03
8.600000000000000699e-02 1.392269999999999897e-01 3.398165000000000191e+01 1.245575000000000045e+02 2.055125000000000000e+03
8.700000000000000788e-02 1.393534999999999913e-01 3.547135000000000105e+01 1.285645000000000095e+02 2.056505000000000109e+03
8.800000000000000877e-02 1.394785000000000053e-01 3.688920000000000243e+01 1.324944999999999879e+02 2.057869999999999891e+03
8.899999999999999578e-02 1.396004999999999885e-01 3.823324999999999818e+01 1.363449999999999989e+02 2.059215000000000146e+03
8.999999999999999667e-02 1.397204999999999975e-01 3.950095000000000312e+01 1.401084999999999923e+02 2.060529999999999745e+03
9.099999999999999756e-02 1.398385000000000045e-01 4.068934999999999746e+01 1.437755000000000223e+02 2.061824999999999818e+03
9.199999999999999845e-02 1.399529999999999941e-01 4.179529999999999745e+01 1.473340000000000032e+02 2.063085000000000036e+03
9.299999999999999933e-02 1.400644999999999807e-01 4.281534999999999513e+01 1.507685000000000173e+02 2.064315000000000055e+03
9.400000000000000022e-02 1.401715000000000044e-01 4.374589999999999890e+01 1.540639999999999930e+02 2.065500000000000000e+03
9.500000000000000111e-02 1.402754999999999974e-01 4.458350000000000080e+01 1.572055000000000007e+02 2.066649999999999636e+03
9.600000000000000200e-02 1.403749999999999998e-01 4.532444999999999879e+01 1.601764999999999759e+02 2.067739999999999782e+03
9.700000000000000289e-02 1.404684999999999961e-01 4.596535000000000082e+01 1.629624999999999773e+02 2.068784999999999854e+03
9.800000000000000377e-02 1.405569999999999875e-01 4.650270000000000437e+01 1.655484999999999900e+02 2.069769999999999982e+03
9.900000000000000466e-02 1.406395000000000006e-01 4.693339999999999890e+01 1.679215000000000089e+02 2.070685000000000400e+03
1.000000000000000056e-01 1.407154999999999934e-01 4.725459999999999638e+01 1.700689999999999884e+02 2.071534999999999854e+03
1.010000000000000064e-01 1.407849999999999935e-01 4.746394999999999698e+01 1.719795000000000016e+02 2.072309999999999945e+03
1.020000000000000073e-01 1.408470000000000000e-01 4.755989999999999895e+01 1.736440000000000055e+02 2.073010000000000218e+03
1.030000000000000082e-01 1.409019999999999995e-01 4.754194999999999993e+01 1.750559999999999832e+02 2.073630000000000109e+03
1.040000000000000091e-01 1.409495000000000053e-01 4.741084999999999638e+01 1.762125000000000057e+02 2.074164999999999964e+03
1.050000000000000100e-01 1.409894999999999898e-01 4.716884999999999906e+01 1.771150000000000091e+02 2.074614999999999782e+03
1.059999999999999970e-01 1.410219999999999807e-01 4.682000000000000028e+01 1.777680000000000007e+02 2.074984999999999673e+03
1.069999999999999979e-01 1.410465000000000191e-01 4.636995000000000289e+01 1.781829999999999927e+02 2.075274999999999636e+03
1.079999999999999988e-01 1.410645000000000093e-01 4.582614999999999839e+01 1.783735000000000070e+02 2.075480000000000018e+03
1.089999999999999997e-01 1.410750000000000060e-01 4.519764999999999588e+01 1.783589999999999804e+02 2.075609999999999673e+03
1.100000000000000006e-01 1.410799999999999832e-01 4.449474999999999625e+01 1.781620000000000061e+02 2.075675000000000182e+03
1.110000000000000014e-01 1.410790000000000100e-01 4.372865000000000180e+01 1.778069999999999879e+02 2.075670000000000073e+03
1.120000000000000023e-01 1.410730000000000040e-01 4.291129999999999711e+01 1.773199999999999932e+02 2.075614999999999782e+03
1.130000000000000032e-01 1.410629999999999939e-01 4.205474999999999852e+01 1.767284999999999968e+02 2.075510000000000218e+03
1.140000000000000041e-01 1.410489999999999799e-01 4.117074999999999818e+01 1.760575000000000045e+02 2.075364999999999782e+03
1.150000000000000050e-01 1.410325000000000051e-01 4.027039999999999509e+01 1.753310000000000173e+02 2.075190000000000055e+03
1.160000000000000059e-01 1.410144999999999871e-01 3.936404999999999887e+01 1.745709999999999980e+02 2.074989999999999782e+03
1.170000000000000068e-01 1.409945000000000226e-01 3.846045000000000158e+01 1.737950000000000159e+02 2.074775000000000091e+03
1.180000000000000077e-01 1.409735000000000016e-01 3.756719999999999970e+01 1.730174999999999841e+02 2.074545000000000073e+03
1.190000000000000085e-01 1.409524999999999806e-01 3.669015000000000271e+01 1.722489999999999952e+02 2.074310000000000400e+03
1.200000000000000094e-01 1.409310000000000007e-01 3.583355000000000246e+01 1.714965000000000259e+02 2.074070000000000164e+03
1.209999999999999964e-01 1.409090000000000065e-01 3.499984999999999502e+01 1.707620000000000005e+02 2.073829999999999927e+03
1.219999999999999973e-01 1.408880000000000132e-01 3.418994999999999607e+01 1.700439999999999827e+02 2.073590000000000146e+03
1.229999999999999982e-01 1.408665000000000056e-01 3.340305000000000035e+01 1.693379999999999939e+02 2.073360000000000127e+03
1.239999999999999991e-01 1.408455000000000124e-01 3.263709999999999667e+01 1.686374999999999886e+02 2.073125000000000000e+03
1.250000000000000000e-01 1.408245000000000191e-01 3.188889999999999958e+01 1.679314999999999998e+02 2.072880000000000109e+03
1.260000000000000009e-01 1.408030000000000115e-01 3.115429999999999922e+01 1.672094999999999914e+02 2.072644999999999982e+03
1.270000000000000018e-01 1.407799999999999885e-01 3.042849999999999966e+01 1.664594999999999914e+02 2.072394999999999982e+03
1.280000000000000027e-01 1.407569999999999932e-01 2.970625000000000071e+01 1.656680000000000064e+02 2.072135000000000218e+03
1.290000000000000036e-01 1.407324999999999826e-01 2.898245000000000005e+01 1.648234999999999957e+02 2.071864999999999782e+03
1.300000000000000044e-01 1.407065000000000121e-01 2.825215000000000032e+01 1.639155000000000086e+02 2.071574999999999818e+03
1.310000000000000053e-01 1.406784999999999841e-01 2.751089999999999947e+01 1.629334999999999809e+02 2.071269999999999982e+03
1.320000000000000062e-01 1.406485000000000096e-01 2.675515000000000043e+01 1.618720000000000141e+02 2.070934999999999945e+03
1.330000000000000071e-01 1.406160000000000188e-01 2.598219999999999885e+01 1.607255000000000109e+02 2.070579999999999927e+03
1.340000000000000080e-01 1.405814999999999981e-01 2.519064999999999799e+01 1.594939999999999998e+02 2.070194999999999709e+03
1.350000000000000089e-01 1.405440000000000023e-01 2.438029999999999831e+01 1.581800000000000068e+02 2.069789999999999964e+03
1.360000000000000098e-01 1.405045000000000044e-01 2.355230000000000246e+01 1.567875000000000227e+02 2.069355000000000018e+03
1.370000000000000107e-01 1.404624999999999901e-01 2.270909999999999940e+01 1.553265000000000100e+02 2.068894999999999982e+03
1.380000000000000115e-01 1.404190000000000160e-01 2.185464999999999947e+01 1.538084999999999809e+02 2.068414999999999964e+03
1.390000000000000124e-01 1.403734999999999844e-01 2.099374999999999858e+01 1.522470000000000141e+02 2.067914999999999964e+03
1.400000000000000133e-01 1.403265000000000207e-01 2.013224999999999909e+01 1.506595000000000084e+02 2.067404999999999745e+03
1.410000000000000142e-01 1.402785000000000004e-01 1.927669999999999817e+01 1.490629999999999882e+02 2.066885000000000218e+03
1.420000000000000151e-01 1.402305000000000079e-01 1.843404999999999916e+01 1.474759999999999991e+02 2.066359999999999673e+03
1.430000000000000160e-01 1.401830000000000020e-01 1.761135000000000161e+01 1.459164999999999850e+02 2.065835000000000036e+03
1.440000000000000169e-01 1.401359999999999828e-01 1.681550000000000011e+01 1.444019999999999868e+02 2.065319999999999709e+03
1.450000000000000178e-01 1.400899999999999923e-01 1.605290000000000106e+01 1.429479999999999791e+02 2.064809999999999945e+03
1.459999999999999909e-01 1.400454999999999894e-01 1.532929999999999993e+01 1.415685000000000002e+02 2.064324999999999818e+03
1.469999999999999918e-01 1.400035000000000029e-01 1.464949999999999974e+01 1.402740000000000009e+02 2.063855000000000018e+03
1.479999999999999927e-01 1.399639999999999773e-01 1.401719999999999899e+01 1.390724999999999909e+02 2.063420000000000073e+03
1.489999999999999936e-01 1.399265000000000092e-01 1.343510000000000026e+01 1.379694999999999823e+02 2.063000000000000000e+03
1.499999999999999944e-01 1.398915000000000020e-01 1.290465000000000018e+01 1.369679999999999893e+02 2.062619999999999891e+03
1.509999999999999953e-01 1.398594999999999977e-01 1.242634999999999934e+01 1.360670000000000073e+02 2.062264999999999873e+03
1.519999999999999962e-01 1.398305000000000242e-01 1.199954999999999927e+01 1.352640000000000100e+02 2.061944999999999709e+03
1.529999999999999971e-01 1.398050000000000126e-01 1.162279499999999999e+01 1.345545000000000186e+02 2.061654999999999745e+03
1.539999999999999980e-01 1.397809999999999886e-01 1.129373499999999986e+01 1.339329999999999927e+02 2.061390000000000327e+03
1.549999999999999989e-01 1.397605000000000097e-01 1.100962499999999977e+01 1.333915000000000077e+02 2.061159999999999854e+03
1.559999999999999998e-01 1.397419999999999773e-01 1.076698999999999984e+01 1.329230000000000018e+02 2.060949999999999818e+03
1.570000000000000007e-01 1.397260000000000169e-01 1.056212000000000018e+01 1.325180000000000007e+02 2.060769999999999982e+03
1.580000000000000016e-01 1.397114999999999885e-01 1.039114999999999966e+01 1.321694999999999993e+02 2.060610000000000127e+03
1.590000000000000024e-01 1.396989999999999899e-01 1.025000999999999962e+01 1.318684999999999832e+02 2.060470000000000255e+03
