# t [s], A [cm^2], U [cm/s], P [cPa], c [cm/s]
1.000000000000000021e-03 5.222915000000000196e-01 5.380449999999994959e-03 1.005485000000000042e+02 1.628319999999999936e+03
2.000000000000000042e-03 5.222824999999999829e-01 -3.360539999999999968e-03 1.005234999999999985e+02 1.628315000000000055e+03
3.000000000000000062e-03 5.223139999999999450e-01 6.054135000000000072e-02 1.005925000000000011e+02 1.628335000000000036e+03
4.000000000000000083e-03 5.223565000000000014e-01 1.551528500000000088e-01 1.007150499999999909e+02 1.628365000000000009e+03
5.000000000000000104e-03 5.223545000000000549e-01 1.664400000000000046e-01 1.007214999999999918e+02 1.628375000000000000e+03
6.000000000000000125e-03 5.223115000000000396e-01 9.184600000000001097e-02 1.005705000000000098e+02 1.628340000000000146e+03
7.000000000000000146e-03 5.222725000000000284e-01 2.021800000000001374e-02 1.003640000000000043e+02 1.628284999999999854e+03
8.000000000000000167e-03 5.222290000000000543e-01 -6.783000000000000140e-02 1.000989000000000004e+02 1.628224999999999909e+03
9.000000000000001055e-03 5.221525000000000194e-01 -2.392770000000000175e-01 9.969069999999999254e+01 1.628130000000000109e+03
1.000000000000000194e-02 5.220354999999999857e-01 -5.117899999999999672e-01 9.909190000000000964e+01 1.627990000000000009e+03
1.099999999999999936e-02 5.218694999999999862e-01 -8.991449999999998610e-01 9.825475000000000136e+01 1.627795000000000073e+03
1.200000000000000025e-02 5.216404999999999514e-01 -1.420484999999999776e+00 9.711854999999999905e+01 1.627519999999999982e+03
1.300000000000000114e-02 5.213550000000000129e-01 -2.049160000000000093e+00 9.567669999999999675e+01 1.627170000000000073e+03
1.400000000000000203e-02 5.210449999999999804e-01 -2.691230000000000011e+00 9.402115000000000578e+01 1.626759999999999991e+03
1.499999999999999944e-02 5.207545000000000091e-01 -3.224464499999999845e+00 9.230809999999999604e+01 1.626309999999999945e+03
1.600000000000000033e-02 5.205124999999999336e-01 -3.555176999999999587e+00 9.068639999999999191e+01 1.625875000000000000e+03
1.700000000000000122e-02 5.203234999999999388e-01 -3.649262750000000111e+00 8.923994999999999322e+01 1.625460000000000036e+03
1.800000000000000211e-02 5.201719999999999677e-01 -3.529859000000000080e+00 8.797300000000001319e+01 1.625079999999999927e+03
1.900000000000000300e-02 5.200310000000000210e-01 -3.254854000000000358e+00 8.682779999999999632e+01 1.624715000000000146e+03
2.000000000000000042e-02 5.198755000000000459e-01 -2.889543999999999890e+00 8.571819999999999595e+01 1.624355000000000018e+03
2.100000000000000130e-02 5.196895000000000264e-01 -2.484122500000000233e+00 8.456469999999998777e+01 1.623990000000000009e+03
2.200000000000000219e-02 5.194689999999999586e-01 -2.061300000000000132e+00 8.332024999999998727e+01 1.623605000000000018e+03
2.299999999999999961e-02 5.192225000000000312e-01 -1.615875000000000172e+00 8.198080000000000211e+01 1.623190000000000055e+03
2.400000000000000050e-02 5.189639999999999809e-01 -1.124870000000000037e+00 8.057835000000000036e+01 1.622764999999999873e+03
2.500000000000000139e-02 5.187089999999999756e-01 -5.635399999999997078e-01 7.916219999999999857e+01 1.622325000000000045e+03
2.600000000000000228e-02 5.184644999999999948e-01 7.939000000000007162e-02 7.777570000000000050e+01 1.621894999999999982e+03
2.700000000000000316e-02 5.182320000000000260e-01 7.923499999999998877e-01 7.643750000000000000e+01 1.621474999999999909e+03
2.800000000000000058e-02 5.180000000000000160e-01 1.539534999999999876e+00 7.513245000000000573e+01 1.621055000000000064e+03
2.900000000000000147e-02 5.177555000000000351e-01 2.266720000000000290e+00 7.381380000000000052e+01 1.620639999999999873e+03
3.000000000000000236e-02 5.174790000000000223e-01 2.912089999999999623e+00 7.241390000000001237e+01 1.620204999999999927e+03
3.099999999999999978e-02 5.171569999999999778e-01 3.419335000000000235e+00 7.086175000000000068e+01 1.619740000000000009e+03
3.200000000000000067e-02 5.167815000000000047e-01 3.749830000000000219e+00 6.910245000000000459e+01 1.619224999999999909e+03
3.300000000000000155e-02 5.163539999999999797e-01 3.890894999999999548e+00 6.711329999999999529e+01 1.618664999999999964e+03
3.400000000000000244e-02 5.158865000000000256e-01 3.857955000000000023e+00 6.491294999999999504e+01 1.618049999999999955e+03
3.500000000000000333e-02 5.153965000000000352e-01 3.690029999999999699e+00 6.256024999999999636e+01 1.617400000000000091e+03
3.600000000000000422e-02 5.149074999999999624e-01 3.440260000000000318e+00 6.014435000000000286e+01 1.616724999999999909e+03
3.700000000000000511e-02 5.144414999999999960e-01 3.165364999999999984e+00 5.776975000000000193e+01 1.616055000000000064e+03
3.799999999999999906e-02 5.140185000000000448e-01 2.916354999999999809e+00 5.554095000000000226e+01 1.615425000000000182e+03
3.899999999999999994e-02 5.136519999999999975e-01 2.732739999999999725e+00 5.354945000000000022e+01 1.614845000000000027e+03
4.000000000000000083e-02 5.133510000000000018e-01 2.640794999999999781e+00 5.186664999999999992e+01 1.614335000000000036e+03
4.100000000000000172e-02 5.131209999999999383e-01 2.654749999999999943e+00 5.054080000000000439e+01 1.613914999999999964e+03
4.200000000000000261e-02 5.129610000000000003e-01 2.780192500000000067e+00 4.959895000000000209e+01 1.613599999999999909e+03
4.300000000000000350e-02 5.128715000000000357e-01 3.018146499999999843e+00 4.905129999999999768e+01 1.613380000000000109e+03
4.400000000000000439e-02 5.128510000000000568e-01 3.368935000000000457e+00 4.889740000000000464e+01 1.613280000000000200e+03
4.499999999999999833e-02 5.128979999999999650e-01 3.834805000000000241e+00 4.913154999999999717e+01 1.613279999999999973e+03
4.599999999999999922e-02 5.130129999999999413e-01 4.420889999999999986e+00 4.974670000000000414e+01 1.613389999999999873e+03
4.700000000000000011e-02 5.131955000000000267e-01 5.134565000000000268e+00 5.073675000000000068e+01 1.613610000000000127e+03
4.800000000000000100e-02 5.134460000000000690e-01 5.983484999999999943e+00 5.209560000000000457e+01 1.613929999999999836e+03
4.900000000000000189e-02 5.137635000000000396e-01 6.973090000000000011e+00 5.381565000000000509e+01 1.614360000000000127e+03
5.000000000000000278e-02 5.141459999999999919e-01 8.104229999999999379e+00 5.588450000000000273e+01 1.614884999999999991e+03
5.100000000000000366e-02 5.145895000000000330e-01 9.371594999999999231e+00 5.828315000000000623e+01 1.615505000000000109e+03
5.200000000000000455e-02 5.150874999999999204e-01 1.076327000000000034e+01 6.098380000000000223e+01 1.616220000000000027e+03
5.300000000000000544e-02 5.156319999999999792e-01 1.226102999999999987e+01 6.395025000000000404e+01 1.617009999999999991e+03
5.399999999999999939e-02 5.162134999999999918e-01 1.384190500000000057e+01 6.713890000000000668e+01 1.617869999999999891e+03
5.500000000000000028e-02 5.168224999999999625e-01 1.548004500000000050e+01 7.050069999999999482e+01 1.618789999999999964e+03
5.600000000000000117e-02 5.174490000000000478e-01 1.714869000000000199e+01 7.398484999999999445e+01 1.619744999999999891e+03
5.700000000000000205e-02 5.180839999999999890e-01 1.882235000000000014e+01 7.754124999999999091e+01 1.620740000000000009e+03
5.800000000000000294e-02 5.187205000000000288e-01 2.047800000000000153e+01 8.112409999999999854e+01 1.621750000000000000e+03
5.900000000000000383e-02 5.193510000000000071e-01 2.209669999999999845e+01 8.469354999999998768e+01 1.622769999999999982e+03
6.000000000000000472e-02 5.199719999999999898e-01 2.366329999999999956e+01 8.821829999999999927e+01 1.623779999999999973e+03
6.099999999999999867e-02 5.205805000000000016e-01 2.516710000000000136e+01 9.167449999999999477e+01 1.624789999999999964e+03
6.199999999999999956e-02 5.211744999999999850e-01 2.660090000000000288e+01 9.504689999999999372e+01 1.625769999999999982e+03
6.300000000000000044e-02 5.217540000000000511e-01 2.796069999999999922e+01 9.832760000000000389e+01 1.626744999999999891e+03
6.400000000000000133e-02 5.223184999999999079e-01 2.924489999999999768e+01 1.015153999999999996e+02 1.627690000000000055e+03
6.500000000000000222e-02 5.228694999999999871e-01 3.045339999999999847e+01 1.046123000000000047e+02 1.628615000000000009e+03
6.600000000000000311e-02 5.234090000000000131e-01 3.158725000000000094e+01 1.076246999999999900e+02 1.629519999999999982e+03
6.700000000000000400e-02 5.239359999999999573e-01 3.264780000000000371e+01 1.105579999999999927e+02 1.630404999999999973e+03
6.800000000000000488e-02 5.244539999999999758e-01 3.363620000000000232e+01 1.134205000000000041e+02 1.631269999999999982e+03
6.900000000000000577e-02 5.249614999999999698e-01 3.455330000000000013e+01 1.162169999999999987e+02 1.632119999999999891e+03
7.000000000000000666e-02 5.254594999999999683e-01 3.539915000000000589e+01 1.189500000000000028e+02 1.632945000000000164e+03
7.100000000000000755e-02 5.259469999999999423e-01 3.617275000000000063e+01 1.216204999999999927e+02 1.633759999999999991e+03
7.200000000000000844e-02 5.264229999999999743e-01 3.687250000000000227e+01 1.242245000000000061e+02 1.634550000000000182e+03
7.300000000000000933e-02 5.268869999999999942e-01 3.749584999999999724e+01 1.267560000000000002e+02 1.635325000000000045e+03
7.399999999999999634e-02 5.273354999999999571e-01 3.803985000000000127e+01 1.292074999999999818e+02 1.636079999999999927e+03
7.499999999999999722e-02 5.277674999999999450e-01 3.850144999999999840e+01 1.315660000000000025e+02 1.636809999999999945e+03
7.599999999999999811e-02 5.281795000000000240e-01 3.887754999999999939e+01 1.338215000000000146e+02 1.637505000000000109e+03
7.699999999999999900e-02 5.285705000000000542e-01 3.916575000000000273e+01 1.359604999999999961e+02 1.638170000000000073e+03
7.799999999999999989e-02 5.289380000000000193e-01 3.936440000000000339e+01 1.379714999999999918e+02 1.638799999999999955e+03
7.900000000000000078e-02 5.292799999999999727e-01 3.947244999999999493e+01 1.398444999999999823e+02 1.639400000000000091e+03
8.000000000000000167e-02 5.295954999999999968e-01 3.949009999999999820e+01 1.415704999999999814e+02 1.639945000000000164e+03
8.100000000000000255e-02 5.298840000000000217e-01 3.941835000000000377e+01 1.431424999999999841e+02 1.640454999999999927e+03
8.200000000000000344e-02 5.301434999999999897e-01 3.925914999999999822e+01 1.445564999999999998e+02 1.640920000000000073e+03
8.300000000000000433e-02 5.303750000000000409e-01 3.901514999999999844e+01 1.458100000000000023e+02 1.641335000000000036e+03
8.400000000000000522e-02 5.305779999999999941e-01 3.868979999999999819e+01 1.469025000000000034e+02 1.641704999999999927e+03
8.500000000000000611e-02 5.307520000000000016e-01 3.828730000000000189e+01 1.478360000000000127e+02 1.642029999999999973e+03
8.600000000000000699e-02 5.308994999999999687e-01 3.781235000000000213e+01 1.486134999999999877e+02 1.642299999999999955e+03
8.700000000000000788e-02 5.310200000000000475e-01 3.727065000000000339e+01 1.492415000000000020e+02 1.642535000000000082e+03
8.800000000000000877e-02 5.311154999999999626e-01 3.666835000000000377e+01 1.497264999999999873e+02 1.642720000000000027e+03
8.899999999999999578e-02 5.311879999999999935e-01 3.601250000000000284e+01 1.500780000000000030e+02 1.642869999999999891e+03
8.999999999999999667e-02 5.312385000000000579e-01 3.531080000000000041e+01 1.503060000000000116e+02 1.642974999999999909e+03
9.099999999999999756e-02 5.312699999999999090e-01 3.457155000000000200e+01 1.504234999999999900e+02 1.643049999999999955e+03
9.199999999999999845e-02 5.312845000000000484e-01 3.380335000000000178e+01 1.504440000000000168e+02 1.643090000000000146e+03
9.299999999999999933e-02 5.312850000000000072e-01 3.301520000000000010e+01 1.503810000000000002e+02 1.643099999999999909e+03
9.400000000000000022e-02 5.312734999999999541e-01 3.221580000000000155e+01 1.502489999999999952e+02 1.643090000000000146e+03
9.500000000000000111e-02 5.312529999999999752e-01 3.141345000000000098e+01 1.500635000000000048e+02 1.643059999999999945e+03
9.600000000000000200e-02 5.312255000000000171e-01 3.061584999999999823e+01 1.498369999999999891e+02 1.643009999999999991e+03
9.700000000000000289e-02 5.311940000000000550e-01 2.982949999999999946e+01 1.495824999999999818e+02 1.642954999999999927e+03
9.800000000000000377e-02 5.311584999999999779e-01 2.905969999999999942e+01 1.493100000000000023e+02 1.642884999999999991e+03
9.900000000000000466e-02 5.311215000000000241e-01 2.831024999999999991e+01 1.490285000000000082e+02 1.642809999999999945e+03
1.000000000000000056e-01 5.310829999999999718e-01 2.758344999999999914e+01 1.487425000000000068e+02 1.642735000000000127e+03
1.010000000000000064e-01 5.310430000000000428e-01 2.688004999999999711e+01 1.484565000000000055e+02 1.642654999999999973e+03
1.020000000000000073e-01 5.310024999999999329e-01 2.619939999999999714e+01 1.481700000000000159e+02 1.642569999999999936e+03
1.030000000000000082e-01 5.309599999999999875e-01 2.553965000000000174e+01 1.478820000000000050e+02 1.642484999999999900e+03
1.040000000000000091e-01 5.309150000000000258e-01 2.489789999999999992e+01 1.475880000000000223e+02 1.642394999999999982e+03
1.050000000000000100e-01 5.308665000000000189e-01 2.427045000000000030e+01 1.472835000000000036e+02 1.642304999999999836e+03
1.059999999999999970e-01 5.308135000000000492e-01 2.365310000000000201e+01 1.469625000000000057e+02 1.642210000000000036e+03
1.069999999999999979e-01 5.307534999999999892e-01 2.304144999999999754e+01 1.466165000000000020e+02 1.642110000000000127e+03
1.079999999999999988e-01 5.306870000000000198e-01 2.243104999999999905e+01 1.462415000000000020e+02 1.641994999999999891e+03
1.089999999999999997e-01 5.306125000000000425e-01 2.181775000000000020e+01 1.458285000000000196e+02 1.641875000000000000e+03
1.100000000000000006e-01 5.305290000000000283e-01 2.119769999999999754e+01 1.453734999999999786e+02 1.641744999999999891e+03
1.110000000000000014e-01 5.304360000000000186e-01 2.056775000000000020e+01 1.448720000000000141e+02 1.641599999999999909e+03
1.120000000000000023e-01 5.303329999999999433e-01 1.992555000000000121e+01 1.443199999999999932e+02 1.641444999999999936e+03
1.130000000000000032e-01 5.302200000000000246e-01 1.926955000000000240e+01 1.437175000000000011e+02 1.641275000000000091e+03
1.140000000000000041e-01 5.300974999999999993e-01 1.859914999999999807e+01 1.430645000000000095e+02 1.641085000000000036e+03
1.150000000000000050e-01 5.299665000000000070e-01 1.791485000000000127e+01 1.423629999999999995e+02 1.640884999999999991e+03
1.160000000000000059e-01 5.298275000000000068e-01 1.721809999999999974e+01 1.416184999999999832e+02 1.640674999999999955e+03
1.170000000000000068e-01 5.296819999999999862e-01 1.651125000000000043e+01 1.408360000000000127e+02 1.640454999999999927e+03
1.180000000000000077e-01 5.295315000000000438e-01 1.579785000000000039e+01 1.400229999999999961e+02 1.640220000000000027e+03
1.190000000000000085e-01 5.293784999999999741e-01 1.508184999999999931e+01 1.391895000000000095e+02 1.639980000000000018e+03
1.200000000000000094e-01 5.292234999999999578e-01 1.436807500000000104e+01 1.383449999999999989e+02 1.639735000000000127e+03
1.209999999999999964e-01 5.290700000000000403e-01 1.366171500000000094e+01 1.374995000000000118e+02 1.639490000000000009e+03
1.219999999999999973e-01 5.289190000000000280e-01 1.296827000000000041e+01 1.366650000000000205e+02 1.639250000000000000e+03
1.229999999999999982e-01 5.287729999999999375e-01 1.229318999999999917e+01 1.358520000000000039e+02 1.639010000000000218e+03
1.239999999999999991e-01 5.286340000000000483e-01 1.164178000000000068e+01 1.350710000000000264e+02 1.638775000000000091e+03
1.250000000000000000e-01 5.285029999999999450e-01 1.101906500000000122e+01 1.343315000000000055e+02 1.638554999999999836e+03
1.260000000000000009e-01 5.283814999999999484e-01 1.042941000000000074e+01 1.336424999999999841e+02 1.638345000000000027e+03
1.270000000000000018e-01 5.282709999999999351e-01 9.876480000000000814e+00 1.330095000000000027e+02 1.638150000000000091e+03
1.280000000000000027e-01 5.281725000000000447e-01 9.363115000000000521e+00 1.324389999999999930e+02 1.637970000000000027e+03
1.290000000000000036e-01 5.280860000000000554e-01 8.891294999999999504e+00 1.319329999999999927e+02 1.637809999999999945e+03
1.300000000000000044e-01 5.280110000000000081e-01 8.461919999999999220e+00 1.314945000000000164e+02 1.637664999999999964e+03
1.310000000000000053e-01 5.279484999999999317e-01 8.075155000000000527e+00 1.311220000000000141e+02 1.637539999999999964e+03
1.320000000000000062e-01 5.278975000000000195e-01 7.730045000000000499e+00 1.308125000000000000e+02 1.637434999999999945e+03
1.330000000000000071e-01 5.278559999999999919e-01 7.425019999999999953e+00 1.305639999999999930e+02 1.637345000000000027e+03
1.340000000000000080e-01 5.278245000000000298e-01 7.157764999999999489e+00 1.303695000000000164e+02 1.637275000000000091e+03
1.350000000000000089e-01 5.278009999999999646e-01 6.925444999999999851e+00 1.302239999999999895e+02 1.637214999999999918e+03
1.360000000000000098e-01 5.277840000000000309e-01 6.724849999999999994e+00 1.301204999999999927e+02 1.637170000000000073e+03
1.370000000000000107e-01 5.277730000000000476e-01 6.552550000000000097e+00 1.300520000000000209e+02 1.637134999999999991e+03
1.380000000000000115e-01 5.277665000000000273e-01 6.405015000000000569e+00 1.300115000000000123e+02 1.637110000000000127e+03
1.390000000000000124e-01 5.277629999999999821e-01 6.278750000000000497e+00 1.299915000000000020e+02 1.637095000000000027e+03
1.400000000000000133e-01 5.277614999999999945e-01 6.170379999999999754e+00 1.299864999999999782e+02 1.637079999999999927e+03
1.410000000000000142e-01 5.277614999999999945e-01 6.076719999999999899e+00 1.299904999999999973e+02 1.637074999999999818e+03
1.420000000000000151e-01 5.277614999999999945e-01 5.994844999999999757e+00 1.299985000000000070e+02 1.637070000000000164e+03
1.430000000000000160e-01 5.277614999999999945e-01 5.922080000000000233e+00 1.300054999999999836e+02 1.637065000000000055e+03
1.440000000000000169e-01 5.277604999999999658e-01 5.856049999999999756e+00 1.300099999999999909e+02 1.637059999999999945e+03
1.450000000000000178e-01 5.277580000000000604e-01 5.794669999999999987e+00 1.300074999999999932e+02 1.637055000000000064e+03
1.459999999999999909e-01 5.277545000000000153e-01 5.736124999999999474e+00 1.299964999999999975e+02 1.637045000000000073e+03
1.469999999999999918e-01 5.277490000000000236e-01 5.678910000000000124e+00 1.299759999999999991e+02 1.637039999999999964e+03
1.479999999999999927e-01 5.277414999999999745e-01 5.621780000000000221e+00 1.299445000000000050e+02 1.637030000000000200e+03
1.489999999999999936e-01 5.277324999999999378e-01 5.563794999999999824e+00 1.299014999999999986e+02 1.637019999999999982e+03
1.499999999999999944e-01 5.277209999999999956e-01 5.504265000000000185e+00 1.298485000000000014e+02 1.637000000000000000e+03
1.509999999999999953e-01 5.277079999999999549e-01 5.442785000000000650e+00 1.297849999999999966e+02 1.636980000000000018e+03
1.519999999999999962e-01 5.276935000000000375e-01 5.379179999999999851e+00 1.297115000000000009e+02 1.636960000000000036e+03
1.529999999999999971e-01 5.276775000000000215e-01 5.313534999999999897e+00 1.296290000000000191e+02 1.636934999999999945e+03
1.539999999999999980e-01 5.276604999999999768e-01 5.246119999999999450e+00 1.295395000000000039e+02 1.636914999999999964e+03
1.549999999999999989e-01 5.276425000000000143e-01 5.177364999999999995e+00 1.294440000000000168e+02 1.636884999999999991e+03
1.559999999999999998e-01 5.276240000000000929e-01 5.107845000000000191e+00 1.293439999999999941e+02 1.636860000000000127e+03
1.570000000000000007e-01 5.276054999999999495e-01 5.038179999999999659e+00 1.292409999999999854e+02 1.636829999999999927e+03
1.580000000000000016e-01 5.275859999999999994e-01 4.969030000000000058e+00 1.291365000000000123e+02 1.636799999999999955e+03
1.590000000000000024e-01 5.275674999999999670e-01 4.901030000000000442e+00 1.290314999999999941e+02 1.636769999999999982e+03
