# t [s], A [cm^2], U [cm/s], P [cPa], c [cm/s]
1.000000000000000021e-03 2.086050000000000126e-01 1.565175000000000038e-01 1.034484999999999957e+02 2.165744999999999891e+03
2.000000000000000042e-03 2.085584999999999800e-01 1.532267000000000046e+00 1.004649499999999875e+02 2.165364999999999782e+03
3.000000000000000062e-03 2.084214999999999818e-01 3.323696499999999610e+00 9.611469999999999914e+01 2.164284999999999854e+03
4.000000000000000083e-03 2.082260000000000222e-01 5.374215500000000034e+00 9.106329999999999814e+01 2.162789999999999964e+03
5.000000000000000104e-03 2.080104999999999871e-01 7.612239999999999895e+00 8.623894999999998845e+01 2.161154999999999745e+03
6.000000000000000125e-03 2.078004999999999991e-01 9.888465000000000060e+00 8.213195000000000334e+01 2.159574999999999818e+03
7.000000000000000146e-03 2.076040000000000108e-01 1.197715999999999958e+01 7.865630000000000166e+01 2.158125000000000000e+03
8.000000000000000167e-03 2.074229999999999963e-01 1.373961000000000077e+01 7.556154999999999688e+01 2.156814999999999600e+03
9.000000000000001055e-03 2.072630000000000028e-01 1.518374999999999986e+01 7.284714999999999918e+01 2.155685000000000400e+03
1.000000000000000194e-02 2.071290000000000076e-01 1.635095000000000098e+01 7.061374999999999602e+01 2.154739999999999782e+03
1.099999999999999936e-02 2.070204999999999962e-01 1.726780000000000115e+01 6.888264999999999816e+01 2.153989999999999782e+03
1.200000000000000025e-02 2.069369999999999821e-01 1.795690000000000097e+01 6.761565000000000225e+01 2.153420000000000073e+03
1.300000000000000114e-02 2.068745000000000167e-01 1.842649999999999721e+01 6.671684999999999377e+01 2.153000000000000000e+03
1.400000000000000203e-02 2.068265000000000242e-01 1.867660000000000053e+01 6.603369999999999607e+01 2.152689999999999600e+03
1.499999999999999944e-02 2.067895000000000150e-01 1.874705000000000155e+01 6.547839999999999350e+01 2.152460000000000036e+03
1.600000000000000033e-02 2.067654999999999910e-01 1.875220000000000198e+01 6.517490000000000805e+01 2.152320000000000164e+03
1.700000000000000122e-02 2.067634999999999890e-01 1.884904999999999831e+01 6.544505000000000905e+01 2.152319999999999709e+03
1.800000000000000211e-02 2.067930000000000046e-01 1.915874999999999773e+01 6.661334999999999695e+01 2.152534999999999854e+03
1.900000000000000300e-02 2.068585000000000007e-01 1.970139999999999958e+01 6.877694999999999936e+01 2.152994999999999891e+03
2.000000000000000042e-02 2.069544999999999857e-01 2.038490000000000180e+01 7.169800000000000750e+01 2.153670000000000073e+03
2.100000000000000130e-02 2.070670000000000011e-01 2.104735000000000156e+01 7.487160000000000082e+01 2.154474999999999909e+03
2.200000000000000219e-02 2.071774999999999867e-01 2.152479999999999905e+01 7.771264999999999645e+01 2.155279999999999745e+03
2.299999999999999961e-02 2.072700000000000098e-01 2.171030000000000015e+01 7.976179999999999382e+01 2.155960000000000036e+03
2.400000000000000050e-02 2.073345000000000049e-01 2.158305000000000007e+01 8.082139999999999702e+01 2.156449999999999818e+03
2.500000000000000139e-02 2.073685000000000112e-01 2.120150000000000290e+01 8.098144999999999527e+01 2.156724999999999909e+03
2.600000000000000228e-02 2.073780000000000068e-01 2.066945000000000121e+01 8.053999999999999204e+01 2.156815000000000055e+03
2.700000000000000316e-02 2.073730000000000018e-01 2.009134999999999849e+01 7.986525000000000318e+01 2.156789999999999964e+03
2.800000000000000058e-02 2.073625000000000052e-01 1.953575000000000017e+01 7.925600000000000023e+01 2.156724999999999909e+03
2.900000000000000147e-02 2.073534999999999962e-01 1.901739999999999853e+01 7.885094999999999743e+01 2.156659999999999854e+03
3.000000000000000236e-02 2.073460000000000025e-01 1.850155000000000172e+01 7.860929999999999040e+01 2.156605000000000018e+03
3.099999999999999978e-02 2.073379999999999945e-01 1.792589999999999861e+01 7.835784999999999911e+01 2.156545000000000073e+03
3.200000000000000067e-02 2.073229999999999795e-01 1.723025000000000162e+01 7.788075000000000614e+01 2.156440000000000055e+03
3.300000000000000155e-02 2.072960000000000080e-01 1.638520000000000110e+01 7.701834999999999809e+01 2.156255000000000109e+03
3.400000000000000244e-02 2.072549999999999948e-01 1.540974999999999895e+01 7.574379999999999313e+01 2.155980000000000018e+03
3.500000000000000333e-02 2.072025000000000117e-01 1.437310000000000088e+01 7.419280000000000541e+01 2.155614999999999782e+03
3.600000000000000422e-02 2.071459999999999968e-01 1.337889999999999979e+01 7.263615000000000066e+01 2.155215000000000146e+03
3.700000000000000511e-02 2.070960000000000023e-01 1.253860000000000063e+01 7.140625000000000000e+01 2.154855000000000018e+03
3.799999999999999906e-02 2.070629999999999971e-01 1.194184999999999874e+01 7.080259999999999820e+01 2.154599999999999909e+03
3.899999999999999994e-02 2.070545000000000024e-01 1.163405000000000022e+01 7.100784999999999059e+01 2.154524999999999636e+03
4.000000000000000083e-02 2.070739999999999803e-01 1.160699999999999932e+01 7.204085000000000605e+01 2.154639999999999873e+03
4.100000000000000172e-02 2.071199999999999986e-01 1.180325000000000024e+01 7.375430000000000064e+01 2.154949999999999818e+03
4.200000000000000261e-02 2.071854999999999947e-01 1.213114999999999988e+01 7.587350000000000705e+01 2.155404999999999745e+03
4.300000000000000350e-02 2.072610000000000008e-01 1.248499999999999943e+01 7.805955000000000155e+01 2.155929999999999836e+03
4.400000000000000439e-02 2.073345000000000049e-01 1.276490000000000080e+01 7.997830000000000439e+01 2.156454999999999927e+03
4.499999999999999833e-02 2.073960000000000248e-01 1.289205000000000112e+01 8.135855000000000814e+01 2.156900000000000091e+03
4.599999999999999922e-02 2.074370000000000103e-01 1.281690000000000040e+01 8.202889999999999304e+01 2.157204999999999927e+03
4.700000000000000011e-02 2.074529999999999985e-01 1.252050000000000018e+01 8.192810000000000059e+01 2.157329999999999927e+03
4.800000000000000100e-02 2.074425000000000019e-01 1.200949999999999918e+01 8.109309999999999263e+01 2.157275000000000091e+03
4.900000000000000189e-02 2.074070000000000080e-01 1.130827999999999989e+01 7.963025000000000375e+01 2.157029999999999745e+03
5.000000000000000278e-02 2.073500000000000065e-01 1.044951000000000008e+01 7.768110000000000070e+01 2.156635000000000218e+03
5.100000000000000366e-02 2.072755000000000014e-01 9.467275000000000773e+00 7.539125000000001364e+01 2.156114999999999782e+03
5.200000000000000455e-02 2.071884999999999977e-01 8.392344999999998834e+00 7.288810000000000855e+01 2.155494999999999891e+03
5.300000000000000544e-02 2.070925000000000127e-01 7.251450000000000173e+00 7.027205000000000723e+01 2.154809999999999945e+03
5.399999999999999939e-02 2.069910000000000083e-01 6.068475000000000286e+00 6.761780000000000257e+01 2.154090000000000146e+03
5.500000000000000028e-02 2.068869999999999876e-01 4.867234999999999978e+00 6.498380000000000223e+01 2.153349999999999909e+03
5.600000000000000117e-02 2.067835000000000090e-01 3.674630499999999689e+00 6.242464999999999975e+01 2.152605000000000018e+03
5.700000000000000205e-02 2.066824999999999912e-01 2.522616500000000261e+00 6.000169999999999959e+01 2.151880000000000109e+03
5.800000000000000294e-02 2.065869999999999929e-01 1.448780500000000027e+00 5.779019999999999868e+01 2.151195000000000164e+03
5.900000000000000383e-02 2.065015000000000045e-01 4.953000000000000735e-01 5.587984999999999758e+01 2.150574999999999818e+03
6.000000000000000472e-02 2.064280000000000004e-01 -2.936300000000000576e-01 5.437049999999999983e+01 2.150039999999999964e+03
6.099999999999999867e-02 2.063709999999999989e-01 -8.751759999999999540e-01 5.336360000000000525e+01 2.149619999999999891e+03
6.199999999999999956e-02 2.063355000000000050e-01 -1.211607000000000101e+00 5.295144999999999413e+01 2.149350000000000364e+03
6.300000000000000044e-02 2.063234999999999930e-01 -1.273569999999999869e+00 5.320674999999999955e+01 2.149239999999999782e+03
6.400000000000000133e-02 2.063379999999999936e-01 -1.042544499999999985e+00 5.417494999999999550e+01 2.149319999999999709e+03
6.500000000000000222e-02 2.063800000000000079e-01 -5.122225000000000250e-01 5.586884999999999479e+01 2.149595000000000255e+03
6.600000000000000311e-02 2.064495000000000080e-01 3.112849999999999229e-01 5.826784999999999570e+01 2.150070000000000164e+03
6.700000000000000400e-02 2.065464999999999940e-01 1.410264999999999880e+00 6.131995000000000573e+01 2.150739999999999782e+03
6.800000000000000488e-02 2.066680000000000184e-01 2.756999500000000047e+00 6.494705000000000439e+01 2.151590000000000146e+03
6.900000000000000577e-02 2.068119999999999958e-01 4.315920499999999826e+00 6.905134999999999934e+01 2.152605000000000018e+03
7.000000000000000666e-02 2.069745000000000057e-01 6.046135000000000481e+00 7.352359999999998763e+01 2.153744999999999891e+03
7.100000000000000755e-02 2.071505000000000152e-01 7.904044999999999987e+00 7.825100000000000477e+01 2.155000000000000000e+03
7.200000000000000844e-02 2.073369999999999935e-01 9.846000000000000085e+00 8.312479999999999336e+01 2.156329999999999927e+03
7.300000000000000933e-02 2.075289999999999913e-01 1.183064500000000052e+01 8.804710000000000036e+01 2.157704999999999927e+03
7.399999999999999634e-02 2.077244999999999786e-01 1.382103999999999999e+01 9.293649999999999523e+01 2.159109999999999673e+03
7.499999999999999722e-02 2.079190000000000205e-01 1.578600000000000136e+01 9.773069999999999879e+01 2.160515000000000327e+03
7.599999999999999811e-02 2.081115000000000048e-01 1.770110000000000028e+01 1.023903499999999980e+02 2.161909999999999854e+03
7.699999999999999900e-02 2.082994999999999985e-01 1.954864999999999853e+01 1.068940499999999929e+02 2.163275000000000091e+03
7.799999999999999989e-02 2.084820000000000007e-01 2.131714999999999804e+01 1.112409999999999997e+02 2.164610000000000127e+03
7.900000000000000078e-02 2.086604999999999988e-01 2.300059999999999860e+01 1.154420000000000073e+02 2.165909999999999854e+03
8.000000000000000167e-02 2.088339999999999919e-01 2.459684999999999988e+01 1.195169999999999959e+02 2.167179999999999836e+03
8.100000000000000255e-02 2.090029999999999943e-01 2.610614999999999952e+01 1.234895000000000067e+02 2.168425000000000182e+03
8.200000000000000344e-02 2.091689999999999938e-01 2.753020000000000067e+01 1.273799999999999955e+02 2.169644999999999982e+03
8.300000000000000433e-02 2.093320000000000181e-01 2.887075000000000102e+01 1.312059999999999889e+02 2.170840000000000146e+03
8.400000000000000522e-02 2.094924999999999982e-01 3.012884999999999991e+01 1.349770000000000039e+02 2.172025000000000091e+03
8.500000000000000611e-02 2.096510000000000040e-01 3.130445000000000277e+01 1.386929999999999836e+02 2.173190000000000055e+03
8.600000000000000699e-02 2.098065000000000069e-01 3.239654999999999774e+01 1.423489999999999895e+02 2.174340000000000146e+03
8.700000000000000788e-02 2.099599999999999800e-01 3.340295000000000414e+01 1.459309999999999832e+02 2.175470000000000255e+03
8.800000000000000877e-02 2.101095000000000046e-01 3.432039999999999935e+01 1.494209999999999923e+02 2.176579999999999927e+03
8.899999999999999578e-02 2.102559999999999985e-01 3.514504999999999768e+01 1.527980000000000018e+02 2.177664999999999964e+03
8.999999999999999667e-02 2.103970000000000007e-01 3.587255000000000393e+01 1.560394999999999754e+02 2.178710000000000036e+03
9.099999999999999756e-02 2.105319999999999969e-01 3.649814999999999543e+01 1.591204999999999927e+02 2.179715000000000146e+03
9.199999999999999845e-02 2.106609999999999872e-01 3.701699999999999591e+01 1.620180000000000007e+02 2.180670000000000073e+03
9.299999999999999933e-02 2.107819999999999971e-01 3.742399999999999949e+01 1.647094999999999914e+02 2.181579999999999927e+03
9.400000000000000022e-02 2.108949999999999991e-01 3.771450000000000102e+01 1.671725000000000136e+02 2.182414999999999964e+03
9.500000000000000111e-02 2.109984999999999777e-01 3.788394999999999868e+01 1.693870000000000005e+02 2.183190000000000055e+03
9.600000000000000200e-02 2.110914999999999875e-01 3.792875000000000085e+01 1.713369999999999891e+02 2.183890000000000327e+03
9.700000000000000289e-02 2.111740000000000006e-01 3.784624999999999773e+01 1.730070000000000050e+02 2.184510000000000218e+03
9.800000000000000377e-02 2.112455000000000027e-01 3.763540000000000418e+01 1.743870000000000005e+02 2.185050000000000182e+03
9.900000000000000466e-02 2.113045000000000062e-01 3.729724999999999824e+01 1.754735000000000014e+02 2.185500000000000000e+03
1.000000000000000056e-01 2.113524999999999987e-01 3.683494999999999919e+01 1.762680000000000007e+02 2.185864999999999782e+03
1.010000000000000064e-01 2.113879999999999926e-01 3.625430000000000064e+01 1.767789999999999964e+02 2.186144999999999982e+03
1.020000000000000073e-01 2.114125000000000032e-01 3.556360000000000099e+01 1.770230000000000246e+02 2.186335000000000036e+03
1.030000000000000082e-01 2.114265000000000172e-01 3.477360000000000184e+01 1.770204999999999984e+02 2.186454999999999927e+03
1.040000000000000091e-01 2.114310000000000078e-01 3.389699999999999847e+01 1.768009999999999877e+02 2.186494999999999891e+03
1.050000000000000100e-01 2.114264999999999894e-01 3.294845000000000113e+01 1.763959999999999866e+02 2.186474999999999909e+03
1.059999999999999970e-01 2.114139999999999908e-01 3.194324999999999903e+01 1.758394999999999868e+02 2.186389999999999873e+03
1.069999999999999979e-01 2.113964999999999872e-01 3.089744999999999919e+01 1.751675000000000182e+02 2.186264999999999873e+03
1.079999999999999988e-01 2.113734999999999919e-01 2.982679999999999865e+01 1.744145000000000039e+02 2.186100000000000364e+03
1.089999999999999997e-01 2.113470000000000071e-01 2.874624999999999986e+01 1.736129999999999995e+02 2.185909999999999854e+03
1.100000000000000006e-01 2.113180000000000058e-01 2.766969999999999885e+01 1.727914999999999850e+02 2.185704999999999927e+03
1.110000000000000014e-01 2.112884999999999902e-01 2.660914999999999964e+01 1.719739999999999895e+02 2.185484999999999673e+03
1.120000000000000023e-01 2.112580000000000013e-01 2.557469999999999999e+01 1.711800000000000068e+02 2.185260000000000218e+03
1.130000000000000032e-01 2.112284999999999857e-01 2.457414999999999949e+01 1.704215000000000089e+02 2.185039999999999964e+03
1.140000000000000041e-01 2.111999999999999988e-01 2.361294999999999789e+01 1.697065000000000055e+02 2.184824999999999818e+03
1.150000000000000050e-01 2.111719999999999986e-01 2.269395000000000095e+01 1.690364999999999895e+02 2.184614999999999782e+03
1.160000000000000059e-01 2.111460000000000004e-01 2.181770000000000209e+01 1.684074999999999989e+02 2.184414999999999964e+03
1.170000000000000068e-01 2.111204999999999887e-01 2.098250000000000171e+01 1.678104999999999905e+02 2.184230000000000018e+03
1.180000000000000077e-01 2.110965000000000202e-01 2.018444999999999823e+01 1.672325000000000159e+02 2.184039999999999964e+03
1.190000000000000085e-01 2.110719999999999819e-01 1.941819999999999879e+01 1.666569999999999823e+02 2.183859999999999673e+03
1.200000000000000094e-01 2.110480000000000134e-01 1.867699999999999960e+01 1.660654999999999859e+02 2.183680000000000291e+03
1.209999999999999964e-01 2.110225000000000017e-01 1.795320000000000249e+01 1.654375000000000000e+02 2.183485000000000127e+03
1.219999999999999973e-01 2.109955000000000025e-01 1.723904999999999887e+01 1.647549999999999955e+02 2.183284999999999854e+03
1.229999999999999982e-01 2.109659999999999869e-01 1.652669999999999817e+01 1.639979999999999905e+02 2.183065000000000055e+03
1.239999999999999991e-01 2.109334999999999960e-01 1.580909999999999904e+01 1.631519999999999868e+02 2.182819999999999709e+03
1.250000000000000000e-01 2.108975000000000155e-01 1.508030000000000115e+01 1.622044999999999959e+02 2.182555000000000291e+03
1.260000000000000009e-01 2.108575000000000033e-01 1.433575000000000088e+01 1.611479999999999961e+02 2.182260000000000218e+03
1.270000000000000018e-01 2.108134999999999870e-01 1.357270000000000110e+01 1.599784999999999968e+02 2.181934999999999945e+03
1.280000000000000027e-01 2.107644999999999935e-01 1.279054999999999964e+01 1.587004999999999768e+02 2.181579999999999927e+03
1.290000000000000036e-01 2.107114999999999960e-01 1.199061999999999983e+01 1.573199999999999932e+02 2.181189999999999600e+03
1.300000000000000044e-01 2.106545000000000223e-01 1.117644500000000107e+01 1.558524999999999920e+02 2.180769999999999982e+03
1.310000000000000053e-01 2.105945000000000178e-01 1.035356499999999969e+01 1.543145000000000095e+02 2.180329999999999927e+03
1.320000000000000062e-01 2.105319999999999969e-01 9.529159999999999187e+00 1.527295000000000016e+02 2.179869999999999891e+03
1.330000000000000071e-01 2.104679999999999884e-01 8.711869999999999337e+00 1.511225000000000023e+02 2.179399999999999636e+03
1.340000000000000080e-01 2.104024999999999923e-01 7.911195000000001087e+00 1.495199999999999818e+02 2.178920000000000073e+03
1.350000000000000089e-01 2.103379999999999972e-01 7.137030000000000207e+00 1.479499999999999886e+02 2.178444999999999709e+03
1.360000000000000098e-01 2.102745000000000031e-01 6.399245000000000516e+00 1.464390000000000214e+02 2.177980000000000018e+03
1.370000000000000107e-01 2.102134999999999976e-01 5.707040000000000113e+00 1.450099999999999909e+02 2.177524999999999636e+03
1.380000000000000115e-01 2.101560000000000095e-01 5.068564999999999543e+00 1.436845000000000141e+02 2.177099999999999909e+03
1.390000000000000124e-01 2.101024999999999976e-01 4.490540000000000198e+00 1.424789999999999850e+02 2.176704999999999927e+03
1.400000000000000133e-01 2.100535000000000041e-01 3.977964999999999751e+00 1.414039999999999964e+02 2.176335000000000036e+03
1.410000000000000142e-01 2.100095000000000156e-01 3.533970000000000056e+00 1.404660000000000082e+02 2.176010000000000218e+03
1.420000000000000151e-01 2.099705000000000044e-01 3.159785000000000288e+00 1.396670000000000016e+02 2.175715000000000146e+03
1.430000000000000160e-01 2.099369999999999847e-01 2.854764999999999997e+00 1.390014999999999930e+02 2.175465000000000146e+03
1.440000000000000169e-01 2.099090000000000122e-01 2.616565000000000030e+00 1.384644999999999868e+02 2.175250000000000000e+03
1.450000000000000178e-01 2.098855000000000026e-01 2.441314999999999902e+00 1.380434999999999945e+02 2.175070000000000164e+03
1.459999999999999909e-01 2.098665000000000114e-01 2.323900000000000077e+00 1.377259999999999991e+02 2.174925000000000182e+03
1.469999999999999918e-01 2.098514999999999964e-01 2.258220000000000116e+00 1.374964999999999975e+02 2.174809999999999945e+03
1.479999999999999927e-01 2.098400000000000265e-01 2.237499999999999822e+00 1.373394999999999868e+02 2.174719999999999800e+03
1.489999999999999936e-01 2.098315000000000041e-01 2.254545000000000243e+00 1.372384999999999877e+02 2.174654999999999745e+03
1.499999999999999944e-01 2.098249999999999837e-01 2.302005000000000301e+00 1.371775000000000091e+02 2.174599999999999909e+03
1.509999999999999953e-01 2.098204999999999931e-01 2.372644999999999893e+00 1.371419999999999959e+02 2.174559999999999945e+03
1.519999999999999962e-01 2.098169999999999757e-01 2.459505000000000052e+00 1.371185000000000116e+02 2.174534999999999854e+03
1.529999999999999971e-01 2.098140000000000005e-01 2.556124999999999758e+00 1.370955000000000155e+02 2.174510000000000218e+03
1.539999999999999980e-01 2.098109999999999975e-01 2.656660000000000021e+00 1.370614999999999952e+02 2.174484999999999673e+03
1.549999999999999989e-01 2.098079999999999945e-01 2.756009999999999849e+00 1.370099999999999909e+02 2.174460000000000036e+03
1.559999999999999998e-01 2.098049999999999915e-01 2.849874999999999936e+00 1.369335000000000093e+02 2.174440000000000055e+03
1.570000000000000007e-01 2.097999999999999865e-01 2.934795000000000265e+00 1.368290000000000077e+02 2.174404999999999745e+03
1.580000000000000016e-01 2.097950000000000093e-01 3.008179999999999854e+00 1.366920000000000073e+02 2.174364999999999782e+03
1.590000000000000024e-01 2.097884999999999889e-01 3.068254999999999733e+00 1.365229999999999961e+02 2.174319999999999709e+03
