# t [s], A [cm^2], U [cm/s], P [cPa], c [cm/s]
1.000000000000000021e-03 4.834340000000000304e-01 3.133549999999998836e-03 9.205509999999999593e+01 1.618715000000000146e+03
2.000000000000000042e-03 4.834289999999999976e-01 4.616734999999999416e-03 9.203385000000000105e+01 1.618704999999999927e+03
3.000000000000000062e-03 4.834770000000000456e-01 1.189770500000000009e-01 9.215510000000000446e+01 1.618735000000000127e+03
4.000000000000000083e-03 4.835080000000000489e-01 2.013112999999999986e-01 9.225884999999999536e+01 1.618759999999999991e+03
5.000000000000000104e-03 4.834799999999999653e-01 1.522342499999999876e-01 9.216660000000000252e+01 1.618744999999999891e+03
6.000000000000000125e-03 4.834309999999999996e-01 4.708000000000001073e-02 9.192449999999999477e+01 1.618695000000000164e+03
7.000000000000000146e-03 4.833815000000000195e-01 -7.004699999999997040e-02 9.159620000000001028e+01 1.618630000000000109e+03
8.000000000000000167e-03 4.832950000000000301e-01 -2.838899999999999757e-01 9.108465000000001055e+01 1.618519999999999982e+03
9.000000000000001055e-03 4.831570000000000586e-01 -6.346000000000000529e-01 9.030504999999999427e+01 1.618355000000000018e+03
1.000000000000000194e-02 4.829609999999999737e-01 -1.126309999999999922e+00 8.920889999999999986e+01 1.618119999999999891e+03
1.099999999999999936e-02 4.826940000000000119e-01 -1.777324999999999822e+00 8.773185000000000855e+01 1.617800000000000182e+03
1.200000000000000025e-02 4.823560000000000070e-01 -2.567635000000000112e+00 8.585360000000000014e+01 1.617384999999999991e+03
1.300000000000000114e-02 4.819809999999999928e-01 -3.390599999999999614e+00 8.367895000000000039e+01 1.616884999999999991e+03
1.400000000000000203e-02 4.816219999999999946e-01 -4.086385500000000448e+00 8.142310000000000514e+01 1.616355000000000018e+03
1.499999999999999944e-02 4.813224999999999865e-01 -4.519169500000000284e+00 7.931669999999999732e+01 1.615829999999999927e+03
1.600000000000000033e-02 4.810975000000000112e-01 -4.630853500000000622e+00 7.751290000000000191e+01 1.615345000000000027e+03
1.700000000000000122e-02 4.809324999999999850e-01 -4.447815000000000296e+00 7.604619999999999891e+01 1.614929999999999836e+03
1.800000000000000211e-02 4.807964999999999600e-01 -4.054039999999999644e+00 7.484499999999999886e+01 1.614559999999999945e+03
1.900000000000000300e-02 4.806555000000000133e-01 -3.551435000000000120e+00 7.377715000000000600e+01 1.614220000000000027e+03
2.000000000000000042e-02 4.804859999999999687e-01 -3.022918999999999912e+00 7.270644999999998959e+01 1.613884999999999991e+03
2.100000000000000130e-02 4.802790000000000115e-01 -2.509463499999999847e+00 7.153979999999999961e+01 1.613534999999999854e+03
2.200000000000000219e-02 4.800419999999999687e-01 -2.008020000000000138e+00 7.024940000000000850e+01 1.613164999999999964e+03
2.299999999999999961e-02 4.797909999999999675e-01 -1.488809999999999967e+00 6.886359999999999104e+01 1.612769999999999982e+03
2.400000000000000050e-02 4.795405000000000362e-01 -9.219700000000001783e-01 6.743540000000000134e+01 1.612369999999999891e+03
2.500000000000000139e-02 4.792965000000000142e-01 -3.007699999999999818e-01 6.600549999999999784e+01 1.611964999999999918e+03
2.600000000000000228e-02 4.790539999999999798e-01 3.470800000000000551e-01 6.457544999999998936e+01 1.611554999999999836e+03
2.700000000000000316e-02 4.787959999999999994e-01 9.617300000000001958e-01 6.309834999999999638e+01 1.611134999999999991e+03
2.800000000000000058e-02 4.785010000000000097e-01 1.464195000000000135e+00 6.148744999999999550e+01 1.610684999999999945e+03
2.900000000000000147e-02 4.781480000000000175e-01 1.775220000000000020e+00 5.963840000000000430e+01 1.610190000000000055e+03
3.000000000000000236e-02 4.777219999999999800e-01 1.834934999999999761e+00 5.745884999999999820e+01 1.609625000000000000e+03
3.099999999999999978e-02 4.772204999999999919e-01 1.617999999999999883e+00 5.489674999999999727e+01 1.608974999999999909e+03
3.200000000000000067e-02 4.766529999999999934e-01 1.140445000000000153e+00 5.195955000000000013e+01 1.608244999999999891e+03
3.300000000000000155e-02 4.760400000000000187e-01 4.564899999999996183e-01 4.872010000000000218e+01 1.607440000000000055e+03
3.400000000000000244e-02 4.754120000000000013e-01 -3.532900000000003260e-01 4.530615000000000236e+01 1.606595000000000027e+03
3.500000000000000333e-02 4.748004999999999587e-01 -1.197494999999999976e+00 4.188015000000000043e+01 1.605730000000000018e+03
3.600000000000000422e-02 4.742349999999999621e-01 -1.989119999999999777e+00 3.861440000000000339e+01 1.604894999999999982e+03
3.700000000000000511e-02 4.737394999999999801e-01 -2.656199999999999672e+00 3.566794999999999760e+01 1.604119999999999891e+03
3.799999999999999906e-02 4.733304999999999874e-01 -3.147349999999999870e+00 3.317040000000000077e+01 1.603430000000000064e+03
3.899999999999999994e-02 4.730195000000000372e-01 -3.431799999999999962e+00 3.121289999999999765e+01 1.602865000000000009e+03
4.000000000000000083e-02 4.728080000000000060e-01 -3.496168350000000036e+00 2.984729999999999706e+01 1.602434999999999945e+03
4.100000000000000172e-02 4.726965000000000194e-01 -3.338884999999999881e+00 2.909074999999999989e+01 1.602150000000000091e+03
4.200000000000000261e-02 4.726814999999999767e-01 -2.964714999999999989e+00 2.893420000000000059e+01 1.602009999999999991e+03
4.300000000000000350e-02 4.727584999999999704e-01 -2.380525500000000072e+00 2.935150000000000148e+01 1.602019999999999982e+03
4.400000000000000439e-02 4.729219999999999535e-01 -1.593090000000000117e+00 3.030709999999999837e+01 1.602164999999999964e+03
4.499999999999999833e-02 4.731665000000000454e-01 -6.091349999999997600e-01 3.176099999999999923e+01 1.602445000000000164e+03
4.599999999999999922e-02 4.734855000000000036e-01 5.630249999999996646e-01 3.367054999999999865e+01 1.602845000000000027e+03
4.700000000000000011e-02 4.738729999999999887e-01 1.911149999999999682e+00 3.598969999999999914e+01 1.603355000000000018e+03
4.800000000000000100e-02 4.743204999999999782e-01 3.417075000000000529e+00 3.866790000000000305e+01 1.603970000000000027e+03
4.900000000000000189e-02 4.748175000000000034e-01 5.055794999999999817e+00 4.164800000000000324e+01 1.604664999999999964e+03
5.000000000000000278e-02 4.753525000000000111e-01 6.795779999999999710e+00 4.486639999999999873e+01 1.605434999999999945e+03
5.100000000000000366e-02 4.759134999999999893e-01 8.600669999999999149e+00 4.825424999999999898e+01 1.606259999999999991e+03
5.200000000000000455e-02 4.764879999999999671e-01 1.043178499999999964e+01 5.174020000000000152e+01 1.607119999999999891e+03
5.300000000000000544e-02 4.770634999999999737e-01 1.225083000000000055e+01 5.525415000000000276e+01 1.608005000000000109e+03
5.399999999999999939e-02 4.776295000000000401e-01 1.402287499999999909e+01 5.873154999999999859e+01 1.608890000000000100e+03
5.500000000000000028e-02 4.781779999999999919e-01 1.571817000000000064e+01 6.211690000000000111e+01 1.609769999999999982e+03
5.600000000000000117e-02 4.787029999999999896e-01 1.731390000000000029e+01 6.536709999999999354e+01 1.610630000000000109e+03
5.700000000000000205e-02 4.792009999999999881e-01 1.879465000000000074e+01 6.845295000000000130e+01 1.611454999999999927e+03
5.800000000000000294e-02 4.796704999999999997e-01 2.015234999999999843e+01 7.135960000000000036e+01 1.612244999999999891e+03
5.900000000000000383e-02 4.801124999999999421e-01 2.138534999999999897e+01 7.408594999999999686e+01 1.612994999999999891e+03
6.000000000000000472e-02 4.805300000000000127e-01 2.249790000000000134e+01 7.664269999999999072e+01 1.613710000000000036e+03
6.099999999999999867e-02 4.809269999999999934e-01 2.349835000000000207e+01 7.905019999999998959e+01 1.614389999999999873e+03
6.199999999999999956e-02 4.813074999999999992e-01 2.439835000000000065e+01 8.133575000000000443e+01 1.615034999999999854e+03
6.300000000000000044e-02 4.816775000000000362e-01 2.521144999999999925e+01 8.353040000000000020e+01 1.615660000000000082e+03
6.400000000000000133e-02 4.820424999999999849e-01 2.595195000000000007e+01 8.566665000000000418e+01 1.616269999999999982e+03
6.500000000000000222e-02 4.824060000000000015e-01 2.663380000000000081e+01 8.777540000000000475e+01 1.616860000000000127e+03
6.600000000000000311e-02 4.827730000000000077e-01 2.726975000000000193e+01 8.988354999999999961e+01 1.617454999999999927e+03
6.700000000000000400e-02 4.831459999999999644e-01 2.787020000000000053e+01 9.201229999999999620e+01 1.618050000000000182e+03
6.800000000000000488e-02 4.835260000000000113e-01 2.844270000000000209e+01 9.417529999999999291e+01 1.618650000000000091e+03
6.900000000000000577e-02 4.839134999999999964e-01 2.899139999999999873e+01 9.637754999999999939e+01 1.619255000000000109e+03
7.000000000000000666e-02 4.843079999999999607e-01 2.951689999999999969e+01 9.861535000000000650e+01 1.619869999999999891e+03
7.100000000000000755e-02 4.847049999999999970e-01 3.001619999999999777e+01 1.008759500000000031e+02 1.620494999999999891e+03
7.200000000000000844e-02 4.851019999999999777e-01 3.048355000000000103e+01 1.031395499999999998e+02 1.621115000000000009e+03
7.300000000000000933e-02 4.854934999999999667e-01 3.091039999999999921e+01 1.053810000000000002e+02 1.621730000000000018e+03
7.399999999999999634e-02 4.858750000000000013e-01 3.128695000000000093e+01 1.075680000000000121e+02 1.622335000000000036e+03
7.499999999999999722e-02 4.862394999999999912e-01 3.160235000000000127e+01 1.096700000000000017e+02 1.622920000000000073e+03
7.599999999999999811e-02 4.865829999999999878e-01 3.184600000000000009e+01 1.116534999999999940e+02 1.623474999999999909e+03
7.699999999999999900e-02 4.868999999999999995e-01 3.200800000000000267e+01 1.134879999999999995e+02 1.624005000000000109e+03
7.799999999999999989e-02 4.871854999999999936e-01 3.208004999999999995e+01 1.151469999999999914e+02 1.624484999999999900e+03
7.900000000000000078e-02 4.874380000000000379e-01 3.205564999999999998e+01 1.166069999999999993e+02 1.624914999999999964e+03
8.000000000000000167e-02 4.876530000000000031e-01 3.193070000000000164e+01 1.178539999999999992e+02 1.625295000000000073e+03
8.100000000000000255e-02 4.878310000000000146e-01 3.170380000000000109e+01 1.188755000000000024e+02 1.625619999999999891e+03
8.200000000000000344e-02 4.879704999999999737e-01 3.137610000000000099e+01 1.196699999999999875e+02 1.625884999999999991e+03
8.300000000000000433e-02 4.880729999999999791e-01 3.095135000000000147e+01 1.202404999999999973e+02 1.626090000000000146e+03
8.400000000000000522e-02 4.881404999999999772e-01 3.043594999999999828e+01 1.205960000000000036e+02 1.626235000000000127e+03
8.500000000000000611e-02 4.881750000000000256e-01 2.983865000000000123e+01 1.207514999999999930e+02 1.626335000000000036e+03
8.600000000000000699e-02 4.881794999999999884e-01 2.917004999999999981e+01 1.207270000000000039e+02 1.626380000000000109e+03
8.700000000000000788e-02 4.881599999999999828e-01 2.844250000000000256e+01 1.205465000000000089e+02 1.626375000000000000e+03
8.800000000000000877e-02 4.881185000000000107e-01 2.766945000000000121e+01 1.202344999999999970e+02 1.626335000000000036e+03
8.899999999999999578e-02 4.880605000000000082e-01 2.686500000000000199e+01 1.198205000000000098e+02 1.626264999999999873e+03
8.999999999999999667e-02 4.879915000000000225e-01 2.604339999999999833e+01 1.193319999999999936e+02 1.626170000000000073e+03
9.099999999999999756e-02 4.879145000000000287e-01 2.521815000000000140e+01 1.187959999999999923e+02 1.626055000000000064e+03
9.199999999999999845e-02 4.878350000000000186e-01 2.440214999999999890e+01 1.182384999999999877e+02 1.625929999999999836e+03
9.299999999999999933e-02 4.877549999999999941e-01 2.360634999999999906e+01 1.176825000000000045e+02 1.625795000000000073e+03
9.400000000000000022e-02 4.876785000000000148e-01 2.283995000000000175e+01 1.171454999999999984e+02 1.625660000000000082e+03
9.500000000000000111e-02 4.876075000000000270e-01 2.210979999999999990e+01 1.166435000000000031e+02 1.625530000000000200e+03
9.600000000000000200e-02 4.875429999999999486e-01 2.142034999999999911e+01 1.161844999999999999e+02 1.625410000000000082e+03
9.700000000000000289e-02 4.874855000000000160e-01 2.077339999999999876e+01 1.157750000000000057e+02 1.625300000000000182e+03
9.800000000000000377e-02 4.874344999999999928e-01 2.016839999999999833e+01 1.154129999999999967e+02 1.625195000000000164e+03
9.900000000000000466e-02 4.873895000000000310e-01 1.960255000000000081e+01 1.150944999999999965e+02 1.625099999999999909e+03
1.000000000000000056e-01 4.873484999999999623e-01 1.907094999999999985e+01 1.148110000000000070e+02 1.625014999999999873e+03
1.010000000000000064e-01 4.873094999999999510e-01 1.856735000000000113e+01 1.145504999999999995e+02 1.624934999999999945e+03
1.020000000000000073e-01 4.872705000000000508e-01 1.808409999999999940e+01 1.142985000000000042e+02 1.624860000000000127e+03
1.030000000000000082e-01 4.872284999999999533e-01 1.761314999999999742e+01 1.140405000000000086e+02 1.624779999999999973e+03
1.040000000000000091e-01 4.871805000000000163e-01 1.714614999999999867e+01 1.137599999999999909e+02 1.624704999999999927e+03
1.050000000000000100e-01 4.871245000000000158e-01 1.667490000000000094e+01 1.134420000000000073e+02 1.624615000000000009e+03
1.059999999999999970e-01 4.870594999999999786e-01 1.619209999999999994e+01 1.130734999999999957e+02 1.624514999999999873e+03
1.069999999999999979e-01 4.869820000000000260e-01 1.569134999999999991e+01 1.126419999999999959e+02 1.624400000000000091e+03
1.079999999999999988e-01 4.868924999999999503e-01 1.516789999999999949e+01 1.121389999999999958e+02 1.624269999999999982e+03
1.089999999999999997e-01 4.867894999999999861e-01 1.461840000000000117e+01 1.115594999999999999e+02 1.624125000000000000e+03
1.100000000000000006e-01 4.866730000000000222e-01 1.404149999999999920e+01 1.109020000000000010e+02 1.623954999999999927e+03
1.110000000000000014e-01 4.865435000000000176e-01 1.343780500000000089e+01 1.101684999999999945e+02 1.623769999999999982e+03
1.120000000000000023e-01 4.864030000000000298e-01 1.280964499999999973e+01 1.093654999999999973e+02 1.623570000000000164e+03
1.130000000000000032e-01 4.862530000000000463e-01 1.216134999999999877e+01 1.085020000000000095e+02 1.623349999999999909e+03
1.140000000000000041e-01 4.860949999999999438e-01 1.149878999999999962e+01 1.075900000000000034e+02 1.623114999999999782e+03
1.150000000000000050e-01 4.859335000000000182e-01 1.082912500000000122e+01 1.066459999999999866e+02 1.622875000000000000e+03
1.160000000000000059e-01 4.857695000000000207e-01 1.016070999999999991e+01 1.056854999999999905e+02 1.622625000000000000e+03
1.170000000000000068e-01 4.856074999999999697e-01 9.502365000000001061e+00 1.047282000000000011e+02 1.622375000000000000e+03
1.180000000000000077e-01 4.854500000000000481e-01 8.863269999999999982e+00 1.037916000000000025e+02 1.622125000000000000e+03
1.190000000000000085e-01 4.852999999999999536e-01 8.252455000000001206e+00 1.028942499999999995e+02 1.621884999999999991e+03
1.200000000000000094e-01 4.851604999999999945e-01 7.678314999999999557e+00 1.020528000000000048e+02 1.621654999999999973e+03
1.209999999999999964e-01 4.850339999999999652e-01 7.148365000000000080e+00 1.012820999999999998e+02 1.621444999999999936e+03
1.219999999999999973e-01 4.849220000000000197e-01 6.668874999999999886e+00 1.005943500000000057e+02 1.621244999999999891e+03
1.229999999999999982e-01 4.848254999999999648e-01 6.244495000000000573e+00 9.999930000000000518e+01 1.621075000000000045e+03
1.239999999999999991e-01 4.847460000000000102e-01 5.878284999999999982e+00 9.950180000000000291e+01 1.620925000000000182e+03
1.250000000000000000e-01 4.846829999999999750e-01 5.571534999999999904e+00 9.910439999999999827e+01 1.620795000000000073e+03
1.260000000000000009e-01 4.846360000000000112e-01 5.323780000000000179e+00 9.880604999999999905e+01 1.620699999999999818e+03
1.270000000000000018e-01 4.846044999999999936e-01 5.132900000000000240e+00 9.860165000000000646e+01 1.620619999999999891e+03
1.280000000000000027e-01 4.845875000000000044e-01 4.995314999999999728e+00 9.848429999999999040e+01 1.620565000000000055e+03
1.290000000000000036e-01 4.845814999999999984e-01 4.906195000000000306e+00 9.844389999999999930e+01 1.620534999999999854e+03
1.300000000000000044e-01 4.845864999999999756e-01 4.859754999999999825e+00 9.846885000000000332e+01 1.620519999999999982e+03
1.310000000000000053e-01 4.845990000000000020e-01 4.849534999999999485e+00 9.854644999999999300e+01 1.620519999999999982e+03
1.320000000000000062e-01 4.846174999999999788e-01 4.868719999999999715e+00 9.866344999999999743e+01 1.620529999999999973e+03
1.330000000000000071e-01 4.846395000000000008e-01 4.910404999999999909e+00 9.880670000000000641e+01 1.620550000000000182e+03
1.340000000000000080e-01 4.846629999999999550e-01 4.967884999999999884e+00 9.896365000000000123e+01 1.620585000000000036e+03
1.350000000000000089e-01 4.846865000000000201e-01 5.034869999999999735e+00 9.912315000000000964e+01 1.620610000000000127e+03
1.360000000000000098e-01 4.847084999999999866e-01 5.105665000000000120e+00 9.927504999999999313e+01 1.620650000000000091e+03
1.370000000000000107e-01 4.847274999999999778e-01 5.175315000000000332e+00 9.941200000000000614e+01 1.620674999999999955e+03
1.380000000000000115e-01 4.847429999999999795e-01 5.239700000000000024e+00 9.952715000000000600e+01 1.620699999999999818e+03
1.390000000000000124e-01 4.847534999999999483e-01 5.295580000000000176e+00 9.961664999999999281e+01 1.620724999999999909e+03
1.400000000000000133e-01 4.847605000000000386e-01 5.340629999999999988e+00 9.967759999999999820e+01 1.620744999999999891e+03
1.410000000000000142e-01 4.847619999999999707e-01 5.373374999999999346e+00 9.971004999999999541e+01 1.620750000000000000e+03
1.420000000000000151e-01 4.847595000000000098e-01 5.393184999999999896e+00 9.971424999999999272e+01 1.620750000000000000e+03
1.430000000000000160e-01 4.847529999999999895e-01 5.400150000000000006e+00 9.969339999999999691e+01 1.620750000000000000e+03
1.440000000000000169e-01 4.847430000000000350e-01 5.395005000000000273e+00 9.965014999999999645e+01 1.620744999999999891e+03
1.450000000000000178e-01 4.847305000000000086e-01 5.379035000000000011e+00 9.958870000000000289e+01 1.620730000000000018e+03
1.459999999999999909e-01 4.847169999999999535e-01 5.353894999999999627e+00 9.951370000000000005e+01 1.620714999999999918e+03
1.469999999999999918e-01 4.847015000000000073e-01 5.321524999999999395e+00 9.942985000000000184e+01 1.620699999999999818e+03
1.479999999999999927e-01 4.846860000000000057e-01 5.283994999999999997e+00 9.934180000000000632e+01 1.620674999999999955e+03
1.489999999999999936e-01 4.846714999999999773e-01 5.243369999999999642e+00 9.925395000000000323e+01 1.620659999999999854e+03
1.499999999999999944e-01 4.846575000000000188e-01 5.201589999999999492e+00 9.917015000000000668e+01 1.620634999999999991e+03
1.509999999999999953e-01 4.846455000000000624e-01 5.160394999999999399e+00 9.909329999999999927e+01 1.620615000000000009e+03
1.519999999999999962e-01 4.846344999999999681e-01 5.121190000000000353e+00 9.902575000000000216e+01 1.620599999999999909e+03
1.529999999999999971e-01 4.846260000000000012e-01 5.085020000000000095e+00 9.896875000000000000e+01 1.620585000000000036e+03
1.539999999999999980e-01 4.846194999999999808e-01 5.052545000000000286e+00 9.892260000000000275e+01 1.620575000000000045e+03
1.549999999999999989e-01 4.846144999999999481e-01 5.024005000000000720e+00 9.888669999999999050e+01 1.620565000000000055e+03
1.559999999999999998e-01 4.846104999999999996e-01 4.999259999999999593e+00 9.885960000000000036e+01 1.620555000000000064e+03
1.570000000000000007e-01 4.846084999999999976e-01 4.977864999999999540e+00 9.883929999999999438e+01 1.620550000000000182e+03
1.580000000000000016e-01 4.846064999999999956e-01 4.959104999999999208e+00 9.882304999999999495e+01 1.620539999999999964e+03
1.590000000000000024e-01 4.846044999999999936e-01 4.942079999999999806e+00 9.880795000000000528e+01 1.620539999999999964e+03
