# t [s], A [cm^2], U [cm/s], P [cPa], c [cm/s]
1.000000000000000021e-03 1.284079999999999944e-01 3.868190499999999976e-01 8.725319999999999254e+01 2.037845000000000027e+03
2.000000000000000042e-03 1.283769999999999911e-01 1.852431500000000231e+00 8.397639999999999816e+01 2.037480000000000018e+03
3.000000000000000062e-03 1.282915000000000028e-01 3.608839000000000130e+00 7.967215000000000202e+01 2.036505000000000109e+03
4.000000000000000083e-03 1.281749999999999834e-01 5.563818999999999626e+00 7.522665000000000646e+01 2.035199999999999818e+03
5.000000000000000104e-03 1.280509999999999982e-01 7.646330000000000737e+00 7.142884999999999707e+01 2.033820000000000164e+03
6.000000000000000125e-03 1.279309999999999892e-01 9.676204999999999501e+00 6.840784999999999627e+01 2.032494999999999891e+03
7.000000000000000146e-03 1.278185000000000016e-01 1.146532999999999980e+01 6.582694999999999652e+01 2.031275000000000091e+03
8.000000000000000167e-03 1.277139999999999942e-01 1.297101500000000129e+01 6.348749999999999716e+01 2.030170000000000073e+03
9.000000000000001055e-03 1.276220000000000132e-01 1.424125000000000085e+01 6.146939999999999316e+01 2.029199999999999818e+03
1.000000000000000194e-02 1.275435000000000041e-01 1.530150000000000077e+01 5.982419999999999760e+01 2.028384999999999991e+03
1.099999999999999936e-02 1.274779999999999802e-01 1.615810000000000102e+01 5.850010000000000332e+01 2.027710000000000036e+03
1.200000000000000025e-02 1.274239999999999817e-01 1.681819999999999737e+01 5.742229999999999990e+01 2.027159999999999854e+03
1.300000000000000114e-02 1.273795000000000066e-01 1.728494999999999848e+01 5.649699999999999989e+01 2.026714999999999918e+03
1.400000000000000203e-02 1.273414999999999964e-01 1.757849999999999824e+01 5.564724999999999966e+01 2.026339999999999918e+03
1.499999999999999944e-02 1.273094999999999921e-01 1.777544999999999931e+01 5.493639999999999901e+01 2.026029999999999973e+03
1.600000000000000033e-02 1.272870000000000112e-01 1.800919999999999987e+01 5.462895000000000323e+01 2.025820000000000164e+03
1.700000000000000122e-02 1.272814999999999919e-01 1.841215000000000046e+01 5.507160000000000366e+01 2.025769999999999982e+03
1.800000000000000211e-02 1.272969999999999935e-01 1.904309999999999903e+01 5.646844999999999715e+01 2.025940000000000055e+03
1.900000000000000300e-02 1.273350000000000037e-01 1.985130000000000194e+01 5.871574999999999989e+01 2.026335000000000036e+03
2.000000000000000042e-02 1.273900000000000032e-01 2.069565000000000055e+01 6.139885000000000304e+01 2.026909999999999854e+03
2.100000000000000130e-02 1.274510000000000087e-01 2.140160000000000196e+01 6.393825000000000358e+01 2.027554999999999836e+03
2.200000000000000219e-02 1.275074999999999958e-01 2.182554999999999978e+01 6.579724999999999113e+01 2.028154999999999973e+03
2.299999999999999961e-02 1.275485000000000091e-01 2.189954999999999785e+01 6.665594999999999004e+01 2.028605000000000018e+03
2.400000000000000050e-02 1.275689999999999880e-01 2.164310000000000045e+01 6.648909999999999343e+01 2.028849999999999909e+03
2.500000000000000139e-02 1.275705000000000033e-01 2.114260000000000161e+01 6.553005000000000280e+01 2.028880000000000109e+03
2.600000000000000228e-02 1.275564999999999893e-01 2.051069999999999993e+01 6.415099999999999625e+01 2.028755000000000109e+03
2.700000000000000316e-02 1.275334999999999941e-01 1.984485000000000099e+01 6.271545000000000414e+01 2.028525000000000091e+03
2.800000000000000058e-02 1.275080000000000102e-01 1.919950000000000045e+01 6.146255000000000024e+01 2.028264999999999873e+03
2.900000000000000147e-02 1.274834999999999996e-01 1.858039999999999736e+01 6.045850000000000080e+01 2.028009999999999991e+03
3.000000000000000236e-02 1.274609999999999910e-01 1.795680000000000121e+01 5.961905000000000143e+01 2.027769999999999982e+03
3.099999999999999978e-02 1.274379999999999957e-01 1.728620000000000090e+01 5.878180000000000405e+01 2.027539999999999964e+03
3.200000000000000067e-02 1.274134999999999851e-01 1.653944999999999865e+01 5.779484999999999673e+01 2.027279999999999973e+03
3.300000000000000155e-02 1.273839999999999972e-01 1.571945000000000014e+01 5.659185000000000088e+01 2.026980000000000018e+03
3.400000000000000244e-02 1.273509999999999920e-01 1.486749999999999972e+01 5.523004999999999853e+01 2.026634999999999991e+03
3.500000000000000333e-02 1.273159999999999847e-01 1.405624999999999858e+01 5.388329999999999842e+01 2.026275000000000091e+03
3.600000000000000422e-02 1.272830000000000072e-01 1.337209999999999965e+01 5.279439999999999600e+01 2.025924999999999955e+03
3.700000000000000511e-02 1.272574999999999956e-01 1.289164999999999850e+01 5.220314999999999372e+01 2.025660000000000082e+03
3.799999999999999906e-02 1.272449999999999970e-01 1.266164999999999985e+01 5.227464999999999407e+01 2.025514999999999873e+03
3.899999999999999994e-02 1.272475000000000134e-01 1.268534999999999968e+01 5.304850000000000421e+01 2.025529999999999973e+03
4.000000000000000083e-02 1.272655000000000036e-01 1.292149999999999999e+01 5.442269999999999897e+01 2.025704999999999927e+03
4.100000000000000172e-02 1.272969999999999935e-01 1.329175000000000040e+01 5.617340000000000089e+01 2.026014999999999873e+03
4.200000000000000261e-02 1.273354999999999904e-01 1.369664999999999999e+01 5.800034999999999741e+01 2.026409999999999854e+03
4.300000000000000350e-02 1.273755000000000026e-01 1.403275000000000006e+01 5.958549999999999613e+01 2.026819999999999936e+03
4.400000000000000439e-02 1.274099999999999955e-01 1.420864999999999867e+01 6.064785000000000537e+01 2.027180000000000064e+03
4.499999999999999833e-02 1.274325000000000041e-01 1.415644999999999953e+01 6.098425000000000296e+01 2.027425000000000182e+03
4.599999999999999922e-02 1.274389999999999967e-01 1.383719999999999928e+01 6.049014999999999986e+01 2.027494999999999891e+03
4.700000000000000011e-02 1.274264999999999981e-01 1.324075000000000024e+01 5.915910000000000224e+01 2.027369999999999891e+03
4.800000000000000100e-02 1.273940000000000072e-01 1.238170000000000037e+01 5.706734999999999758e+01 2.027045000000000073e+03
4.900000000000000189e-02 1.273430000000000117e-01 1.129270999999999958e+01 5.434770000000000323e+01 2.026525000000000091e+03
5.000000000000000278e-02 1.272765000000000146e-01 1.001751499999999950e+01 5.116205000000000069e+01 2.025835000000000036e+03
5.100000000000000366e-02 1.271975000000000189e-01 8.605219999999999203e+00 4.767789999999999395e+01 2.025014999999999873e+03
5.200000000000000455e-02 1.271095000000000141e-01 7.106384999999999508e+00 4.405270000000000152e+01 2.024105000000000018e+03
5.300000000000000544e-02 1.270160000000000178e-01 5.570664999999999978e+00 4.042614999999999981e+01 2.023130000000000109e+03
5.399999999999999939e-02 1.269210000000000060e-01 4.046655499999999961e+00 3.692005000000000337e+01 2.022134999999999991e+03
5.500000000000000028e-02 1.268269999999999953e-01 2.581879999999999953e+00 3.364164999999999850e+01 2.021159999999999854e+03
5.600000000000000117e-02 1.267379999999999896e-01 1.223184999999999745e+00 3.068894999999999840e+01 2.020224999999999909e+03
5.700000000000000205e-02 1.266565000000000052e-01 1.659999999999994813e-02 2.815474999999999994e+01 2.019365000000000009e+03
5.800000000000000294e-02 1.265840000000000021e-01 -9.935650000000000315e-01 2.612724999999999653e+01 2.018605000000000018e+03
5.900000000000000383e-02 1.265244999999999842e-01 -1.766302999999999956e+00 2.468864999999999910e+01 2.017974999999999909e+03
6.000000000000000472e-02 1.264804999999999957e-01 -2.266139499999999973e+00 2.391064999999999685e+01 2.017500000000000000e+03
6.099999999999999867e-02 1.264530000000000098e-01 -2.465405000000000069e+00 2.384834999999999994e+01 2.017195000000000164e+03
6.199999999999999956e-02 1.264445000000000152e-01 -2.346384999999999721e+00 2.453470000000000084e+01 2.017089999999999918e+03
6.300000000000000044e-02 1.264554999999999985e-01 -1.902765000000000040e+00 2.597565000000000168e+01 2.017180000000000064e+03
6.400000000000000133e-02 1.264855000000000007e-01 -1.140341499999999897e+00 2.814819999999999922e+01 2.017480000000000018e+03
6.500000000000000222e-02 1.265360000000000096e-01 -7.674000000000003041e-02 3.100039999999999907e+01 2.017985000000000127e+03
6.600000000000000311e-02 1.266045000000000087e-01 1.259680000000000133e+00 3.445459999999999923e+01 2.018684999999999945e+03
6.700000000000000400e-02 1.266899999999999971e-01 2.831644999999999968e+00 3.841254999999999598e+01 2.019555000000000064e+03
6.800000000000000488e-02 1.267894999999999994e-01 4.595254500000000242e+00 4.276170000000000471e+01 2.020579999999999927e+03
6.900000000000000577e-02 1.269009999999999860e-01 6.502485000000000070e+00 4.738264999999999816e+01 2.021730000000000018e+03
7.000000000000000666e-02 1.270204999999999806e-01 8.503775000000000972e+00 5.215605000000000047e+01 2.022969999999999800e+03
7.100000000000000755e-02 1.271460000000000090e-01 1.055050499999999936e+01 5.696899999999999409e+01 2.024279999999999973e+03
7.200000000000000844e-02 1.272745000000000126e-01 1.259741999999999962e+01 6.172104999999999819e+01 2.025625000000000000e+03
7.300000000000000933e-02 1.274029999999999885e-01 1.460435000000000016e+01 6.632850000000000534e+01 2.026970000000000027e+03
7.399999999999999634e-02 1.275294999999999901e-01 1.653810000000000002e+01 7.072790000000000532e+01 2.028304999999999836e+03
7.499999999999999722e-02 1.276520000000000155e-01 1.837320000000000064e+01 7.487784999999999513e+01 2.029605000000000018e+03
7.599999999999999811e-02 1.277695000000000081e-01 2.009280000000000044e+01 7.875905000000000200e+01 2.030849999999999909e+03
7.699999999999999900e-02 1.278815000000000091e-01 2.168844999999999956e+01 8.237364999999999782e+01 2.032039999999999964e+03
7.799999999999999989e-02 1.279869999999999897e-01 2.315954999999999941e+01 8.574219999999999686e+01 2.033164999999999964e+03
7.900000000000000078e-02 1.280864999999999920e-01 2.451225000000000165e+01 8.889979999999999905e+01 2.034235000000000127e+03
8.000000000000000167e-02 1.281815000000000038e-01 2.575800000000000267e+01 9.189150000000000773e+01 2.035255000000000109e+03
8.100000000000000255e-02 1.282719999999999971e-01 2.691165000000000163e+01 9.476720000000000255e+01 2.036224999999999909e+03
8.200000000000000344e-02 1.283600000000000019e-01 2.799014999999999986e+01 9.757659999999999911e+01 2.037164999999999964e+03
8.300000000000000433e-02 1.284454999999999902e-01 2.900999999999999801e+01 1.003645999999999958e+02 2.038089999999999918e+03
8.400000000000000522e-02 1.285304999999999920e-01 2.998669999999999902e+01 1.031680499999999938e+02 2.038994999999999891e+03
8.500000000000000611e-02 1.286150000000000071e-01 3.093274999999999864e+01 1.060125000000000028e+02 2.039910000000000082e+03
8.600000000000000699e-02 1.287004999999999955e-01 3.185710000000000264e+01 1.089114999999999895e+02 2.040825000000000045e+03
8.700000000000000788e-02 1.287864999999999982e-01 3.276454999999999984e+01 1.118650000000000091e+02 2.041744999999999891e+03
8.800000000000000877e-02 1.288735000000000019e-01 3.365569999999999595e+01 1.148605000000000018e+02 2.042684999999999945e+03
8.899999999999999578e-02 1.289615000000000067e-01 3.452694999999999936e+01 1.178764999999999930e+02 2.043625000000000000e+03
8.999999999999999667e-02 1.290495000000000114e-01 3.537095000000000056e+01 1.208799999999999955e+02 2.044574999999999818e+03
9.099999999999999756e-02 1.291374999999999884e-01 3.617735000000000412e+01 1.238325000000000102e+02 2.045515000000000100e+03
9.199999999999999845e-02 1.292234999999999912e-01 3.693345000000000056e+01 1.266920000000000073e+02 2.046440000000000055e+03
9.299999999999999933e-02 1.293064999999999909e-01 3.762515000000000498e+01 1.294130000000000109e+02 2.047335000000000036e+03
9.400000000000000022e-02 1.293864999999999876e-01 3.823770000000000380e+01 1.319530000000000030e+02 2.048199999999999818e+03
9.500000000000000111e-02 1.294615000000000071e-01 3.875669999999999504e+01 1.342710000000000150e+02 2.049010000000000218e+03
9.600000000000000200e-02 1.295310000000000072e-01 3.916894999999999527e+01 1.363315000000000055e+02 2.049760000000000218e+03
9.700000000000000289e-02 1.295935000000000004e-01 3.946300000000000097e+01 1.381045000000000016e+02 2.050440000000000055e+03
9.800000000000000377e-02 1.296479999999999855e-01 3.963004999999999711e+01 1.395689999999999884e+02 2.051034999999999854e+03
9.900000000000000466e-02 1.296950000000000047e-01 3.966425000000000267e+01 1.407115000000000009e+02 2.051545000000000073e+03
1.000000000000000056e-01 1.297329999999999872e-01 3.956314999999999316e+01 1.415269999999999868e+02 2.051965000000000146e+03
1.010000000000000064e-01 1.297625000000000028e-01 3.932795000000000130e+01 1.420215000000000032e+02 2.052289999999999964e+03
1.020000000000000073e-01 1.297830000000000095e-01 3.896340000000000003e+01 1.422085000000000150e+02 2.052519999999999982e+03
1.030000000000000082e-01 1.297949999999999937e-01 3.847755000000000081e+01 1.421094999999999970e+02 2.052659999999999854e+03
1.040000000000000091e-01 1.297989999999999977e-01 3.788169999999999504e+01 1.417535000000000025e+02 2.052720000000000255e+03
1.050000000000000100e-01 1.297960000000000225e-01 3.718975000000000364e+01 1.411745000000000232e+02 2.052690000000000055e+03
1.059999999999999970e-01 1.297860000000000125e-01 3.641760000000000019e+01 1.404105000000000132e+02 2.052599999999999909e+03
1.069999999999999979e-01 1.297714999999999841e-01 3.558239999999999981e+01 1.395029999999999859e+02 2.052445000000000164e+03
1.079999999999999988e-01 1.297514999999999918e-01 3.470215000000000316e+01 1.384929999999999950e+02 2.052240000000000236e+03
1.089999999999999997e-01 1.297284999999999966e-01 3.379439999999999600e+01 1.374194999999999993e+02 2.051994999999999891e+03
1.100000000000000006e-01 1.297030000000000127e-01 3.287614999999999554e+01 1.363199999999999932e+02 2.051730000000000018e+03
1.110000000000000014e-01 1.296760000000000135e-01 3.196290000000000120e+01 1.352264999999999873e+02 2.051440000000000055e+03
1.120000000000000023e-01 1.296479999999999855e-01 3.106810000000000116e+01 1.341670000000000016e+02 2.051144999999999982e+03
1.130000000000000032e-01 1.296209999999999862e-01 3.020289999999999964e+01 1.331619999999999777e+02 2.050855000000000018e+03
1.140000000000000041e-01 1.295945000000000014e-01 2.937565000000000026e+01 1.322259999999999991e+02 2.050565000000000055e+03
1.150000000000000050e-01 1.295685000000000031e-01 2.859179999999999922e+01 1.313665000000000020e+02 2.050295000000000073e+03
1.160000000000000059e-01 1.295449999999999935e-01 2.785405000000000086e+01 1.305844999999999914e+02 2.050034999999999854e+03
1.170000000000000068e-01 1.295224999999999849e-01 2.716205000000000069e+01 1.298745000000000118e+02 2.049789999999999964e+03
1.180000000000000077e-01 1.295014999999999916e-01 2.651285000000000025e+01 1.292244999999999777e+02 2.049565000000000055e+03
1.190000000000000085e-01 1.294825000000000004e-01 2.590124999999999744e+01 1.286179999999999950e+02 2.049355000000000018e+03
1.200000000000000094e-01 1.294639999999999957e-01 2.532014999999999816e+01 1.280369999999999777e+02 2.049150000000000091e+03
1.209999999999999964e-01 1.294460000000000055e-01 2.476099999999999923e+01 1.274579999999999984e+02 2.048949999999999818e+03
1.219999999999999973e-01 1.294285000000000019e-01 2.421435000000000315e+01 1.268580000000000041e+02 2.048759999999999764e+03
1.229999999999999982e-01 1.294095000000000106e-01 2.367045000000000243e+01 1.262139999999999986e+02 2.048555000000000291e+03
1.239999999999999991e-01 1.293905000000000194e-01 2.311974999999999980e+01 1.255039999999999907e+02 2.048344999999999800e+03
1.250000000000000000e-01 1.293694999999999984e-01 2.255349999999999966e+01 1.247100000000000080e+02 2.048114999999999782e+03
1.260000000000000009e-01 1.293459999999999888e-01 2.196415000000000006e+01 1.238160000000000025e+02 2.047869999999999891e+03
1.270000000000000018e-01 1.293199999999999905e-01 2.134584999999999866e+01 1.228114999999999952e+02 2.047589999999999918e+03
1.280000000000000027e-01 1.292915000000000036e-01 2.069485000000000241e+01 1.216924999999999955e+02 2.047289999999999964e+03
1.290000000000000036e-01 1.292600000000000138e-01 2.000945000000000107e+01 1.204574999999999960e+02 2.046950000000000045e+03
1.300000000000000044e-01 1.292260000000000075e-01 1.929039999999999822e+01 1.191140000000000043e+02 2.046585000000000036e+03
1.310000000000000053e-01 1.291885000000000117e-01 1.854084999999999894e+01 1.176730000000000018e+02 2.046184999999999945e+03
1.320000000000000062e-01 1.291490000000000138e-01 1.776604999999999990e+01 1.161525000000000034e+02 2.045759999999999991e+03
1.330000000000000071e-01 1.291069999999999995e-01 1.697334999999999994e+01 1.145730000000000075e+02 2.045309999999999945e+03
1.340000000000000080e-01 1.290630000000000110e-01 1.617154999999999987e+01 1.129590000000000032e+02 2.044845000000000255e+03
1.350000000000000089e-01 1.290184999999999804e-01 1.537074999999999925e+01 1.113379999999999939e+02 2.044365000000000009e+03
1.360000000000000098e-01 1.289730000000000043e-01 1.458170000000000144e+01 1.097359999999999900e+02 2.043885000000000218e+03
1.370000000000000107e-01 1.289279999999999871e-01 1.381550000000000011e+01 1.081829999999999927e+02 2.043400000000000091e+03
1.380000000000000115e-01 1.288845000000000129e-01 1.308269999999999911e+01 1.067019999999999982e+02 2.042934999999999945e+03
1.390000000000000124e-01 1.288420000000000121e-01 1.239320000000000022e+01 1.053185000000000002e+02 2.042485000000000127e+03
1.400000000000000133e-01 1.288019999999999998e-01 1.175562000000000040e+01 1.040504999999999995e+02 2.042055000000000064e+03
1.410000000000000142e-01 1.287655000000000050e-01 1.117707499999999854e+01 1.029134999999999991e+02 2.041659999999999854e+03
1.420000000000000151e-01 1.287314999999999987e-01 1.066281000000000034e+01 1.019179499999999905e+02 2.041289999999999964e+03
1.430000000000000160e-01 1.287014999999999965e-01 1.021611000000000047e+01 1.010687499999999943e+02 2.040965000000000146e+03
1.440000000000000169e-01 1.286750000000000116e-01 9.838370000000001170e+00 1.003671999999999969e+02 2.040680000000000064e+03
1.450000000000000178e-01 1.286525000000000030e-01 9.528855000000000075e+00 9.980879999999999086e+01 2.040434999999999945e+03
1.459999999999999909e-01 1.286339999999999983e-01 9.285149999999999793e+00 9.938585000000000491e+01 2.040230000000000018e+03
1.469999999999999918e-01 1.286184999999999967e-01 9.103190000000001447e+00 9.908584999999999354e+01 2.040059999999999945e+03
1.479999999999999927e-01 1.286069999999999991e-01 8.977574999999999861e+00 9.889545000000001096e+01 2.039934999999999945e+03
1.489999999999999936e-01 1.285985000000000045e-01 8.901794999999999902e+00 9.879834999999999923e+01 2.039835000000000036e+03
1.499999999999999944e-01 1.285924999999999985e-01 8.868639999999999191e+00 9.877729999999999677e+01 2.039769999999999982e+03
1.509999999999999953e-01 1.285890000000000088e-01 8.870480000000000587e+00 9.881485000000000696e+01 2.039724999999999909e+03
1.519999999999999962e-01 1.285875000000000212e-01 8.899544999999999817e+00 9.889395000000000380e+01 2.039704999999999927e+03
1.529999999999999971e-01 1.285864999999999925e-01 8.948235000000000383e+00 9.899854999999999450e+01 2.039694999999999936e+03
1.539999999999999980e-01 1.285874999999999935e-01 9.009370000000000545e+00 9.911394999999998845e+01 2.039700000000000045e+03
1.549999999999999989e-01 1.285890000000000088e-01 9.076389999999999958e+00 9.922745000000000459e+01 2.039710000000000036e+03
1.559999999999999998e-01 1.285904999999999965e-01 9.143539999999999779e+00 9.932849999999999113e+01 2.039724999999999909e+03
1.570000000000000007e-01 1.285920000000000119e-01 9.206009999999999138e+00 9.940899999999999181e+01 2.039740000000000009e+03
1.580000000000000016e-01 1.285930000000000129e-01 9.260010000000001185e+00 9.946309999999999718e+01 2.039750000000000000e+03
1.590000000000000024e-01 1.285934999999999995e-01 9.302804999999999325e+00 9.948754999999999882e+01 2.039759999999999991e+03
