# t [s], A [cm^2], U [cm/s], P [cPa], c [cm/s]
1.000000000000000021e-03 1.319190000000000085e-01 2.056485000000000118e-01 9.838004999999999711e+01 2.012730000000000018e+03
2.000000000000000042e-03 1.318999999999999895e-01 1.521644999999999914e+00 9.559659999999999513e+01 2.012500000000000000e+03
3.000000000000000062e-03 1.318284999999999874e-01 3.180714000000000041e+00 9.185954999999999870e+01 2.011690000000000055e+03
4.000000000000000083e-03 1.317200000000000037e-01 5.045657399999999626e+00 8.757415000000000305e+01 2.010485000000000127e+03
5.000000000000000104e-03 1.315945000000000031e-01 7.066265000000000462e+00 8.342179999999999040e+01 2.009099999999999909e+03
6.000000000000000125e-03 1.314644999999999841e-01 9.149409999999999599e+00 7.980145000000000266e+01 2.007684999999999945e+03
7.000000000000000146e-03 1.313394999999999979e-01 1.114749999999999908e+01 7.671934999999999150e+01 2.006329999999999927e+03
8.000000000000000167e-03 1.312200000000000033e-01 1.293952499999999972e+01 7.398394999999999300e+01 2.005059999999999945e+03
9.000000000000001055e-03 1.311090000000000033e-01 1.449725500000000089e+01 7.150475000000000136e+01 2.003900000000000091e+03
1.000000000000000194e-02 1.310089999999999866e-01 1.584430000000000049e+01 6.932710000000000150e+01 2.002869999999999891e+03
1.099999999999999936e-02 1.309220000000000106e-01 1.699995000000000189e+01 6.749119999999999209e+01 2.001980000000000018e+03
1.200000000000000025e-02 1.308480000000000198e-01 1.797204999999999941e+01 6.598069999999999879e+01 2.001224999999999909e+03
1.300000000000000114e-02 1.307860000000000134e-01 1.876304999999999978e+01 6.474110000000000298e+01 2.000599999999999909e+03
1.400000000000000203e-02 1.307339999999999891e-01 1.937109999999999843e+01 6.369020000000000437e+01 2.000085000000000036e+03
1.499999999999999944e-02 1.306889999999999996e-01 1.980349999999999966e+01 6.274739999999999895e+01 1.999644999999999982e+03
1.600000000000000033e-02 1.306499999999999884e-01 2.009909999999999997e+01 6.189950000000000330e+01 1.999275000000000091e+03
1.700000000000000122e-02 1.306189999999999851e-01 2.033490000000000109e+01 6.125079999999999814e+01 1.998980000000000018e+03
1.800000000000000211e-02 1.305979999999999919e-01 2.060549999999999926e+01 6.099634999999999962e+01 1.998785000000000082e+03
1.900000000000000300e-02 1.305919999999999859e-01 2.098539999999999850e+01 6.132620000000000005e+01 1.998735000000000127e+03
2.000000000000000042e-02 1.306029999999999969e-01 2.149940000000000140e+01 6.232124999999999915e+01 1.998855000000000018e+03
2.100000000000000130e-02 1.306304999999999827e-01 2.211514999999999986e+01 6.389865000000000350e+01 1.999139999999999873e+03
2.200000000000000219e-02 1.306714999999999960e-01 2.275785000000000124e+01 6.582895000000000607e+01 1.999559999999999945e+03
2.299999999999999961e-02 1.307190000000000019e-01 2.333820000000000050e+01 6.780644999999999811e+01 2.000054999999999836e+03
2.400000000000000050e-02 1.307669999999999944e-01 2.378034999999999854e+01 6.953915000000000646e+01 2.000565000000000055e+03
2.500000000000000139e-02 1.308099999999999818e-01 2.404094999999999871e+01 7.082235000000000014e+01 2.001014999999999873e+03
2.600000000000000228e-02 1.308429999999999871e-01 2.411544999999999916e+01 7.157744999999999891e+01 2.001375000000000000e+03
2.700000000000000316e-02 1.308655000000000235e-01 2.403154999999999930e+01 7.184684999999998922e+01 2.001630000000000109e+03
2.800000000000000058e-02 1.308785000000000087e-01 2.383420000000000272e+01 7.175645000000000095e+01 2.001780000000000200e+03
2.900000000000000147e-02 1.308840000000000003e-01 2.356835000000000235e+01 7.145990000000000464e+01 2.001845000000000027e+03
3.000000000000000236e-02 1.308844999999999870e-01 2.326559999999999917e+01 7.108660000000000423e+01 2.001865000000000009e+03
3.099999999999999978e-02 1.308819999999999983e-01 2.293724999999999881e+01 7.070750000000001023e+01 2.001844999999999800e+03
3.200000000000000067e-02 1.308775000000000077e-01 2.257620000000000005e+01 7.032750000000000057e+01 2.001795000000000073e+03
3.300000000000000155e-02 1.308700000000000141e-01 2.216469999999999985e+01 6.990059999999999718e+01 2.001724999999999909e+03
3.400000000000000244e-02 1.308594999999999897e-01 2.168480000000000274e+01 6.936099999999999000e+01 2.001619999999999891e+03
3.500000000000000333e-02 1.308449999999999891e-01 2.112890000000000157e+01 6.865749999999999886e+01 2.001480000000000018e+03
3.600000000000000422e-02 1.308254999999999835e-01 2.050659999999999883e+01 6.778199999999999648e+01 2.001285000000000082e+03
3.700000000000000511e-02 1.308020000000000016e-01 1.984624999999999773e+01 6.678255000000000052e+01 2.001045000000000073e+03
3.799999999999999906e-02 1.307760000000000034e-01 1.919095000000000084e+01 6.575955000000000439e+01 2.000784999999999854e+03
3.899999999999999994e-02 1.307504999999999917e-01 1.859065000000000012e+01 6.484610000000000696e+01 2.000525000000000091e+03
4.000000000000000083e-02 1.307280000000000109e-01 1.809159999999999968e+01 6.417750000000000909e+01 2.000295000000000073e+03
4.100000000000000172e-02 1.307129999999999959e-01 1.772719999999999985e+01 6.386100000000000421e+01 2.000130000000000109e+03
4.200000000000000261e-02 1.307059999999999889e-01 1.751144999999999996e+01 6.395130000000000337e+01 2.000049999999999955e+03
4.300000000000000350e-02 1.307085000000000052e-01 1.743690000000000140e+01 6.443860000000000809e+01 2.000065000000000055e+03
4.400000000000000439e-02 1.307205000000000172e-01 1.747700000000000031e+01 6.525175000000000125e+01 2.000179999999999836e+03
4.499999999999999833e-02 1.307389999999999941e-01 1.759159999999999968e+01 6.627250000000000796e+01 2.000369999999999891e+03
4.599999999999999922e-02 1.307629999999999904e-01 1.773420000000000130e+01 6.735755000000000337e+01 2.000605000000000018e+03
4.700000000000000011e-02 1.307885000000000020e-01 1.785909999999999798e+01 6.836254999999999882e+01 2.000865000000000009e+03
4.800000000000000100e-02 1.308124999999999982e-01 1.792699999999999960e+01 6.916255000000001019e+01 2.001110000000000127e+03
4.900000000000000189e-02 1.308314999999999895e-01 1.790885000000000105e+01 6.966630000000000678e+01 2.001304999999999836e+03
5.000000000000000278e-02 1.308440000000000158e-01 1.778685000000000116e+01 6.982179999999999609e+01 2.001429999999999836e+03
5.100000000000000366e-02 1.308475000000000055e-01 1.755375000000000085e+01 6.961519999999998731e+01 2.001480000000000018e+03
5.200000000000000455e-02 1.308429999999999871e-01 1.721079999999999899e+01 6.906340000000000146e+01 2.001434999999999945e+03
5.300000000000000544e-02 1.308294999999999875e-01 1.676484999999999914e+01 6.820404999999999518e+01 2.001299999999999955e+03
5.399999999999999939e-02 1.308080000000000076e-01 1.622619999999999862e+01 6.708530000000000371e+01 2.001085000000000036e+03
5.500000000000000028e-02 1.307794999999999930e-01 1.560650000000000048e+01 6.575790000000000646e+01 2.000795000000000073e+03
5.600000000000000117e-02 1.307450000000000001e-01 1.491789999999999949e+01 6.426964999999999861e+01 2.000444999999999936e+03
5.700000000000000205e-02 1.307049999999999879e-01 1.417314999999999969e+01 6.266404999999999603e+01 2.000039999999999964e+03
5.800000000000000294e-02 1.306614999999999860e-01 1.338605000000000089e+01 6.098094999999999999e+01 1.999589999999999918e+03
5.900000000000000383e-02 1.306149999999999811e-01 1.257208999999999932e+01 5.925995000000000346e+01 1.999115000000000009e+03
6.000000000000000472e-02 1.305665000000000020e-01 1.174964500000000100e+01 5.754304999999999382e+01 1.998619999999999891e+03
6.099999999999999867e-02 1.305179999999999951e-01 1.094009499999999946e+01 5.587780000000000058e+01 1.998119999999999891e+03
6.199999999999999956e-02 1.304704999999999893e-01 1.016790999999999912e+01 5.431884999999999764e+01 1.997630000000000109e+03
6.300000000000000044e-02 1.304259999999999864e-01 9.459944999999999382e+00 5.292690000000000339e+01 1.997164999999999964e+03
6.400000000000000133e-02 1.303850000000000009e-01 8.844649999999999679e+00 5.176740000000000208e+01 1.996744999999999891e+03
6.500000000000000222e-02 1.303509999999999946e-01 8.350329999999999586e+00 5.090670000000000073e+01 1.996384999999999991e+03
6.600000000000000311e-02 1.303245000000000098e-01 8.003640000000000754e+00 5.040814999999999912e+01 1.996110000000000127e+03
6.700000000000000400e-02 1.303080000000000072e-01 7.828165000000000262e+00 5.032729999999999393e+01 1.995930000000000064e+03
6.800000000000000488e-02 1.303034999999999888e-01 7.842850000000000321e+00 5.070860000000000412e+01 1.995865000000000009e+03
6.900000000000000577e-02 1.303110000000000102e-01 8.061075000000000657e+00 5.158169999999999789e+01 1.995934999999999945e+03
7.000000000000000666e-02 1.303320000000000034e-01 8.489990000000000592e+00 5.296045000000000158e+01 1.996139999999999873e+03
7.100000000000000755e-02 1.303670000000000107e-01 9.130340000000000344e+00 5.484179999999999922e+01 1.996485000000000127e+03
7.200000000000000844e-02 1.304164999999999908e-01 9.976790000000001157e+00 5.720674999999999955e+01 1.996974999999999909e+03
7.300000000000000933e-02 1.304790000000000116e-01 1.101829999999999998e+01 6.002259999999999707e+01 1.997605000000000018e+03
7.399999999999999634e-02 1.305550000000000044e-01 1.223925500000000000e+01 6.324509999999999366e+01 1.998375000000000000e+03
7.499999999999999722e-02 1.306424999999999947e-01 1.362030000000000030e+01 6.682220000000000937e+01 1.999264999999999873e+03
7.599999999999999811e-02 1.307404999999999817e-01 1.513984999999999914e+01 7.069719999999999516e+01 2.000265000000000100e+03
7.699999999999999900e-02 1.308485000000000065e-01 1.677490000000000236e+01 7.481234999999999502e+01 2.001369999999999891e+03
7.799999999999999989e-02 1.309635000000000105e-01 1.850249999999999773e+01 7.911220000000000141e+01 2.002554999999999836e+03
7.900000000000000078e-02 1.310854999999999937e-01 2.030064999999999742e+01 8.354595000000000482e+01 2.003809999999999945e+03
8.000000000000000167e-02 1.312115000000000087e-01 2.214885000000000304e+01 8.806964999999999577e+01 2.005115000000000009e+03
8.100000000000000255e-02 1.313420000000000143e-01 2.402919999999999945e+01 9.264740000000000464e+01 2.006464999999999918e+03
8.200000000000000344e-02 1.314750000000000085e-01 2.592609999999999815e+01 9.725119999999999720e+01 2.007845000000000027e+03
8.300000000000000433e-02 1.316094999999999904e-01 2.782650000000000290e+01 1.018618500000000040e+02 2.009250000000000000e+03
8.400000000000000522e-02 1.317454999999999876e-01 2.971974999999999767e+01 1.064656500000000108e+02 2.010674999999999955e+03
8.500000000000000611e-02 1.318825000000000136e-01 3.159729999999999706e+01 1.110550000000000068e+02 2.012105000000000018e+03
8.600000000000000699e-02 1.320195000000000118e-01 3.345190000000000197e+01 1.156245000000000118e+02 2.013539999999999964e+03
8.700000000000000788e-02 1.321569999999999967e-01 3.527754999999999797e+01 1.201719999999999970e+02 2.014985000000000127e+03
8.800000000000000877e-02 1.322939999999999949e-01 3.706879999999999598e+01 1.246940000000000026e+02 2.016425000000000182e+03
8.899999999999999578e-02 1.324309999999999932e-01 3.882040000000000646e+01 1.291854999999999905e+02 2.017865000000000009e+03
8.999999999999999667e-02 1.325665000000000038e-01 4.052719999999999345e+01 1.336400000000000148e+02 2.019304999999999836e+03
9.099999999999999756e-02 1.327025000000000010e-01 4.218390000000000128e+01 1.380490000000000066e+02 2.020739999999999782e+03
9.199999999999999845e-02 1.328370000000000106e-01 4.378509999999999991e+01 1.424010000000000105e+02 2.022159999999999854e+03
9.299999999999999933e-02 1.329695000000000182e-01 4.532535000000000025e+01 1.466814999999999998e+02 2.023569999999999936e+03
9.400000000000000022e-02 1.331005000000000105e-01 4.679894999999999783e+01 1.508774999999999977e+02 2.024960000000000036e+03
9.500000000000000111e-02 1.332289999999999863e-01 4.820049999999999812e+01 1.549724999999999966e+02 2.026335000000000036e+03
9.600000000000000200e-02 1.333550000000000013e-01 4.952465000000000117e+01 1.589504999999999768e+02 2.027679999999999836e+03
9.700000000000000289e-02 1.334784999999999999e-01 5.076614999999999611e+01 1.627959999999999923e+02 2.028990000000000009e+03
9.800000000000000377e-02 1.335969999999999935e-01 5.192010000000000502e+01 1.664934999999999832e+02 2.030264999999999873e+03
9.900000000000000466e-02 1.337125000000000119e-01 5.298179999999999978e+01 1.700275000000000034e+02 2.031494999999999891e+03
1.000000000000000056e-01 1.338225000000000109e-01 5.394669999999999987e+01 1.733840000000000146e+02 2.032680000000000064e+03
1.010000000000000064e-01 1.339275000000000049e-01 5.481074999999999875e+01 1.765490000000000066e+02 2.033815000000000055e+03
1.020000000000000073e-01 1.340274999999999939e-01 5.557019999999999982e+01 1.795095000000000027e+02 2.034889999999999873e+03
1.030000000000000082e-01 1.341220000000000190e-01 5.622164999999999679e+01 1.822545000000000073e+02 2.035900000000000091e+03
1.040000000000000091e-01 1.342094999999999816e-01 5.676255000000000450e+01 1.847719999999999914e+02 2.036845000000000027e+03
1.050000000000000100e-01 1.342909999999999937e-01 5.719110000000000582e+01 1.870545000000000186e+02 2.037730000000000018e+03
1.059999999999999970e-01 1.343650000000000122e-01 5.750645000000000095e+01 1.890969999999999800e+02 2.038539999999999964e+03
1.069999999999999979e-01 1.344325000000000103e-01 5.770900000000000318e+01 1.908944999999999936e+02 2.039269999999999982e+03
1.079999999999999988e-01 1.344930000000000014e-01 5.780044999999999789e+01 1.924485000000000241e+02 2.039924999999999955e+03
1.089999999999999997e-01 1.345465000000000133e-01 5.778414999999999679e+01 1.937630000000000052e+02 2.040505000000000109e+03
1.100000000000000006e-01 1.345925000000000038e-01 5.766460000000000008e+01 1.948455000000000155e+02 2.041009999999999991e+03
1.110000000000000014e-01 1.346315000000000150e-01 5.744799999999999329e+01 1.957079999999999984e+02 2.041444999999999936e+03
1.120000000000000023e-01 1.346640000000000059e-01 5.714159999999999684e+01 1.963640000000000043e+02 2.041804999999999836e+03
1.130000000000000032e-01 1.346904999999999908e-01 5.675390000000000157e+01 1.968315000000000055e+02 2.042099999999999909e+03
1.140000000000000041e-01 1.347114999999999840e-01 5.629404999999999859e+01 1.971305000000000121e+02 2.042335000000000036e+03
1.150000000000000050e-01 1.347264999999999990e-01 5.577179999999999893e+01 1.972814999999999941e+02 2.042504999999999882e+03
1.160000000000000059e-01 1.347369999999999957e-01 5.519709999999999894e+01 1.973054999999999950e+02 2.042630000000000109e+03
1.170000000000000068e-01 1.347440000000000027e-01 5.457965000000000089e+01 1.972230000000000132e+02 2.042705000000000155e+03
1.180000000000000077e-01 1.347470000000000057e-01 5.392879999999999541e+01 1.970534999999999854e+02 2.042744999999999891e+03
1.190000000000000085e-01 1.347464999999999913e-01 5.325330000000000297e+01 1.968145000000000095e+02 2.042750000000000000e+03
1.200000000000000094e-01 1.347444999999999893e-01 5.256094999999999828e+01 1.965210000000000150e+02 2.042730000000000018e+03
1.209999999999999964e-01 1.347395000000000120e-01 5.185845000000000482e+01 1.961859999999999786e+02 2.042679999999999836e+03
1.219999999999999973e-01 1.347329999999999917e-01 5.115129999999999910e+01 1.958195000000000050e+02 2.042609999999999900e+03
1.229999999999999982e-01 1.347249999999999837e-01 5.044405000000000427e+01 1.954279999999999973e+02 2.042529999999999973e+03
1.239999999999999991e-01 1.347165000000000168e-01 4.973954999999999416e+01 1.950155000000000030e+02 2.042434999999999945e+03
1.250000000000000000e-01 1.347059999999999924e-01 4.903985000000000127e+01 1.945835000000000150e+02 2.042319999999999936e+03
1.260000000000000009e-01 1.346944999999999948e-01 4.834564999999999912e+01 1.941315000000000168e+02 2.042204999999999927e+03
1.270000000000000018e-01 1.346829999999999972e-01 4.765664999999999907e+01 1.936555000000000177e+02 2.042074999999999818e+03
1.280000000000000027e-01 1.346694999999999975e-01 4.697164999999999679e+01 1.931519999999999868e+02 2.041934999999999945e+03
1.290000000000000036e-01 1.346554999999999835e-01 4.628879999999999484e+01 1.926140000000000043e+02 2.041784999999999854e+03
1.300000000000000044e-01 1.346404999999999963e-01 4.560560000000000258e+01 1.920344999999999800e+02 2.041615000000000009e+03
1.310000000000000053e-01 1.346240000000000214e-01 4.491910000000000025e+01 1.914074999999999989e+02 2.041440000000000055e+03
1.320000000000000062e-01 1.346060000000000034e-01 4.422644999999999982e+01 1.907245000000000061e+02 2.041245000000000118e+03
1.330000000000000071e-01 1.345859999999999834e-01 4.352469999999999573e+01 1.899794999999999732e+02 2.041029999999999973e+03
1.340000000000000080e-01 1.345640000000000169e-01 4.281105000000000160e+01 1.891664999999999850e+02 2.040795000000000073e+03
1.350000000000000089e-01 1.345405000000000073e-01 4.208319999999999794e+01 1.882805000000000177e+02 2.040545000000000073e+03
1.360000000000000098e-01 1.345144999999999813e-01 4.133950000000000102e+01 1.873199999999999932e+02 2.040264999999999873e+03
1.370000000000000107e-01 1.344869999999999954e-01 4.057890000000000441e+01 1.862839999999999918e+02 2.039970000000000027e+03
1.380000000000000115e-01 1.344564999999999788e-01 3.980120000000000147e+01 1.851730000000000018e+02 2.039644999999999982e+03
1.390000000000000124e-01 1.344245000000000023e-01 3.900714999999999577e+01 1.839915000000000020e+02 2.039304999999999836e+03
1.400000000000000133e-01 1.343900000000000095e-01 3.819839999999999947e+01 1.827450000000000045e+02 2.038934999999999945e+03
1.410000000000000142e-01 1.343535000000000146e-01 3.737749999999999773e+01 1.814415000000000191e+02 2.038550000000000182e+03
1.420000000000000151e-01 1.343155000000000043e-01 3.654789999999999850e+01 1.800919999999999845e+02 2.038139999999999873e+03
1.430000000000000160e-01 1.342764999999999931e-01 3.571385000000000076e+01 1.787074999999999818e+02 2.037724999999999909e+03
1.440000000000000169e-01 1.342360000000000220e-01 3.488009999999999877e+01 1.773009999999999877e+02 2.037289999999999964e+03
1.450000000000000178e-01 1.341944999999999943e-01 3.405194999999999794e+01 1.758879999999999768e+02 2.036849999999999909e+03
1.459999999999999909e-01 1.341529999999999945e-01 3.323505000000000109e+01 1.744814999999999827e+02 2.036404999999999973e+03
1.469999999999999918e-01 1.341114999999999946e-01 3.243489999999999895e+01 1.730974999999999966e+02 2.035960000000000036e+03
1.479999999999999927e-01 1.340699999999999947e-01 3.165709999999999980e+01 1.717484999999999786e+02 2.035519999999999982e+03
1.489999999999999936e-01 1.340300000000000102e-01 3.090670000000000073e+01 1.704474999999999909e+02 2.035090000000000146e+03
1.499999999999999944e-01 1.339905000000000124e-01 3.018830000000000169e+01 1.692060000000000173e+02 2.034670000000000073e+03
1.509999999999999953e-01 1.339529999999999887e-01 2.950594999999999857e+01 1.680320000000000107e+02 2.034264999999999873e+03
1.519999999999999962e-01 1.339175000000000226e-01 2.886270000000000024e+01 1.669345000000000141e+02 2.033875000000000000e+03
1.529999999999999971e-01 1.338830000000000020e-01 2.826095000000000113e+01 1.659170000000000016e+02 2.033509999999999991e+03
1.539999999999999980e-01 1.338515000000000121e-01 2.770210000000000150e+01 1.649830000000000041e+02 2.033170000000000073e+03
1.549999999999999989e-01 1.338219999999999965e-01 2.718670000000000186e+01 1.641324999999999932e+02 2.032855000000000018e+03
1.559999999999999998e-01 1.337944999999999829e-01 2.671460000000000079e+01 1.633645000000000209e+02 2.032559999999999945e+03
1.570000000000000007e-01 1.337700000000000000e-01 2.628484999999999872e+01 1.626754999999999995e+02 2.032289999999999964e+03
1.580000000000000016e-01 1.337474999999999914e-01 2.589574999999999960e+01 1.620625000000000000e+02 2.032045000000000073e+03
1.590000000000000024e-01 1.337269999999999848e-01 2.554525000000000290e+01 1.615194999999999936e+02 2.031820000000000164e+03
