# t [s], A [cm^2], U [cm/s], P [cPa], c [cm/s]
1.000000000000000021e-03 1.249529999999999946e-01 1.642232000000000136e-01 1.027560000000000002e+02 2.043634999999999764e+03
2.000000000000000042e-03 1.249340000000000034e-01 1.493866000000000138e+00 9.995724999999998772e+01 2.043384999999999991e+03
3.000000000000000062e-03 1.248625000000000013e-01 3.205400500000000097e+00 9.609865000000000634e+01 2.042509999999999991e+03
4.000000000000000083e-03 1.247554999999999914e-01 5.146491000000000149e+00 9.158029999999999404e+01 2.041219999999999800e+03
5.000000000000000104e-03 1.246300000000000047e-01 7.261644999999999683e+00 8.712649999999999295e+01 2.039720000000000027e+03
6.000000000000000125e-03 1.245020000000000016e-01 9.453989999999999227e+00 8.319214999999999804e+01 2.038210000000000036e+03
7.000000000000000146e-03 1.243779999999999886e-01 1.156482499999999902e+01 7.982015000000001237e+01 2.036769999999999982e+03
8.000000000000000167e-03 1.242609999999999965e-01 1.345608000000000004e+01 7.681850000000000023e+01 2.035424999999999955e+03
9.000000000000001055e-03 1.241514999999999980e-01 1.509170999999999907e+01 7.409109999999999729e+01 2.034204999999999927e+03
1.000000000000000194e-02 1.240545000000000120e-01 1.649630000000000152e+01 7.169034999999999513e+01 2.033115000000000009e+03
1.099999999999999936e-02 1.239699999999999969e-01 1.769249999999999901e+01 6.966694999999999993e+01 2.032190000000000055e+03
1.200000000000000025e-02 1.238989999999999952e-01 1.869290000000000163e+01 6.801354999999999507e+01 2.031410000000000082e+03
1.300000000000000114e-02 1.238400000000000056e-01 1.950404999999999944e+01 6.668174999999999386e+01 2.030779999999999973e+03
1.400000000000000203e-02 1.237914999999999988e-01 2.012490000000000023e+01 6.558605000000000018e+01 2.030259999999999991e+03
1.499999999999999944e-02 1.237499999999999989e-01 2.056085000000000207e+01 6.463020000000000209e+01 2.029835000000000036e+03
1.600000000000000033e-02 1.237155000000000060e-01 2.085060000000000002e+01 6.378544999999999732e+01 2.029474999999999909e+03
1.700000000000000122e-02 1.236879999999999924e-01 2.107719999999999771e+01 6.315425000000000466e+01 2.029194999999999936e+03
1.800000000000000211e-02 1.236715000000000036e-01 2.134459999999999980e+01 6.294549999999999557e+01 2.029029999999999973e+03
1.900000000000000300e-02 1.236694999999999878e-01 2.173519999999999897e+01 6.336639999999999873e+01 2.029025000000000091e+03
2.000000000000000042e-02 1.236850000000000033e-01 2.227429999999999666e+01 6.450169999999999959e+01 2.029195000000000164e+03
2.100000000000000130e-02 1.237165000000000070e-01 2.292215000000000202e+01 6.625135000000000218e+01 2.029539999999999964e+03
2.200000000000000219e-02 1.237600000000000089e-01 2.359219999999999828e+01 6.835165000000000646e+01 2.030029999999999973e+03
2.299999999999999961e-02 1.238085000000000019e-01 2.418430000000000035e+01 7.045974999999999966e+01 2.030575000000000045e+03
2.400000000000000050e-02 1.238564999999999944e-01 2.461724999999999852e+01 7.225769999999999982e+01 2.031119999999999891e+03
2.500000000000000139e-02 1.238969999999999932e-01 2.484989999999999810e+01 7.353624999999999545e+01 2.031585000000000036e+03
2.600000000000000228e-02 1.239270000000000094e-01 2.488615000000000066e+01 7.423369999999999891e+01 2.031934999999999945e+03
2.700000000000000316e-02 1.239460000000000006e-01 2.476550000000000296e+01 7.442490000000000805e+01 2.032170000000000073e+03
2.800000000000000058e-02 1.239554999999999962e-01 2.454359999999999786e+01 7.427089999999999748e+01 2.032295000000000073e+03
2.900000000000000147e-02 1.239589999999999859e-01 2.427185000000000059e+01 7.395210000000000150e+01 2.032349999999999909e+03
3.000000000000000236e-02 1.239590000000000136e-01 2.398189999999999955e+01 7.360759999999999081e+01 2.032349999999999909e+03
3.099999999999999978e-02 1.239564999999999972e-01 2.367929999999999779e+01 7.329904999999999404e+01 2.032329999999999927e+03
3.200000000000000067e-02 1.239534999999999942e-01 2.334710000000000107e+01 7.300655000000000427e+01 2.032295000000000073e+03
3.300000000000000155e-02 1.239475000000000160e-01 2.295690000000000097e+01 7.265244999999998754e+01 2.032235000000000127e+03
3.400000000000000244e-02 1.239385000000000070e-01 2.248250000000000171e+01 7.214189999999999259e+01 2.032139999999999873e+03
3.500000000000000333e-02 1.239240000000000064e-01 2.191295000000000215e+01 7.140684999999999150e+01 2.031980000000000018e+03
3.600000000000000422e-02 1.239039999999999864e-01 2.126064999999999827e+01 7.043979999999999109e+01 2.031769999999999982e+03
3.700000000000000511e-02 1.238790000000000030e-01 2.056235000000000213e+01 6.930850000000000932e+01 2.031500000000000000e+03
3.799999999999999906e-02 1.238520000000000038e-01 1.987330000000000041e+01 6.814695000000000391e+01 2.031204999999999927e+03
3.899999999999999994e-02 1.238249999999999906e-01 1.925549999999999784e+01 6.712690000000000623e+01 2.030909999999999854e+03
4.000000000000000083e-02 1.238035000000000108e-01 1.876449999999999818e+01 6.641750000000000398e+01 2.030660000000000082e+03
4.100000000000000172e-02 1.237894999999999968e-01 1.843759999999999977e+01 6.614545000000001096e+01 2.030494999999999891e+03
4.200000000000000261e-02 1.237850000000000061e-01 1.828634999999999877e+01 6.636625000000000796e+01 2.030440000000000055e+03
4.300000000000000350e-02 1.237919999999999993e-01 1.829579999999999984e+01 6.705320000000000391e+01 2.030500000000000000e+03
4.400000000000000439e-02 1.238085000000000019e-01 1.842839999999999989e+01 6.810460000000000491e+01 2.030674999999999955e+03
4.499999999999999833e-02 1.238324999999999843e-01 1.863230000000000075e+01 6.936605000000000132e+01 2.030930000000000064e+03
4.599999999999999922e-02 1.238609999999999989e-01 1.885065000000000168e+01 7.065989999999999327e+01 2.031235000000000127e+03
4.700000000000000011e-02 1.238889999999999991e-01 1.903054999999999808e+01 7.181585000000001173e+01 2.031549999999999955e+03
4.800000000000000100e-02 1.239139999999999964e-01 1.912969999999999970e+01 7.269495000000000573e+01 2.031829999999999927e+03
4.900000000000000189e-02 1.239330000000000015e-01 1.911949999999999861e+01 7.320470000000000255e+01 2.032039999999999964e+03
5.000000000000000278e-02 1.239439999999999986e-01 1.898570000000000135e+01 7.330294999999999561e+01 2.032170000000000073e+03
5.100000000000000366e-02 1.239460000000000006e-01 1.872659999999999769e+01 7.299269999999999925e+01 2.032200000000000045e+03
5.200000000000000455e-02 1.239385000000000070e-01 1.834895000000000209e+01 7.231069999999999709e+01 2.032125000000000000e+03
5.300000000000000544e-02 1.239225000000000049e-01 1.786484999999999701e+01 7.131305000000000405e+01 2.031954999999999927e+03
5.399999999999999939e-02 1.238990000000000091e-01 1.728829999999999956e+01 7.006235000000000923e+01 2.031695000000000164e+03
5.500000000000000028e-02 1.238684999999999925e-01 1.663309999999999889e+01 6.861799999999999500e+01 2.031360000000000127e+03
5.600000000000000117e-02 1.238329999999999986e-01 1.591229999999999833e+01 6.703104999999999336e+01 2.030970000000000027e+03
5.700000000000000205e-02 1.237924999999999998e-01 1.513875000000000171e+01 6.534414999999999907e+01 2.030530000000000200e+03
5.800000000000000294e-02 1.237495000000000123e-01 1.432580000000000098e+01 6.359454999999999814e+01 2.030049999999999955e+03
5.900000000000000383e-02 1.237040000000000084e-01 1.348924999999999841e+01 6.181889999999999930e+01 2.029545000000000073e+03
6.000000000000000472e-02 1.236580000000000040e-01 1.264806499999999900e+01 6.005819999999999936e+01 2.029034999999999854e+03
6.099999999999999867e-02 1.236115000000000130e-01 1.182534000000000063e+01 5.836169999999999902e+01 2.028519999999999982e+03
6.199999999999999956e-02 1.235670000000000102e-01 1.104792000000000129e+01 5.678839999999999577e+01 2.028019999999999982e+03
6.300000000000000044e-02 1.235249999999999959e-01 1.034552000000000049e+01 5.540609999999999502e+01 2.027555000000000064e+03
6.400000000000000133e-02 1.234885000000000010e-01 9.749379999999998603e+00 5.428804999999999836e+01 2.027139999999999873e+03
6.500000000000000222e-02 1.234589999999999854e-01 9.290424999999999045e+00 5.350829999999999842e+01 2.026804999999999836e+03
6.600000000000000311e-02 1.234379999999999922e-01 8.997040000000000148e+00 5.313620000000000232e+01 2.026565000000000055e+03
6.700000000000000400e-02 1.234274999999999956e-01 8.893240000000000478e+00 5.323075000000000045e+01 2.026430000000000064e+03
6.800000000000000488e-02 1.234289999999999971e-01 8.997354999999998881e+00 5.383610000000000184e+01 2.026440000000000055e+03
6.900000000000000577e-02 1.234435000000000116e-01 9.320810000000001594e+00 5.497830000000000439e+01 2.026579999999999927e+03
7.000000000000000666e-02 1.234719999999999984e-01 9.867760000000000531e+00 5.666405000000000314e+01 2.026880000000000109e+03
7.100000000000000755e-02 1.235140000000000127e-01 1.063507500000000050e+01 5.888080000000000069e+01 2.027329999999999927e+03
7.200000000000000844e-02 1.235700000000000132e-01 1.161302000000000056e+01 6.159839999999999804e+01 2.027934999999999945e+03
7.300000000000000933e-02 1.236389999999999989e-01 1.278609999999999935e+01 6.477235000000000298e+01 2.028690000000000055e+03
7.399999999999999634e-02 1.237199999999999966e-01 1.413429999999999964e+01 6.834685000000000343e+01 2.029579999999999927e+03
7.499999999999999722e-02 1.238120000000000054e-01 1.563435000000000130e+01 7.225964999999999350e+01 2.030590000000000146e+03
7.599999999999999811e-02 1.239129999999999954e-01 1.726140000000000185e+01 7.644579999999999131e+01 2.031710000000000036e+03
7.699999999999999900e-02 1.240224999999999939e-01 1.899005000000000010e+01 8.084184999999999377e+01 2.032920000000000073e+03
7.799999999999999989e-02 1.241369999999999973e-01 2.079595000000000127e+01 8.538915000000000077e+01 2.034204999999999927e+03
7.900000000000000078e-02 1.242574999999999930e-01 2.265654999999999930e+01 9.003655000000000541e+01 2.035545000000000073e+03
8.000000000000000167e-02 1.243815000000000059e-01 2.455189999999999984e+01 9.474199999999999022e+01 2.036929999999999836e+03
8.100000000000000255e-02 1.245074999999999932e-01 2.646499999999999986e+01 9.947395000000000209e+01 2.038349999999999909e+03
8.200000000000000344e-02 1.246355000000000102e-01 2.838194999999999979e+01 1.042095999999999947e+02 2.039789999999999964e+03
8.300000000000000433e-02 1.247645000000000004e-01 3.029164999999999708e+01 1.089344999999999999e+02 2.041244999999999891e+03
8.400000000000000522e-02 1.248935000000000045e-01 3.218525000000000347e+01 1.136419999999999959e+02 2.042704999999999927e+03
8.500000000000000611e-02 1.250229999999999952e-01 3.405580000000000496e+01 1.183269999999999982e+02 2.044174999999999955e+03
8.600000000000000699e-02 1.251530000000000142e-01 3.589724999999999966e+01 1.229890000000000043e+02 2.045644999999999982e+03
8.700000000000000788e-02 1.252825000000000188e-01 3.770439999999999969e+01 1.276250000000000000e+02 2.047119999999999891e+03
8.800000000000000877e-02 1.254115000000000091e-01 3.947185000000000343e+01 1.322315000000000111e+02 2.048590000000000146e+03
8.899999999999999578e-02 1.255394999999999983e-01 4.119429999999999836e+01 1.368000000000000114e+02 2.050059999999999945e+03
8.999999999999999667e-02 1.256674999999999875e-01 4.286594999999999800e+01 1.413224999999999909e+02 2.051519999999999982e+03
9.099999999999999756e-02 1.257940000000000169e-01 4.448080000000000211e+01 1.457839999999999918e+02 2.052965000000000146e+03
9.199999999999999845e-02 1.259190000000000031e-01 4.603260000000000218e+01 1.501690000000000111e+02 2.054400000000000091e+03
9.299999999999999933e-02 1.260425000000000018e-01 4.751524999999999466e+01 1.544599999999999795e+02 2.055814999999999600e+03
9.400000000000000022e-02 1.261629999999999974e-01 4.892249999999999943e+01 1.586405000000000030e+02 2.057204999999999927e+03
9.500000000000000111e-02 1.262804999999999900e-01 5.024859999999999616e+01 1.626904999999999859e+02 2.058564999999999600e+03
9.600000000000000200e-02 1.263954999999999940e-01 5.148810000000000286e+01 1.665939999999999941e+02 2.059885000000000218e+03
9.700000000000000289e-02 1.265060000000000073e-01 5.263580000000000325e+01 1.703335000000000150e+02 2.061170000000000073e+03
9.800000000000000377e-02 1.266124999999999889e-01 5.368690000000000140e+01 1.738940000000000055e+02 2.062399999999999636e+03
9.900000000000000466e-02 1.267139999999999933e-01 5.463694999999999879e+01 1.772599999999999909e+02 2.063579999999999927e+03
1.000000000000000056e-01 1.268104999999999927e-01 5.548189999999999600e+01 1.804184999999999945e+02 2.064699999999999818e+03
1.010000000000000064e-01 1.269015000000000004e-01 5.621800000000000352e+01 1.833564999999999827e+02 2.065760000000000218e+03
1.020000000000000073e-01 1.269865000000000022e-01 5.684199999999999875e+01 1.860614999999999952e+02 2.066755000000000109e+03
1.030000000000000082e-01 1.270654999999999979e-01 5.735144999999999982e+01 1.885240000000000009e+02 2.067675000000000182e+03
1.040000000000000091e-01 1.271375000000000144e-01 5.774460000000000548e+01 1.907344999999999970e+02 2.068525000000000091e+03
1.050000000000000100e-01 1.272030000000000105e-01 5.802105000000000246e+01 1.926890000000000214e+02 2.069289999999999964e+03
1.059999999999999970e-01 1.272614999999999996e-01 5.818155000000000143e+01 1.943840000000000146e+02 2.069980000000000018e+03
1.069999999999999979e-01 1.273130000000000095e-01 5.822834999999999894e+01 1.958215000000000146e+02 2.070585000000000036e+03
1.079999999999999988e-01 1.273575000000000124e-01 5.816544999999999987e+01 1.970070000000000050e+02 2.071119999999999891e+03
1.089999999999999997e-01 1.273954999999999949e-01 5.799835000000000207e+01 1.979504999999999768e+02 2.071565000000000055e+03
1.100000000000000006e-01 1.274270000000000125e-01 5.773425000000000296e+01 1.986670000000000016e+02 2.071940000000000055e+03
1.110000000000000014e-01 1.274520000000000097e-01 5.738139999999999930e+01 1.991725000000000136e+02 2.072239999999999782e+03
1.120000000000000023e-01 1.274710000000000010e-01 5.694934999999999548e+01 1.994884999999999877e+02 2.072474999999999909e+03
1.130000000000000032e-01 1.274845000000000006e-01 5.644825000000000159e+01 1.996374999999999886e+02 2.072639999999999873e+03
1.140000000000000041e-01 1.274934999999999818e-01 5.588870000000000005e+01 1.996419999999999959e+02 2.072755000000000109e+03
1.150000000000000050e-01 1.274984999999999868e-01 5.528125000000000000e+01 1.995250000000000057e+02 2.072819999999999709e+03
1.160000000000000059e-01 1.274995000000000156e-01 5.463609999999999900e+01 1.993095000000000141e+02 2.072845000000000255e+03
1.170000000000000068e-01 1.274980000000000002e-01 5.396274999999999977e+01 1.990144999999999982e+02 2.072824999999999818e+03
1.180000000000000077e-01 1.274934999999999818e-01 5.326989999999999981e+01 1.986589999999999918e+02 2.072779999999999745e+03
1.190000000000000085e-01 1.274870000000000170e-01 5.256510000000000105e+01 1.982565000000000168e+02 2.072704999999999927e+03
1.200000000000000094e-01 1.274794999999999956e-01 5.185455000000000325e+01 1.978204999999999814e+02 2.072614999999999782e+03
1.209999999999999964e-01 1.274700000000000000e-01 5.114334999999999809e+01 1.973584999999999923e+02 2.072510000000000218e+03
1.219999999999999973e-01 1.274589999999999890e-01 5.043500000000000227e+01 1.968765000000000214e+02 2.072389999999999873e+03
1.229999999999999982e-01 1.274474999999999913e-01 4.973194999999999766e+01 1.963764999999999930e+02 2.072255000000000109e+03
1.239999999999999991e-01 1.274350000000000205e-01 4.903524999999999778e+01 1.958594999999999970e+02 2.072110000000000127e+03
1.250000000000000000e-01 1.274224999999999941e-01 4.834474999999999767e+01 1.953215000000000146e+02 2.071965000000000146e+03
1.260000000000000009e-01 1.274085000000000079e-01 4.765944999999999965e+01 1.947590000000000146e+02 2.071795000000000073e+03
1.270000000000000018e-01 1.273929999999999785e-01 4.697740000000000293e+01 1.941649999999999920e+02 2.071625000000000000e+03
1.280000000000000027e-01 1.273775000000000046e-01 4.629599999999999937e+01 1.935339999999999918e+02 2.071440000000000055e+03
1.290000000000000036e-01 1.273605000000000154e-01 4.561225000000000307e+01 1.928559999999999945e+02 2.071239999999999782e+03
1.300000000000000044e-01 1.273424999999999974e-01 4.492295000000000016e+01 1.921250000000000000e+02 2.071029999999999745e+03
1.310000000000000053e-01 1.273225000000000051e-01 4.422469999999999857e+01 1.913330000000000268e+02 2.070795000000000073e+03
1.320000000000000062e-01 1.273009999999999975e-01 4.351444999999999652e+01 1.904735000000000014e+02 2.070550000000000182e+03
1.330000000000000071e-01 1.272770000000000012e-01 4.278950000000000387e+01 1.895400000000000205e+02 2.070279999999999745e+03
1.340000000000000080e-01 1.272515000000000174e-01 4.204760000000000275e+01 1.885300000000000011e+02 2.069985000000000127e+03
1.350000000000000089e-01 1.272240000000000038e-01 4.128744999999999976e+01 1.874404999999999859e+02 2.069664999999999964e+03
1.360000000000000098e-01 1.271944999999999881e-01 4.050839999999999463e+01 1.862729999999999961e+02 2.069324999999999818e+03
1.370000000000000107e-01 1.271629999999999983e-01 3.971074999999999733e+01 1.850294999999999845e+02 2.068960000000000036e+03
1.380000000000000115e-01 1.271289999999999920e-01 3.889594999999999914e+01 1.837160000000000082e+02 2.068574999999999818e+03
1.390000000000000124e-01 1.270939999999999848e-01 3.806624999999999659e+01 1.823394999999999868e+02 2.068159999999999854e+03
1.400000000000000133e-01 1.270565000000000166e-01 3.722509999999999764e+01 1.809099999999999966e+02 2.067730000000000018e+03
1.410000000000000142e-01 1.270179999999999920e-01 3.637664999999999793e+01 1.794404999999999859e+02 2.067289999999999964e+03
1.420000000000000151e-01 1.269780000000000075e-01 3.552584999999999837e+01 1.779430000000000121e+02 2.066824999999999818e+03
1.430000000000000160e-01 1.269369999999999943e-01 3.467835000000000178e+01 1.764345000000000141e+02 2.066360000000000127e+03
1.440000000000000169e-01 1.268960000000000088e-01 3.383995000000000175e+01 1.749290000000000020e+02 2.065885000000000218e+03
1.450000000000000178e-01 1.268555000000000099e-01 3.301689999999999969e+01 1.734429999999999836e+02 2.065414999999999964e+03
1.459999999999999909e-01 1.268144999999999967e-01 3.221514999999999418e+01 1.719920000000000186e+02 2.064949999999999818e+03
1.469999999999999918e-01 1.267749999999999988e-01 3.144055000000000177e+01 1.705899999999999750e+02 2.064484999999999673e+03
1.479999999999999927e-01 1.267360000000000153e-01 3.069829999999999970e+01 1.692510000000000048e+02 2.064034999999999854e+03
1.489999999999999936e-01 1.266990000000000061e-01 2.999285000000000423e+01 1.679844999999999970e+02 2.063609999999999673e+03
1.499999999999999944e-01 1.266639999999999988e-01 2.932804999999999751e+01 1.667989999999999782e+02 2.063195000000000164e+03
1.509999999999999953e-01 1.266305000000000069e-01 2.870669999999999789e+01 1.657030000000000030e+02 2.062809999999999945e+03
1.519999999999999962e-01 1.265995000000000037e-01 2.813069999999999737e+01 1.646979999999999791e+02 2.062444999999999709e+03
1.529999999999999971e-01 1.265705000000000024e-01 2.760099999999999909e+01 1.637864999999999895e+02 2.062114999999999782e+03
1.539999999999999980e-01 1.265439999999999898e-01 2.711764999999999759e+01 1.629679999999999893e+02 2.061805000000000291e+03
1.549999999999999989e-01 1.265199999999999936e-01 2.667989999999999995e+01 1.622390000000000043e+02 2.061524999999999636e+03
1.559999999999999998e-01 1.264985000000000137e-01 2.628640000000000043e+01 1.615974999999999966e+02 2.061270000000000437e+03
1.570000000000000007e-01 1.264790000000000081e-01 2.593495000000000061e+01 1.610364999999999895e+02 2.061039999999999964e+03
1.580000000000000016e-01 1.264620000000000188e-01 2.562330000000000041e+01 1.605504999999999995e+02 2.060840000000000146e+03
1.590000000000000024e-01 1.264470000000000038e-01 2.534844999999999970e+01 1.601334999999999980e+02 2.060659999999999854e+03
