# t [s], A [cm^2], U [cm/s], P [cPa], c [cm/s]
1.000000000000000021e-03 7.225500000000000256e-01 6.102000000000003255e-03 9.127379999999999427e+01 1.706190000000000055e+03
2.000000000000000042e-03 7.225380000000000136e-01 -2.856849999999999321e-04 9.123709999999999809e+01 1.706190000000000055e+03
3.000000000000000062e-03 7.226159999999999251e-01 1.351625999999999939e-01 9.138615000000000066e+01 1.706219999999999800e+03
4.000000000000000083e-03 7.226565000000000349e-01 2.305690000000000239e-01 9.149289999999999168e+01 1.706244999999999891e+03
5.000000000000000104e-03 7.225835000000000452e-01 1.469309999999999783e-01 9.130979999999999563e+01 1.706204999999999927e+03
6.000000000000000125e-03 7.224880000000000191e-01 1.663500000000001089e-02 9.096250000000000568e+01 1.706119999999999891e+03
7.000000000000000146e-03 7.223930000000000629e-01 -1.285349999999999548e-01 9.052734999999999843e+01 1.706019999999999982e+03
8.000000000000000167e-03 7.222159999999999691e-01 -4.307649999999999535e-01 8.982435000000000969e+01 1.705855000000000018e+03
9.000000000000001055e-03 7.219560000000000421e-01 -8.952749999999999320e-01 8.879410000000000025e+01 1.705615000000000009e+03
1.000000000000000194e-02 7.216069999999999984e-01 -1.520355000000000123e+00 8.739275000000000659e+01 1.705284999999999854e+03
1.099999999999999936e-02 7.211305000000000076e-01 -2.349909999999999943e+00 8.551030000000000086e+01 1.704835000000000036e+03
1.200000000000000025e-02 7.205435000000000034e-01 -3.329344999999999999e+00 8.315524999999999523e+01 1.704264999999999873e+03
1.300000000000000114e-02 7.199514999999999665e-01 -4.246725500000000153e+00 8.058314999999998918e+01 1.703615000000000009e+03
1.400000000000000203e-02 7.194754999999999345e-01 -4.851663000000000281e+00 7.817785000000000650e+01 1.702980000000000018e+03
1.499999999999999944e-02 7.191710000000000047e-01 -5.001619999999999955e+00 7.623335000000000150e+01 1.702429999999999836e+03
1.600000000000000033e-02 7.190130000000000132e-01 -4.714010000000000034e+00 7.482529999999999859e+01 1.701994999999999891e+03
1.700000000000000122e-02 7.189174999999999871e-01 -4.129760000000000097e+00 7.381385000000000218e+01 1.701639999999999873e+03
1.800000000000000211e-02 7.187890000000000112e-01 -3.436485000000000234e+00 7.293260000000000787e+01 1.701325000000000045e+03
1.900000000000000300e-02 7.185589999999999478e-01 -2.788859500000000047e+00 7.191204999999999359e+01 1.700985000000000127e+03
2.000000000000000042e-02 7.182109999999999328e-01 -2.253311000000000064e+00 7.058870000000000289e+01 1.700590000000000146e+03
2.100000000000000130e-02 7.177780000000000271e-01 -1.798810000000000020e+00 6.895544999999999902e+01 1.700125000000000000e+03
2.200000000000000219e-02 7.173184999999999700e-01 -1.335490000000000066e+00 6.713370000000000459e+01 1.699605000000000018e+03
2.299999999999999961e-02 7.168875000000000108e-01 -7.759700000000002706e-01 6.529075000000000273e+01 1.699085000000000036e+03
2.400000000000000050e-02 7.165079999999999227e-01 -8.599500000000004363e-02 6.355129999999999768e+01 1.698574999999999818e+03
2.500000000000000139e-02 7.161655000000000104e-01 6.937450000000002781e-01 6.193990000000000151e+01 1.698085000000000036e+03
2.600000000000000228e-02 7.158145000000000202e-01 1.455230000000000024e+00 6.036695000000000277e+01 1.697605000000000018e+03
2.700000000000000316e-02 7.153924999999999867e-01 2.051969999999999850e+00 5.865354999999999563e+01 1.697105000000000018e+03
2.800000000000000058e-02 7.148399999999999199e-01 2.339484999999999815e+00 5.658615000000000350e+01 1.696525000000000091e+03
2.900000000000000147e-02 7.141210000000000058e-01 2.217344999999999899e+00 5.398479999999999990e+01 1.695829999999999927e+03
3.000000000000000236e-02 7.132359999999999811e-01 1.660375000000000600e+00 5.076644999999999897e+01 1.694990000000000009e+03
3.099999999999999978e-02 7.122215000000000629e-01 7.272949999999998028e-01 4.698049999999999926e+01 1.694014999999999873e+03
3.200000000000000067e-02 7.111460000000000559e-01 -4.560999999999992838e-01 4.280344999999999800e+01 1.692940000000000055e+03
3.300000000000000155e-02 7.100874999999999826e-01 -1.730825000000000280e+00 3.849880000000000280e+01 1.691815000000000055e+03
3.400000000000000244e-02 7.091195000000000137e-01 -2.940464999999999662e+00 3.436124999999999829e+01 1.690710000000000036e+03
3.500000000000000333e-02 7.082984999999999420e-01 -3.957794999999999952e+00 3.066360000000000241e+01 1.689690000000000055e+03
3.600000000000000422e-02 7.076599999999999557e-01 -4.698154999999999859e+00 2.761974999999999980e+01 1.688820000000000164e+03
3.700000000000000511e-02 7.072190000000000420e-01 -5.120456499999999522e+00 2.536540000000000106e+01 1.688134999999999991e+03
3.799999999999999906e-02 7.069725000000000037e-01 -5.219330000000000247e+00 2.395700000000000074e+01 1.687650000000000091e+03
3.899999999999999994e-02 7.069075000000000220e-01 -5.012814999999999799e+00 2.338439999999999941e+01 1.687389999999999873e+03
4.000000000000000083e-02 7.070049999999999946e-01 -4.528360000000000163e+00 2.359260000000000090e+01 1.687335000000000036e+03
4.100000000000000172e-02 7.072469999999999590e-01 -3.791875000000000107e+00 2.450440000000000040e+01 1.687474999999999909e+03
4.200000000000000261e-02 7.076195000000000679e-01 -2.821799999999999642e+00 2.604015000000000057e+01 1.687795000000000073e+03
4.300000000000000350e-02 7.081094999999999473e-01 -1.629305000000000003e+00 2.812805000000000177e+01 1.688269999999999982e+03
4.400000000000000439e-02 7.087084999999999635e-01 -2.232700000000003016e-01 3.070515000000000327e+01 1.688889999999999873e+03
4.499999999999999833e-02 7.094044999999999934e-01 1.382830000000000226e+00 3.371175000000000210e+01 1.689634999999999991e+03
4.599999999999999922e-02 7.101830000000000087e-01 3.165169999999999817e+00 3.708355000000000246e+01 1.690485000000000127e+03
4.700000000000000011e-02 7.110244999999999482e-01 5.086990000000000123e+00 4.074555000000000149e+01 1.691420000000000073e+03
4.800000000000000100e-02 7.119060000000000388e-01 7.099739999999999718e+00 4.461005000000000109e+01 1.692424999999999955e+03
4.900000000000000189e-02 7.128025000000000055e-01 9.147319500000000048e+00 4.857989999999999498e+01 1.693474999999999909e+03
5.000000000000000278e-02 7.136890000000000178e-01 1.117179499999999948e+01 5.255474999999999852e+01 1.694545000000000073e+03
5.100000000000000366e-02 7.145449999999999857e-01 1.311966500000000124e+01 5.644019999999999726e+01 1.695599999999999909e+03
5.200000000000000455e-02 7.153534999999999755e-01 1.494688999999999979e+01 6.015614999999999668e+01 1.696630000000000109e+03
5.300000000000000544e-02 7.161044999999999217e-01 1.662205000000000155e+01 6.364334999999999809e+01 1.697609999999999900e+03
5.399999999999999939e-02 7.167939999999999312e-01 1.812729999999999819e+01 6.686719999999999686e+01 1.698529999999999973e+03
5.500000000000000028e-02 7.174240000000000617e-01 1.945769999999999911e+01 6.981775000000000375e+01 1.699389999999999873e+03
5.600000000000000117e-02 7.179999999999999716e-01 2.061890000000000001e+01 7.250759999999999650e+01 1.700184999999999945e+03
5.700000000000000205e-02 7.185314999999999896e-01 2.162480000000000047e+01 7.496705000000000041e+01 1.700914999999999964e+03
5.800000000000000294e-02 7.190294999999999881e-01 2.249474999999999980e+01 7.723964999999999748e+01 1.701599999999999909e+03
5.900000000000000383e-02 7.195065000000000488e-01 2.325179999999999936e+01 7.937704999999999700e+01 1.702240000000000009e+03
6.000000000000000472e-02 7.199744999999999617e-01 2.392099999999999937e+01 8.143484999999999729e+01 1.702860000000000127e+03
6.099999999999999867e-02 7.204455000000000719e-01 2.452799999999999869e+01 8.346850000000000591e+01 1.703464999999999918e+03
6.199999999999999956e-02 7.209300000000000708e-01 2.509785000000000110e+01 8.553034999999999854e+01 1.704069999999999936e+03
6.300000000000000044e-02 7.214380000000000237e-01 2.565324999999999989e+01 8.766579999999999018e+01 1.704695000000000164e+03
6.400000000000000133e-02 7.219759999999999511e-01 2.621309999999999718e+01 8.991034999999999400e+01 1.705335000000000036e+03
6.500000000000000222e-02 7.225475000000000092e-01 2.679070000000000107e+01 9.228620000000000800e+01 1.706009999999999991e+03
6.600000000000000311e-02 7.231514999999999471e-01 2.739245000000000019e+01 9.480025000000000546e+01 1.706719999999999800e+03
6.700000000000000400e-02 7.237850000000000117e-01 2.801704999999999757e+01 9.744289999999999452e+01 1.707460000000000036e+03
6.800000000000000488e-02 7.244384999999999852e-01 2.865574999999999761e+01 1.001871000000000009e+02 1.708230000000000018e+03
6.900000000000000577e-02 7.251020000000000243e-01 2.929335000000000022e+01 1.029932000000000016e+02 1.709015000000000100e+03
7.000000000000000666e-02 7.257625000000000881e-01 2.990960000000000107e+01 1.058085000000000093e+02 1.709809999999999945e+03
7.100000000000000755e-02 7.264049999999999674e-01 3.048160000000000025e+01 1.085745000000000005e+02 1.710595000000000027e+03
7.200000000000000844e-02 7.270159999999999956e-01 3.098564999999999969e+01 1.112295000000000016e+02 1.711355000000000018e+03
7.300000000000000933e-02 7.275825000000000209e-01 3.139930000000000021e+01 1.137150000000000034e+02 1.712074999999999818e+03
7.399999999999999634e-02 7.280940000000000190e-01 3.170309999999999917e+01 1.159795000000000016e+02 1.712744999999999891e+03
7.499999999999999722e-02 7.285410000000001052e-01 3.188185000000000002e+01 1.179799999999999898e+02 1.713339999999999918e+03
7.599999999999999811e-02 7.289200000000000124e-01 3.192535000000000167e+01 1.196864999999999952e+02 1.713865000000000009e+03
7.699999999999999900e-02 7.292270000000000696e-01 3.182900000000000063e+01 1.210810000000000031e+02 1.714304999999999836e+03
7.799999999999999989e-02 7.294629999999999725e-01 3.159355000000000047e+01 1.221599999999999966e+02 1.714659999999999854e+03
7.900000000000000078e-02 7.296309999999999185e-01 3.122509999999999764e+01 1.229325000000000045e+02 1.714934999999999945e+03
8.000000000000000167e-02 7.297365000000000101e-01 3.073440000000000083e+01 1.234180000000000064e+02 1.715125000000000000e+03
8.100000000000000255e-02 7.297875000000000334e-01 3.013644999999999996e+01 1.236469999999999914e+02 1.715244999999999891e+03
8.200000000000000344e-02 7.297925000000000662e-01 2.944934999999999903e+01 1.236570000000000107e+02 1.715299999999999955e+03
8.300000000000000433e-02 7.297609999999999930e-01 2.869364999999999810e+01 1.234904999999999973e+02 1.715299999999999955e+03
8.400000000000000522e-02 7.297039999999999083e-01 2.789104999999999990e+01 1.231924999999999955e+02 1.715255000000000109e+03
8.500000000000000611e-02 7.296314999999999884e-01 2.706365000000000265e+01 1.228089999999999975e+02 1.715184999999999945e+03
8.600000000000000699e-02 7.295525000000000482e-01 2.623259999999999792e+01 1.223850000000000051e+02 1.715090000000000146e+03
8.700000000000000788e-02 7.294760000000000133e-01 2.541734999999999900e+01 1.219590000000000032e+02 1.714990000000000009e+03
8.800000000000000877e-02 7.294095000000000439e-01 2.463465000000000060e+01 1.215670000000000073e+02 1.714894999999999982e+03
8.899999999999999578e-02 7.293574999999999919e-01 2.389770000000000039e+01 1.212349999999999994e+02 1.714804999999999836e+03
8.999999999999999667e-02 7.293235000000000134e-01 2.321604999999999919e+01 1.209819999999999993e+02 1.714730000000000018e+03
9.099999999999999756e-02 7.293089999999999851e-01 2.259490000000000265e+01 1.208190000000000026e+02 1.714679999999999836e+03
9.199999999999999845e-02 7.293140000000000178e-01 2.203535000000000110e+01 1.207475000000000023e+02 1.714650000000000091e+03
9.299999999999999933e-02 7.293365000000000542e-01 2.153474999999999895e+01 1.207625000000000028e+02 1.714640000000000100e+03
9.400000000000000022e-02 7.293724999999999792e-01 2.108664999999999878e+01 1.208495000000000061e+02 1.714654999999999973e+03
9.500000000000000111e-02 7.294175000000000519e-01 2.068185000000000073e+01 1.209904999999999973e+02 1.714675000000000182e+03
9.600000000000000200e-02 7.294650000000000301e-01 2.030874999999999986e+01 1.211615000000000038e+02 1.714714999999999918e+03
9.700000000000000289e-02 7.295099999999999918e-01 1.995414999999999850e+01 1.213359999999999985e+02 1.714755000000000109e+03
9.800000000000000377e-02 7.295454999999999579e-01 1.960399999999999920e+01 1.214860000000000042e+02 1.714789999999999964e+03
9.900000000000000466e-02 7.295655000000000889e-01 1.924430000000000263e+01 1.215829999999999984e+02 1.714809999999999945e+03
1.000000000000000056e-01 7.295639999999999903e-01 1.886175000000000068e+01 1.216020000000000039e+02 1.714819999999999936e+03
1.010000000000000064e-01 7.295369999999999910e-01 1.844474999999999909e+01 1.215194999999999936e+02 1.714800000000000182e+03
1.020000000000000073e-01 7.294804999999999762e-01 1.798395000000000010e+01 1.213185000000000002e+02 1.714755000000000109e+03
1.030000000000000082e-01 7.293920000000000403e-01 1.747295000000000087e+01 1.209855000000000018e+02 1.714674999999999955e+03
1.040000000000000091e-01 7.292730000000000601e-01 1.690869999999999962e+01 1.205165000000000077e+02 1.714559999999999945e+03
1.050000000000000100e-01 7.291229999999999656e-01 1.629185000000000016e+01 1.199124999999999943e+02 1.714404999999999973e+03
1.059999999999999970e-01 7.289449999999999541e-01 1.562659999999999982e+01 1.191835000000000093e+02 1.714220000000000027e+03
1.069999999999999979e-01 7.287445000000000173e-01 1.492064999999999841e+01 1.183449999999999989e+02 1.714000000000000000e+03
1.079999999999999988e-01 7.285274999999999945e-01 1.418483499999999964e+01 1.174209999999999923e+02 1.713759999999999991e+03
1.089999999999999997e-01 7.282990000000000297e-01 1.343227500000000063e+01 1.164370000000000118e+02 1.713500000000000000e+03
1.100000000000000006e-01 7.280675000000000896e-01 1.267803999999999931e+01 1.154254999999999995e+02 1.713224999999999909e+03
1.110000000000000014e-01 7.278415000000000301e-01 1.193788999999999945e+01 1.144184999999999945e+02 1.712949999999999818e+03
1.120000000000000023e-01 7.276264999999999539e-01 1.122778999999999883e+01 1.134499999999999886e+02 1.712684999999999945e+03
1.130000000000000032e-01 7.274304999999999799e-01 1.056284999999999918e+01 1.125494999999999948e+02 1.712430000000000064e+03
1.140000000000000041e-01 7.272590000000000998e-01 9.956395000000000550e+00 1.117454999999999927e+02 1.712194999999999936e+03
1.150000000000000050e-01 7.271170000000000133e-01 9.419570000000000221e+00 1.110610000000000070e+02 1.711990000000000009e+03
1.160000000000000059e-01 7.270069999999999588e-01 8.960675000000000168e+00 1.105130000000000052e+02 1.711819999999999936e+03
1.170000000000000068e-01 7.269309999999999938e-01 8.584779999999998523e+00 1.101119999999999948e+02 1.711690000000000055e+03
1.180000000000000077e-01 7.268894999999999662e-01 8.293794999999999362e+00 1.098610000000000042e+02 1.711599999999999909e+03
1.190000000000000085e-01 7.268799999999999706e-01 8.086204999999999643e+00 1.097570000000000050e+02 1.711539999999999964e+03
1.200000000000000094e-01 7.269004999999999495e-01 7.957654999999999923e+00 1.097914999999999992e+02 1.711525000000000091e+03
1.209999999999999964e-01 7.269470000000000098e-01 7.901149999999999451e+00 1.099489999999999981e+02 1.711545000000000073e+03
1.219999999999999973e-01 7.270155000000000367e-01 7.907650000000000290e+00 1.102115000000000009e+02 1.711589999999999918e+03
1.229999999999999982e-01 7.270995000000000097e-01 7.966570000000000817e+00 1.105564999999999998e+02 1.711664999999999964e+03
1.239999999999999991e-01 7.271950000000000358e-01 8.066414999999999225e+00 1.109625000000000057e+02 1.711759999999999991e+03
1.250000000000000000e-01 7.272959999999999425e-01 8.195309999999999206e+00 1.114055000000000035e+02 1.711869999999999891e+03
1.260000000000000009e-01 7.273979999999999890e-01 8.341580000000000439e+00 1.118629999999999995e+02 1.711984999999999900e+03
1.270000000000000018e-01 7.274970000000000603e-01 8.494139999999999802e+00 1.123144999999999953e+02 1.712099999999999909e+03
1.280000000000000027e-01 7.275880000000000125e-01 8.642949999999999022e+00 1.127419999999999902e+02 1.712214999999999918e+03
1.290000000000000036e-01 7.276694999999999691e-01 8.779284999999999783e+00 1.131299999999999955e+02 1.712315000000000055e+03
1.300000000000000044e-01 7.277384999999999549e-01 8.895949999999999136e+00 1.134680000000000035e+02 1.712414999999999964e+03
1.310000000000000053e-01 7.277934999999999821e-01 8.987424999999999997e+00 1.137479999999999905e+02 1.712494999999999891e+03
1.320000000000000062e-01 7.278344999999999398e-01 9.049924999999999997e+00 1.139645000000000010e+02 1.712559999999999945e+03
1.330000000000000071e-01 7.278614999999999391e-01 9.081455000000000055e+00 1.141189999999999998e+02 1.712610000000000127e+03
1.340000000000000080e-01 7.278754999999998976e-01 9.081579999999998876e+00 1.142115000000000009e+02 1.712644999999999982e+03
1.350000000000000089e-01 7.278769999999999962e-01 9.051470000000000127e+00 1.142479999999999905e+02 1.712664999999999964e+03
1.360000000000000098e-01 7.278689999999999882e-01 8.993615000000000137e+00 1.142360000000000042e+02 1.712670000000000073e+03
1.370000000000000107e-01 7.278529999999999722e-01 8.911820000000000519e+00 1.141839999999999975e+02 1.712670000000000073e+03
1.380000000000000115e-01 7.278320000000000345e-01 8.810525000000000162e+00 1.141025000000000063e+02 1.712650000000000091e+03
1.390000000000000124e-01 7.278074999999999406e-01 8.694960000000000022e+00 1.140024999999999977e+02 1.712634999999999991e+03
1.400000000000000133e-01 7.277830000000000688e-01 8.570600000000000662e+00 1.138944999999999936e+02 1.712605000000000018e+03
1.410000000000000142e-01 7.277605000000000324e-01 8.442910000000001247e+00 1.137895000000000039e+02 1.712585000000000036e+03
1.420000000000000151e-01 7.277420000000000000e-01 8.317035000000000622e+00 1.136965000000000003e+02 1.712559999999999945e+03
1.430000000000000160e-01 7.277289999999999592e-01 8.197594999999999743e+00 1.136229999999999905e+02 1.712545000000000073e+03
1.440000000000000169e-01 7.277225000000000499e-01 8.088369999999999393e+00 1.135764999999999958e+02 1.712529999999999973e+03
1.450000000000000178e-01 7.277234999999999676e-01 7.992169999999999774e+00 1.135589999999999975e+02 1.712525000000000091e+03
1.459999999999999909e-01 7.277320000000000455e-01 7.910750000000000171e+00 1.135730000000000075e+02 1.712525000000000091e+03
1.469999999999999918e-01 7.277469999999999217e-01 7.844804999999999140e+00 1.136185000000000116e+02 1.712534999999999854e+03
1.479999999999999927e-01 7.277685000000000404e-01 7.793999999999999595e+00 1.136914999999999907e+02 1.712554999999999836e+03
1.489999999999999936e-01 7.277949999999999697e-01 7.757105000000000139e+00 1.137895000000000039e+02 1.712574999999999818e+03
1.499999999999999944e-01 7.278249999999999442e-01 7.732169999999999987e+00 1.139054999999999893e+02 1.712605000000000018e+03
1.509999999999999953e-01 7.278564999999999063e-01 7.716719999999999580e+00 1.140324999999999989e+02 1.712639999999999873e+03
1.519999999999999962e-01 7.278885000000000494e-01 7.707984999999999864e+00 1.141645000000000039e+02 1.712674999999999955e+03
1.529999999999999971e-01 7.279189999999999827e-01 7.703075000000000117e+00 1.142944999999999993e+02 1.712704999999999927e+03
1.539999999999999980e-01 7.279470000000000107e-01 7.699245000000000339e+00 1.144155000000000086e+02 1.712739999999999782e+03
1.549999999999999989e-01 7.279709999999999237e-01 7.693999999999999950e+00 1.145225000000000080e+02 1.712769999999999982e+03
1.559999999999999998e-01 7.279904999999999848e-01 7.685254999999999725e+00 1.146115000000000066e+02 1.712795000000000073e+03
1.570000000000000007e-01 7.280044999999999433e-01 7.671425000000001049e+00 1.146794999999999902e+02 1.712815000000000055e+03
1.580000000000000016e-01 7.280135000000000911e-01 7.651495000000000601e+00 1.147245000000000061e+02 1.712829999999999927e+03
1.590000000000000024e-01 7.280174999999999841e-01 7.625040000000000262e+00 1.147475000000000023e+02 1.712835000000000036e+03
