# t [s], A [cm^2], U [cm/s], P [cPa], c [cm/s]
1.000000000000000021e-03 1.464334999999999942e-01 2.207554999999999934e-01 8.962305000000000632e+01 1.804099999999999909e+03
2.000000000000000042e-03 1.464149999999999896e-01 1.518206000000000166e+00 8.712335000000000207e+01 1.803900000000000091e+03
3.000000000000000062e-03 1.463355000000000072e-01 3.126119000000000092e+00 8.387354999999999450e+01 1.803090000000000146e+03
4.000000000000000083e-03 1.462114999999999942e-01 4.910264750000000511e+00 8.016785000000000139e+01 1.801855000000000018e+03
5.000000000000000104e-03 1.460650000000000004e-01 6.828744999999999621e+00 7.657789999999999964e+01 1.800404999999999973e+03
6.000000000000000125e-03 1.459130000000000149e-01 8.807779999999999276e+00 7.345765000000000100e+01 1.798904999999999973e+03
7.000000000000000146e-03 1.457640000000000047e-01 1.072489500000000007e+01 7.084575000000000955e+01 1.797460000000000036e+03
8.000000000000000167e-03 1.456224999999999881e-01 1.246502999999999872e+01 6.858790000000000475e+01 1.796105000000000018e+03
9.000000000000001055e-03 1.454904999999999948e-01 1.398401499999999942e+01 6.656385000000000218e+01 1.794855000000000018e+03
1.000000000000000194e-02 1.453699999999999992e-01 1.529639999999999844e+01 6.477665000000000362e+01 1.793735000000000127e+03
1.099999999999999936e-02 1.452640000000000042e-01 1.642405000000000115e+01 6.326265000000000072e+01 1.792755000000000109e+03
1.200000000000000025e-02 1.451729999999999965e-01 1.737750000000000128e+01 6.201935000000000286e+01 1.791920000000000073e+03
1.300000000000000114e-02 1.450960000000000027e-01 1.816325000000000145e+01 6.101390000000000668e+01 1.791224999999999909e+03
1.400000000000000203e-02 1.450319999999999943e-01 1.878594999999999970e+01 6.020005000000000450e+01 1.790650000000000091e+03
1.499999999999999944e-02 1.449779999999999958e-01 1.924880000000000280e+01 5.952024999999999721e+01 1.790179999999999836e+03
1.600000000000000033e-02 1.449330000000000063e-01 1.956385000000000218e+01 5.892504999999999882e+01 1.789789999999999964e+03
1.700000000000000122e-02 1.448955000000000104e-01 1.976764999999999972e+01 5.841694999999999993e+01 1.789465000000000146e+03
1.800000000000000211e-02 1.448659999999999948e-01 1.992535000000000167e+01 5.807994999999999663e+01 1.789220000000000027e+03
1.900000000000000300e-02 1.448480000000000045e-01 2.011469999999999914e+01 5.805995000000000061e+01 1.789079999999999927e+03
2.000000000000000042e-02 1.448460000000000025e-01 2.039874999999999972e+01 5.850095000000000312e+01 1.789079999999999927e+03
2.100000000000000130e-02 1.448619999999999908e-01 2.080279999999999774e+01 5.947280000000000655e+01 1.789235000000000127e+03
2.200000000000000219e-02 1.448975000000000124e-01 2.130510000000000304e+01 6.092759999999999820e+01 1.789570000000000164e+03
2.299999999999999961e-02 1.449479999999999935e-01 2.184554999999999936e+01 6.270194999999999652e+01 1.790039999999999964e+03
2.400000000000000050e-02 1.450089999999999990e-01 2.234525000000000006e+01 6.455979999999999563e+01 1.790605000000000018e+03
2.500000000000000139e-02 1.450720000000000065e-01 2.272899999999999920e+01 6.625454999999999472e+01 1.791199999999999818e+03
2.600000000000000228e-02 1.451310000000000100e-01 2.294425000000000026e+01 6.758889999999999532e+01 1.791755000000000109e+03
2.700000000000000316e-02 1.451795000000000169e-01 2.297090000000000032e+01 6.845529999999999404e+01 1.792220000000000027e+03
2.800000000000000058e-02 1.452149999999999830e-01 2.282094999999999985e+01 6.884745000000000914e+01 1.792575000000000045e+03
2.900000000000000147e-02 1.452374999999999916e-01 2.253045000000000186e+01 6.884485000000000809e+01 1.792800000000000182e+03
3.000000000000000236e-02 1.452490000000000170e-01 2.214594999999999914e+01 6.857795000000000130e+01 1.792920000000000073e+03
3.099999999999999978e-02 1.452519999999999922e-01 2.171114999999999995e+01 6.818644999999999357e+01 1.792965000000000146e+03
3.200000000000000067e-02 1.452499999999999902e-01 2.125669999999999860e+01 6.778225000000000477e+01 1.792954999999999927e+03
3.300000000000000155e-02 1.452450000000000130e-01 2.079579999999999984e+01 6.742804999999999893e+01 1.792914999999999964e+03
3.400000000000000244e-02 1.452394999999999936e-01 2.032509999999999906e+01 6.713210000000000832e+01 1.792865000000000009e+03
3.500000000000000333e-02 1.452330000000000010e-01 1.983055000000000234e+01 6.685954999999999870e+01 1.792815000000000055e+03
3.600000000000000422e-02 1.452249999999999930e-01 1.929534999999999911e+01 6.655349999999999966e+01 1.792740000000000009e+03
3.700000000000000511e-02 1.452140000000000097e-01 1.870805000000000007e+01 6.616009999999999991e+01 1.792644999999999982e+03
3.799999999999999906e-02 1.451994999999999814e-01 1.806864999999999810e+01 6.564969999999999573e+01 1.792519999999999982e+03
3.899999999999999994e-02 1.451810000000000045e-01 1.739150000000000063e+01 6.503090000000000259e+01 1.792355000000000018e+03
4.000000000000000083e-02 1.451589999999999825e-01 1.670470000000000255e+01 6.435325000000000273e+01 1.792155000000000200e+03
4.100000000000000172e-02 1.451359999999999872e-01 1.604554999999999865e+01 6.369944999999999879e+01 1.791945000000000164e+03
4.200000000000000261e-02 1.451144999999999796e-01 1.545425000000000004e+01 6.316884999999999906e+01 1.791744999999999891e+03
4.300000000000000350e-02 1.450974999999999904e-01 1.496634999999999849e+01 6.285710000000000264e+01 1.791590000000000146e+03
4.400000000000000439e-02 1.450874999999999804e-01 1.460609999999999964e+01 6.283565000000000111e+01 1.791490000000000009e+03
4.499999999999999833e-02 1.450875000000000081e-01 1.438230000000000075e+01 6.313719999999999288e+01 1.791480000000000018e+03
4.599999999999999922e-02 1.450974999999999904e-01 1.428685000000000116e+01 6.374830000000000041e+01 1.791569999999999936e+03
4.700000000000000011e-02 1.451180000000000248e-01 1.429625000000000057e+01 6.461135000000000161e+01 1.791744999999999891e+03
4.800000000000000100e-02 1.451465000000000116e-01 1.437519999999999953e+01 6.563360000000000127e+01 1.792000000000000000e+03
4.900000000000000189e-02 1.451800000000000035e-01 1.448184999999999967e+01 6.670125000000000171e+01 1.792300000000000182e+03
5.000000000000000278e-02 1.452154999999999974e-01 1.457339999999999947e+01 6.769565000000000055e+01 1.792630000000000109e+03
5.100000000000000366e-02 1.452495000000000036e-01 1.461054999999999993e+01 6.850815000000000055e+01 1.792934999999999945e+03
5.200000000000000455e-02 1.452780000000000182e-01 1.456149999999999878e+01 6.905209999999999582e+01 1.793194999999999936e+03
5.300000000000000544e-02 1.452979999999999827e-01 1.440364999999999895e+01 6.926940000000000452e+01 1.793380000000000109e+03
5.399999999999999939e-02 1.453070000000000195e-01 1.412454999999999927e+01 6.913329999999999131e+01 1.793480000000000018e+03
5.500000000000000028e-02 1.453050000000000175e-01 1.372100000000000009e+01 6.864549999999999841e+01 1.793460000000000036e+03
5.600000000000000117e-02 1.452910000000000035e-01 1.319735000000000014e+01 6.783144999999998959e+01 1.793335000000000036e+03
5.700000000000000205e-02 1.452649999999999775e-01 1.256409999999999982e+01 6.673329999999999984e+01 1.793105000000000018e+03
5.800000000000000294e-02 1.452284999999999826e-01 1.183535999999999966e+01 6.540279999999999916e+01 1.792769999999999982e+03
5.900000000000000383e-02 1.451830000000000065e-01 1.102777000000000029e+01 6.389520000000000266e+01 1.792355000000000018e+03
6.000000000000000472e-02 1.451299999999999812e-01 1.015926499999999955e+01 6.226529999999999632e+01 1.791869999999999891e+03
6.099999999999999867e-02 1.450710000000000055e-01 9.248495000000000132e+00 6.056475000000000364e+01 1.791329999999999927e+03
6.199999999999999956e-02 1.450079999999999980e-01 8.314779999999998950e+00 5.884179999999999922e+01 1.790750000000000000e+03
6.300000000000000044e-02 1.449429999999999885e-01 7.378095000000000070e+00 5.714155000000000229e+01 1.790154999999999973e+03
6.400000000000000133e-02 1.448774999999999924e-01 6.459455000000000169e+00 5.550764999999999816e+01 1.789549999999999955e+03
6.500000000000000222e-02 1.448134999999999839e-01 5.580815000000000303e+00 5.398324999999999818e+01 1.788960000000000036e+03
6.600000000000000311e-02 1.447525000000000062e-01 4.765089999999999826e+00 5.261220000000000141e+01 1.788394999999999982e+03
6.700000000000000400e-02 1.446965000000000057e-01 4.035750000000000171e+00 5.143890000000000384e+01 1.787875000000000000e+03
6.800000000000000488e-02 1.446474999999999844e-01 3.416224999999999845e+00 5.050784999999999769e+01 1.787414999999999964e+03
6.900000000000000577e-02 1.446069999999999856e-01 2.929054999999999964e+00 4.986230000000000473e+01 1.787035000000000082e+03
7.000000000000000666e-02 1.445770000000000111e-01 2.594924999999999926e+00 4.954189999999999827e+01 1.786744999999999891e+03
7.100000000000000755e-02 1.445584999999999787e-01 2.431694999999999940e+00 4.958084999999999809e+01 1.786565000000000055e+03
7.200000000000000844e-02 1.445529999999999871e-01 2.453454999999999941e+00 5.000565000000000282e+01 1.786505000000000109e+03
7.300000000000000933e-02 1.445624999999999827e-01 2.669810000000000016e+00 5.083315000000000339e+01 1.786579999999999927e+03
7.399999999999999634e-02 1.445869999999999933e-01 3.085359999999999658e+00 5.206929999999999836e+01 1.786795000000000073e+03
7.499999999999999722e-02 1.446275000000000199e-01 3.699475000000000069e+00 5.370870000000000033e+01 1.787150000000000091e+03
7.599999999999999811e-02 1.446835000000000204e-01 4.506359999999999921e+00 5.573474999999999824e+01 1.787650000000000091e+03
7.699999999999999900e-02 1.447545000000000082e-01 5.495384999999999742e+00 5.812045000000000528e+01 1.788285000000000082e+03
7.799999999999999989e-02 1.448400000000000243e-01 6.651654999999999873e+00 6.082989999999999498e+01 1.789059999999999945e+03
7.900000000000000078e-02 1.449384999999999979e-01 7.956730000000000302e+00 6.382049999999999557e+01 1.789964999999999918e+03
8.000000000000000167e-02 1.450490000000000113e-01 9.389569999999999084e+00 6.704475000000000762e+01 1.790970000000000027e+03
8.100000000000000255e-02 1.451699999999999935e-01 1.092735499999999860e+01 7.045320000000000960e+01 1.792074999999999818e+03
8.200000000000000344e-02 1.452990000000000115e-01 1.254654999999999987e+01 7.399620000000000175e+01 1.793269999999999982e+03
8.300000000000000433e-02 1.454349999999999810e-01 1.422380000000000067e+01 7.762655000000000882e+01 1.794525000000000091e+03
8.400000000000000522e-02 1.455759999999999832e-01 1.593680000000000163e+01 8.130115000000000691e+01 1.795829999999999927e+03
8.500000000000000611e-02 1.457200000000000162e-01 1.766479999999999961e+01 8.498250000000000171e+01 1.797164999999999964e+03
8.600000000000000699e-02 1.458659999999999957e-01 1.938954999999999984e+01 8.863989999999999725e+01 1.798529999999999973e+03
8.700000000000000788e-02 1.460124999999999895e-01 2.109525000000000006e+01 9.224985000000000923e+01 1.799900000000000091e+03
8.800000000000000877e-02 1.461590000000000111e-01 2.276899999999999835e+01 9.579625000000000057e+01 1.801264999999999873e+03
8.899999999999999578e-02 1.463039999999999896e-01 2.440090000000000003e+01 9.927015000000000100e+01 1.802630000000000109e+03
8.999999999999999667e-02 1.464475000000000082e-01 2.598369999999999891e+01 1.026681499999999971e+02 1.803985000000000127e+03
9.099999999999999756e-02 1.465885000000000105e-01 2.751254999999999740e+01 1.059917999999999978e+02 1.805320000000000164e+03
9.199999999999999845e-02 1.467275000000000107e-01 2.898460000000000036e+01 1.092475000000000023e+02 1.806635000000000218e+03
9.299999999999999933e-02 1.468645000000000089e-01 3.039874999999999972e+01 1.124429999999999978e+02 1.807934999999999945e+03
9.400000000000000022e-02 1.469995000000000052e-01 3.175485000000000113e+01 1.155865000000000009e+02 1.809219999999999800e+03
9.500000000000000111e-02 1.471330000000000138e-01 3.305344999999999800e+01 1.186860000000000070e+02 1.810490000000000009e+03
9.600000000000000200e-02 1.472649999999999793e-01 3.429529999999999745e+01 1.217485000000000070e+02 1.811744999999999891e+03
9.700000000000000289e-02 1.473949999999999982e-01 3.548099999999999454e+01 1.247775000000000034e+02 1.812994999999999891e+03
9.800000000000000377e-02 1.475239999999999885e-01 3.661075000000000301e+01 1.277754999999999939e+02 1.814230000000000018e+03
9.900000000000000466e-02 1.476520000000000055e-01 3.768404999999999916e+01 1.307394999999999925e+02 1.815454999999999927e+03
1.000000000000000056e-01 1.477785000000000071e-01 3.869989999999999952e+01 1.336650000000000205e+02 1.816664999999999964e+03
1.010000000000000064e-01 1.479030000000000067e-01 3.965619999999999834e+01 1.365450000000000159e+02 1.817865000000000009e+03
1.020000000000000073e-01 1.480259999999999909e-01 4.055044999999999789e+01 1.393675000000000068e+02 1.819045000000000073e+03
1.030000000000000082e-01 1.481470000000000009e-01 4.137930000000000064e+01 1.421225000000000023e+02 1.820210000000000036e+03
1.040000000000000091e-01 1.482650000000000079e-01 4.213900000000000290e+01 1.447934999999999945e+02 1.821355000000000018e+03
1.050000000000000100e-01 1.483804999999999985e-01 4.282540000000000191e+01 1.473685000000000116e+02 1.822465000000000146e+03
1.059999999999999970e-01 1.484914999999999985e-01 4.343420000000000414e+01 1.498315000000000055e+02 1.823539999999999964e+03
1.069999999999999979e-01 1.485980000000000079e-01 4.396105000000000018e+01 1.521675000000000182e+02 1.824579999999999927e+03
1.079999999999999988e-01 1.487005000000000132e-01 4.440179999999999438e+01 1.543629999999999995e+02 1.825570000000000164e+03
1.089999999999999997e-01 1.487974999999999992e-01 4.475274999999999892e+01 1.564050000000000011e+02 1.826509999999999991e+03
1.100000000000000006e-01 1.488879999999999926e-01 4.501050000000000040e+01 1.582824999999999989e+02 1.827389999999999873e+03
1.110000000000000014e-01 1.489725000000000077e-01 4.517249999999999943e+01 1.599859999999999900e+02 1.828220000000000027e+03
1.120000000000000023e-01 1.490500000000000158e-01 4.523699999999999477e+01 1.615074999999999932e+02 1.828980000000000018e+03
1.130000000000000032e-01 1.491204999999999892e-01 4.520310000000000628e+01 1.628435000000000059e+02 1.829670000000000073e+03
1.140000000000000041e-01 1.491839999999999833e-01 4.507115000000000293e+01 1.639895000000000209e+02 1.830295000000000073e+03
1.150000000000000050e-01 1.492399999999999838e-01 4.484250000000000114e+01 1.649474999999999909e+02 1.830840000000000146e+03
1.160000000000000059e-01 1.492875000000000174e-01 4.451980000000000359e+01 1.657195000000000107e+02 1.831320000000000164e+03
1.170000000000000068e-01 1.493289999999999895e-01 4.410689999999999600e+01 1.663120000000000118e+02 1.831724999999999909e+03
1.180000000000000077e-01 1.493619999999999948e-01 4.360885000000000389e+01 1.667330000000000041e+02 1.832065000000000055e+03
1.190000000000000085e-01 1.493885000000000074e-01 4.303184999999999860e+01 1.669929999999999950e+02 1.832329999999999927e+03
1.200000000000000094e-01 1.494079999999999853e-01 4.238315000000000055e+01 1.671055000000000064e+02 1.832530000000000200e+03
1.209999999999999964e-01 1.494214999999999849e-01 4.167079999999999984e+01 1.670844999999999914e+02 1.832664999999999964e+03
1.219999999999999973e-01 1.494289999999999785e-01 4.090350000000000108e+01 1.669464999999999861e+02 1.832750000000000000e+03
1.229999999999999982e-01 1.494314999999999949e-01 4.009035000000000082e+01 1.667085000000000150e+02 1.832784999999999854e+03
1.239999999999999991e-01 1.494294999999999929e-01 3.924080000000000013e+01 1.663879999999999768e+02 1.832775000000000091e+03
1.250000000000000000e-01 1.494240000000000013e-01 3.836395000000000266e+01 1.660004999999999882e+02 1.832719999999999800e+03
1.260000000000000009e-01 1.494145000000000056e-01 3.746880000000000166e+01 1.655625000000000000e+02 1.832634999999999991e+03
1.270000000000000018e-01 1.494024999999999936e-01 3.656380000000000052e+01 1.650889999999999986e+02 1.832529999999999973e+03
1.280000000000000027e-01 1.493885000000000074e-01 3.565649999999999409e+01 1.645919999999999845e+02 1.832394999999999982e+03
1.290000000000000036e-01 1.493729999999999780e-01 3.475379999999999825e+01 1.640835000000000150e+02 1.832244999999999891e+03
1.300000000000000044e-01 1.493559999999999888e-01 3.386140000000000327e+01 1.635709999999999980e+02 1.832079999999999927e+03
1.310000000000000053e-01 1.493379999999999985e-01 3.298389999999999844e+01 1.630620000000000118e+02 1.831914999999999964e+03
1.320000000000000062e-01 1.493200000000000083e-01 3.212485000000000213e+01 1.625595000000000141e+02 1.831740000000000009e+03
1.330000000000000071e-01 1.493019999999999903e-01 3.128644999999999854e+01 1.620660000000000025e+02 1.831559999999999945e+03
1.340000000000000080e-01 1.492835000000000134e-01 3.047005000000000052e+01 1.615805000000000007e+02 1.831380000000000109e+03
1.350000000000000089e-01 1.492644999999999944e-01 2.967575000000000074e+01 1.611009999999999991e+02 1.831200000000000045e+03
1.360000000000000098e-01 1.492459999999999898e-01 2.890274999999999750e+01 1.606229999999999905e+02 1.831014999999999873e+03
1.370000000000000107e-01 1.492275000000000129e-01 2.814950000000000330e+01 1.601425000000000125e+02 1.830829999999999927e+03
1.380000000000000115e-01 1.492074999999999929e-01 2.741364999999999696e+01 1.596514999999999986e+02 1.830634999999999991e+03
1.390000000000000124e-01 1.491879999999999873e-01 2.669235000000000113e+01 1.591440000000000055e+02 1.830444999999999936e+03
1.400000000000000133e-01 1.491669999999999940e-01 2.598250000000000171e+01 1.586134999999999877e+02 1.830240000000000009e+03
1.410000000000000142e-01 1.491460000000000008e-01 2.528070000000000306e+01 1.580509999999999877e+02 1.830025000000000091e+03
1.420000000000000151e-01 1.491224999999999912e-01 2.458350000000000080e+01 1.574510000000000218e+02 1.829804999999999836e+03
1.430000000000000160e-01 1.490985000000000227e-01 2.388775000000000048e+01 1.568070000000000164e+02 1.829569999999999936e+03
1.440000000000000169e-01 1.490724999999999967e-01 2.319040000000000035e+01 1.561139999999999759e+02 1.829315000000000055e+03
1.450000000000000178e-01 1.490444999999999964e-01 2.248890000000000100e+01 1.553679999999999950e+02 1.829045000000000073e+03
1.459999999999999909e-01 1.490144999999999942e-01 2.178119999999999834e+01 1.545665000000000191e+02 1.828755000000000109e+03
1.469999999999999918e-01 1.489825000000000177e-01 2.106589999999999918e+01 1.537074999999999818e+02 1.828444999999999936e+03
1.479999999999999927e-01 1.489479999999999971e-01 2.034224999999999994e+01 1.527924999999999898e+02 1.828115000000000009e+03
1.489999999999999936e-01 1.489115000000000022e-01 1.961035000000000039e+01 1.518230000000000075e+02 1.827755000000000109e+03
1.499999999999999944e-01 1.488729999999999776e-01 1.887085000000000079e+01 1.508029999999999973e+02 1.827384999999999991e+03
1.509999999999999953e-01 1.488320000000000198e-01 1.812539999999999907e+01 1.497379999999999995e+02 1.826990000000000009e+03
1.519999999999999962e-01 1.487894999999999912e-01 1.737620000000000076e+01 1.486345000000000027e+02 1.826585000000000036e+03
1.529999999999999971e-01 1.487455000000000027e-01 1.662624999999999886e+01 1.475010000000000048e+02 1.826159999999999854e+03
1.539999999999999980e-01 1.486999999999999988e-01 1.587900000000000134e+01 1.463460000000000036e+02 1.825714999999999918e+03
1.549999999999999989e-01 1.486534999999999940e-01 1.513854999999999862e+01 1.451800000000000068e+02 1.825275000000000091e+03
1.559999999999999998e-01 1.486059999999999881e-01 1.440915000000000035e+01 1.440129999999999768e+02 1.824815000000000055e+03
1.570000000000000007e-01 1.485589999999999966e-01 1.369529999999999959e+01 1.428559999999999945e+02 1.824360000000000127e+03
1.580000000000000016e-01 1.485115000000000185e-01 1.300165000000000148e+01 1.417194999999999823e+02 1.823904999999999973e+03
1.590000000000000024e-01 1.484650000000000136e-01 1.233269499999999930e+01 1.406140000000000043e+02 1.823454999999999927e+03
