# t [s], A [cm^2], U [cm/s], P [cPa], c [cm/s]
1.000000000000000021e-03 5.512574999999999559e-01 2.875000000000002554e-03 9.394350000000000023e+01 1.432920000000000073e+03
2.000000000000000042e-03 5.512500000000000178e-01 -5.298650000000000235e-04 9.392879999999999541e+01 1.432920000000000073e+03
3.000000000000000062e-03 5.512759999999999883e-01 4.462409999999999988e-02 9.396770000000000778e+01 1.432924999999999955e+03
4.000000000000000083e-03 5.513244999999999951e-01 1.278419999999999834e-01 9.406319999999999482e+01 1.432960000000000036e+03
5.000000000000000104e-03 5.513379999999999947e-01 1.562678500000000137e-01 9.409995000000000687e+01 1.432970000000000027e+03
6.000000000000000125e-03 5.513095000000000079e-01 1.127179500000000112e-01 9.402969999999999118e+01 1.432960000000000036e+03
7.000000000000000146e-03 5.512699999999999267e-01 4.707700000000000773e-02 9.389019999999999300e+01 1.432924999999999955e+03
8.000000000000000167e-03 5.512319999999999443e-01 -1.965650000000002118e-02 9.371010000000001128e+01 1.432875000000000000e+03
9.000000000000001055e-03 5.511740000000000528e-01 -1.290779999999999705e-01 9.344999999999998863e+01 1.432809999999999945e+03
1.000000000000000194e-02 5.510779999999999568e-01 -3.131399999999999739e-01 9.306295000000000073e+01 1.432704999999999927e+03
1.099999999999999936e-02 5.509399999999999853e-01 -5.789999999999999591e-01 9.251980000000000359e+01 1.432559999999999945e+03
1.200000000000000025e-02 5.507509999999999906e-01 -9.358549999999999924e-01 9.178804999999999836e+01 1.432360000000000127e+03
1.300000000000000114e-02 5.505020000000000469e-01 -1.390699999999999825e+00 9.083535000000000537e+01 1.432090000000000146e+03
1.400000000000000203e-02 5.501970000000000471e-01 -1.922094999999999887e+00 8.966005000000001246e+01 1.431759999999999991e+03
1.499999999999999944e-02 5.498609999999999332e-01 -2.470019999999999882e+00 8.831184999999999263e+01 1.431365000000000009e+03
1.600000000000000033e-02 5.495275000000000576e-01 -2.953520000000000145e+00 8.688085000000000946e+01 1.430930000000000064e+03
1.700000000000000122e-02 5.492249999999999632e-01 -3.299955999999999889e+00 8.546580000000000155e+01 1.430490000000000009e+03
1.800000000000000211e-02 5.489669999999999828e-01 -3.466549999999999798e+00 8.414350000000000307e+01 1.430059999999999945e+03
1.900000000000000300e-02 5.487524999999999764e-01 -3.446788999999999881e+00 8.295134999999999081e+01 1.429644999999999982e+03
2.000000000000000042e-02 5.485674999999999857e-01 -3.264286700000000430e+00 8.188609999999999900e+01 1.429264999999999873e+03
2.100000000000000130e-02 5.483925000000000605e-01 -2.960180000000000256e+00 8.091349999999999909e+01 1.428894999999999982e+03
2.200000000000000219e-02 5.482080000000000286e-01 -2.579195000000000348e+00 7.998384999999998968e+01 1.428539999999999964e+03
2.299999999999999961e-02 5.480015000000000303e-01 -2.157947499999999685e+00 7.904834999999999923e+01 1.428180000000000064e+03
2.400000000000000050e-02 5.477674999999999628e-01 -1.717835000000000001e+00 7.807200000000000273e+01 1.427804999999999836e+03
2.500000000000000139e-02 5.475094999999999823e-01 -1.263679999999999914e+00 7.704070000000000107e+01 1.427420000000000073e+03
2.600000000000000228e-02 5.472350000000000270e-01 -7.878899999999997572e-01 7.596054999999999779e+01 1.427019999999999982e+03
2.700000000000000316e-02 5.469539999999999402e-01 -2.782100000000000684e-01 7.485110000000000241e+01 1.426610000000000127e+03
2.800000000000000058e-02 5.466744999999999521e-01 2.739500000000001378e-01 7.373515000000000441e+01 1.426194999999999936e+03
2.900000000000000147e-02 5.463999999999999968e-01 8.670649999999999746e-01 7.262879999999999825e+01 1.425784999999999854e+03
3.000000000000000236e-02 5.461274999999999880e-01 1.486630000000000118e+00 7.153495000000000914e+01 1.425375000000000000e+03
3.099999999999999978e-02 5.458494999999999875e-01 2.105894999999999850e+00 7.044059999999998922e+01 1.424964999999999918e+03
3.200000000000000067e-02 5.455554999999999710e-01 2.689705000000000013e+00 6.931864999999999100e+01 1.424539999999999964e+03
3.300000000000000155e-02 5.452329999999999677e-01 3.200274999999999537e+00 6.813330000000000553e+01 1.424105000000000018e+03
3.400000000000000244e-02 5.448724999999999818e-01 3.603625000000000078e+00 6.684789999999999566e+01 1.423650000000000091e+03
3.500000000000000333e-02 5.444674999999999931e-01 3.875465000000000160e+00 6.543295000000000528e+01 1.423150000000000091e+03
3.600000000000000422e-02 5.440190000000000303e-01 4.005430000000000490e+00 6.387400000000000233e+01 1.422619999999999891e+03
3.700000000000000511e-02 5.435330000000000439e-01 3.998689999999999856e+00 6.217579999999999529e+01 1.422049999999999955e+03
3.799999999999999906e-02 5.430205000000000171e-01 3.874675000000000313e+00 6.036405000000000598e+01 1.421450000000000045e+03
3.899999999999999994e-02 5.424984999999999946e-01 3.664120000000000044e+00 5.848295000000000243e+01 1.420829999999999927e+03
4.000000000000000083e-02 5.419840000000000213e-01 3.403725000000000112e+00 5.658990000000000009e+01 1.420194999999999936e+03
4.100000000000000172e-02 5.414955000000000185e-01 3.131639999999999979e+00 5.474940000000000140e+01 1.419579999999999927e+03
4.200000000000000261e-02 5.410475000000000145e-01 2.883119999999999905e+00 5.302585000000000548e+01 1.418990000000000009e+03
4.300000000000000350e-02 5.406539999999999679e-01 2.687619999999999898e+00 5.147835000000000605e+01 1.418450000000000045e+03
4.400000000000000439e-02 5.403240000000000265e-01 2.567720000000000002e+00 5.015664999999999907e+01 1.417974999999999909e+03
4.499999999999999833e-02 5.400644999999999474e-01 2.538974999999999760e+00 4.909884999999999877e+01 1.417575000000000045e+03
4.599999999999999922e-02 5.398795000000000677e-01 2.611079999999999846e+00 4.833129999999999882e+01 1.417264999999999873e+03
4.700000000000000011e-02 5.397695000000000132e-01 2.789399500000000032e+00 4.786930000000000263e+01 1.417045000000000073e+03
4.800000000000000100e-02 5.397354999999999237e-01 3.076690000000000147e+00 4.771954999999999814e+01 1.416929999999999836e+03
4.900000000000000189e-02 5.397764999999999924e-01 3.474529999999999674e+00 4.788169999999999504e+01 1.416909999999999854e+03
5.000000000000000278e-02 5.398914999999999687e-01 3.984234999999999971e+00 4.835129999999999484e+01 1.416994999999999891e+03
5.100000000000000366e-02 5.400789999999999758e-01 4.607160000000000366e+00 4.912064999999999770e+01 1.417180000000000064e+03
5.200000000000000455e-02 5.403369999999999562e-01 5.344409999999999883e+00 5.018019999999999925e+01 1.417454999999999927e+03
5.300000000000000544e-02 5.406634999999999636e-01 6.196160000000000778e+00 5.151855000000000473e+01 1.417835000000000036e+03
5.399999999999999939e-02 5.410565000000000513e-01 7.160745000000000360e+00 5.312205000000000155e+01 1.418300000000000182e+03
5.500000000000000028e-02 5.415105000000000057e-01 8.233895000000000408e+00 5.497450000000000614e+01 1.418860000000000127e+03
5.600000000000000117e-02 5.420205000000000162e-01 9.408229999999999649e+00 5.705634999999999479e+01 1.419490000000000009e+03
5.700000000000000205e-02 5.425809999999999800e-01 1.067300000000000004e+01 5.934444999999999482e+01 1.420204999999999927e+03
5.800000000000000294e-02 5.431850000000000289e-01 1.201444000000000045e+01 6.181215000000000259e+01 1.420980000000000018e+03
5.900000000000000383e-02 5.438239999999999741e-01 1.341634999999999955e+01 6.443000000000000682e+01 1.421815000000000055e+03
6.000000000000000472e-02 5.444894999999999596e-01 1.486088999999999949e+01 6.716620000000000346e+01 1.422690000000000055e+03
6.099999999999999867e-02 5.451734999999999776e-01 1.632959500000000119e+01 6.998845000000000027e+01 1.423610000000000127e+03
6.199999999999999956e-02 5.458684999999999787e-01 1.780433500000000180e+01 7.286480000000000246e+01 1.424559999999999945e+03
6.300000000000000044e-02 5.465675000000000949e-01 1.926829999999999998e+01 7.576510000000000389e+01 1.425519999999999982e+03
6.400000000000000133e-02 5.472639999999999727e-01 2.070649999999999835e+01 7.866255000000001019e+01 1.426494999999999891e+03
6.500000000000000222e-02 5.479534999999999823e-01 2.210640000000000072e+01 8.153409999999999513e+01 1.427474999999999909e+03
6.600000000000000311e-02 5.486309999999999798e-01 2.345814999999999984e+01 8.436144999999999072e+01 1.428440000000000055e+03
6.700000000000000400e-02 5.492955000000000476e-01 2.475435000000000230e+01 8.713104999999998768e+01 1.429400000000000091e+03
6.800000000000000488e-02 5.499454999999999760e-01 2.599024999999999963e+01 8.983420000000000982e+01 1.430345000000000027e+03
6.900000000000000577e-02 5.505804999999999172e-01 2.716329999999999956e+01 9.246680000000000632e+01 1.431269999999999982e+03
7.000000000000000666e-02 5.512010000000000520e-01 2.827255000000000251e+01 9.502819999999999823e+01 1.432179999999999836e+03
7.100000000000000755e-02 5.518069999999999364e-01 2.931864999999999810e+01 9.752049999999999841e+01 1.433070000000000164e+03
7.200000000000000844e-02 5.524010000000000309e-01 3.030320000000000391e+01 9.994925000000000637e+01 1.433940000000000055e+03
7.300000000000000933e-02 5.529835000000000722e-01 3.122830000000000084e+01 1.023204999999999956e+02 1.434789999999999964e+03
7.399999999999999634e-02 5.535565000000000069e-01 3.209629999999999939e+01 1.046407499999999970e+02 1.435630000000000109e+03
7.499999999999999722e-02 5.541214999999999336e-01 3.290959999999999752e+01 1.069159999999999968e+02 1.436450000000000045e+03
7.599999999999999811e-02 5.546794999999999920e-01 3.366995000000000005e+01 1.091514999999999986e+02 1.437264999999999873e+03
7.699999999999999900e-02 5.552300000000000013e-01 3.437870000000000203e+01 1.113515000000000015e+02 1.438065000000000055e+03
7.799999999999999989e-02 5.557730000000000725e-01 3.503655000000000541e+01 1.135180000000000007e+02 1.438845000000000027e+03
7.900000000000000078e-02 5.563095000000000123e-01 3.564320000000000022e+01 1.156495000000000033e+02 1.439625000000000000e+03
8.000000000000000167e-02 5.568370000000000264e-01 3.619774999999999920e+01 1.177445000000000022e+02 1.440384999999999991e+03
8.100000000000000255e-02 5.573544999999999749e-01 3.669854999999999734e+01 1.197969999999999970e+02 1.441134999999999991e+03
8.200000000000000344e-02 5.578604999999999814e-01 3.714334999999999809e+01 1.218004999999999995e+02 1.441869999999999891e+03
8.300000000000000433e-02 5.583510000000000417e-01 3.752944999999999709e+01 1.237469999999999999e+02 1.442590000000000146e+03
8.400000000000000522e-02 5.588250000000000162e-01 3.785399999999999920e+01 1.256265000000000072e+02 1.443279999999999973e+03
8.500000000000000611e-02 5.592789999999999706e-01 3.811410000000000053e+01 1.274284999999999997e+02 1.443950000000000045e+03
8.600000000000000699e-02 5.597115000000000284e-01 3.830710000000000548e+01 1.291425000000000125e+02 1.444594999999999800e+03
8.700000000000000788e-02 5.601194999999999924e-01 3.843075000000000330e+01 1.307584999999999980e+02 1.445204999999999927e+03
8.800000000000000877e-02 5.605005000000000681e-01 3.848319999999999652e+01 1.322680000000000007e+02 1.445779999999999973e+03
8.899999999999999578e-02 5.608539999999999637e-01 3.846349999999999625e+01 1.336619999999999777e+02 1.446320000000000164e+03
8.999999999999999667e-02 5.611770000000000369e-01 3.837130000000000507e+01 1.349350000000000023e+02 1.446809999999999945e+03
9.099999999999999756e-02 5.614689999999999959e-01 3.820699999999999363e+01 1.360819999999999936e+02 1.447264999999999873e+03
9.199999999999999845e-02 5.617300000000000626e-01 3.797205000000000297e+01 1.370995000000000061e+02 1.447674999999999955e+03
9.299999999999999933e-02 5.619600000000000151e-01 3.766850000000000165e+01 1.379869999999999948e+02 1.448045000000000073e+03
9.400000000000000022e-02 5.621579999999999355e-01 3.729930000000000234e+01 1.387450000000000045e+02 1.448365000000000009e+03
9.500000000000000111e-02 5.623259999999999925e-01 3.686825000000000330e+01 1.393770000000000095e+02 1.448644999999999982e+03
9.600000000000000200e-02 5.624644999999999229e-01 3.637985000000000468e+01 1.398874999999999886e+02 1.448875000000000000e+03
9.700000000000000289e-02 5.625759999999999650e-01 3.583919999999999817e+01 1.402814999999999941e+02 1.449065000000000055e+03
9.800000000000000377e-02 5.626609999999999667e-01 3.525215000000000032e+01 1.405674999999999955e+02 1.449215000000000146e+03
9.900000000000000466e-02 5.627219999999999445e-01 3.462474999999999881e+01 1.407545000000000073e+02 1.449329999999999927e+03
1.000000000000000056e-01 5.627614999999999146e-01 3.396379999999999910e+01 1.408514999999999873e+02 1.449409999999999854e+03
1.010000000000000064e-01 5.627824999999999633e-01 3.327599999999999625e+01 1.408689999999999998e+02 1.449460000000000036e+03
1.020000000000000073e-01 5.627864999999999673e-01 3.256824999999999903e+01 1.408185000000000002e+02 1.449485000000000127e+03
1.030000000000000082e-01 5.627775000000000416e-01 3.184754999999999825e+01 1.407110000000000127e+02 1.449474999999999909e+03
1.040000000000000091e-01 5.627575000000000216e-01 3.112044999999999817e+01 1.405575000000000045e+02 1.449454999999999927e+03
1.050000000000000100e-01 5.627284999999999648e-01 3.039310000000000045e+01 1.403689999999999998e+02 1.449420000000000073e+03
1.059999999999999970e-01 5.626934999999999576e-01 2.967125000000000057e+01 1.401544999999999845e+02 1.449365000000000009e+03
1.069999999999999979e-01 5.626535000000000286e-01 2.895970000000000155e+01 1.399244999999999948e+02 1.449299999999999955e+03
1.079999999999999988e-01 5.626109999999999722e-01 2.826254999999999740e+01 1.396850000000000023e+02 1.449230000000000018e+03
1.089999999999999997e-01 5.625674999999999981e-01 2.758290000000000219e+01 1.394435000000000002e+02 1.449159999999999854e+03
1.100000000000000006e-01 5.625240000000000240e-01 2.692285000000000039e+01 1.392044999999999959e+02 1.449085000000000036e+03
1.110000000000000014e-01 5.624804999999999389e-01 2.628334999999999866e+01 1.389719999999999800e+02 1.449005000000000109e+03
1.120000000000000023e-01 5.624374999999999236e-01 2.566460000000000008e+01 1.387464999999999975e+02 1.448924999999999955e+03
1.130000000000000032e-01 5.623949999999999783e-01 2.506564999999999799e+01 1.385289999999999964e+02 1.448849999999999909e+03
1.140000000000000041e-01 5.623525000000000329e-01 2.448479999999999990e+01 1.383174999999999955e+02 1.448775000000000091e+03
1.150000000000000050e-01 5.623089999999999478e-01 2.391969999999999885e+01 1.381095000000000255e+02 1.448694999999999936e+03
1.160000000000000059e-01 5.622639999999999860e-01 2.336739999999999995e+01 1.379025000000000034e+02 1.448619999999999891e+03
1.170000000000000068e-01 5.622165000000000079e-01 2.282464999999999833e+01 1.376904999999999859e+02 1.448539999999999964e+03
1.180000000000000077e-01 5.621644999999999559e-01 2.228780000000000072e+01 1.374714999999999918e+02 1.448460000000000036e+03
1.190000000000000085e-01 5.621089999999999698e-01 2.175345000000000084e+01 1.372384999999999877e+02 1.448380000000000109e+03
1.200000000000000094e-01 5.620465000000000044e-01 2.121815000000000140e+01 1.369884999999999877e+02 1.448284999999999854e+03
1.209999999999999964e-01 5.619784999999999364e-01 2.067864999999999753e+01 1.367160000000000082e+02 1.448190000000000055e+03
1.219999999999999973e-01 5.619024999999999714e-01 2.013224999999999909e+01 1.364189999999999827e+02 1.448090000000000146e+03
1.229999999999999982e-01 5.618190000000000683e-01 1.957659999999999911e+01 1.360935000000000059e+02 1.447974999999999909e+03
1.239999999999999991e-01 5.617274999999999352e-01 1.900990000000000180e+01 1.357379999999999995e+02 1.447855000000000018e+03
1.250000000000000000e-01 5.616275000000000572e-01 1.843110000000000070e+01 1.353524999999999920e+02 1.447724999999999909e+03
1.260000000000000009e-01 5.615204999999999780e-01 1.783970000000000056e+01 1.349359999999999786e+02 1.447579999999999927e+03
1.270000000000000018e-01 5.614060000000000716e-01 1.723594999999999899e+01 1.344915000000000020e+02 1.447434999999999945e+03
1.280000000000000027e-01 5.612854999999999928e-01 1.662075000000000102e+01 1.340204999999999984e+02 1.447269999999999982e+03
1.290000000000000036e-01 5.611595000000000333e-01 1.599554999999999971e+01 1.335269999999999868e+02 1.447105000000000018e+03
1.300000000000000044e-01 5.610294999999999588e-01 1.536255000000000059e+01 1.330149999999999864e+02 1.446930000000000064e+03
1.310000000000000053e-01 5.608969999999999789e-01 1.472449999999999903e+01 1.324900000000000091e+02 1.446750000000000000e+03
1.320000000000000062e-01 5.607630000000000114e-01 1.408435499999999863e+01 1.319574999999999818e+02 1.446570000000000164e+03
1.330000000000000071e-01 5.606295000000000028e-01 1.344576500000000152e+01 1.314244999999999948e+02 1.446389999999999873e+03
1.340000000000000080e-01 5.604985000000000106e-01 1.281234999999999857e+01 1.308975000000000080e+02 1.446204999999999927e+03
1.350000000000000089e-01 5.603715000000000224e-01 1.218803999999999910e+01 1.303820000000000050e+02 1.446025000000000091e+03
1.360000000000000098e-01 5.602494999999999559e-01 1.157682499999999948e+01 1.298865000000000123e+02 1.445855000000000018e+03
1.370000000000000107e-01 5.601350000000000495e-01 1.098249000000000031e+01 1.294164999999999850e+02 1.445684999999999945e+03
1.380000000000000115e-01 5.600285000000000402e-01 1.040868500000000019e+01 1.289774999999999920e+02 1.445529999999999973e+03
1.390000000000000124e-01 5.599319999999999853e-01 9.858724999999999739e+00 1.285749999999999886e+02 1.445380000000000109e+03
1.400000000000000133e-01 5.598454999999999959e-01 9.335675000000000168e+00 1.282135000000000105e+02 1.445244999999999891e+03
1.410000000000000142e-01 5.597710000000000186e-01 8.841855000000000686e+00 1.278965000000000032e+02 1.445125000000000000e+03
1.420000000000000151e-01 5.597084999999999422e-01 8.379244999999999166e+00 1.276264999999999930e+02 1.445019999999999982e+03
1.430000000000000160e-01 5.596575000000000299e-01 7.949209999999999887e+00 1.274050000000000011e+02 1.444929999999999836e+03
1.440000000000000169e-01 5.596189999999999776e-01 7.552399999999999558e+00 1.272319999999999993e+02 1.444855000000000018e+03
1.450000000000000178e-01 5.595920000000000893e-01 7.188985000000000625e+00 1.271069999999999993e+02 1.444795000000000073e+03
1.459999999999999909e-01 5.595759999999999623e-01 6.858469999999999622e+00 1.270280000000000058e+02 1.444750000000000000e+03
1.469999999999999918e-01 5.595710000000000406e-01 6.559840000000000337e+00 1.269925000000000068e+02 1.444724999999999909e+03
1.479999999999999927e-01 5.595750000000000446e-01 6.291574999999999918e+00 1.269964999999999975e+02 1.444710000000000036e+03
1.489999999999999936e-01 5.595875000000000155e-01 6.051759999999999806e+00 1.270360000000000014e+02 1.444710000000000036e+03
1.499999999999999944e-01 5.596069999999999656e-01 5.838124999999999787e+00 1.271069999999999993e+02 1.444719999999999800e+03
1.509999999999999953e-01 5.596324999999999772e-01 5.648164999999999658e+00 1.272030000000000030e+02 1.444740000000000009e+03
1.519999999999999962e-01 5.596630000000000216e-01 5.479205000000000325e+00 1.273195000000000050e+02 1.444764999999999873e+03
1.529999999999999971e-01 5.596959999999999713e-01 5.328490000000000393e+00 1.274515000000000100e+02 1.444800000000000182e+03
1.539999999999999980e-01 5.597320000000000073e-01 5.193270000000000053e+00 1.275930000000000035e+02 1.444840000000000146e+03
1.549999999999999989e-01 5.597680000000000433e-01 5.070854999999999890e+00 1.277399999999999949e+02 1.444880000000000109e+03
1.559999999999999998e-01 5.598039999999999683e-01 4.958669999999999689e+00 1.278870000000000005e+02 1.444925000000000182e+03
1.570000000000000007e-01 5.598389999999999755e-01 4.854330000000000034e+00 1.280310000000000059e+02 1.444970000000000027e+03
1.580000000000000016e-01 5.598720000000000363e-01 4.755630000000000024e+00 1.281670000000000016e+02 1.445014999999999873e+03
1.590000000000000024e-01 5.599024999999999697e-01 4.660619999999999763e+00 1.282924999999999898e+02 1.445054999999999836e+03
