# t [s], A [cm^2], U [cm/s], P [cPa], c [cm/s]
1.000000000000000021e-03 1.707770000000000121e-01 2.450324999999999864e-01 9.756834999999999525e+01 2.195399999999999636e+03
2.000000000000000042e-03 1.707385000000000153e-01 1.640165500000000165e+00 9.439369999999999550e+01 2.195010000000000218e+03
3.000000000000000062e-03 1.706285000000000163e-01 3.401057499999999845e+00 8.991910000000000025e+01 2.193970000000000255e+03
4.000000000000000083e-03 1.704765000000000030e-01 5.401451999999999920e+00 8.494655000000000200e+01 2.192545000000000073e+03
5.000000000000000104e-03 1.703115000000000046e-01 7.572070000000000078e+00 8.039545000000001096e+01 2.191025000000000091e+03
6.000000000000000125e-03 1.701519999999999977e-01 9.743085000000000662e+00 7.661369999999999436e+01 2.189564999999999600e+03
7.000000000000000146e-03 1.700019999999999865e-01 1.169439000000000028e+01 7.336884999999999479e+01 2.188215000000000146e+03
8.000000000000000167e-03 1.698629999999999862e-01 1.333690499999999979e+01 7.042740000000000578e+01 2.186994999999999891e+03
9.000000000000001055e-03 1.697410000000000030e-01 1.470589999999999975e+01 6.785360000000000014e+01 2.185929999999999836e+03
1.000000000000000194e-02 1.696374999999999966e-01 1.583670000000000044e+01 6.573884999999999934e+01 2.185045000000000073e+03
1.099999999999999936e-02 1.695524999999999949e-01 1.674535000000000196e+01 6.406950000000000500e+01 2.184324999999999818e+03
1.200000000000000025e-02 1.694849999999999968e-01 1.744030000000000058e+01 6.277219999999999800e+01 2.183764999999999873e+03
1.300000000000000114e-02 1.694309999999999983e-01 1.791769999999999996e+01 6.171469999999999345e+01 2.183315000000000055e+03
1.400000000000000203e-02 1.693850000000000078e-01 1.819014999999999915e+01 6.076420000000000243e+01 2.182944999999999709e+03
1.499999999999999944e-02 1.693469999999999975e-01 1.833769999999999811e+01 5.995340000000000202e+01 2.182644999999999982e+03
1.600000000000000033e-02 1.693230000000000013e-01 1.850945000000000107e+01 5.956444999999999368e+01 2.182454999999999927e+03
1.700000000000000122e-02 1.693200000000000260e-01 1.885645000000000238e+01 5.999184999999999945e+01 2.182445000000000164e+03
1.800000000000000211e-02 1.693469999999999975e-01 1.944819999999999993e+01 6.147844999999999516e+01 2.182675000000000182e+03
1.900000000000000300e-02 1.694019999999999970e-01 2.023324999999999818e+01 6.392210000000000036e+01 2.183144999999999982e+03
2.000000000000000042e-02 1.694775000000000031e-01 2.106350000000000122e+01 6.687469999999999004e+01 2.183800000000000182e+03
2.100000000000000130e-02 1.695590000000000153e-01 2.176035000000000252e+01 6.971144999999999925e+01 2.184514999999999873e+03
2.200000000000000219e-02 1.696320000000000050e-01 2.218395000000000294e+01 7.186504999999999654e+01 2.185164999999999964e+03
2.299999999999999961e-02 1.696850000000000025e-01 2.227774999999999750e+01 7.301314999999999600e+01 2.185650000000000091e+03
2.400000000000000050e-02 1.697130000000000027e-01 2.207460000000000022e+01 7.315030000000000143e+01 2.185925000000000182e+03
2.500000000000000139e-02 1.697184999999999944e-01 2.166870000000000118e+01 7.253444999999999254e+01 2.185994999999999891e+03
2.600000000000000228e-02 1.697084999999999844e-01 2.117000000000000171e+01 7.154675000000000296e+01 2.185925000000000182e+03
2.700000000000000316e-02 1.696914999999999951e-01 2.066150000000000020e+01 7.053255000000000052e+01 2.185784999999999854e+03
2.800000000000000058e-02 1.696729999999999905e-01 2.017480000000000118e+01 6.968534999999999968e+01 2.185619999999999891e+03
2.900000000000000147e-02 1.696544999999999859e-01 1.969004999999999939e+01 6.900945000000000107e+01 2.185465000000000146e+03
3.000000000000000236e-02 1.696360000000000090e-01 1.915574999999999761e+01 6.836060000000000514e+01 2.185300000000000182e+03
3.099999999999999978e-02 1.696135000000000004e-01 1.851854999999999762e+01 6.753749999999999432e+01 2.185105000000000018e+03
3.200000000000000067e-02 1.695824999999999971e-01 1.775244999999999962e+01 6.638689999999999714e+01 2.184845000000000255e+03
3.300000000000000155e-02 1.695419999999999983e-01 1.687689999999999912e+01 6.488504999999999256e+01 2.184505000000000109e+03
3.400000000000000244e-02 1.694944999999999924e-01 1.595895000000000152e+01 6.316849999999999454e+01 2.184100000000000364e+03
3.500000000000000333e-02 1.694444999999999979e-01 1.509795000000000087e+01 6.150579999999999359e+01 2.183664999999999964e+03
3.600000000000000422e-02 1.694005000000000094e-01 1.439890000000000114e+01 6.022145000000000437e+01 2.183284999999999854e+03
3.700000000000000511e-02 1.693705000000000072e-01 1.394369999999999976e+01 5.959915000000000163e+01 2.183010000000000218e+03
3.799999999999999906e-02 1.693600000000000105e-01 1.376944999999999908e+01 5.979845000000000255e+01 2.182894999999999982e+03
3.899999999999999994e-02 1.693715000000000082e-01 1.386025000000000063e+01 6.080975000000000108e+01 2.182980000000000018e+03
4.000000000000000083e-02 1.694034999999999846e-01 1.415249999999999986e+01 6.245770000000000266e+01 2.183234999999999673e+03
4.100000000000000172e-02 1.694499999999999895e-01 1.455075000000000074e+01 6.444490000000000407e+01 2.183630000000000109e+03
4.200000000000000261e-02 1.695035000000000014e-01 1.494835000000000136e+01 6.642040000000000077e+01 2.184085000000000036e+03
4.300000000000000350e-02 1.695539999999999825e-01 1.524699999999999989e+01 6.805035000000000878e+01 2.184519999999999982e+03
4.400000000000000439e-02 1.695929999999999938e-01 1.537134999999999962e+01 6.907525000000001114e+01 2.184869999999999891e+03
4.499999999999999833e-02 1.696159999999999890e-01 1.527635000000000076e+01 6.934269999999999357e+01 2.185079999999999927e+03
4.599999999999999922e-02 1.696179999999999910e-01 1.494730000000000025e+01 6.881289999999999907e+01 2.185105000000000018e+03
4.700000000000000011e-02 1.695989999999999998e-01 1.439424999999999955e+01 6.754144999999999754e+01 2.184954999999999927e+03
4.800000000000000100e-02 1.695595000000000019e-01 1.364420000000000144e+01 6.564834999999999354e+01 2.184619999999999891e+03
4.900000000000000189e-02 1.695025000000000004e-01 1.273199999999999932e+01 6.328315000000000623e+01 2.184140000000000327e+03
5.000000000000000278e-02 1.694319999999999993e-01 1.169412499999999966e+01 6.059555000000000291e+01 2.183529999999999745e+03
5.100000000000000366e-02 1.693514999999999882e-01 1.056527999999999956e+01 5.771724999999999994e+01 2.182840000000000146e+03
5.200000000000000455e-02 1.692645000000000122e-01 9.377205000000000013e+00 5.475520000000000209e+01 2.182085000000000036e+03
5.300000000000000544e-02 1.691735000000000044e-01 8.160479999999999734e+00 5.179595000000000482e+01 2.181295000000000073e+03
5.399999999999999939e-02 1.690820000000000101e-01 6.946695000000000064e+00 4.891485000000000127e+01 2.180500000000000000e+03
5.500000000000000028e-02 1.689920000000000033e-01 5.770555000000000767e+00 4.618694999999999595e+01 2.179715000000000146e+03
5.600000000000000117e-02 1.689069999999999738e-01 4.671050000000000146e+00 4.369509999999999650e+01 2.178969999999999800e+03
5.700000000000000205e-02 1.688284999999999925e-01 3.690874999999999684e+00 4.153324999999999534e+01 2.178284999999999854e+03
5.800000000000000294e-02 1.687605000000000077e-01 2.874603000000000019e+00 3.980405000000000371e+01 2.177690000000000055e+03
5.900000000000000383e-02 1.687075000000000102e-01 2.265700999999999965e+00 3.861189999999999856e+01 2.177204999999999927e+03
6.000000000000000472e-02 1.686705000000000010e-01 1.903025500000000036e+00 3.805290000000000106e+01 2.176875000000000000e+03
6.099999999999999867e-02 1.686535000000000117e-01 1.817495000000000083e+00 3.820494999999999663e+01 2.176710000000000036e+03
6.199999999999999956e-02 1.686584999999999890e-01 2.029449999999999754e+00 3.911840000000000117e+01 2.176730000000000018e+03
6.300000000000000044e-02 1.686865000000000170e-01 2.546969999999999956e+00 4.081085000000000207e+01 2.176954999999999927e+03
6.400000000000000133e-02 1.687390000000000001e-01 3.365445000000000242e+00 4.326444999999999652e+01 2.177390000000000327e+03
6.500000000000000222e-02 1.688145000000000062e-01 4.468144999999999811e+00 4.642815000000000225e+01 2.178019999999999982e+03
6.600000000000000311e-02 1.689114999999999922e-01 5.827779999999999738e+00 5.022214999999999918e+01 2.178849999999999909e+03
6.700000000000000400e-02 1.690284999999999982e-01 7.408674999999999677e+00 5.454469999999999885e+01 2.179845000000000255e+03
6.800000000000000488e-02 1.691614999999999924e-01 9.169360000000001065e+00 5.928060000000000684e+01 2.180989999999999782e+03
6.900000000000000577e-02 1.693074999999999997e-01 1.106548500000000068e+01 6.430969999999999231e+01 2.182250000000000000e+03
7.000000000000000666e-02 1.694640000000000035e-01 1.305247999999999919e+01 6.951534999999999798e+01 2.183605000000000018e+03
7.100000000000000755e-02 1.696259999999999990e-01 1.508824999999999861e+01 7.479185000000001082e+01 2.185019999999999982e+03
7.200000000000000844e-02 1.697919999999999985e-01 1.713540000000000063e+01 8.005065000000000452e+01 2.186470000000000255e+03
7.300000000000000933e-02 1.699585000000000123e-01 1.916274999999999906e+01 8.522419999999999618e+01 2.187929999999999836e+03
7.399999999999999634e-02 1.701234999999999831e-01 2.114634999999999820e+01 9.026785000000000991e+01 2.189385000000000218e+03
7.499999999999999722e-02 1.702859999999999929e-01 2.306944999999999979e+01 9.515940000000000509e+01 2.190815000000000055e+03
7.599999999999999811e-02 1.704444999999999988e-01 2.492229999999999990e+01 9.989624999999999488e+01 2.192225000000000364e+03
7.699999999999999900e-02 1.706000000000000016e-01 2.670084999999999908e+01 1.044912999999999954e+02 2.193599999999999909e+03
7.799999999999999989e-02 1.707520000000000149e-01 2.840525000000000233e+01 1.089654999999999916e+02 2.194949999999999818e+03
7.900000000000000078e-02 1.709014999999999840e-01 3.003840000000000288e+01 1.133464999999999918e+02 2.196279999999999745e+03
8.000000000000000167e-02 1.710480000000000056e-01 3.160439999999999827e+01 1.176589999999999918e+02 2.197585000000000036e+03
8.100000000000000255e-02 1.711924999999999975e-01 3.310719999999999885e+01 1.219224999999999994e+02 2.198875000000000000e+03
8.200000000000000344e-02 1.713355000000000017e-01 3.454975000000000307e+01 1.261490000000000009e+02 2.200150000000000091e+03
8.300000000000000433e-02 1.714775000000000049e-01 3.593344999999999345e+01 1.303410000000000082e+02 2.201425000000000182e+03
8.400000000000000522e-02 1.716179999999999928e-01 3.725769999999999982e+01 1.344929999999999950e+02 2.202684999999999945e+03
8.500000000000000611e-02 1.717569999999999930e-01 3.852020000000000266e+01 1.385910000000000082e+02 2.203930000000000291e+03
8.600000000000000699e-02 1.718945000000000056e-01 3.971705000000000041e+01 1.426150000000000091e+02 2.205159999999999854e+03
8.700000000000000788e-02 1.720289999999999875e-01 4.084255000000000280e+01 1.465389999999999873e+02 2.206369999999999891e+03
8.800000000000000877e-02 1.721604999999999941e-01 4.189020000000000010e+01 1.503344999999999914e+02 2.207545000000000073e+03
8.899999999999999578e-02 1.722869999999999957e-01 4.285240000000000293e+01 1.539730000000000132e+02 2.208684999999999945e+03
8.999999999999999667e-02 1.724085000000000201e-01 4.372109999999999985e+01 1.574234999999999900e+02 2.209784999999999854e+03
9.099999999999999756e-02 1.725244999999999973e-01 4.448780000000000001e+01 1.606544999999999845e+02 2.210824999999999818e+03
9.199999999999999845e-02 1.726329999999999809e-01 4.514430000000000121e+01 1.636384999999999934e+02 2.211805000000000291e+03
9.299999999999999933e-02 1.727329999999999977e-01 4.568264999999999532e+01 1.663489999999999895e+02 2.212720000000000255e+03
9.400000000000000022e-02 1.728250000000000064e-01 4.609600000000000364e+01 1.687624999999999886e+02 2.213550000000000182e+03
9.500000000000000111e-02 1.729070000000000051e-01 4.637890000000000157e+01 1.708589999999999804e+02 2.214295000000000073e+03
9.600000000000000200e-02 1.729789999999999939e-01 4.652794999999999703e+01 1.726274999999999977e+02 2.214954999999999927e+03
9.700000000000000289e-02 1.730410000000000004e-01 4.654210000000000491e+01 1.740604999999999905e+02 2.215524999999999636e+03
9.800000000000000377e-02 1.730920000000000236e-01 4.642324999999999591e+01 1.751594999999999800e+02 2.215989999999999782e+03
9.900000000000000466e-02 1.731325000000000225e-01 4.617610000000000525e+01 1.759354999999999905e+02 2.216369999999999891e+03
1.000000000000000056e-01 1.731619999999999826e-01 4.580839999999999890e+01 1.764060000000000059e+02 2.216644999999999982e+03
1.010000000000000064e-01 1.731830000000000036e-01 4.533075000000000188e+01 1.765960000000000036e+02 2.216845000000000255e+03
1.020000000000000073e-01 1.731940000000000146e-01 4.475584999999999525e+01 1.765374999999999943e+02 2.216960000000000036e+03
1.030000000000000082e-01 1.731969999999999898e-01 4.409844999999999970e+01 1.762669999999999959e+02 2.217000000000000000e+03
1.040000000000000091e-01 1.731940000000000146e-01 4.337425000000000352e+01 1.758229999999999791e+02 2.216975000000000364e+03
1.050000000000000100e-01 1.731840000000000046e-01 4.259935000000000116e+01 1.752450000000000045e+02 2.216894999999999982e+03
1.059999999999999970e-01 1.731705000000000050e-01 4.178979999999999961e+01 1.745704999999999814e+02 2.216774999999999636e+03
1.069999999999999979e-01 1.731530000000000014e-01 4.096049999999999613e+01 1.738350000000000080e+02 2.216625000000000000e+03
1.079999999999999988e-01 1.731330000000000091e-01 4.012519999999999953e+01 1.730699999999999932e+02 2.216449999999999818e+03
1.089999999999999997e-01 1.731115000000000015e-01 3.929550000000000409e+01 1.723004999999999995e+02 2.216260000000000218e+03
1.100000000000000006e-01 1.730895000000000072e-01 3.848099999999999454e+01 1.715455000000000041e+02 2.216065000000000055e+03
1.110000000000000014e-01 1.730674999999999852e-01 3.768874999999999886e+01 1.708185000000000002e+02 2.215864999999999782e+03
1.120000000000000023e-01 1.730455000000000187e-01 3.692310000000000514e+01 1.701264999999999930e+02 2.215664999999999964e+03
1.130000000000000032e-01 1.730244999999999977e-01 3.618614999999999782e+01 1.694685000000000059e+02 2.215470000000000255e+03
1.140000000000000041e-01 1.730039999999999911e-01 3.547719999999999629e+01 1.688400000000000034e+02 2.215284999999999854e+03
1.150000000000000050e-01 1.729829999999999979e-01 3.479350000000000165e+01 1.682295000000000016e+02 2.215105000000000018e+03
1.160000000000000059e-01 1.729634999999999923e-01 3.413034999999999997e+01 1.676220000000000141e+02 2.214920000000000073e+03
1.170000000000000068e-01 1.729430000000000134e-01 3.348140000000000072e+01 1.670000000000000000e+02 2.214734999999999673e+03
1.180000000000000077e-01 1.729219999999999924e-01 3.283944999999999936e+01 1.663430000000000177e+02 2.214539999999999964e+03
1.190000000000000085e-01 1.728994999999999838e-01 3.219660000000000366e+01 1.656299999999999955e+02 2.214340000000000146e+03
1.200000000000000094e-01 1.728755000000000153e-01 3.154489999999999839e+01 1.648419999999999845e+02 2.214119999999999891e+03
1.209999999999999964e-01 1.728485000000000160e-01 3.087705000000000410e+01 1.639610000000000127e+02 2.213880000000000109e+03
1.219999999999999973e-01 1.728190000000000004e-01 3.018670000000000186e+01 1.629720000000000084e+02 2.213614999999999782e+03
1.229999999999999982e-01 1.727854999999999808e-01 2.946890000000000143e+01 1.618654999999999973e+02 2.213319999999999709e+03
1.239999999999999991e-01 1.727489999999999859e-01 2.872060000000000102e+01 1.606370000000000005e+02 2.212989999999999782e+03
1.250000000000000000e-01 1.727090000000000014e-01 2.794085000000000107e+01 1.592864999999999895e+02 2.212630000000000109e+03
1.260000000000000009e-01 1.726650000000000129e-01 2.713085000000000235e+01 1.578224999999999909e+02 2.212239999999999782e+03
1.270000000000000018e-01 1.726174999999999793e-01 2.629420000000000002e+01 1.562560000000000002e+02 2.211815000000000055e+03
1.280000000000000027e-01 1.725665000000000115e-01 2.543649999999999878e+01 1.546064999999999827e+02 2.211364999999999782e+03
1.290000000000000036e-01 1.725134999999999863e-01 2.456540000000000035e+01 1.528969999999999914e+02 2.210885000000000218e+03
1.300000000000000044e-01 1.724585000000000146e-01 2.368999999999999773e+01 1.511544999999999845e+02 2.210400000000000091e+03
1.310000000000000053e-01 1.724025000000000141e-01 2.282050000000000267e+01 1.494075000000000273e+02 2.209894999999999982e+03
1.320000000000000062e-01 1.723465000000000136e-01 2.196775000000000233e+01 1.476864999999999952e+02 2.209394999999999982e+03
1.330000000000000071e-01 1.722914999999999863e-01 2.114240000000000208e+01 1.460190000000000055e+02 2.208899999999999636e+03
1.340000000000000080e-01 1.722370000000000012e-01 2.035474999999999923e+01 1.444340000000000259e+02 2.208420000000000073e+03
1.350000000000000089e-01 1.721860000000000057e-01 1.961390000000000100e+01 1.429540000000000077e+02 2.207960000000000036e+03
1.360000000000000098e-01 1.721380000000000132e-01 1.892755000000000010e+01 1.415980000000000132e+02 2.207524999999999636e+03
1.370000000000000107e-01 1.720939999999999970e-01 1.830160000000000053e+01 1.403795000000000073e+02 2.207125000000000000e+03
1.380000000000000115e-01 1.720530000000000115e-01 1.774005000000000010e+01 1.393075000000000045e+02 2.206760000000000218e+03
1.390000000000000124e-01 1.720169999999999755e-01 1.724474999999999980e+01 1.383840000000000146e+02 2.206429999999999836e+03
1.400000000000000133e-01 1.719860000000000000e-01 1.681584999999999752e+01 1.376069999999999993e+02 2.206144999999999982e+03
1.410000000000000142e-01 1.719590000000000007e-01 1.645134999999999792e+01 1.369704999999999870e+02 2.205900000000000091e+03
1.420000000000000151e-01 1.719364999999999921e-01 1.614789999999999992e+01 1.364635000000000105e+02 2.205690000000000055e+03
1.430000000000000160e-01 1.719175000000000009e-01 1.590085000000000015e+01 1.360720000000000027e+02 2.205519999999999982e+03
1.440000000000000169e-01 1.719025000000000136e-01 1.570449999999999946e+01 1.357810000000000059e+02 2.205380000000000109e+03
1.450000000000000178e-01 1.718910000000000160e-01 1.555255000000000010e+01 1.355759999999999934e+02 2.205269999999999982e+03
1.459999999999999909e-01 1.718820000000000070e-01 1.543825000000000003e+01 1.354385000000000048e+02 2.205184999999999945e+03
1.469999999999999918e-01 1.718750000000000000e-01 1.535484999999999900e+01 1.353550000000000182e+02 2.205119999999999891e+03
1.479999999999999927e-01 1.718705000000000094e-01 1.529589999999999961e+01 1.353089999999999975e+02 2.205074999999999818e+03
1.489999999999999936e-01 1.718669999999999920e-01 1.525495000000000090e+01 1.352875000000000227e+02 2.205039999999999964e+03
1.499999999999999944e-01 1.718645000000000034e-01 1.522654999999999959e+01 1.352805000000000177e+02 2.205015000000000327e+03
1.509999999999999953e-01 1.718625000000000014e-01 1.520570000000000022e+01 1.352780000000000200e+02 2.204994999999999891e+03
1.519999999999999962e-01 1.718609999999999860e-01 1.518825000000000003e+01 1.352724999999999795e+02 2.204980000000000018e+03
1.529999999999999971e-01 1.718594999999999984e-01 1.517085000000000150e+01 1.352584999999999980e+02 2.204969999999999800e+03
1.539999999999999980e-01 1.718580000000000108e-01 1.515109999999999957e+01 1.352334999999999923e+02 2.204949999999999818e+03
1.549999999999999989e-01 1.718565000000000231e-01 1.512749999999999950e+01 1.351959999999999980e+02 2.204934999999999945e+03
1.559999999999999998e-01 1.718545000000000211e-01 1.509914999999999807e+01 1.351460000000000150e+02 2.204925000000000182e+03
1.570000000000000007e-01 1.718530000000000058e-01 1.506620000000000026e+01 1.350865000000000009e+02 2.204904999999999745e+03
1.580000000000000016e-01 1.718505000000000171e-01 1.502899999999999991e+01 1.350210000000000150e+02 2.204885000000000218e+03
1.590000000000000024e-01 1.718480000000000008e-01 1.498884999999999934e+01 1.349530000000000030e+02 2.204864999999999782e+03
