# t [s], A [cm^2], U [cm/s], P [cPa], c [cm/s]
1.000000000000000021e-03 1.387245000000000006e-01 3.487385000000000068e-01 9.996519999999999584e+01 1.906840000000000146e+03
2.000000000000000042e-03 1.386880000000000057e-01 2.005075000000000163e+00 9.668145000000001232e+01 1.906424999999999955e+03
3.000000000000000062e-03 1.385795000000000221e-01 4.026995999999999576e+00 9.224179999999999779e+01 1.905240000000000009e+03
4.000000000000000083e-03 1.384250000000000203e-01 6.274409499999999973e+00 8.739055000000000462e+01 1.903595000000000027e+03
5.000000000000000104e-03 1.382550000000000168e-01 8.678634999999999877e+00 8.298954999999999416e+01 1.901789999999999964e+03
6.000000000000000125e-03 1.380879999999999885e-01 1.108152500000000096e+01 7.937745000000001028e+01 1.900045000000000073e+03
7.000000000000000146e-03 1.379315000000000124e-01 1.327330500000000058e+01 7.637534999999999741e+01 1.898429999999999836e+03
8.000000000000000167e-03 1.377869999999999928e-01 1.514007000000000147e+01 7.371254999999999313e+01 1.896965000000000146e+03
9.000000000000001055e-03 1.376570000000000016e-01 1.670204999999999984e+01 7.136889999999999645e+01 1.895670000000000073e+03
1.000000000000000194e-02 1.375460000000000016e-01 1.800359999999999872e+01 6.942695000000000505e+01 1.894575000000000045e+03
1.099999999999999936e-02 1.374535000000000062e-01 1.906530000000000058e+01 6.788739999999999952e+01 1.893674999999999955e+03
1.200000000000000025e-02 1.373790000000000011e-01 1.990625000000000000e+01 6.670475000000000421e+01 1.892954999999999927e+03
1.300000000000000114e-02 1.373199999999999976e-01 2.054424999999999812e+01 6.582390000000000896e+01 1.892400000000000091e+03
1.400000000000000203e-02 1.372744999999999937e-01 2.098584999999999923e+01 6.515579999999999927e+01 1.891974999999999909e+03
1.499999999999999944e-02 1.372379999999999989e-01 2.125045000000000073e+01 6.461445000000000505e+01 1.891650000000000091e+03
1.600000000000000033e-02 1.372109999999999996e-01 2.140905000000000058e+01 6.422944999999999993e+01 1.891405000000000200e+03
1.700000000000000122e-02 1.371954999999999980e-01 2.158570000000000277e+01 6.420335000000000036e+01 1.891279999999999973e+03
1.800000000000000211e-02 1.371985000000000010e-01 2.190874999999999773e+01 6.482399999999999807e+01 1.891329999999999927e+03
1.900000000000000300e-02 1.372259999999999869e-01 2.244525000000000148e+01 6.628509999999999991e+01 1.891610000000000127e+03
2.000000000000000042e-02 1.372789999999999844e-01 2.316324999999999790e+01 6.853775000000000261e+01 1.892134999999999991e+03
2.100000000000000130e-02 1.373515000000000152e-01 2.394069999999999965e+01 7.126234999999999786e+01 1.892855000000000018e+03
2.200000000000000219e-02 1.374334999999999862e-01 2.461164999999999736e+01 7.396420000000000528e+01 1.893674999999999955e+03
2.299999999999999961e-02 1.375109999999999943e-01 2.502454999999999785e+01 7.613779999999999859e+01 1.894454999999999927e+03
2.400000000000000050e-02 1.375719999999999998e-01 2.509055000000000035e+01 7.742629999999999768e+01 1.895085000000000036e+03
2.500000000000000139e-02 1.376094999999999957e-01 2.480545000000000044e+01 7.771985000000000809e+01 1.895485000000000127e+03
2.600000000000000228e-02 1.376219999999999943e-01 2.424114999999999753e+01 7.716275000000000261e+01 1.895644999999999982e+03
2.700000000000000316e-02 1.376145000000000007e-01 2.351389999999999958e+01 7.607800000000000296e+01 1.895589999999999918e+03
2.800000000000000058e-02 1.375945000000000085e-01 2.274244999999999806e+01 7.484454999999999814e+01 1.895410000000000082e+03
2.900000000000000147e-02 1.375705000000000122e-01 2.201299999999999812e+01 7.377479999999999905e+01 1.895179999999999836e+03
3.000000000000000236e-02 1.375489999999999768e-01 2.136070000000000135e+01 7.303409999999999513e+01 1.894969999999999800e+03
3.099999999999999978e-02 1.375335000000000030e-01 2.077024999999999721e+01 7.262030000000000030e+01 1.894809999999999945e+03
3.200000000000000067e-02 1.375224999999999920e-01 2.019279999999999831e+01 7.239884999999999593e+01 1.894699999999999818e+03
3.300000000000000155e-02 1.375129999999999963e-01 1.957059999999999889e+01 7.217300000000000182e+01 1.894605000000000018e+03
3.400000000000000244e-02 1.375010000000000121e-01 1.886104999999999876e+01 7.176314999999999600e+01 1.894485000000000127e+03
3.500000000000000333e-02 1.374825000000000075e-01 1.805514999999999759e+01 7.107329999999998904e+01 1.894315000000000055e+03
3.600000000000000422e-02 1.374575000000000102e-01 1.718434999999999846e+01 7.012730000000000530e+01 1.894070000000000164e+03
3.700000000000000511e-02 1.374275000000000080e-01 1.631564999999999799e+01 6.906725000000000136e+01 1.893779999999999973e+03
3.799999999999999906e-02 1.373965000000000047e-01 1.553589999999999982e+01 6.811695000000000277e+01 1.893480000000000018e+03
3.899999999999999994e-02 1.373715000000000075e-01 1.493015000000000114e+01 6.752089999999999748e+01 1.893224999999999909e+03
4.000000000000000083e-02 1.373584999999999945e-01 1.456064999999999898e+01 6.747820000000000107e+01 1.893085000000000036e+03
4.100000000000000172e-02 1.373619999999999841e-01 1.445124999999999993e+01 6.808910000000000196e+01 1.893105000000000018e+03
4.200000000000000261e-02 1.373840000000000061e-01 1.458184999999999931e+01 6.932779999999999632e+01 1.893299999999999955e+03
4.300000000000000350e-02 1.374225000000000030e-01 1.489205000000000112e+01 7.104540000000000077e+01 1.893664999999999964e+03
4.400000000000000439e-02 1.374734999999999985e-01 1.529260000000000019e+01 7.300024999999999409e+01 1.894155000000000200e+03
4.499999999999999833e-02 1.375290000000000123e-01 1.568144999999999811e+01 7.490319999999999823e+01 1.894704999999999927e+03
4.599999999999999922e-02 1.375834999999999975e-01 1.595940000000000047e+01 7.646829999999999927e+01 1.895235000000000127e+03
4.700000000000000011e-02 1.376269999999999993e-01 1.604380000000000095e+01 7.745695000000000618e+01 1.895670000000000073e+03
4.800000000000000100e-02 1.376534999999999842e-01 1.587705000000000055e+01 7.770805000000000007e+01 1.895950000000000045e+03
4.900000000000000189e-02 1.376594999999999902e-01 1.543064999999999998e+01 7.715129999999999200e+01 1.896014999999999873e+03
5.000000000000000278e-02 1.376415000000000000e-01 1.470364999999999966e+01 7.580410000000000537e+01 1.895855000000000018e+03
5.100000000000000366e-02 1.376005000000000145e-01 1.371799999999999997e+01 7.375540000000000873e+01 1.895460000000000036e+03
5.200000000000000455e-02 1.375379999999999936e-01 1.251217000000000112e+01 7.114220000000000255e+01 1.894855000000000018e+03
5.300000000000000544e-02 1.374579999999999969e-01 1.113387499999999974e+01 6.812470000000000425e+01 1.894075000000000045e+03
5.399999999999999939e-02 1.373645000000000005e-01 9.634619999999999962e+00 6.486475000000000080e+01 1.893150000000000091e+03
5.500000000000000028e-02 1.372625000000000095e-01 8.065640000000000143e+00 6.151135000000000730e+01 1.892139999999999873e+03
5.600000000000000117e-02 1.371549999999999991e-01 6.475874999999999382e+00 5.819324999999999903e+01 1.891079999999999927e+03
5.700000000000000205e-02 1.370470000000000022e-01 4.911515500000000145e+00 5.501814999999999856e+01 1.890014999999999873e+03
5.800000000000000294e-02 1.369420000000000082e-01 3.416476999999999986e+00 5.207654999999999745e+01 1.888970000000000027e+03
5.900000000000000383e-02 1.368424999999999780e-01 2.033079999999999998e+00 4.944709999999999894e+01 1.887985000000000127e+03
6.000000000000000472e-02 1.367524999999999991e-01 8.024949999999999584e-01 4.720175000000000409e+01 1.887085000000000036e+03
6.099999999999999867e-02 1.366740000000000177e-01 -2.354899999999999771e-01 4.540879999999999939e+01 1.886304999999999836e+03
6.199999999999999956e-02 1.366105000000000236e-01 -1.043511500000000147e+00 4.413295000000000101e+01 1.885654999999999973e+03
6.300000000000000044e-02 1.365629999999999900e-01 -1.588317500000000049e+00 4.343314999999999770e+01 1.885174999999999955e+03
6.400000000000000133e-02 1.365339999999999887e-01 -1.842824999999999935e+00 4.335784999999999911e+01 1.884869999999999891e+03
6.500000000000000222e-02 1.365259999999999807e-01 -1.788200000000000012e+00 4.394015000000000271e+01 1.884764999999999873e+03
6.600000000000000311e-02 1.365395000000000081e-01 -1.415548499999999876e+00 4.519265000000000043e+01 1.884875000000000000e+03
6.700000000000000400e-02 1.365744999999999876e-01 -7.269305000000000350e-01 4.710460000000000491e+01 1.885200000000000045e+03
6.800000000000000488e-02 1.366320000000000034e-01 2.645150000000000556e-01 4.964059999999999917e+01 1.885740000000000009e+03
6.900000000000000577e-02 1.367099999999999982e-01 1.535239999999999938e+00 5.274195000000000277e+01 1.886484999999999900e+03
7.000000000000000666e-02 1.368070000000000119e-01 3.052788000000000057e+00 5.633039999999999736e+01 1.887425000000000182e+03
7.100000000000000755e-02 1.369205000000000005e-01 4.777724000000000082e+00 6.031325000000000358e+01 1.888534999999999854e+03
7.200000000000000844e-02 1.370480000000000032e-01 6.665869999999999962e+00 6.458915000000000362e+01 1.889780000000000200e+03
7.300000000000000933e-02 1.371864999999999890e-01 8.670564999999999856e+00 6.905419999999999447e+01 1.891144999999999982e+03
7.399999999999999634e-02 1.373324999999999962e-01 1.074482500000000051e+01 7.360720000000000596e+01 1.892585000000000036e+03
7.499999999999999722e-02 1.374830000000000219e-01 1.284319999999999951e+01 7.815449999999999875e+01 1.894074999999999818e+03
7.599999999999999811e-02 1.376344999999999930e-01 1.492355000000000054e+01 8.261365000000000691e+01 1.895590000000000146e+03
7.699999999999999900e-02 1.377855000000000052e-01 1.694834999999999781e+01 8.691604999999999848e+01 1.897095000000000027e+03
7.799999999999999989e-02 1.379319999999999991e-01 1.888619999999999877e+01 9.100890000000001123e+01 1.898569999999999936e+03
7.900000000000000078e-02 1.380735000000000157e-01 2.071229999999999905e+01 9.485679999999999268e+01 1.899994999999999891e+03
8.000000000000000167e-02 1.382085000000000119e-01 2.240940000000000154e+01 9.844190000000000396e+01 1.901360000000000127e+03
8.100000000000000255e-02 1.383360000000000145e-01 2.396795000000000186e+01 1.017631999999999977e+02 1.902650000000000091e+03
8.200000000000000344e-02 1.384549999999999947e-01 2.538584999999999781e+01 1.048368000000000109e+02 1.903869999999999891e+03
8.300000000000000433e-02 1.385675000000000101e-01 2.666785000000000139e+01 1.076914999999999907e+02 1.905014999999999873e+03
8.400000000000000522e-02 1.386725000000000041e-01 2.782464999999999833e+01 1.103665000000000020e+02 1.906099999999999909e+03
8.500000000000000611e-02 1.387730000000000075e-01 2.887120000000000175e+01 1.129099999999999966e+02 1.907119999999999891e+03
8.600000000000000699e-02 1.388690000000000202e-01 2.982564999999999955e+01 1.153725000000000023e+02 1.908105000000000018e+03
8.700000000000000788e-02 1.389620000000000022e-01 3.070720000000000027e+01 1.178010000000000019e+02 1.909065000000000055e+03
8.800000000000000877e-02 1.390534999999999966e-01 3.153475000000000250e+01 1.202404999999999973e+02 1.910000000000000000e+03
8.899999999999999578e-02 1.391449999999999909e-01 3.232529999999999859e+01 1.227270000000000039e+02 1.910945000000000164e+03
8.999999999999999667e-02 1.392380000000000007e-01 3.309270000000000067e+01 1.252849999999999966e+02 1.911894999999999982e+03
9.099999999999999756e-02 1.393324999999999980e-01 3.384704999999999586e+01 1.279275000000000091e+02 1.912865000000000009e+03
9.199999999999999845e-02 1.394285000000000108e-01 3.459355000000000047e+01 1.306544999999999845e+02 1.913849999999999909e+03
9.299999999999999933e-02 1.395274999999999987e-01 3.533299999999999841e+01 1.334540000000000077e+02 1.914865000000000009e+03
9.400000000000000022e-02 1.396284999999999887e-01 3.606170000000000186e+01 1.363014999999999759e+02 1.915900000000000091e+03
9.500000000000000111e-02 1.397304999999999797e-01 3.677159999999999940e+01 1.391664999999999850e+02 1.916944999999999936e+03
9.600000000000000200e-02 1.398325000000000262e-01 3.745159999999999911e+01 1.420079999999999814e+02 1.917990000000000009e+03
9.700000000000000289e-02 1.399334999999999885e-01 3.808790000000000475e+01 1.447824999999999989e+02 1.919029999999999973e+03
9.800000000000000377e-02 1.400325000000000042e-01 3.866519999999999868e+01 1.474449999999999932e+02 1.920045000000000073e+03
9.900000000000000466e-02 1.401270000000000016e-01 3.916764999999999475e+01 1.499504999999999768e+02 1.921025000000000091e+03
1.000000000000000056e-01 1.402170000000000083e-01 3.957970000000000255e+01 1.522584999999999980e+02 1.921950000000000045e+03
1.010000000000000064e-01 1.403004999999999947e-01 3.988689999999999714e+01 1.543310000000000173e+02 1.922815000000000055e+03
1.020000000000000073e-01 1.403765000000000152e-01 4.007680000000000575e+01 1.561384999999999934e+02 1.923605000000000018e+03
1.030000000000000082e-01 1.404434999999999989e-01 4.013954999999999984e+01 1.576585000000000036e+02 1.924304999999999836e+03
1.040000000000000091e-01 1.405015000000000014e-01 4.006820000000000448e+01 1.588754999999999882e+02 1.924909999999999854e+03
1.050000000000000100e-01 1.405494999999999939e-01 3.985930000000000462e+01 1.597845000000000084e+02 1.925414999999999964e+03
1.059999999999999970e-01 1.405865000000000031e-01 3.951279999999999859e+01 1.603870000000000005e+02 1.925809999999999945e+03
1.069999999999999979e-01 1.406145000000000034e-01 3.903240000000000265e+01 1.606929999999999836e+02 1.926110000000000127e+03
1.079999999999999988e-01 1.406314999999999926e-01 3.842510000000000048e+01 1.607205000000000155e+02 1.926299999999999955e+03
1.089999999999999997e-01 1.406395000000000006e-01 3.770105000000000217e+01 1.604939999999999998e+02 1.926394999999999982e+03
1.100000000000000006e-01 1.406390000000000140e-01 3.687330000000000041e+01 1.600425000000000182e+02 1.926400000000000091e+03
1.110000000000000014e-01 1.406300000000000050e-01 3.595700000000000074e+01 1.594010000000000105e+02 1.926319999999999936e+03
1.120000000000000023e-01 1.406149999999999900e-01 3.496889999999999787e+01 1.586045000000000016e+02 1.926170000000000073e+03
1.130000000000000032e-01 1.405934999999999824e-01 3.392685000000000173e+01 1.576904999999999859e+02 1.925965000000000146e+03
1.140000000000000041e-01 1.405679999999999985e-01 3.284905000000000541e+01 1.566974999999999909e+02 1.925704999999999927e+03
1.150000000000000050e-01 1.405389999999999973e-01 3.175319999999999965e+01 1.556594999999999800e+02 1.925414999999999964e+03
1.160000000000000059e-01 1.405079999999999940e-01 3.065630000000000166e+01 1.546100000000000136e+02 1.925099999999999909e+03
1.170000000000000068e-01 1.404755000000000031e-01 2.957385000000000019e+01 1.535774999999999864e+02 1.924769999999999982e+03
1.180000000000000077e-01 1.404429999999999845e-01 2.851930000000000121e+01 1.525865000000000009e+02 1.924434999999999945e+03
1.190000000000000085e-01 1.404110000000000080e-01 2.750404999999999944e+01 1.516560000000000059e+02 1.924110000000000127e+03
1.200000000000000094e-01 1.403804999999999914e-01 2.653669999999999973e+01 1.507984999999999900e+02 1.923799999999999955e+03
1.209999999999999964e-01 1.403520000000000045e-01 2.562324999999999875e+01 1.500219999999999914e+02 1.923500000000000000e+03
1.219999999999999973e-01 1.403254999999999919e-01 2.476684999999999803e+01 1.493280000000000030e+02 1.923220000000000027e+03
1.229999999999999982e-01 1.403015000000000234e-01 2.396799999999999997e+01 1.487119999999999891e+02 1.922969999999999800e+03
1.239999999999999991e-01 1.402795000000000014e-01 2.322444999999999737e+01 1.481649999999999920e+02 1.922735000000000127e+03
1.250000000000000000e-01 1.402589999999999948e-01 2.253175000000000239e+01 1.476740000000000066e+02 1.922525000000000091e+03
1.260000000000000009e-01 1.402404999999999902e-01 2.188329999999999842e+01 1.472214999999999918e+02 1.922329999999999927e+03
1.270000000000000018e-01 1.402235000000000009e-01 2.127089999999999748e+01 1.467869999999999777e+02 1.922144999999999982e+03
1.280000000000000027e-01 1.402065000000000117e-01 2.068529999999999802e+01 1.463505000000000109e+02 1.921965000000000146e+03
1.290000000000000036e-01 1.401895000000000224e-01 2.011635000000000062e+01 1.458880000000000052e+02 1.921784999999999854e+03
1.300000000000000044e-01 1.401715000000000044e-01 1.955389999999999873e+01 1.453790000000000191e+02 1.921599999999999909e+03
1.310000000000000053e-01 1.401525000000000132e-01 1.898799999999999955e+01 1.448029999999999973e+02 1.921400000000000091e+03
1.320000000000000062e-01 1.401310000000000056e-01 1.840959999999999752e+01 1.441430000000000007e+02 1.921179999999999836e+03
1.330000000000000071e-01 1.401074999999999959e-01 1.781090000000000018e+01 1.433834999999999980e+02 1.920934999999999945e+03
1.340000000000000080e-01 1.400799999999999823e-01 1.718574999999999875e+01 1.425160000000000196e+02 1.920654999999999973e+03
1.350000000000000089e-01 1.400494999999999934e-01 1.652994999999999948e+01 1.415349999999999966e+02 1.920340000000000146e+03
1.360000000000000098e-01 1.400150000000000006e-01 1.584140000000000015e+01 1.404399999999999977e+02 1.919994999999999891e+03
1.370000000000000107e-01 1.399775000000000047e-01 1.512049999999999983e+01 1.392365000000000066e+02 1.919605000000000018e+03
1.380000000000000115e-01 1.399360000000000048e-01 1.436974999999999980e+01 1.379345000000000141e+02 1.919184999999999945e+03
1.390000000000000124e-01 1.398915000000000020e-01 1.359420000000000073e+01 1.365495000000000232e+02 1.918730000000000018e+03
1.400000000000000133e-01 1.398444999999999827e-01 1.280054999999999943e+01 1.351000000000000227e+02 1.918250000000000000e+03
1.410000000000000142e-01 1.397950000000000026e-01 1.199752000000000152e+01 1.336094999999999970e+02 1.917744999999999891e+03
1.420000000000000151e-01 1.397444999999999937e-01 1.119508000000000081e+01 1.321024999999999920e+02 1.917224999999999909e+03
1.430000000000000160e-01 1.396924999999999972e-01 1.040419999999999945e+01 1.306055000000000064e+02 1.916700000000000045e+03
1.440000000000000169e-01 1.396415000000000017e-01 9.636224999999999596e+00 1.291454999999999984e+02 1.916174999999999955e+03
1.450000000000000178e-01 1.395910000000000206e-01 8.902514999999999290e+00 1.277479999999999905e+02 1.915654999999999973e+03
1.459999999999999909e-01 1.395419999999999994e-01 8.213865000000000194e+00 1.264370000000000118e+02 1.915159999999999854e+03
1.469999999999999918e-01 1.394960000000000089e-01 7.580074999999999896e+00 1.252339999999999947e+02 1.914690000000000055e+03
1.479999999999999927e-01 1.394535000000000080e-01 7.009705000000000297e+00 1.241564999999999941e+02 1.914250000000000000e+03
1.489999999999999936e-01 1.394150000000000111e-01 6.509579999999999700e+00 1.232180000000000035e+02 1.913844999999999800e+03
1.499999999999999944e-01 1.393805000000000183e-01 6.084664999999999324e+00 1.224269999999999925e+02 1.913494999999999891e+03
1.509999999999999953e-01 1.393510000000000026e-01 5.737899999999999778e+00 1.217884999999999991e+02 1.913184999999999945e+03
1.519999999999999962e-01 1.393265000000000198e-01 5.470159999999999911e+00 1.213004999999999995e+02 1.912925000000000182e+03
1.529999999999999971e-01 1.393059999999999854e-01 5.280300000000000438e+00 1.209609999999999985e+02 1.912719999999999800e+03
1.539999999999999980e-01 1.392909999999999981e-01 5.165269999999999584e+00 1.207590000000000003e+02 1.912554999999999836e+03
1.549999999999999989e-01 1.392809999999999881e-01 5.120340000000000558e+00 1.206839999999999975e+02 1.912440000000000055e+03
1.559999999999999998e-01 1.392749999999999821e-01 5.139280000000000292e+00 1.207205000000000013e+02 1.912375000000000000e+03
1.570000000000000007e-01 1.392729999999999801e-01 5.214729999999999421e+00 1.208539999999999992e+02 1.912344999999999800e+03
1.580000000000000016e-01 1.392740000000000089e-01 5.338409999999999656e+00 1.210639999999999930e+02 1.912349999999999909e+03
1.590000000000000024e-01 1.392780000000000129e-01 5.501509999999999678e+00 1.213340000000000032e+02 1.912384999999999991e+03
