# t [s], A [cm^2], U [cm/s], P [cPa], c [cm/s]
1.000000000000000021e-03 1.271114999999999884e-01 2.823875000000000135e-01 9.930615000000000236e+01 1.839630000000000109e+03
2.000000000000000042e-03 1.270914999999999961e-01 1.781180999999999903e+00 9.637264999999999304e+01 1.839365000000000009e+03
3.000000000000000062e-03 1.270104999999999984e-01 3.628109500000000320e+00 9.253504999999999825e+01 1.838380000000000109e+03
4.000000000000000083e-03 1.268880000000000008e-01 5.678989999999999760e+00 8.821829999999999927e+01 1.836920000000000073e+03
5.000000000000000104e-03 1.267455000000000109e-01 7.882349999999999746e+00 8.410229999999999961e+01 1.835235000000000127e+03
6.000000000000000125e-03 1.265980000000000161e-01 1.014007499999999951e+01 8.055975000000000819e+01 1.833505000000000109e+03
7.000000000000000146e-03 1.264554999999999985e-01 1.230284500000000136e+01 7.758054999999998813e+01 1.831849999999999909e+03
8.000000000000000167e-03 1.263190000000000146e-01 1.424859000000000009e+01 7.496760000000000446e+01 1.830299999999999955e+03
9.000000000000001055e-03 1.261929999999999996e-01 1.594570000000000043e+01 7.261180000000000234e+01 1.828880000000000109e+03
1.000000000000000194e-02 1.260784999999999823e-01 1.741835000000000022e+01 7.054025000000000034e+01 1.827610000000000127e+03
1.099999999999999936e-02 1.259780000000000066e-01 1.868829999999999814e+01 6.878650000000000375e+01 1.826505000000000109e+03
1.200000000000000025e-02 1.258920000000000039e-01 1.976579999999999870e+01 6.733375000000000909e+01 1.825565000000000055e+03
1.300000000000000114e-02 1.258190000000000142e-01 2.065919999999999845e+01 6.614005000000000223e+01 1.824775000000000091e+03
1.400000000000000203e-02 1.257574999999999943e-01 2.137415000000000020e+01 6.514995000000000402e+01 1.824125000000000000e+03
1.499999999999999944e-02 1.257059999999999844e-01 2.191600000000000037e+01 6.429664999999999964e+01 1.823579999999999927e+03
1.600000000000000033e-02 1.256614999999999815e-01 2.230734999999999957e+01 6.353924999999999557e+01 1.823125000000000000e+03
1.700000000000000122e-02 1.256249999999999867e-01 2.260399999999999920e+01 6.291844999999999999e+01 1.822750000000000000e+03
1.800000000000000211e-02 1.255969999999999864e-01 2.289059999999999917e+01 6.257139999999999702e+01 1.822469999999999800e+03
1.900000000000000300e-02 1.255830000000000002e-01 2.325240000000000151e+01 6.267949999999999733e+01 1.822340000000000146e+03
2.000000000000000042e-02 1.255860000000000032e-01 2.374150000000000205e+01 6.337595000000000312e+01 1.822380000000000109e+03
2.100000000000000130e-02 1.256065000000000098e-01 2.435614999999999952e+01 6.466790000000000305e+01 1.822615000000000009e+03
2.200000000000000219e-02 1.256440000000000057e-01 2.504149999999999920e+01 6.641200000000000614e+01 1.823030000000000200e+03
2.299999999999999961e-02 1.256935000000000136e-01 2.570889999999999986e+01 6.834950000000000614e+01 1.823579999999999927e+03
2.400000000000000050e-02 1.257469999999999977e-01 2.626494999999999891e+01 7.017940000000000111e+01 1.824174999999999955e+03
2.500000000000000139e-02 1.257985000000000075e-01 2.663725000000000165e+01 7.164009999999998968e+01 1.824755000000000109e+03
2.600000000000000228e-02 1.258404999999999940e-01 2.679145000000000110e+01 7.257104999999999961e+01 1.825240000000000009e+03
2.700000000000000316e-02 1.258710000000000107e-01 2.673460000000000036e+01 7.293944999999999368e+01 1.825599999999999909e+03
2.800000000000000058e-02 1.258884999999999865e-01 2.650714999999999932e+01 7.282855000000000700e+01 1.825809999999999945e+03
2.900000000000000147e-02 1.258940000000000059e-01 2.616629999999999967e+01 7.239615000000000578e+01 1.825894999999999982e+03
3.000000000000000236e-02 1.258920000000000039e-01 2.576854999999999762e+01 7.181990000000000407e+01 1.825884999999999991e+03
3.099999999999999978e-02 1.258849999999999969e-01 2.535494999999999877e+01 7.124684999999999491e+01 1.825825000000000045e+03
3.200000000000000067e-02 1.258765000000000023e-01 2.494419999999999860e+01 7.076104999999999734e+01 1.825735000000000127e+03
3.300000000000000155e-02 1.258680000000000077e-01 2.453314999999999912e+01 7.037465000000000259e+01 1.825644999999999982e+03
3.400000000000000244e-02 1.258599999999999997e-01 2.410369999999999990e+01 7.004144999999999754e+01 1.825554999999999836e+03
3.500000000000000333e-02 1.258505000000000040e-01 2.363309999999999889e+01 6.968479999999999563e+01 1.825460000000000036e+03
3.600000000000000422e-02 1.258390000000000064e-01 2.310470000000000113e+01 6.923059999999999548e+01 1.825335000000000036e+03
3.700000000000000511e-02 1.258239999999999914e-01 2.251604999999999990e+01 6.863644999999999641e+01 1.825175000000000182e+03
3.799999999999999906e-02 1.258050000000000002e-01 2.188300000000000267e+01 6.790985000000000582e+01 1.824974999999999909e+03
3.899999999999999994e-02 1.257829999999999782e-01 2.123864999999999981e+01 6.711205000000001064e+01 1.824735000000000127e+03
4.000000000000000083e-02 1.257599999999999829e-01 2.062790000000000035e+01 6.634655000000000769e+01 1.824485000000000127e+03
4.100000000000000172e-02 1.257379999999999887e-01 2.009834999999999994e+01 6.573714999999999975e+01 1.824244999999999891e+03
4.200000000000000261e-02 1.257214999999999860e-01 1.969115000000000038e+01 6.539969999999999573e+01 1.824059999999999945e+03
4.300000000000000350e-02 1.257125000000000048e-01 1.943234999999999957e+01 6.541660000000000252e+01 1.823954999999999927e+03
4.400000000000000439e-02 1.257130000000000192e-01 1.932820000000000249e+01 6.581780000000000541e+01 1.823954999999999927e+03
4.499999999999999833e-02 1.257245000000000168e-01 1.936370000000000147e+01 6.657404999999999973e+01 1.824065000000000055e+03
4.599999999999999922e-02 1.257449999999999957e-01 1.950549999999999784e+01 6.760130000000000905e+01 1.824279999999999973e+03
4.700000000000000011e-02 1.257729999999999959e-01 1.970734999999999815e+01 6.877504999999999313e+01 1.824579999999999927e+03
4.800000000000000100e-02 1.258050000000000002e-01 1.991679999999999851e+01 6.995024999999999693e+01 1.824920000000000073e+03
4.900000000000000189e-02 1.258374999999999910e-01 2.008254999999999768e+01 7.098245000000000005e+01 1.825275000000000091e+03
5.000000000000000278e-02 1.258659999999999779e-01 2.016009999999999991e+01 7.174674999999999159e+01 1.825595000000000027e+03
5.100000000000000366e-02 1.258879999999999999e-01 2.011560000000000059e+01 7.215090000000000714e+01 1.825835000000000036e+03
5.200000000000000455e-02 1.259004999999999985e-01 1.992835000000000178e+01 7.214225000000000421e+01 1.825980000000000018e+03
5.300000000000000544e-02 1.259019999999999861e-01 1.958999999999999986e+01 7.170810000000000173e+01 1.826000000000000000e+03
5.399999999999999939e-02 1.258914999999999895e-01 1.910360000000000014e+01 7.086995000000000289e+01 1.825894999999999982e+03
5.500000000000000028e-02 1.258690000000000087e-01 1.848100000000000165e+01 6.967574999999999363e+01 1.825655000000000200e+03
5.600000000000000117e-02 1.258360000000000034e-01 1.773979999999999890e+01 6.818950000000000955e+01 1.825295000000000073e+03
5.700000000000000205e-02 1.257939999999999892e-01 1.690129999999999910e+01 6.648250000000000171e+01 1.824839999999999918e+03
5.800000000000000294e-02 1.257435000000000080e-01 1.598845000000000027e+01 6.462605000000000643e+01 1.824295000000000073e+03
5.900000000000000383e-02 1.256875000000000075e-01 1.502479999999999905e+01 6.268715000000000259e+01 1.823680000000000064e+03
6.000000000000000472e-02 1.256280000000000174e-01 1.403389999999999915e+01 6.072704999999999842e+01 1.823025000000000091e+03
6.099999999999999867e-02 1.255660000000000109e-01 1.303955000000000020e+01 5.880089999999999861e+01 1.822349999999999909e+03
6.199999999999999956e-02 1.255044999999999911e-01 1.206593999999999944e+01 5.696025000000000205e+01 1.821670000000000073e+03
6.300000000000000044e-02 1.254440000000000000e-01 1.113778999999999897e+01 5.525444999999999851e+01 1.821005000000000109e+03
6.400000000000000133e-02 1.253869999999999985e-01 1.028072500000000034e+01 5.373255000000000337e+01 1.820375000000000000e+03
6.500000000000000222e-02 1.253345000000000153e-01 9.520645000000000024e+00 5.244410000000000593e+01 1.819799999999999955e+03
6.600000000000000311e-02 1.252890000000000115e-01 8.883404999999999774e+00 5.143854999999999933e+01 1.819295000000000073e+03
6.700000000000000400e-02 1.252524999999999888e-01 8.393840000000000856e+00 5.076420000000000243e+01 1.818880000000000109e+03
6.800000000000000488e-02 1.252254999999999896e-01 8.074539999999998940e+00 5.046540000000000248e+01 1.818575000000000045e+03
6.900000000000000577e-02 1.252099999999999880e-01 7.944805000000000561e+00 5.058024999999999949e+01 1.818394999999999982e+03
7.000000000000000666e-02 1.252079999999999860e-01 8.019534999999999414e+00 5.113759999999999906e+01 1.818355000000000018e+03
7.100000000000000755e-02 1.252189999999999970e-01 8.308320000000000149e+00 5.215489999999999782e+01 1.818470000000000027e+03
7.200000000000000844e-02 1.252455000000000096e-01 8.814885000000000304e+00 5.363660000000000139e+01 1.818735000000000127e+03
7.300000000000000933e-02 1.252864999999999951e-01 9.536880000000000024e+00 5.557345000000000113e+01 1.819164999999999964e+03
7.399999999999999634e-02 1.253420000000000090e-01 1.046601000000000070e+01 5.794280000000000541e+01 1.819769999999999982e+03
7.499999999999999722e-02 1.254119999999999957e-01 1.158858999999999995e+01 6.071014999999999873e+01 1.820519999999999982e+03
7.599999999999999811e-02 1.254954999999999821e-01 1.288630000000000031e+01 6.383079999999999643e+01 1.821424999999999955e+03
7.699999999999999900e-02 1.255910000000000082e-01 1.433709999999999951e+01 6.725284999999999513e+01 1.822464999999999918e+03
7.799999999999999989e-02 1.256975000000000176e-01 1.591639999999999944e+01 7.091960000000000264e+01 1.823625000000000000e+03
7.900000000000000078e-02 1.258134999999999948e-01 1.759805000000000064e+01 7.477285000000000537e+01 1.824889999999999873e+03
8.000000000000000167e-02 1.259359999999999924e-01 1.935589999999999833e+01 7.875565000000000282e+01 1.826244999999999891e+03
8.100000000000000255e-02 1.260644999999999960e-01 2.116430000000000078e+01 8.281469999999998777e+01 1.827664999999999964e+03
8.200000000000000344e-02 1.261974999999999902e-01 2.299940000000000140e+01 8.690245000000000175e+01 1.829130000000000109e+03
8.300000000000000433e-02 1.263325000000000142e-01 2.483995000000000175e+01 9.097915000000000418e+01 1.830630000000000109e+03
8.400000000000000522e-02 1.264689999999999981e-01 2.666749999999999687e+01 9.501310000000000855e+01 1.832144999999999982e+03
8.500000000000000611e-02 1.266049999999999953e-01 2.846740000000000137e+01 9.898259999999999081e+01 1.833664999999999964e+03
8.600000000000000699e-02 1.267404999999999782e-01 3.022824999999999918e+01 1.028737500000000011e+02 1.835190000000000055e+03
8.700000000000000788e-02 1.268745000000000012e-01 3.194219999999999970e+01 1.066812500000000057e+02 1.836690000000000055e+03
8.800000000000000877e-02 1.270064999999999944e-01 3.360459999999999781e+01 1.104064999999999941e+02 1.838184999999999945e+03
8.899999999999999578e-02 1.271374999999999866e-01 3.521349999999999625e+01 1.140570000000000022e+02 1.839655000000000200e+03
8.999999999999999667e-02 1.272659999999999902e-01 3.676890000000000214e+01 1.176430000000000007e+02 1.841105000000000018e+03
9.099999999999999756e-02 1.273930000000000062e-01 3.827259999999999707e+01 1.211769999999999925e+02 1.842550000000000182e+03
9.199999999999999845e-02 1.275185000000000068e-01 3.972690000000000055e+01 1.246715000000000089e+02 1.843970000000000027e+03
9.299999999999999933e-02 1.276430000000000065e-01 4.113450000000000273e+01 1.281374999999999886e+02 1.845384999999999991e+03
9.400000000000000022e-02 1.277659999999999907e-01 4.249774999999999636e+01 1.315824999999999818e+02 1.846789999999999964e+03
9.500000000000000111e-02 1.278890000000000027e-01 4.381810000000000116e+01 1.350104999999999791e+02 1.848190000000000055e+03
9.600000000000000200e-02 1.280109999999999859e-01 4.509609999999999985e+01 1.384214999999999804e+02 1.849585000000000036e+03
9.700000000000000289e-02 1.281319999999999959e-01 4.633095000000000141e+01 1.418110000000000070e+02 1.850970000000000027e+03
9.800000000000000377e-02 1.282524999999999915e-01 4.752044999999999675e+01 1.451700000000000159e+02 1.852349999999999909e+03
9.900000000000000466e-02 1.283719999999999861e-01 4.866119999999999379e+01 1.484850000000000136e+02 1.853724999999999909e+03
1.000000000000000056e-01 1.284899999999999931e-01 4.974849999999999994e+01 1.517400000000000091e+02 1.855075000000000045e+03
1.010000000000000064e-01 1.286059999999999981e-01 5.077674999999999983e+01 1.549175000000000182e+02 1.856404999999999973e+03
1.020000000000000073e-01 1.287190000000000001e-01 5.173949999999999960e+01 1.579954999999999927e+02 1.857714999999999918e+03
1.030000000000000082e-01 1.288294999999999857e-01 5.262995000000000090e+01 1.609544999999999959e+02 1.858985000000000127e+03
1.040000000000000091e-01 1.289359999999999951e-01 5.344105000000000416e+01 1.637725000000000080e+02 1.860214999999999918e+03
1.050000000000000100e-01 1.290379999999999860e-01 5.416590000000000060e+01 1.664304999999999950e+02 1.861394999999999982e+03
1.059999999999999970e-01 1.291349999999999998e-01 5.479784999999999684e+01 1.689089999999999918e+02 1.862519999999999982e+03
1.069999999999999979e-01 1.292260000000000075e-01 5.533095000000000141e+01 1.711920000000000073e+02 1.863574999999999818e+03
1.079999999999999988e-01 1.293104999999999949e-01 5.576030000000000086e+01 1.732649999999999864e+02 1.864559999999999945e+03
1.089999999999999997e-01 1.293884999999999896e-01 5.608190000000000452e+01 1.751175000000000068e+02 1.865470000000000027e+03
1.100000000000000006e-01 1.294595000000000051e-01 5.629305000000000092e+01 1.767415000000000020e+02 1.866300000000000182e+03
1.110000000000000014e-01 1.295225000000000126e-01 5.639274999999999949e+01 1.781320000000000050e+02 1.867045000000000073e+03
1.120000000000000023e-01 1.295779999999999987e-01 5.638125000000000142e+01 1.792899999999999920e+02 1.867700000000000045e+03
1.130000000000000032e-01 1.296265000000000056e-01 5.626075000000000159e+01 1.802169999999999845e+02 1.868269999999999982e+03
1.140000000000000041e-01 1.296665000000000179e-01 5.603494999999999493e+01 1.809209999999999923e+02 1.868744999999999891e+03
1.150000000000000050e-01 1.296990000000000087e-01 5.570924999999999727e+01 1.814130000000000109e+02 1.869134999999999991e+03
1.160000000000000059e-01 1.297244999999999926e-01 5.529064999999999941e+01 1.817059999999999889e+02 1.869445000000000164e+03
1.170000000000000068e-01 1.297435000000000116e-01 5.478725000000000023e+01 1.818174999999999955e+02 1.869670000000000073e+03
1.180000000000000077e-01 1.297560000000000102e-01 5.420864999999999867e+01 1.817669999999999959e+02 1.869820000000000164e+03
1.190000000000000085e-01 1.297619999999999885e-01 5.356489999999999441e+01 1.815745000000000005e+02 1.869904999999999973e+03
1.200000000000000094e-01 1.297629999999999895e-01 5.286700000000000443e+01 1.812624999999999886e+02 1.869924999999999955e+03
1.209999999999999964e-01 1.297599999999999865e-01 5.212565000000000026e+01 1.808519999999999754e+02 1.869894999999999982e+03
1.219999999999999973e-01 1.297519999999999785e-01 5.135184999999999889e+01 1.803654999999999973e+02 1.869815000000000055e+03
1.229999999999999982e-01 1.297415000000000096e-01 5.055590000000000117e+01 1.798235000000000241e+02 1.869699999999999818e+03
1.239999999999999991e-01 1.297284999999999966e-01 4.974739999999999895e+01 1.792425000000000068e+02 1.869555000000000064e+03
1.250000000000000000e-01 1.297134999999999816e-01 4.893489999999999895e+01 1.786399999999999864e+02 1.869384999999999991e+03
1.260000000000000009e-01 1.296970000000000067e-01 4.812579999999999814e+01 1.780275000000000034e+02 1.869195000000000164e+03
1.270000000000000018e-01 1.296795000000000031e-01 4.732609999999999673e+01 1.774159999999999968e+02 1.868994999999999891e+03
1.280000000000000027e-01 1.296609999999999985e-01 4.654030000000000200e+01 1.768115000000000236e+02 1.868784999999999854e+03
1.290000000000000036e-01 1.296430000000000082e-01 4.577145000000000152e+01 1.762185000000000059e+02 1.868569999999999936e+03
1.300000000000000044e-01 1.296245000000000036e-01 4.502120000000000033e+01 1.756360000000000241e+02 1.868355000000000018e+03
1.310000000000000053e-01 1.296055000000000124e-01 4.428969999999999629e+01 1.750635000000000048e+02 1.868134999999999991e+03
1.320000000000000062e-01 1.295864999999999934e-01 4.357585000000000264e+01 1.744950000000000045e+02 1.867914999999999964e+03
1.330000000000000071e-01 1.295669999999999877e-01 4.287754999999999939e+01 1.739244999999999948e+02 1.867694999999999936e+03
1.340000000000000080e-01 1.295479999999999965e-01 4.219164999999999566e+01 1.733435000000000059e+02 1.867464999999999918e+03
1.350000000000000089e-01 1.295280000000000042e-01 4.151435000000000031e+01 1.727429999999999950e+02 1.867235000000000127e+03
1.360000000000000098e-01 1.295074999999999976e-01 4.084149999999999636e+01 1.721129999999999995e+02 1.866994999999999891e+03
1.370000000000000107e-01 1.294859999999999900e-01 4.016849999999999454e+01 1.714445000000000050e+02 1.866740000000000009e+03
1.380000000000000115e-01 1.294629999999999947e-01 3.949099999999999966e+01 1.707274999999999920e+02 1.866480000000000018e+03
1.390000000000000124e-01 1.294385000000000119e-01 3.880460000000000065e+01 1.699534999999999911e+02 1.866190000000000055e+03
1.400000000000000133e-01 1.294125000000000136e-01 3.810559999999999548e+01 1.691164999999999736e+02 1.865890000000000100e+03
1.410000000000000142e-01 1.293839999999999990e-01 3.739079999999999870e+01 1.682094999999999914e+02 1.865559999999999945e+03
1.420000000000000151e-01 1.293535000000000101e-01 3.665769999999999840e+01 1.672305000000000064e+02 1.865210000000000036e+03
1.430000000000000160e-01 1.293209999999999915e-01 3.590480000000000160e+01 1.661770000000000209e+02 1.864829999999999927e+03
1.440000000000000169e-01 1.292854999999999976e-01 3.513155000000000427e+01 1.650514999999999759e+02 1.864425000000000182e+03
1.450000000000000178e-01 1.292480000000000018e-01 3.433854999999999791e+01 1.638559999999999945e+02 1.863990000000000009e+03
1.459999999999999909e-01 1.292085000000000039e-01 3.352724999999999511e+01 1.625964999999999918e+02 1.863534999999999854e+03
1.469999999999999918e-01 1.291664999999999897e-01 3.270040000000000191e+01 1.612810000000000059e+02 1.863049999999999955e+03
1.479999999999999927e-01 1.291225000000000012e-01 3.186145000000000138e+01 1.599194999999999993e+02 1.862545000000000073e+03
1.489999999999999936e-01 1.290769999999999973e-01 3.101485000000000269e+01 1.585235000000000127e+02 1.862025000000000091e+03
1.499999999999999944e-01 1.290300000000000058e-01 3.016580000000000084e+01 1.571055000000000064e+02 1.861490000000000009e+03
1.509999999999999953e-01 1.289824999999999999e-01 2.931995000000000218e+01 1.556790000000000020e+02 1.860940000000000055e+03
1.519999999999999962e-01 1.289339999999999931e-01 2.848349999999999937e+01 1.542595000000000027e+02 1.860384999999999991e+03
1.529999999999999971e-01 1.288854999999999862e-01 2.766264999999999930e+01 1.528600000000000136e+02 1.859829999999999927e+03
1.539999999999999980e-01 1.288380000000000081e-01 2.686364999999999981e+01 1.514964999999999975e+02 1.859279999999999973e+03
1.549999999999999989e-01 1.287909999999999888e-01 2.609250000000000114e+01 1.501809999999999832e+02 1.858740000000000009e+03
1.559999999999999998e-01 1.287449999999999983e-01 2.535474999999999923e+01 1.489250000000000114e+02 1.858210000000000036e+03
1.570000000000000007e-01 1.287014999999999965e-01 2.465529999999999688e+01 1.477400000000000091e+02 1.857704999999999927e+03
1.580000000000000016e-01 1.286595000000000100e-01 2.399840000000000018e+01 1.466340000000000146e+02 1.857224999999999909e+03
1.590000000000000024e-01 1.286194999999999977e-01 2.338739999999999952e+01 1.456140000000000043e+02 1.856764999999999873e+03
