# t [s], A [cm^2], U [cm/s], P [cPa], c [cm/s]
1.000000000000000021e-03 4.785089999999999621e-01 3.684150000000004088e-03 1.042340000000000089e+02 1.461099999999999909e+03
2.000000000000000042e-03 4.785019999999999829e-01 -2.761694999999999992e-04 1.042169999999999987e+02 1.461095000000000027e+03
3.000000000000000062e-03 4.785294999999999965e-01 5.456899999999999251e-02 1.042684999999999889e+02 1.461110000000000127e+03
4.000000000000000083e-03 4.785719999999999974e-01 1.405743000000000131e-01 1.043710000000000093e+02 1.461144999999999982e+03
5.000000000000000104e-03 4.785785000000000178e-01 1.588716500000000031e-01 1.043954999999999984e+02 1.461154999999999973e+03
6.000000000000000125e-03 4.785479999999999734e-01 1.016259999999999941e-01 1.042974999999999994e+02 1.461135000000000218e+03
7.000000000000000146e-03 4.785114999999999785e-01 2.930299999999996796e-02 1.041304999999999978e+02 1.461095000000000027e+03
8.000000000000000167e-03 4.784734999999999960e-01 -5.091500000000004356e-02 1.039115000000000038e+02 1.461035000000000082e+03
9.000000000000001055e-03 4.784104999999999608e-01 -1.910149999999999904e-01 1.035834999999999866e+02 1.460950000000000045e+03
1.000000000000000194e-02 4.783100000000000129e-01 -4.168399999999999883e-01 1.030999999999999943e+02 1.460825000000000045e+03
1.099999999999999936e-02 4.781690000000000107e-01 -7.327100000000000835e-01 1.024300000000000068e+02 1.460644999999999982e+03
1.200000000000000025e-02 4.779759999999999565e-01 -1.149974999999999969e+00 1.015324499999999972e+02 1.460405000000000200e+03
1.300000000000000114e-02 4.777264999999999984e-01 -1.669825000000000337e+00 1.003765500000000088e+02 1.460085000000000036e+03
1.400000000000000203e-02 4.774300000000000210e-01 -2.252604999999999968e+00 9.897870000000000346e+01 1.459690000000000055e+03
1.499999999999999944e-02 4.771144999999999969e-01 -2.816389999999999727e+00 9.741640000000001010e+01 1.459240000000000009e+03
1.600000000000000033e-02 4.768135000000000012e-01 -3.266485000000000305e+00 9.580604999999999905e+01 1.458750000000000000e+03
1.700000000000000122e-02 4.765500000000000291e-01 -3.530260999999999871e+00 9.425759999999999650e+01 1.458259999999999991e+03
1.800000000000000211e-02 4.763315000000000188e-01 -3.576793499999999959e+00 9.284319999999999595e+01 1.457795000000000073e+03
1.900000000000000300e-02 4.761484999999999745e-01 -3.417475500000000110e+00 9.158234999999999104e+01 1.457349999999999909e+03
2.000000000000000042e-02 4.759835000000000038e-01 -3.093861999999999668e+00 9.044825000000000159e+01 1.456940000000000055e+03
2.100000000000000130e-02 4.758155000000000023e-01 -2.660255999999999954e+00 8.938455000000000439e+01 1.456534999999999854e+03
2.200000000000000219e-02 4.756279999999999952e-01 -2.166985000000000383e+00 8.832699999999999818e+01 1.456134999999999991e+03
2.299999999999999961e-02 4.754120000000000013e-01 -1.648224999999999829e+00 8.722289999999999566e+01 1.455714999999999918e+03
2.400000000000000050e-02 4.751679999999999793e-01 -1.116914999999999880e+00 8.604444999999999766e+01 1.455284999999999854e+03
2.500000000000000139e-02 4.749020000000000463e-01 -5.674449999999997551e-01 8.479175000000000750e+01 1.454829999999999927e+03
2.600000000000000228e-02 4.746255000000000335e-01 1.559999999999961418e-02 8.348619999999999663e+01 1.454355000000000018e+03
2.700000000000000316e-02 4.743479999999999919e-01 6.464250000000002494e-01 8.215864999999999441e+01 1.453875000000000000e+03
2.800000000000000058e-02 4.740744999999999543e-01 1.328555000000000152e+00 8.083474999999999966e+01 1.453394999999999982e+03
2.900000000000000147e-02 4.738040000000000029e-01 2.049650000000000194e+00 7.952524999999999977e+01 1.452914999999999964e+03
3.000000000000000236e-02 4.735304999999999653e-01 2.781215000000000437e+00 7.822015000000000384e+01 1.452430000000000064e+03
3.099999999999999978e-02 4.732434999999999836e-01 3.482689999999999841e+00 7.689050000000000296e+01 1.451940000000000055e+03
3.200000000000000067e-02 4.729299999999999615e-01 4.108430000000000248e+00 7.549379999999999313e+01 1.451440000000000055e+03
3.300000000000000155e-02 4.725804999999999589e-01 4.616005000000000358e+00 7.398425000000000296e+01 1.450900000000000091e+03
3.400000000000000244e-02 4.721870000000000234e-01 4.973945000000000505e+00 7.232345000000000823e+01 1.450329999999999927e+03
3.500000000000000333e-02 4.717494999999999883e-01 5.167595000000000383e+00 7.049049999999999727e+01 1.449715000000000146e+03
3.600000000000000422e-02 4.712735000000000118e-01 5.201730000000000409e+00 6.848910000000000764e+01 1.449055000000000064e+03
3.700000000000000511e-02 4.707715000000000094e-01 5.099479999999999791e+00 6.634935000000000116e+01 1.448355000000000018e+03
3.799999999999999906e-02 4.702589999999999826e-01 4.897755000000000081e+00 6.412524999999999409e+01 1.447630000000000109e+03
3.899999999999999994e-02 4.697540000000000049e-01 4.641384999999999650e+00 6.188790000000000191e+01 1.446894999999999982e+03
4.000000000000000083e-02 4.692749999999999977e-01 4.376545000000000130e+00 5.971680000000000632e+01 1.446174999999999955e+03
4.100000000000000172e-02 4.688384999999999914e-01 4.145344999999999835e+00 5.769119999999999493e+01 1.445494999999999891e+03
4.200000000000000261e-02 4.684570000000000123e-01 3.982429999999999914e+00 5.588254999999999484e+01 1.444869999999999891e+03
4.300000000000000350e-02 4.681400000000000006e-01 3.913084999999999702e+00 5.434935000000000116e+01 1.444319999999999936e+03
4.400000000000000439e-02 4.678925000000000445e-01 3.954030000000000378e+00 5.313500000000000512e+01 1.443865000000000009e+03
4.499999999999999833e-02 4.677179999999999671e-01 4.114362999999999992e+00 5.226730000000000587e+01 1.443509999999999991e+03
4.599999999999999922e-02 4.676175000000000193e-01 4.398094999999999644e+00 5.176009999999999422e+01 1.443269999999999982e+03
4.700000000000000011e-02 4.675894999999999913e-01 4.806280000000000108e+00 5.161639999999999873e+01 1.443144999999999982e+03
4.800000000000000100e-02 4.676329999999999654e-01 5.338885000000000325e+00 5.183124999999999716e+01 1.443134999999999991e+03
4.900000000000000189e-02 4.677465000000000095e-01 5.995915000000000106e+00 5.239494999999999436e+01 1.443235000000000127e+03
5.000000000000000278e-02 4.679269999999999818e-01 6.777720000000000411e+00 5.329495000000000005e+01 1.443450000000000045e+03
5.100000000000000366e-02 4.681730000000000058e-01 7.684535000000000338e+00 5.451695000000000135e+01 1.443769999999999982e+03
5.200000000000000455e-02 4.684825000000000239e-01 8.715419999999999945e+00 5.604509999999999792e+01 1.444195000000000164e+03
5.300000000000000544e-02 4.688514999999999766e-01 9.867380000000000706e+00 5.786154999999999404e+01 1.444720000000000027e+03
5.399999999999999939e-02 4.692755000000000121e-01 1.113409000000000049e+01 5.994540000000000646e+01 1.445335000000000036e+03
5.500000000000000028e-02 4.697494999999999865e-01 1.250553500000000007e+01 6.227224999999999966e+01 1.446039999999999964e+03
5.600000000000000117e-02 4.702669999999999906e-01 1.396798500000000054e+01 6.481369999999999720e+01 1.446815000000000055e+03
5.700000000000000205e-02 4.708210000000000450e-01 1.550446000000000168e+01 6.753770000000000095e+01 1.447664999999999964e+03
5.800000000000000294e-02 4.714030000000000165e-01 1.709544499999999800e+01 7.040935000000000343e+01 1.448565000000000055e+03
5.900000000000000383e-02 4.720064999999999955e-01 1.872030000000000172e+01 7.339239999999999498e+01 1.449519999999999982e+03
6.000000000000000472e-02 4.726230000000000153e-01 2.035844999999999771e+01 7.645040000000000191e+01 1.450505000000000109e+03
6.099999999999999867e-02 4.732450000000000268e-01 2.199034999999999940e+01 7.954885000000000161e+01 1.451515000000000100e+03
6.199999999999999956e-02 4.738674999999999971e-01 2.359864999999999924e+01 8.265659999999999741e+01 1.452534999999999854e+03
6.300000000000000044e-02 4.744859999999999634e-01 2.516884999999999906e+01 8.574709999999998900e+01 1.453565000000000055e+03
6.400000000000000133e-02 4.750959999999999628e-01 2.668955000000000055e+01 8.879925000000000068e+01 1.454594999999999800e+03
6.500000000000000222e-02 4.756965000000000221e-01 2.815254999999999797e+01 9.179765000000000441e+01 1.455614999999999782e+03
6.600000000000000311e-02 4.762844999999999995e-01 2.955270000000000152e+01 9.473375000000000057e+01 1.456619999999999891e+03
6.700000000000000400e-02 4.768614999999999937e-01 3.088755000000000095e+01 9.760264999999999702e+01 1.457615000000000009e+03
6.800000000000000488e-02 4.774275000000000047e-01 3.215684999999999860e+01 1.004059000000000026e+02 1.458590000000000146e+03
6.900000000000000577e-02 4.779844999999999788e-01 3.336195000000000022e+01 1.031477000000000004e+02 1.459550000000000182e+03
7.000000000000000666e-02 4.785329999999999862e-01 3.450540000000000163e+01 1.058344500000000039e+02 1.460494999999999891e+03
7.100000000000000755e-02 4.790745000000000142e-01 3.559035000000000082e+01 1.084753000000000043e+02 1.461424999999999955e+03
7.200000000000000844e-02 4.796119999999999828e-01 3.662014999999999532e+01 1.110794999999999959e+02 1.462345000000000027e+03
7.300000000000000933e-02 4.801455000000000028e-01 3.759790000000000276e+01 1.136544999999999987e+02 1.463255000000000109e+03
7.399999999999999634e-02 4.806769999999999654e-01 3.852609999999999957e+01 1.162079999999999984e+02 1.464159999999999854e+03
7.499999999999999722e-02 4.812064999999999815e-01 3.940640000000000498e+01 1.187444999999999879e+02 1.465059999999999945e+03
7.599999999999999811e-02 4.817350000000000243e-01 4.023954999999999416e+01 1.212655000000000030e+02 1.465954999999999927e+03
7.699999999999999900e-02 4.822605000000000364e-01 4.102495000000000402e+01 1.237710000000000150e+02 1.466845000000000027e+03
7.799999999999999989e-02 4.827819999999999334e-01 4.176109999999999900e+01 1.262564999999999884e+02 1.467730000000000018e+03
7.900000000000000078e-02 4.832984999999999642e-01 4.244514999999999816e+01 1.287150000000000034e+02 1.468605000000000018e+03
8.000000000000000167e-02 4.838065000000000282e-01 4.307345000000000113e+01 1.311359999999999957e+02 1.469469999999999800e+03
8.100000000000000255e-02 4.843045000000000266e-01 4.364175000000000182e+01 1.335074999999999932e+02 1.470319999999999936e+03
8.200000000000000344e-02 4.847884999999999556e-01 4.414520000000000266e+01 1.358165000000000191e+02 1.471150000000000091e+03
8.300000000000000433e-02 4.852560000000000207e-01 4.457900000000000063e+01 1.380475000000000136e+02 1.471954999999999927e+03
8.400000000000000522e-02 4.857040000000000246e-01 4.493829999999999814e+01 1.401864999999999952e+02 1.472740000000000009e+03
8.500000000000000611e-02 4.861294999999999922e-01 4.521900000000000119e+01 1.422185000000000059e+02 1.473480000000000018e+03
8.600000000000000699e-02 4.865300000000000180e-01 4.541729999999999734e+01 1.441299999999999955e+02 1.474190000000000055e+03
8.700000000000000788e-02 4.869035000000000446e-01 4.553069999999999595e+01 1.459105000000000132e+02 1.474855000000000018e+03
8.800000000000000877e-02 4.872475000000000001e-01 4.555740000000000123e+01 1.475490000000000066e+02 1.475474999999999909e+03
8.899999999999999578e-02 4.875614999999999810e-01 4.549685000000000201e+01 1.490395000000000039e+02 1.476050000000000182e+03
8.999999999999999667e-02 4.878445000000000142e-01 4.534954999999999359e+01 1.503764999999999930e+02 1.476575000000000045e+03
9.099999999999999756e-02 4.880965000000000442e-01 4.511740000000000350e+01 1.515584999999999809e+02 1.477039999999999964e+03
9.199999999999999845e-02 4.883170000000000011e-01 4.480330000000000013e+01 1.525860000000000127e+02 1.477460000000000036e+03
9.299999999999999933e-02 4.885069999999999690e-01 4.441134999999999877e+01 1.534615000000000009e+02 1.477819999999999936e+03
9.400000000000000022e-02 4.886679999999999913e-01 4.394664999999999822e+01 1.541915000000000191e+02 1.478139999999999873e+03
9.500000000000000111e-02 4.888019999999999587e-01 4.341535000000000366e+01 1.547830000000000155e+02 1.478404999999999973e+03
9.600000000000000200e-02 4.889100000000000112e-01 4.282430000000000092e+01 1.552454999999999927e+02 1.478625000000000000e+03
9.700000000000000289e-02 4.889939999999999842e-01 4.218120000000000402e+01 1.555905000000000200e+02 1.478799999999999955e+03
9.800000000000000377e-02 4.890579999999999927e-01 4.149414999999999765e+01 1.558294999999999959e+02 1.478934999999999945e+03
9.900000000000000466e-02 4.891035000000000244e-01 4.077165000000000106e+01 1.559764999999999873e+02 1.479039999999999964e+03
1.000000000000000056e-01 4.891334999999999988e-01 4.002235000000000298e+01 1.560444999999999993e+02 1.479105000000000018e+03
1.010000000000000064e-01 4.891504999999999881e-01 3.925455000000000183e+01 1.560469999999999970e+02 1.479150000000000091e+03
1.020000000000000073e-01 4.891569999999999530e-01 3.847650000000000148e+01 1.559979999999999905e+02 1.479170000000000073e+03
1.030000000000000082e-01 4.891554999999999653e-01 3.769570000000000221e+01 1.559089999999999918e+02 1.479164999999999964e+03
1.040000000000000091e-01 4.891484999999999861e-01 3.691895000000000238e+01 1.557920000000000016e+02 1.479154999999999973e+03
1.050000000000000100e-01 4.891375000000000028e-01 3.615189999999999770e+01 1.556564999999999941e+02 1.479130000000000109e+03
1.059999999999999970e-01 4.891240000000000032e-01 3.539920000000000044e+01 1.555109999999999957e+02 1.479094999999999800e+03
1.069999999999999979e-01 4.891084999999999461e-01 3.466414999999999935e+01 1.553609999999999900e+02 1.479055000000000064e+03
1.079999999999999988e-01 4.890930000000000000e-01 3.394889999999999475e+01 1.552104999999999961e+02 1.479014999999999873e+03
1.089999999999999997e-01 4.890760000000000107e-01 3.325410000000000110e+01 1.550615000000000236e+02 1.478970000000000027e+03
1.100000000000000006e-01 4.890579999999999927e-01 3.257925000000000182e+01 1.549130000000000109e+02 1.478920000000000073e+03
1.110000000000000014e-01 4.890385000000000426e-01 3.192295000000000016e+01 1.547640000000000100e+02 1.478875000000000000e+03
1.120000000000000023e-01 4.890164999999999651e-01 3.128259999999999863e+01 1.546095000000000255e+02 1.478819999999999936e+03
1.130000000000000032e-01 4.889904999999999946e-01 3.065494999999999948e+01 1.544455000000000098e+02 1.478764999999999873e+03
1.140000000000000041e-01 4.889600000000000057e-01 3.003630000000000422e+01 1.542644999999999982e+02 1.478704999999999927e+03
1.150000000000000050e-01 4.889229999999999965e-01 2.942259999999999920e+01 1.540614999999999952e+02 1.478630000000000109e+03
1.160000000000000059e-01 4.888790000000000080e-01 2.880975000000000108e+01 1.538285000000000196e+02 1.478554999999999836e+03
1.170000000000000068e-01 4.888259999999999827e-01 2.819379999999999953e+01 1.535600000000000023e+02 1.478465000000000146e+03
1.180000000000000077e-01 4.887630000000000030e-01 2.757104999999999961e+01 1.532500000000000000e+02 1.478365000000000009e+03
1.190000000000000085e-01 4.886899999999999578e-01 2.693845000000000312e+01 1.528935000000000173e+02 1.478244999999999891e+03
1.200000000000000094e-01 4.886059999999999848e-01 2.629344999999999999e+01 1.524864999999999782e+02 1.478110000000000127e+03
1.209999999999999964e-01 4.885104999999999587e-01 2.563439999999999941e+01 1.520279999999999916e+02 1.477960000000000036e+03
1.219999999999999973e-01 4.884039999999999493e-01 2.496030000000000015e+01 1.515160000000000196e+02 1.477795000000000073e+03
1.229999999999999982e-01 4.882855000000000389e-01 2.427125000000000199e+01 1.509519999999999982e+02 1.477610000000000127e+03
1.239999999999999991e-01 4.881580000000000363e-01 2.356804999999999950e+01 1.503385000000000105e+02 1.477410000000000082e+03
1.250000000000000000e-01 4.880210000000000381e-01 2.285249999999999915e+01 1.496795000000000186e+02 1.477190000000000055e+03
1.260000000000000009e-01 4.878759999999999764e-01 2.212720000000000198e+01 1.489809999999999945e+02 1.476964999999999918e+03
1.270000000000000018e-01 4.877239999999999909e-01 2.139549999999999841e+01 1.482484999999999786e+02 1.476720000000000027e+03
1.280000000000000027e-01 4.875684999999999603e-01 2.066140000000000043e+01 1.474915000000000020e+02 1.476465000000000146e+03
1.290000000000000036e-01 4.874094999999999955e-01 1.992950000000000088e+01 1.467180000000000177e+02 1.476210000000000036e+03
1.300000000000000044e-01 4.872500000000000164e-01 1.920465000000000089e+01 1.459375000000000000e+02 1.475945000000000164e+03
1.310000000000000053e-01 4.870915000000000106e-01 1.849210000000000065e+01 1.451594999999999800e+02 1.475679999999999836e+03
1.320000000000000062e-01 4.869359999999999800e-01 1.779695000000000249e+01 1.443944999999999936e+02 1.475414999999999964e+03
1.330000000000000071e-01 4.867860000000000520e-01 1.712444999999999951e+01 1.436505000000000223e+02 1.475159999999999854e+03
1.340000000000000080e-01 4.866429999999999367e-01 1.647944999999999993e+01 1.429375000000000000e+02 1.474910000000000082e+03
1.350000000000000089e-01 4.865079999999999405e-01 1.586645000000000039e+01 1.422634999999999934e+02 1.474670000000000073e+03
1.360000000000000098e-01 4.863830000000000098e-01 1.528935000000000066e+01 1.416354999999999791e+02 1.474444999999999936e+03
1.370000000000000107e-01 4.862684999999999924e-01 1.475140000000000029e+01 1.410585000000000093e+02 1.474235000000000127e+03
1.380000000000000115e-01 4.861655000000000282e-01 1.425515000000000043e+01 1.405384999999999991e+02 1.474039999999999964e+03
1.390000000000000124e-01 4.860749999999999793e-01 1.380240000000000045e+01 1.400769999999999982e+02 1.473865000000000009e+03
1.400000000000000133e-01 4.859970000000000123e-01 1.339403499999999880e+01 1.396754999999999995e+02 1.473710000000000036e+03
1.410000000000000142e-01 4.859310000000000018e-01 1.303007500000000007e+01 1.393350000000000080e+02 1.473570000000000164e+03
1.420000000000000151e-01 4.858759999999999746e-01 1.270983499999999999e+01 1.390529999999999973e+02 1.473454999999999927e+03
1.430000000000000160e-01 4.858329999999999593e-01 1.243178999999999945e+01 1.388279999999999745e+02 1.473355000000000018e+03
1.440000000000000169e-01 4.857994999999999952e-01 1.219388999999999967e+01 1.386550000000000011e+02 1.473275000000000091e+03
1.450000000000000178e-01 4.857759999999999856e-01 1.199345999999999890e+01 1.385294999999999845e+02 1.473210000000000036e+03
1.459999999999999909e-01 4.857595000000000107e-01 1.182734499999999933e+01 1.384465000000000146e+02 1.473154999999999973e+03
1.469999999999999918e-01 4.857504999999999740e-01 1.169221500000000091e+01 1.383999999999999773e+02 1.473119999999999891e+03
1.479999999999999927e-01 4.857470000000000399e-01 1.158447999999999922e+01 1.383835000000000264e+02 1.473095000000000027e+03
1.489999999999999936e-01 4.857474999999999987e-01 1.150045499999999876e+01 1.383909999999999911e+02 1.473085000000000036e+03
1.499999999999999944e-01 4.857515000000000027e-01 1.143661499999999975e+01 1.384170000000000016e+02 1.473075000000000045e+03
1.509999999999999953e-01 4.857575000000000087e-01 1.138956999999999908e+01 1.384554999999999723e+02 1.473075000000000045e+03
1.519999999999999962e-01 4.857650000000000023e-01 1.135600499999999968e+01 1.385024999999999977e+02 1.473079999999999927e+03
1.529999999999999971e-01 4.857724999999999960e-01 1.133302000000000120e+01 1.385534999999999854e+02 1.473085000000000036e+03
1.539999999999999980e-01 4.857805000000000040e-01 1.131808499999999995e+01 1.386045000000000016e+02 1.473095000000000027e+03
1.549999999999999989e-01 4.857879999999999976e-01 1.130887500000000045e+01 1.386535000000000082e+02 1.473099999999999909e+03
1.559999999999999998e-01 4.857940000000000036e-01 1.130355000000000132e+01 1.386980000000000075e+02 1.473115000000000009e+03
1.570000000000000007e-01 4.857994999999999397e-01 1.130055499999999924e+01 1.387375000000000114e+02 1.473119999999999891e+03
1.580000000000000016e-01 4.858034999999999992e-01 1.129871999999999943e+01 1.387710000000000150e+02 1.473125000000000000e+03
1.590000000000000024e-01 4.858069999999999888e-01 1.129715999999999987e+01 1.387980000000000018e+02 1.473134999999999991e+03
