# t [s], A [cm^2], U [cm/s], P [cPa], c [cm/s]
1.000000000000000021e-03 7.702444999999999986e-01 5.181000000000005046e-03 9.392239999999999611e+01 1.592559999999999945e+03
2.000000000000000042e-03 7.702299999999999702e-01 -3.866660000000000062e-03 9.389170000000000016e+01 1.592555000000000064e+03
3.000000000000000062e-03 7.702979999999999272e-01 9.540325000000000888e-02 9.399304999999999666e+01 1.592579999999999927e+03
4.000000000000000083e-03 7.703599999999999337e-01 1.984286400000000172e-01 9.411345000000000027e+01 1.592615000000000009e+03
5.000000000000000104e-03 7.703225000000000211e-01 1.720380250000000111e-01 9.404740000000001032e+01 1.592599999999999909e+03
6.000000000000000125e-03 7.702290000000000525e-01 6.161149999999998572e-02 9.380480000000000018e+01 1.592545000000000073e+03
7.000000000000000146e-03 7.701495000000000424e-01 -3.903300000000003989e-02 9.350620000000000687e+01 1.592469999999999800e+03
8.000000000000000167e-03 7.700264999999999471e-01 -2.151199999999999779e-01 9.307155000000000200e+01 1.592365000000000009e+03
9.000000000000001055e-03 7.698234999999999939e-01 -5.271200000000001440e-01 9.240380000000000393e+01 1.592204999999999927e+03
1.000000000000000194e-02 7.695425000000000182e-01 -9.651949999999999141e-01 9.147499999999999432e+01 1.591985000000000127e+03
1.099999999999999936e-02 7.691639999999999588e-01 -1.547470000000000123e+00 9.022644999999999982e+01 1.591684999999999945e+03
1.200000000000000025e-02 7.686640000000000139e-01 -2.289884999999999948e+00 8.859325000000001182e+01 1.591284999999999854e+03
1.300000000000000114e-02 7.680759999999999810e-01 -3.120374999999999677e+00 8.661939999999999884e+01 1.590789999999999964e+03
1.400000000000000203e-02 7.674904999999999644e-01 -3.875070000000000014e+00 8.449455000000000382e+01 1.590244999999999891e+03
1.499999999999999944e-02 7.670000000000000151e-01 -4.381078000000000472e+00 8.246905000000000996e+01 1.589700000000000045e+03
1.600000000000000033e-02 7.666479999999999961e-01 -4.538844999999999352e+00 8.073414999999999964e+01 1.589204999999999927e+03
1.700000000000000122e-02 7.664195000000000313e-01 -4.350685000000000358e+00 7.935419999999999163e+01 1.588779999999999973e+03
1.800000000000000211e-02 7.662550000000000194e-01 -3.900749999999999940e+00 7.826420000000000243e+01 1.588414999999999964e+03
1.900000000000000300e-02 7.660830000000000695e-01 -3.311510000000000176e+00 7.731440000000000623e+01 1.588085000000000036e+03
2.000000000000000042e-02 7.658439999999999692e-01 -2.696740500000000207e+00 7.633450000000000557e+01 1.587750000000000000e+03
2.100000000000000130e-02 7.655110000000000525e-01 -2.125083000000000055e+00 7.519634999999999536e+01 1.587384999999999991e+03
2.200000000000000219e-02 7.650934999999999819e-01 -1.605409999999999782e+00 7.385335000000000605e+01 1.586980000000000018e+03
2.299999999999999961e-02 7.646280000000000854e-01 -1.098540000000000072e+00 7.234234999999999616e+01 1.586529999999999973e+03
2.400000000000000050e-02 7.641575000000000450e-01 -5.479000000000002757e-01 7.075225000000000364e+01 1.586059999999999945e+03
2.500000000000000139e-02 7.637149999999999217e-01 8.692499999999991900e-02 6.917609999999999104e+01 1.585585000000000036e+03
2.600000000000000228e-02 7.633075000000000276e-01 8.072200000000000486e-01 6.766955000000000098e+01 1.585119999999999891e+03
2.700000000000000316e-02 7.629174999999999152e-01 1.568524999999999947e+00 6.622705000000000553e+01 1.584670000000000073e+03
2.800000000000000058e-02 7.625064999999999760e-01 2.288815000000000488e+00 6.478020000000000778e+01 1.584220000000000027e+03
2.900000000000000147e-02 7.620284999999999975e-01 2.866995000000000182e+00 6.321465000000000600e+01 1.583750000000000000e+03
3.000000000000000236e-02 7.614404999999999646e-01 3.206720000000000681e+00 6.140064999999999884e+01 1.583220000000000027e+03
3.099999999999999978e-02 7.607159999999999478e-01 3.240050000000000097e+00 5.922930000000000206e+01 1.582610000000000127e+03
3.200000000000000067e-02 7.598544999999999883e-01 2.944894999999999818e+00 5.664614999999999867e+01 1.581904999999999973e+03
3.300000000000000155e-02 7.588794999999999291e-01 2.351049999999999862e+00 5.367099999999999937e+01 1.581105000000000018e+03
3.400000000000000244e-02 7.578384999999999705e-01 1.532869999999999955e+00 5.039894999999999925e+01 1.580230000000000018e+03
3.500000000000000333e-02 7.567909999999999915e-01 5.918049999999999145e-01 4.698324999999999818e+01 1.579309999999999945e+03
3.600000000000000422e-02 7.557964999999999822e-01 -3.639549999999998064e-01 4.360739999999999839e+01 1.578380000000000109e+03
3.700000000000000511e-02 7.549065000000000358e-01 -1.237334999999999852e+00 4.045539999999999736e+01 1.577505000000000109e+03
3.799999999999999906e-02 7.541569999999999663e-01 -1.953520000000000145e+00 3.768760000000000332e+01 1.576704999999999927e+03
3.899999999999999994e-02 7.535715000000000607e-01 -2.464369999999999727e+00 3.542459999999999809e+01 1.576029999999999973e+03
4.000000000000000083e-02 7.531585000000000640e-01 -2.746974999999999945e+00 3.374090000000000344e+01 1.575494999999999891e+03
4.100000000000000172e-02 7.529160000000000297e-01 -2.798149665000000397e+00 3.266679999999999495e+01 1.575110000000000127e+03
4.200000000000000261e-02 7.528334999999999333e-01 -2.627064999999999984e+00 3.219615000000000293e+01 1.574894999999999982e+03
4.300000000000000350e-02 7.529004999999999725e-01 -2.247815000000000119e+00 3.229820000000000135e+01 1.574835000000000036e+03
4.400000000000000439e-02 7.531030000000000779e-01 -1.673762500000000042e+00 3.292920000000000158e+01 1.574920000000000073e+03
4.499999999999999833e-02 7.534309999999999619e-01 -9.146100000000001451e-01 3.404224999999999568e+01 1.575150000000000091e+03
4.599999999999999922e-02 7.538750000000000728e-01 2.336500000000008015e-02 3.559250000000000114e+01 1.575505000000000109e+03
4.700000000000000011e-02 7.544269999999999587e-01 1.134714999999999918e+00 3.753840000000000288e+01 1.575974999999999909e+03
4.800000000000000100e-02 7.550764999999999283e-01 2.411154999999999937e+00 3.983930000000000149e+01 1.576554999999999836e+03
4.900000000000000189e-02 7.558129999999999571e-01 3.838209999999999678e+00 4.245185000000000031e+01 1.577220000000000027e+03
5.000000000000000278e-02 7.566204999999999181e-01 5.393415000000000070e+00 4.532679999999999865e+01 1.577969999999999800e+03
5.100000000000000366e-02 7.574814999999999188e-01 7.046179999999999666e+00 4.840720000000000312e+01 1.578789999999999964e+03
5.200000000000000455e-02 7.583759999999999390e-01 8.759517499999999401e+00 5.162910000000000110e+01 1.579659999999999854e+03
5.300000000000000544e-02 7.592830000000000412e-01 1.049307499999999926e+01 5.492445000000000022e+01 1.580559999999999945e+03
5.399999999999999939e-02 7.601824999999999832e-01 1.220672000000000068e+01 5.822530000000000427e+01 1.581464999999999918e+03
5.500000000000000028e-02 7.610580000000000123e-01 1.386358000000000068e+01 6.146829999999999927e+01 1.582380000000000109e+03
5.600000000000000117e-02 7.618955000000000588e-01 1.543311500000000080e+01 6.459940000000000282e+01 1.583269999999999982e+03
5.700000000000000205e-02 7.626859999999999751e-01 1.689245000000000019e+01 6.757730000000000814e+01 1.584130000000000109e+03
5.800000000000000294e-02 7.634250000000000203e-01 1.822725000000000151e+01 7.037524999999999409e+01 1.584950000000000045e+03
5.900000000000000383e-02 7.641120000000000134e-01 1.943130000000000024e+01 7.298140000000000782e+01 1.585724999999999909e+03
6.000000000000000472e-02 7.647504999999999997e-01 2.050544999999999973e+01 7.539775000000000205e+01 1.586450000000000045e+03
6.099999999999999867e-02 7.653469999999999995e-01 2.145615000000000094e+01 7.763835000000000264e+01 1.587130000000000109e+03
6.199999999999999956e-02 7.659080000000000332e-01 2.229435000000000144e+01 7.972620000000000573e+01 1.587775000000000091e+03
6.300000000000000044e-02 7.664425000000000265e-01 2.303379999999999939e+01 8.169110000000000582e+01 1.588380000000000109e+03
6.400000000000000133e-02 7.669600000000000861e-01 2.369030000000000058e+01 8.356649999999999068e+01 1.588960000000000036e+03
6.500000000000000222e-02 7.674704999999999444e-01 2.428034999999999854e+01 8.538714999999999122e+01 1.589519999999999982e+03
6.600000000000000311e-02 7.679819999999999425e-01 2.482025000000000148e+01 8.718690000000000850e+01 1.590075000000000045e+03
6.700000000000000400e-02 7.685020000000000184e-01 2.532570000000000121e+01 8.899649999999999750e+01 1.590619999999999891e+03
6.800000000000000488e-02 7.690369999999999706e-01 2.581005000000000038e+01 9.084159999999999968e+01 1.591175000000000182e+03
6.900000000000000577e-02 7.695909999999999140e-01 2.628390000000000271e+01 9.274080000000000723e+01 1.591740000000000009e+03
7.000000000000000666e-02 7.701649999999999885e-01 2.675414999999999921e+01 9.470454999999999757e+01 1.592319999999999936e+03
7.100000000000000755e-02 7.707584999999999020e-01 2.722354999999999947e+01 9.673385000000000389e+01 1.592914999999999964e+03
7.200000000000000844e-02 7.713669999999999138e-01 2.769044999999999845e+01 9.882035000000000480e+01 1.593529999999999973e+03
7.300000000000000933e-02 7.719845000000000734e-01 2.814894999999999925e+01 1.009467499999999944e+02 1.594150000000000091e+03
7.399999999999999634e-02 7.726024999999999698e-01 2.858974999999999866e+01 1.030874500000000040e+02 1.594779999999999973e+03
7.499999999999999722e-02 7.732125000000000803e-01 2.900090000000000146e+01 1.052109999999999985e+02 1.595404999999999973e+03
7.599999999999999811e-02 7.738030000000000186e-01 2.936880000000000024e+01 1.072830000000000013e+02 1.596019999999999982e+03
7.699999999999999900e-02 7.743645000000000111e-01 2.967940000000000111e+01 1.092669999999999959e+02 1.596610000000000127e+03
7.799999999999999989e-02 7.748874999999999513e-01 2.991940000000000310e+01 1.111264999999999930e+02 1.597175000000000182e+03
7.900000000000000078e-02 7.753624999999999545e-01 3.007699999999999818e+01 1.128310000000000031e+02 1.597690000000000055e+03
8.000000000000000167e-02 7.757844999999999880e-01 3.014264999999999972e+01 1.143520000000000039e+02 1.598164999999999964e+03
8.100000000000000255e-02 7.761480000000000601e-01 3.010954999999999870e+01 1.156694999999999993e+02 1.598585000000000036e+03
8.200000000000000344e-02 7.764499999999999735e-01 2.997394999999999854e+01 1.167694999999999936e+02 1.598940000000000055e+03
8.300000000000000433e-02 7.766895000000000326e-01 2.973550000000000182e+01 1.176454999999999984e+02 1.599244999999999891e+03
8.400000000000000522e-02 7.768680000000000030e-01 2.939679999999999893e+01 1.182984999999999900e+02 1.599474999999999909e+03
8.500000000000000611e-02 7.769885000000000819e-01 2.896349999999999980e+01 1.187375000000000114e+02 1.599650000000000091e+03
8.600000000000000699e-02 7.770555000000000101e-01 2.844405000000000072e+01 1.189754999999999967e+02 1.599764999999999873e+03
8.700000000000000788e-02 7.770745000000000013e-01 2.784909999999999997e+01 1.190330000000000013e+02 1.599829999999999927e+03
8.800000000000000877e-02 7.770529999999999937e-01 2.719120000000000203e+01 1.189329999999999927e+02 1.599840000000000146e+03
8.899999999999999578e-02 7.769985000000000364e-01 2.648434999999999917e+01 1.187030000000000030e+02 1.599815000000000055e+03
8.999999999999999667e-02 7.769179999999999975e-01 2.574324999999999974e+01 1.183719999999999999e+02 1.599750000000000000e+03
9.099999999999999756e-02 7.768205000000000249e-01 2.498270000000000124e+01 1.179689999999999941e+02 1.599664999999999964e+03
9.199999999999999845e-02 7.767135000000000566e-01 2.421730000000000160e+01 1.175219999999999914e+02 1.599554999999999836e+03
9.299999999999999933e-02 7.766035000000000021e-01 2.346059999999999945e+01 1.170585000000000093e+02 1.599440000000000055e+03
9.400000000000000022e-02 7.764969999999999928e-01 2.272444999999999737e+01 1.166020000000000039e+02 1.599320000000000164e+03
9.500000000000000111e-02 7.763990000000000613e-01 2.201899999999999835e+01 1.161724999999999994e+02 1.599204999999999927e+03
9.600000000000000200e-02 7.763130000000000308e-01 2.135190000000000055e+01 1.157849999999999966e+02 1.599095000000000027e+03
9.700000000000000289e-02 7.762409999999999588e-01 2.072814999999999941e+01 1.154509999999999934e+02 1.598994999999999891e+03
9.800000000000000377e-02 7.761850000000000138e-01 2.015019999999999811e+01 1.151765000000000043e+02 1.598909999999999854e+03
9.900000000000000466e-02 7.761434999999999862e-01 1.961785000000000068e+01 1.149615000000000009e+02 1.598840000000000146e+03
1.000000000000000056e-01 7.761149999999999993e-01 1.912839999999999918e+01 1.148015000000000043e+02 1.598780000000000200e+03
1.010000000000000064e-01 7.760970000000000368e-01 1.867705000000000126e+01 1.146885000000000048e+02 1.598740000000000009e+03
1.020000000000000073e-01 7.760850000000000248e-01 1.825700000000000145e+01 1.146105000000000018e+02 1.598710000000000036e+03
1.030000000000000082e-01 7.760765000000000580e-01 1.786030000000000229e+01 1.145534999999999997e+02 1.598679999999999836e+03
1.040000000000000091e-01 7.760650000000000048e-01 1.747789999999999822e+01 1.145004999999999882e+02 1.598655000000000200e+03
1.050000000000000100e-01 7.760469999999999313e-01 1.710034999999999883e+01 1.144344999999999999e+02 1.598630000000000109e+03
1.059999999999999970e-01 7.760169999999999568e-01 1.671819999999999951e+01 1.143385000000000105e+02 1.598599999999999909e+03
1.069999999999999979e-01 7.759715000000000362e-01 1.632249999999999801e+01 1.141959999999999980e+02 1.598554999999999836e+03
1.079999999999999988e-01 7.759070000000000134e-01 1.590540000000000020e+01 1.139934999999999974e+02 1.598494999999999891e+03
1.089999999999999997e-01 7.758205000000000240e-01 1.546025000000000027e+01 1.137180000000000035e+02 1.598420000000000073e+03
1.100000000000000006e-01 7.757099999999998996e-01 1.498230000000000040e+01 1.133619999999999948e+02 1.598325000000000045e+03
1.110000000000000014e-01 7.755745000000000555e-01 1.446859999999999857e+01 1.129209999999999923e+02 1.598204999999999927e+03
1.120000000000000023e-01 7.754149999999999654e-01 1.391864999999999952e+01 1.123930000000000007e+02 1.598070000000000164e+03
1.130000000000000032e-01 7.752335000000000198e-01 1.333401000000000103e+01 1.117830000000000013e+02 1.597905000000000200e+03
1.140000000000000041e-01 7.750319999999999432e-01 1.271850000000000058e+01 1.110979999999999990e+02 1.597715000000000146e+03
1.150000000000000050e-01 7.748150000000000315e-01 1.207813500000000140e+01 1.103504999999999967e+02 1.597514999999999873e+03
1.160000000000000059e-01 7.745865000000000666e-01 1.142054000000000080e+01 1.095540000000000020e+02 1.597295000000000073e+03
1.170000000000000068e-01 7.743519999999999293e-01 1.075500500000000059e+01 1.087280000000000086e+02 1.597065000000000055e+03
1.180000000000000077e-01 7.741175000000000139e-01 1.009166499999999900e+01 1.078909999999999911e+02 1.596835000000000036e+03
1.190000000000000085e-01 7.738880000000000203e-01 9.441454999999999487e+00 1.070639999999999930e+02 1.596599999999999909e+03
1.200000000000000094e-01 7.736705000000000387e-01 8.815125000000000099e+00 1.062685000000000031e+02 1.596369999999999891e+03
1.209999999999999964e-01 7.734699999999999909e-01 8.223200000000000287e+00 1.055229999999999961e+02 1.596150000000000091e+03
1.219999999999999973e-01 7.732904999999999918e-01 7.675174999999999415e+00 1.048470000000000084e+02 1.595949999999999818e+03
1.229999999999999982e-01 7.731369999999999632e-01 7.179330000000000211e+00 1.042560000000000002e+02 1.595769999999999982e+03
1.239999999999999991e-01 7.730114999999999625e-01 6.742164999999999964e+00 1.037620000000000005e+02 1.595615000000000009e+03
1.250000000000000000e-01 7.729165000000000063e-01 6.368344999999999700e+00 1.033739999999999952e+02 1.595485000000000127e+03
1.260000000000000009e-01 7.728524999999999423e-01 6.060449999999999449e+00 1.030964999999999918e+02 1.595385000000000218e+03
1.270000000000000018e-01 7.728189999999999227e-01 5.818950000000000067e+00 1.029300000000000068e+02 1.595320000000000164e+03
1.280000000000000027e-01 7.728144999999999598e-01 5.642300000000000537e+00 1.028710000000000093e+02 1.595280000000000200e+03
1.290000000000000036e-01 7.728375000000000661e-01 5.527070000000000149e+00 1.029139999999999873e+02 1.595269999999999982e+03
1.300000000000000044e-01 7.728840000000000154e-01 5.468225000000000335e+00 1.030464999999999947e+02 1.595284999999999854e+03
1.310000000000000053e-01 7.729494999999999560e-01 5.459365000000000023e+00 1.032584999999999980e+02 1.595325000000000045e+03
1.320000000000000062e-01 7.730314999999999825e-01 5.493130000000000734e+00 1.035339999999999918e+02 1.595384999999999991e+03
1.330000000000000071e-01 7.731250000000000622e-01 5.561505000000000365e+00 1.038594999999999970e+02 1.595460000000000036e+03
1.340000000000000080e-01 7.732255000000000100e-01 5.656174999999999287e+00 1.042180000000000035e+02 1.595550000000000182e+03
1.350000000000000089e-01 7.733289999999999331e-01 5.768869999999999720e+00 1.045945000000000107e+02 1.595644999999999982e+03
1.360000000000000098e-01 7.734324999999999672e-01 5.891614999999999824e+00 1.049754999999999967e+02 1.595744999999999891e+03
1.370000000000000107e-01 7.735315000000000385e-01 6.017025000000000290e+00 1.053469999999999942e+02 1.595845000000000027e+03
1.380000000000000115e-01 7.736235000000000195e-01 6.138490000000000002e+00 1.056984999999999957e+02 1.595940000000000055e+03
1.390000000000000124e-01 7.737064999999999637e-01 6.250299999999999301e+00 1.060204999999999984e+02 1.596030000000000200e+03
1.400000000000000133e-01 7.737795000000000645e-01 6.347799999999999443e+00 1.063075000000000045e+02 1.596115000000000009e+03
1.410000000000000142e-01 7.738399999999999723e-01 6.427400000000000446e+00 1.065529999999999973e+02 1.596190000000000055e+03
1.420000000000000151e-01 7.738894999999998969e-01 6.486625000000000085e+00 1.067549999999999955e+02 1.596255000000000109e+03
1.430000000000000160e-01 7.739264999999999617e-01 6.524074999999999847e+00 1.069134999999999991e+02 1.596305000000000064e+03
1.440000000000000169e-01 7.739530000000000021e-01 6.539379999999999526e+00 1.070289999999999964e+02 1.596340000000000146e+03
1.450000000000000178e-01 7.739689999999999070e-01 6.533100000000000129e+00 1.071050000000000040e+02 1.596369999999999891e+03
1.459999999999999909e-01 7.739755000000000384e-01 6.506649999999999601e+00 1.071450000000000102e+02 1.596389999999999873e+03
1.469999999999999918e-01 7.739745000000000097e-01 6.462134999999999962e+00 1.071550000000000011e+02 1.596400000000000091e+03
1.479999999999999927e-01 7.739685000000000592e-01 6.402229999999999421e+00 1.071400000000000006e+02 1.596404999999999973e+03
1.489999999999999936e-01 7.739579999999999238e-01 6.330025000000000013e+00 1.071064999999999969e+02 1.596400000000000091e+03
1.499999999999999944e-01 7.739454999999999529e-01 6.248820000000000263e+00 1.070614999999999952e+02 1.596400000000000091e+03
1.509999999999999953e-01 7.739325000000000232e-01 6.162020000000000053e+00 1.070099999999999909e+02 1.596390000000000100e+03
1.519999999999999962e-01 7.739205000000000112e-01 6.072934999999999306e+00 1.069594999999999914e+02 1.596375000000000000e+03
1.529999999999999971e-01 7.739104999999999457e-01 5.984625000000000306e+00 1.069140000000000015e+02 1.596364999999999782e+03
1.539999999999999980e-01 7.739040000000000363e-01 5.899804999999999744e+00 1.068774999999999977e+02 1.596355000000000018e+03
1.549999999999999989e-01 7.739015000000000200e-01 5.820694999999999730e+00 1.068539999999999992e+02 1.596349999999999909e+03
1.559999999999999998e-01 7.739035000000000775e-01 5.748984999999999346e+00 1.068445000000000107e+02 1.596349999999999909e+03
1.570000000000000007e-01 7.739089999999999581e-01 5.685769999999999769e+00 1.068499999999999943e+02 1.596349999999999909e+03
1.580000000000000016e-01 7.739194999999999824e-01 5.631565000000000154e+00 1.068710000000000093e+02 1.596355000000000018e+03
1.590000000000000024e-01 7.739335000000000520e-01 5.586319999999999730e+00 1.069044999999999987e+02 1.596365000000000009e+03
