# t [s], A [cm^2], U [cm/s], P [cPa], c [cm/s]
1.000000000000000021e-03 5.879429999999999934e-01 3.968350000000002431e-03 9.453074999999999761e+01 1.530329999999999927e+03
2.000000000000000042e-03 5.879334999999999978e-01 -2.146230500000000010e-03 9.450784999999999059e+01 1.530325000000000045e+03
3.000000000000000062e-03 5.879765000000000130e-01 7.505770000000000497e-02 9.458299999999999841e+01 1.530345000000000027e+03
4.000000000000000083e-03 5.880269999999999664e-01 1.706450499999999926e-01 9.469705000000000439e+01 1.530380000000000109e+03
5.000000000000000104e-03 5.880180000000000407e-01 1.701699999999999879e-01 9.468539999999998713e+01 1.530380000000000109e+03
6.000000000000000125e-03 5.879635000000000833e-01 8.668750000000000067e-02 9.452295000000000869e+01 1.530339999999999918e+03
7.000000000000000146e-03 5.879115000000000313e-01 9.370000000000211493e-04 9.429574999999999818e+01 1.530279999999999973e+03
8.000000000000000167e-03 5.878459999999999797e-01 -1.178759999999999808e-01 9.398560000000000514e+01 1.530199999999999818e+03
9.000000000000001055e-03 5.877324999999999910e-01 -3.345700000000000340e-01 9.350934999999999775e+01 1.530079999999999927e+03
1.000000000000000194e-02 5.875660000000000327e-01 -6.594149999999998624e-01 9.282464999999999122e+01 1.529900000000000091e+03
1.099999999999999936e-02 5.873374999999999568e-01 -1.099604999999999944e+00 9.189185000000000514e+01 1.529654999999999973e+03
1.200000000000000025e-02 5.870305000000000106e-01 -1.672500000000000320e+00 9.065664999999999907e+01 1.529320000000000164e+03
1.300000000000000114e-02 5.866485000000000172e-01 -2.355224999999999902e+00 8.910855000000000814e+01 1.528900000000000091e+03
1.400000000000000203e-02 5.862300000000000288e-01 -3.055540000000000145e+00 8.733189999999999031e+01 1.528404999999999973e+03
1.499999999999999944e-02 5.858304999999999207e-01 -3.642954999999999721e+00 8.548740000000000805e+01 1.527865000000000009e+03
1.600000000000000033e-02 5.854935000000000000e-01 -4.006957500000000394e+00 8.374375000000000568e+01 1.527340000000000146e+03
1.700000000000000122e-02 5.852355000000000196e-01 -4.096626000000000545e+00 8.221410000000000196e+01 1.526849999999999909e+03
1.800000000000000211e-02 5.850420000000000620e-01 -3.926966999999999874e+00 8.092759999999999820e+01 1.526404999999999973e+03
1.900000000000000300e-02 5.848800000000000665e-01 -3.560761999999999983e+00 7.983644999999999925e+01 1.526009999999999991e+03
2.000000000000000042e-02 5.847124999999999684e-01 -3.080187500000000078e+00 7.884505000000000052e+01 1.525634999999999991e+03
2.100000000000000130e-02 5.845114999999999617e-01 -2.558860000000000134e+00 7.784805000000000064e+01 1.525259999999999991e+03
2.200000000000000219e-02 5.842620000000000591e-01 -2.041834999999999845e+00 7.676505000000000223e+01 1.524869999999999891e+03
2.299999999999999961e-02 5.839674999999999727e-01 -1.538510000000000044e+00 7.556139999999999191e+01 1.524450000000000045e+03
2.400000000000000050e-02 5.836439999999999406e-01 -1.029619999999999980e+00 7.425020000000000664e+01 1.524000000000000000e+03
2.500000000000000139e-02 5.833125000000000115e-01 -4.841750000000000220e-01 7.287664999999999793e+01 1.523530000000000200e+03
2.600000000000000228e-02 5.829889999999999795e-01 1.214549999999996466e-01 7.149314999999999998e+01 1.523059999999999945e+03
2.700000000000000316e-02 5.826780000000000292e-01 7.893550000000000288e-01 7.013549999999999329e+01 1.522589999999999918e+03
2.800000000000000058e-02 5.823739999999999473e-01 1.494429999999999925e+00 6.880759999999999366e+01 1.522119999999999891e+03
2.900000000000000147e-02 5.820615000000000094e-01 2.187339999999999840e+00 6.747729999999999961e+01 1.521654999999999973e+03
3.000000000000000236e-02 5.817174999999999985e-01 2.804044999999999899e+00 6.608324999999999250e+01 1.521174999999999955e+03
3.099999999999999978e-02 5.813200000000000589e-01 3.278979999999999784e+00 6.454935000000000400e+01 1.520655000000000200e+03
3.200000000000000067e-02 5.808529999999999527e-01 3.559045000000000236e+00 6.280405000000000371e+01 1.520090000000000146e+03
3.300000000000000155e-02 5.803095000000000336e-01 3.615115000000000300e+00 6.079994999999999550e+01 1.519450000000000045e+03
3.400000000000000244e-02 5.796970000000000178e-01 3.448549999999999560e+00 5.852809999999999491e+01 1.518750000000000000e+03
3.500000000000000333e-02 5.790330000000000199e-01 3.090704999999999814e+00 5.602420000000000044e+01 1.517980000000000018e+03
3.600000000000000422e-02 5.783454999999999568e-01 2.596404999999999852e+00 5.336520000000000152e+01 1.517164999999999964e+03
3.700000000000000511e-02 5.776649999999999840e-01 2.033325000000000493e+00 5.065740000000000265e+01 1.516335000000000036e+03
3.799999999999999906e-02 5.770229999999999526e-01 1.470779999999999532e+00 4.802124999999999488e+01 1.515510000000000218e+03
3.899999999999999994e-02 5.764455000000000551e-01 9.705250000000003041e-01 4.557529999999999859e+01 1.514735000000000127e+03
4.000000000000000083e-02 5.759529999999999372e-01 5.809999999999999609e-01 4.342345000000000255e+01 1.514029999999999973e+03
4.100000000000000172e-02 5.755589999999999318e-01 3.350249999999999062e-01 4.164639999999999986e+01 1.513424999999999955e+03
4.200000000000000261e-02 5.752694999999999892e-01 2.507700000000001594e-01 4.029845000000000255e+01 1.512934999999999945e+03
4.300000000000000350e-02 5.750864999999999450e-01 3.348050000000000193e-01 3.940775000000000006e+01 1.512575000000000045e+03
4.400000000000000439e-02 5.750075000000000047e-01 5.860949999999999216e-01 3.898054999999999382e+01 1.512360000000000127e+03
4.499999999999999833e-02 5.750279999999999836e-01 9.999780000000000335e-01 3.900704999999999956e+01 1.512275000000000091e+03
4.599999999999999922e-02 5.751435000000000297e-01 1.571293499999999899e+00 3.946750000000000114e+01 1.512329999999999927e+03
4.700000000000000011e-02 5.753489999999999993e-01 2.295967999999999787e+00 4.033710000000000662e+01 1.512519999999999982e+03
4.800000000000000100e-02 5.756394999999999706e-01 3.171104500000000215e+00 4.158984999999999843e+01 1.512829999999999927e+03
4.900000000000000189e-02 5.760115000000000096e-01 4.193808500000000272e+00 4.319910000000000139e+01 1.513255000000000109e+03
5.000000000000000278e-02 5.764579999999999149e-01 5.359319499999999792e+00 4.513739999999999952e+01 1.513784999999999854e+03
5.100000000000000366e-02 5.769739999999999869e-01 6.659182999999999630e+00 4.737515000000000498e+01 1.514424999999999955e+03
5.200000000000000455e-02 5.775504999999999667e-01 8.080069500000000460e+00 4.987874999999999659e+01 1.515150000000000091e+03
5.300000000000000544e-02 5.781779999999999697e-01 9.603180000000000049e+00 5.260970000000000368e+01 1.515950000000000045e+03
5.399999999999999939e-02 5.788459999999999717e-01 1.120510499999999965e+01 5.552474999999999739e+01 1.516819999999999936e+03
5.500000000000000028e-02 5.795420000000000016e-01 1.285918999999999812e+01 5.857685000000000741e+01 1.517740000000000009e+03
5.600000000000000117e-02 5.802540000000000475e-01 1.453709500000000077e+01 6.171724999999999284e+01 1.518704999999999927e+03
5.700000000000000205e-02 5.809714999999999741e-01 1.621106999999999942e+01 6.489794999999999447e+01 1.519695000000000164e+03
5.800000000000000294e-02 5.816835000000000200e-01 1.785575000000000045e+01 6.807460000000000377e+01 1.520684999999999945e+03
5.900000000000000383e-02 5.823840000000000128e-01 1.944964999999999833e+01 7.120889999999999986e+01 1.521684999999999945e+03
6.000000000000000472e-02 5.830655000000000143e-01 2.097599999999999909e+01 7.427035000000000764e+01 1.522670000000000073e+03
6.099999999999999867e-02 5.837249999999999384e-01 2.242300000000000182e+01 7.723754999999999882e+01 1.523639999999999873e+03
6.199999999999999956e-02 5.843614999999999782e-01 2.378410000000000224e+01 8.009839999999999804e+01 1.524579999999999927e+03
6.300000000000000044e-02 5.849750000000000227e-01 2.505720000000000169e+01 8.284964999999999691e+01 1.525489999999999782e+03
6.400000000000000133e-02 5.855679999999999774e-01 2.624385000000000190e+01 8.549555000000000859e+01 1.526380000000000109e+03
6.500000000000000222e-02 5.861439999999999984e-01 2.734850000000000136e+01 8.804694999999999538e+01 1.527240000000000009e+03
6.600000000000000311e-02 5.867059999999999498e-01 2.837790000000000035e+01 9.051904999999999291e+01 1.528075000000000045e+03
6.700000000000000400e-02 5.872585000000000166e-01 2.933970000000000056e+01 9.292965000000000941e+01 1.528894999999999982e+03
6.800000000000000488e-02 5.878059999999999397e-01 3.024239999999999995e+01 9.529845000000000255e+01 1.529694999999999936e+03
6.900000000000000577e-02 5.883519999999999861e-01 3.109400000000000119e+01 9.764304999999998813e+01 1.530494999999999891e+03
7.000000000000000666e-02 5.888995000000000202e-01 3.190200000000000102e+01 9.998005000000000564e+01 1.531284999999999854e+03
7.100000000000000755e-02 5.894515000000000171e-01 3.267229999999999990e+01 1.023228000000000009e+02 1.532075000000000045e+03
7.200000000000000844e-02 5.900084999999999358e-01 3.340935000000000343e+01 1.046793499999999995e+02 1.532869999999999891e+03
7.300000000000000933e-02 5.905704999999999982e-01 3.411520000000000152e+01 1.070529999999999973e+02 1.533675000000000182e+03
7.399999999999999634e-02 5.911370000000000235e-01 3.479000000000000625e+01 1.094429999999999978e+02 1.534470000000000027e+03
7.499999999999999722e-02 5.917049999999999255e-01 3.543144999999999811e+01 1.118410000000000082e+02 1.535275000000000091e+03
7.599999999999999811e-02 5.922709999999999919e-01 3.603520000000000323e+01 1.142344999999999970e+02 1.536085000000000036e+03
7.699999999999999900e-02 5.928309999999999969e-01 3.659525000000000006e+01 1.166069999999999993e+02 1.536880000000000109e+03
7.799999999999999989e-02 5.933800000000000185e-01 3.710439999999999827e+01 1.189385000000000048e+02 1.537670000000000073e+03
7.900000000000000078e-02 5.939124999999999543e-01 3.755474999999999852e+01 1.212069999999999936e+02 1.538440000000000055e+03
8.000000000000000167e-02 5.944234999999999935e-01 3.793820000000000192e+01 1.233884999999999934e+02 1.539184999999999945e+03
8.100000000000000255e-02 5.949074999999999225e-01 3.824705000000000155e+01 1.254610000000000127e+02 1.539900000000000091e+03
8.200000000000000344e-02 5.953610000000000291e-01 3.847459999999999525e+01 1.274044999999999987e+02 1.540579999999999927e+03
8.300000000000000433e-02 5.957790000000000585e-01 3.861514999999999986e+01 1.291995000000000005e+02 1.541210000000000036e+03
8.400000000000000522e-02 5.961585000000000356e-01 3.866479999999999961e+01 1.308310000000000173e+02 1.541795000000000073e+03
8.500000000000000611e-02 5.964985000000000426e-01 3.862130000000000507e+01 1.322894999999999754e+02 1.542319999999999936e+03
8.600000000000000699e-02 5.967964999999999520e-01 3.848420000000000130e+01 1.335670000000000073e+02 1.542795000000000073e+03
8.700000000000000788e-02 5.970539999999999736e-01 3.825504999999999711e+01 1.346605000000000132e+02 1.543210000000000036e+03
8.800000000000000877e-02 5.972695000000000087e-01 3.793720000000000425e+01 1.355734999999999957e+02 1.543569999999999936e+03
8.899999999999999578e-02 5.974460000000000326e-01 3.753579999999999472e+01 1.363104999999999905e+02 1.543865000000000009e+03
8.999999999999999667e-02 5.975865000000000204e-01 3.705760000000000076e+01 1.368820000000000050e+02 1.544110000000000127e+03
9.099999999999999756e-02 5.976924999999999599e-01 3.651064999999999827e+01 1.373000000000000114e+02 1.544299999999999955e+03
9.199999999999999845e-02 5.977680000000000771e-01 3.590435000000000088e+01 1.375800000000000125e+02 1.544445000000000164e+03
9.299999999999999933e-02 5.978179999999999605e-01 3.524875000000000114e+01 1.377395000000000209e+02 1.544545000000000073e+03
9.400000000000000022e-02 5.978455000000000297e-01 3.455465000000000231e+01 1.377964999999999804e+02 1.544609999999999900e+03
9.500000000000000111e-02 5.978550000000000253e-01 3.383299999999999841e+01 1.377710000000000150e+02 1.544644999999999982e+03
9.600000000000000200e-02 5.978510000000000213e-01 3.309454999999999814e+01 1.376814999999999998e+02 1.544650000000000091e+03
9.700000000000000289e-02 5.978369999999999518e-01 3.234955000000000069e+01 1.375469999999999970e+02 1.544639999999999873e+03
9.800000000000000377e-02 5.978175000000000017e-01 3.160755000000000337e+01 1.373840000000000146e+02 1.544605000000000018e+03
9.900000000000000466e-02 5.977959999999999940e-01 3.087680000000000291e+01 1.372075000000000102e+02 1.544570000000000164e+03
1.000000000000000056e-01 5.977734999999999577e-01 3.016404999999999603e+01 1.370305000000000177e+02 1.544529999999999973e+03
1.010000000000000064e-01 5.977524999999999089e-01 2.947464999999999691e+01 1.368625000000000114e+02 1.544480000000000018e+03
1.020000000000000073e-01 5.977350000000000163e-01 2.881180000000000163e+01 1.367104999999999961e+02 1.544440000000000055e+03
1.030000000000000082e-01 5.977200000000000291e-01 2.817725000000000080e+01 1.365774999999999864e+02 1.544394999999999982e+03
1.040000000000000091e-01 5.977090000000000458e-01 2.757085000000000008e+01 1.364639999999999986e+02 1.544360000000000127e+03
1.050000000000000100e-01 5.976994999999999392e-01 2.699080000000000013e+01 1.363669999999999902e+02 1.544325000000000045e+03
1.059999999999999970e-01 5.976905000000000134e-01 2.643395000000000294e+01 1.362814999999999941e+02 1.544295000000000073e+03
1.069999999999999979e-01 5.976810000000000178e-01 2.589600000000000080e+01 1.361995000000000005e+02 1.544259999999999991e+03
1.079999999999999988e-01 5.976680000000000881e-01 2.537174999999999869e+01 1.361125000000000114e+02 1.544230000000000018e+03
1.089999999999999997e-01 5.976494999999999447e-01 2.485545000000000115e+01 1.360105000000000075e+02 1.544195000000000164e+03
1.100000000000000006e-01 5.976234999999999742e-01 2.434114999999999895e+01 1.358834999999999980e+02 1.544155000000000200e+03
1.110000000000000014e-01 5.975865000000000204e-01 2.382294999999999874e+01 1.357199999999999989e+02 1.544094999999999800e+03
1.120000000000000023e-01 5.975380000000000136e-01 2.329534999999999911e+01 1.355115000000000123e+02 1.544034999999999854e+03
1.130000000000000032e-01 5.974755000000000482e-01 2.275355000000000061e+01 1.352500000000000000e+02 1.543950000000000045e+03
1.140000000000000041e-01 5.973984999999999435e-01 2.219359999999999999e+01 1.349279999999999973e+02 1.543849999999999909e+03
1.150000000000000050e-01 5.973055000000000447e-01 2.161254999999999882e+01 1.345414999999999850e+02 1.543730000000000018e+03
1.160000000000000059e-01 5.971969999999999779e-01 2.100884999999999891e+01 1.340880000000000223e+02 1.543595000000000027e+03
1.170000000000000068e-01 5.970725000000000060e-01 2.038210000000000122e+01 1.335685000000000002e+02 1.543434999999999945e+03
1.180000000000000077e-01 5.969339999999999646e-01 1.973349999999999937e+01 1.329850000000000136e+02 1.543255000000000109e+03
1.190000000000000085e-01 5.967814999999999648e-01 1.906545000000000201e+01 1.323430000000000177e+02 1.543059999999999945e+03
1.200000000000000094e-01 5.966190000000000104e-01 1.838155000000000072e+01 1.316500000000000057e+02 1.542844999999999800e+03
1.209999999999999964e-01 5.964475000000000193e-01 1.768684999999999974e+01 1.309165000000000134e+02 1.542610000000000127e+03
1.219999999999999973e-01 5.962704999999999256e-01 1.698714999999999975e+01 1.301535000000000082e+02 1.542375000000000000e+03
1.229999999999999982e-01 5.960905000000000786e-01 1.628910000000000124e+01 1.293735000000000070e+02 1.542125000000000000e+03
1.239999999999999991e-01 5.959114999999999274e-01 1.559984999999999999e+01 1.285910000000000082e+02 1.541875000000000000e+03
1.250000000000000000e-01 5.957360000000000433e-01 1.492680000000000007e+01 1.278195000000000050e+02 1.541625000000000000e+03
1.260000000000000009e-01 5.955679999999999863e-01 1.427732500000000115e+01 1.270724999999999909e+02 1.541380000000000109e+03
1.270000000000000018e-01 5.954094999999999249e-01 1.365838000000000108e+01 1.263640000000000043e+02 1.541144999999999982e+03
1.280000000000000027e-01 5.952640000000000153e-01 1.307645000000000124e+01 1.257059999999999889e+02 1.540920000000000073e+03
1.290000000000000036e-01 5.951325000000000642e-01 1.253710500000000039e+01 1.251084999999999923e+02 1.540720000000000027e+03
1.300000000000000044e-01 5.950174999999999770e-01 1.204485999999999990e+01 1.245794999999999959e+02 1.540530000000000200e+03
1.310000000000000053e-01 5.949210000000000331e-01 1.160309499999999971e+01 1.241264999999999930e+02 1.540365000000000009e+03
1.320000000000000062e-01 5.948419999999999819e-01 1.121387499999999982e+01 1.237524999999999977e+02 1.540224999999999909e+03
1.330000000000000071e-01 5.947815000000000740e-01 1.087790500000000016e+01 1.234590000000000032e+02 1.540110000000000127e+03
1.340000000000000080e-01 5.947385000000000588e-01 1.059458000000000055e+01 1.232445000000000022e+02 1.540019999999999982e+03
1.350000000000000089e-01 5.947124999999999773e-01 1.036218000000000039e+01 1.231055000000000064e+02 1.539949999999999818e+03
1.360000000000000098e-01 5.947014999999999940e-01 1.017769000000000013e+01 1.230370000000000061e+02 1.539904999999999973e+03
1.370000000000000107e-01 5.947044999999999693e-01 1.003737999999999886e+01 1.230320000000000107e+02 1.539880000000000109e+03
1.380000000000000115e-01 5.947185000000000388e-01 9.936650000000000205e+00 1.230805000000000007e+02 1.539875000000000000e+03
1.390000000000000124e-01 5.947415000000000340e-01 9.870369999999999422e+00 1.231750000000000114e+02 1.539884999999999991e+03
1.400000000000000133e-01 5.947725000000000373e-01 9.833235000000000170e+00 1.233050000000000068e+02 1.539910000000000082e+03
1.410000000000000142e-01 5.948069999999999746e-01 9.819594999999999629e+00 1.234615000000000009e+02 1.539944999999999936e+03
1.420000000000000151e-01 5.948455000000000270e-01 9.824214999999998810e+00 1.236334999999999980e+02 1.539985000000000127e+03
1.430000000000000160e-01 5.948845000000000383e-01 9.841825000000000045e+00 1.238139999999999930e+02 1.540034999999999854e+03
1.440000000000000169e-01 5.949229999999999796e-01 9.867815000000000225e+00 1.239935000000000116e+02 1.540079999999999927e+03
1.450000000000000178e-01 5.949590000000000156e-01 9.897854999999999848e+00 1.241675000000000040e+02 1.540130000000000109e+03
1.459999999999999909e-01 5.949925000000000352e-01 9.928274999999999295e+00 1.243290000000000077e+02 1.540175000000000182e+03
1.469999999999999918e-01 5.950219999999999398e-01 9.956195000000001016e+00 1.244749999999999943e+02 1.540220000000000027e+03
1.479999999999999927e-01 5.950469999999999926e-01 9.979085000000001315e+00 1.246024999999999920e+02 1.540264999999999873e+03
1.489999999999999936e-01 5.950680000000000414e-01 9.995245000000000601e+00 1.247100000000000080e+02 1.540300000000000182e+03
1.499999999999999944e-01 5.950845000000000162e-01 1.000359999999999872e+01 1.247974999999999994e+02 1.540325000000000045e+03
1.509999999999999953e-01 5.950969999999999871e-01 1.000344499999999925e+01 1.248659999999999997e+02 1.540349999999999909e+03
1.519999999999999962e-01 5.951055000000000650e-01 9.994710000000001315e+00 1.249154999999999944e+02 1.540369999999999891e+03
1.529999999999999971e-01 5.951109999999999456e-01 9.977789999999998827e+00 1.249499999999999886e+02 1.540384999999999991e+03
1.539999999999999980e-01 5.951135000000000730e-01 9.953365000000001572e+00 1.249710000000000036e+02 1.540394999999999982e+03
1.549999999999999989e-01 5.951150000000000606e-01 9.922329999999998762e+00 1.249819999999999993e+02 1.540404999999999973e+03
1.559999999999999998e-01 5.951150000000000606e-01 9.885949999999999349e+00 1.249859999999999900e+02 1.540409999999999854e+03
1.570000000000000007e-01 5.951150000000000606e-01 9.845565000000000566e+00 1.249855000000000018e+02 1.540409999999999854e+03
1.580000000000000016e-01 5.951139999999999208e-01 9.802464999999999762e+00 1.249844999999999970e+02 1.540414999999999964e+03
1.590000000000000024e-01 5.951144999999999907e-01 9.758044999999999192e+00 1.249839999999999947e+02 1.540414999999999964e+03
