# t [s], A [cm^2], U [cm/s], P [cPa], c [cm/s]
1.000000000000000021e-03 5.073309999999999764e-01 3.776399999999999202e-03 1.089969999999999999e+02 1.440065000000000055e+03
2.000000000000000042e-03 5.073239999999999972e-01 2.577059999999999616e-04 1.089795000000000016e+02 1.440059999999999945e+03
3.000000000000000062e-03 5.073590000000000044e-01 6.579915000000000069e-02 1.090400000000000063e+02 1.440079999999999927e+03
4.000000000000000083e-03 5.074054999999999538e-01 1.534819500000000059e-01 1.091444999999999936e+02 1.440110000000000127e+03
5.000000000000000104e-03 5.074064999999999825e-01 1.606819999999999915e-01 1.091529999999999916e+02 1.440119999999999891e+03
6.000000000000000125e-03 5.073680000000000412e-01 9.185749999999998083e-02 1.090324999999999989e+02 1.440095000000000027e+03
7.000000000000000146e-03 5.073259999999999437e-01 1.172049999999996706e-02 1.088404999999999916e+02 1.440054999999999836e+03
8.000000000000000167e-03 5.072765000000000191e-01 -8.709899999999998199e-02 1.085805000000000007e+02 1.439990000000000009e+03
9.000000000000001055e-03 5.071924999999999351e-01 -2.623300000000000631e-01 1.081860000000000070e+02 1.439904999999999973e+03
1.000000000000000194e-02 5.070624999999999716e-01 -5.336799999999999322e-01 1.076094999999999970e+02 1.439769999999999982e+03
1.099999999999999936e-02 5.068825000000000136e-01 -9.017800000000000260e-01 1.068204999999999956e+02 1.439579999999999927e+03
1.200000000000000025e-02 5.066420000000000368e-01 -1.376109999999999722e+00 1.057789999999999964e+02 1.439329999999999927e+03
1.300000000000000114e-02 5.063355000000000494e-01 -1.951389999999999958e+00 1.044579999999999984e+02 1.439009999999999991e+03
1.400000000000000203e-02 5.059780000000000388e-01 -2.576494999999999980e+00 1.028869499999999988e+02 1.438605000000000018e+03
1.499999999999999944e-02 5.056049999999999711e-01 -3.157704999999999984e+00 1.011597500000000025e+02 1.438159999999999854e+03
1.600000000000000033e-02 5.052544999999999398e-01 -3.593065000000000175e+00 9.940649999999999409e+01 1.437684999999999945e+03
1.700000000000000122e-02 5.049514999999999976e-01 -3.809169000000000249e+00 9.774670000000000414e+01 1.437215000000000146e+03
1.800000000000000211e-02 5.047014999999999141e-01 -3.780062500000000547e+00 9.625209999999999866e+01 1.436765000000000100e+03
1.900000000000000300e-02 5.044929999999999692e-01 -3.525845499999999966e+00 9.493809999999999150e+01 1.436345000000000027e+03
2.000000000000000042e-02 5.043039999999999745e-01 -3.098224500000000159e+00 9.376855000000000473e+01 1.435960000000000036e+03
2.100000000000000130e-02 5.041094999999999882e-01 -2.560877000000000070e+00 9.267654999999999177e+01 1.435579999999999927e+03
2.200000000000000219e-02 5.038915000000000477e-01 -1.970785000000000009e+00 9.158870000000000289e+01 1.435210000000000036e+03
2.299999999999999961e-02 5.036395000000000177e-01 -1.364929999999999977e+00 9.044730000000001269e+01 1.434825000000000045e+03
2.400000000000000050e-02 5.033544999999999270e-01 -7.556299999999998018e-01 8.922435000000000116e+01 1.434420000000000073e+03
2.500000000000000139e-02 5.030474999999999808e-01 -1.350649999999999906e-01 8.792329999999999757e+01 1.434000000000000000e+03
2.600000000000000228e-02 5.027294999999999403e-01 5.134449999999999292e-01 8.656974999999999909e+01 1.433565000000000055e+03
2.700000000000000316e-02 5.024115000000000109e-01 1.202455000000000052e+00 8.519620000000000459e+01 1.433119999999999891e+03
2.800000000000000058e-02 5.020985000000000031e-01 1.930339999999999945e+00 8.382644999999999413e+01 1.432674999999999955e+03
2.900000000000000147e-02 5.017854999999999954e-01 2.676655000000000229e+00 8.246450000000000102e+01 1.432230000000000018e+03
3.000000000000000236e-02 5.014644999999999797e-01 3.403465000000000185e+00 8.109074999999999989e+01 1.431779999999999973e+03
3.099999999999999978e-02 5.011195000000000510e-01 4.061390000000000278e+00 7.966495000000000459e+01 1.431319999999999936e+03
3.200000000000000067e-02 5.007365000000000288e-01 4.598374999999999879e+00 7.813499999999999091e+01 1.430840000000000146e+03
3.300000000000000155e-02 5.003035000000000121e-01 4.969579999999999664e+00 7.644859999999999900e+01 1.430320000000000164e+03
3.400000000000000244e-02 4.998139999999999805e-01 5.145854999999999180e+00 7.456665000000000987e+01 1.429759999999999991e+03
3.500000000000000333e-02 4.992695000000000327e-01 5.119360000000000355e+00 7.247370000000000800e+01 1.429139999999999873e+03
3.600000000000000422e-02 4.986800000000000122e-01 4.905314999999999870e+00 7.018484999999999729e+01 1.428485000000000127e+03
3.700000000000000511e-02 4.980625000000000191e-01 4.539130000000000109e+00 6.774580000000000268e+01 1.427779999999999973e+03
3.799999999999999906e-02 4.974389999999999645e-01 4.070580000000000531e+00 6.522849999999999682e+01 1.427059999999999945e+03
3.899999999999999994e-02 4.968325000000000102e-01 3.555969999999999409e+00 6.272225000000000250e+01 1.426335000000000036e+03
4.000000000000000083e-02 4.962650000000000117e-01 3.050894999999999690e+00 6.032269999999999754e+01 1.425634999999999991e+03
4.100000000000000172e-02 4.957570000000000032e-01 2.604345000000000354e+00 5.812189999999999657e+01 1.424974999999999909e+03
4.200000000000000261e-02 4.953229999999999578e-01 2.255374999999999908e+00 5.620019999999999527e+01 1.424384999999999991e+03
4.300000000000000350e-02 4.949729999999999963e-01 2.031655000000000211e+00 5.462095000000000056e+01 1.423875000000000000e+03
4.400000000000000439e-02 4.947135000000000282e-01 1.950360000000000094e+00 5.342824999999999847e+01 1.423465000000000146e+03
4.499999999999999833e-02 4.945465000000000000e-01 2.020119999999999916e+00 5.264719999999999800e+01 1.423170000000000073e+03
4.599999999999999922e-02 4.944724999999999815e-01 2.243651999999999980e+00 5.228669999999999618e+01 1.422980000000000018e+03
4.700000000000000011e-02 4.944884999999999975e-01 2.620225000000000026e+00 5.234270000000000067e+01 1.422914999999999964e+03
4.800000000000000100e-02 4.945915000000000172e-01 3.147635000000000183e+00 5.280230000000000246e+01 1.422970000000000027e+03
4.900000000000000189e-02 4.947770000000000223e-01 3.823204999999999742e+00 5.364690000000000225e+01 1.423130000000000109e+03
5.000000000000000278e-02 4.950424999999999964e-01 4.643930000000000113e+00 5.485444999999999993e+01 1.423400000000000091e+03
5.100000000000000366e-02 4.953825000000000034e-01 5.605763999999999747e+00 5.640060000000000429e+01 1.423769999999999982e+03
5.200000000000000455e-02 4.957915000000000516e-01 6.702705500000000427e+00 5.825900000000000034e+01 1.424235000000000127e+03
5.300000000000000544e-02 4.962640000000000384e-01 7.925525000000000375e+00 6.040035000000000309e+01 1.424795000000000073e+03
5.399999999999999939e-02 4.967925000000000257e-01 9.261115000000000208e+00 6.279240000000000066e+01 1.425430000000000064e+03
5.500000000000000028e-02 4.973680000000000323e-01 1.069227000000000061e+01 6.539885000000001014e+01 1.426135000000000218e+03
5.600000000000000117e-02 4.979810000000000070e-01 1.219817500000000088e+01 6.817994999999999095e+01 1.426900000000000091e+03
5.700000000000000205e-02 4.986220000000000097e-01 1.375493999999999950e+01 7.109309999999999263e+01 1.427710000000000036e+03
5.800000000000000294e-02 4.992800000000000016e-01 1.533718500000000162e+01 7.409424999999998818e+01 1.428559999999999945e+03
5.900000000000000383e-02 4.999454999999999871e-01 1.691952500000000015e+01 7.713935000000000741e+01 1.429430000000000064e+03
6.000000000000000472e-02 5.006085000000000118e-01 1.847755000000000081e+01 8.018649999999999523e+01 1.430315000000000055e+03
6.099999999999999867e-02 5.012630000000000141e-01 1.998955000000000126e+01 8.319780000000000086e+01 1.431194999999999936e+03
6.199999999999999956e-02 5.019000000000000128e-01 2.143720000000000070e+01 8.614099999999999113e+01 1.432075000000000045e+03
6.300000000000000044e-02 5.025169999999999915e-01 2.280594999999999928e+01 8.899039999999999395e+01 1.432934999999999945e+03
6.400000000000000133e-02 5.031094999999999873e-01 2.408559999999999945e+01 9.172679999999999723e+01 1.433764999999999873e+03
6.500000000000000222e-02 5.036760000000000126e-01 2.527004999999999768e+01 9.434035000000000082e+01 1.434575000000000045e+03
6.600000000000000311e-02 5.042170000000000263e-01 2.635674999999999812e+01 9.682599999999999341e+01 1.435349999999999909e+03
6.700000000000000400e-02 5.047329999999999872e-01 2.734649999999999892e+01 9.918680000000000518e+01 1.436094999999999800e+03
6.800000000000000488e-02 5.052265000000000228e-01 2.824264999999999759e+01 1.014292499999999961e+02 1.436809999999999945e+03
6.900000000000000577e-02 5.057009999999999561e-01 2.905055000000000121e+01 1.035656000000000034e+02 1.437500000000000000e+03
7.000000000000000666e-02 5.061579999999999968e-01 2.977700000000000102e+01 1.056094999999999970e+02 1.438154999999999973e+03
7.100000000000000755e-02 5.066024999999999556e-01 3.042960000000000065e+01 1.075775000000000006e+02 1.438789999999999964e+03
7.200000000000000844e-02 5.070365000000000011e-01 3.101624999999999943e+01 1.094844999999999970e+02 1.439404999999999973e+03
7.300000000000000933e-02 5.074634999999999563e-01 3.154455000000000098e+01 1.113449999999999989e+02 1.440009999999999991e+03
7.399999999999999634e-02 5.078854999999999897e-01 3.202150000000000318e+01 1.131730000000000018e+02 1.440599999999999909e+03
7.499999999999999722e-02 5.083050000000000068e-01 3.245300000000000296e+01 1.149784999999999968e+02 1.441184999999999945e+03
7.599999999999999811e-02 5.087214999999999376e-01 3.284355000000000047e+01 1.167674999999999983e+02 1.441759999999999991e+03
7.699999999999999900e-02 5.091364999999999919e-01 3.319594999999999629e+01 1.185434999999999945e+02 1.442329999999999927e+03
7.799999999999999989e-02 5.095490000000000297e-01 3.351140000000000185e+01 1.203050000000000068e+02 1.442889999999999873e+03
7.900000000000000078e-02 5.099565000000000348e-01 3.378919999999999391e+01 1.220464999999999947e+02 1.443450000000000045e+03
8.000000000000000167e-02 5.103575000000000195e-01 3.402729999999999677e+01 1.237590000000000003e+02 1.444000000000000000e+03
8.100000000000000255e-02 5.107485000000000497e-01 3.422200000000000131e+01 1.254304999999999950e+02 1.444535000000000082e+03
8.200000000000000344e-02 5.111255000000000104e-01 3.436879999999999313e+01 1.270459999999999923e+02 1.445054999999999836e+03
8.300000000000000433e-02 5.114859999999999962e-01 3.446260000000000190e+01 1.285900000000000034e+02 1.445559999999999945e+03
8.400000000000000522e-02 5.118245000000000156e-01 3.449790000000000134e+01 1.300450000000000159e+02 1.446034999999999854e+03
8.500000000000000611e-02 5.121390000000000109e-01 3.446954999999999814e+01 1.313934999999999889e+02 1.446480000000000018e+03
8.600000000000000699e-02 5.124254999999999782e-01 3.437290000000000134e+01 1.326214999999999975e+02 1.446889999999999873e+03
8.700000000000000788e-02 5.126804999999999835e-01 3.420414999999999850e+01 1.337139999999999986e+02 1.447264999999999873e+03
8.800000000000000877e-02 5.129019999999999690e-01 3.396059999999999945e+01 1.346605000000000132e+02 1.447595000000000027e+03
8.899999999999999578e-02 5.130890000000000173e-01 3.364094999999999658e+01 1.354519999999999982e+02 1.447889999999999873e+03
8.999999999999999667e-02 5.132399999999999185e-01 3.324519999999999698e+01 1.360835000000000150e+02 1.448130000000000109e+03
9.099999999999999756e-02 5.133555000000000756e-01 3.277499999999999858e+01 1.365540000000000020e+02 1.448319999999999936e+03
9.199999999999999845e-02 5.134349999999999747e-01 3.223315000000000197e+01 1.368640000000000043e+02 1.448465000000000146e+03
9.299999999999999933e-02 5.134805000000000064e-01 3.162429999999999808e+01 1.370194999999999936e+02 1.448559999999999945e+03
9.400000000000000022e-02 5.134929999999999772e-01 3.095400000000000063e+01 1.370275000000000034e+02 1.448615000000000009e+03
9.500000000000000111e-02 5.134765000000000024e-01 3.022919999999999874e+01 1.368990000000000009e+02 1.448619999999999891e+03
9.600000000000000200e-02 5.134330000000000283e-01 2.945759999999999934e+01 1.366465000000000032e+02 1.448590000000000146e+03
9.700000000000000289e-02 5.133649999999999602e-01 2.864795000000000158e+01 1.362860000000000014e+02 1.448525000000000091e+03
9.800000000000000377e-02 5.132775000000000531e-01 2.780919999999999703e+01 1.358319999999999936e+02 1.448425000000000182e+03
9.900000000000000466e-02 5.131729999999999903e-01 2.695080000000000098e+01 1.353020000000000209e+02 1.448300000000000182e+03
1.000000000000000056e-01 5.130554999999999977e-01 2.608214999999999861e+01 1.347139999999999986e+02 1.448150000000000091e+03
1.010000000000000064e-01 5.129289999999999683e-01 2.521215000000000117e+01 1.340840000000000032e+02 1.447985000000000127e+03
1.020000000000000073e-01 5.127975000000000172e-01 2.434949999999999903e+01 1.334275000000000091e+02 1.447805000000000064e+03
1.030000000000000082e-01 5.126629999999999798e-01 2.350185000000000102e+01 1.327609999999999957e+02 1.447619999999999891e+03
1.040000000000000091e-01 5.125280000000000946e-01 2.267600000000000193e+01 1.320969999999999800e+02 1.447430000000000064e+03
1.050000000000000100e-01 5.123965000000000325e-01 2.187734999999999985e+01 1.314465000000000146e+02 1.447235000000000127e+03
1.059999999999999970e-01 5.122685000000000155e-01 2.111009999999999920e+01 1.308190000000000168e+02 1.447050000000000182e+03
1.069999999999999979e-01 5.121459999999999901e-01 2.037685000000000102e+01 1.302210000000000036e+02 1.446865000000000009e+03
1.079999999999999988e-01 5.120304999999999440e-01 1.967885000000000062e+01 1.296555000000000177e+02 1.446690000000000055e+03
1.089999999999999997e-01 5.119205000000000005e-01 1.901579999999999870e+01 1.291254999999999882e+02 1.446519999999999982e+03
1.100000000000000006e-01 5.118169999999999664e-01 1.838605000000000089e+01 1.286290000000000191e+02 1.446360000000000127e+03
1.110000000000000014e-01 5.117184999999999651e-01 1.778675000000000139e+01 1.281624999999999943e+02 1.446204999999999927e+03
1.120000000000000023e-01 5.116235000000000088e-01 1.721395000000000053e+01 1.277214999999999918e+02 1.446065000000000055e+03
1.130000000000000032e-01 5.115309999999999580e-01 1.666304999999999836e+01 1.272994999999999948e+02 1.445920000000000073e+03
1.140000000000000041e-01 5.114395000000000469e-01 1.612870000000000203e+01 1.268880000000000052e+02 1.445784999999999854e+03
1.150000000000000050e-01 5.113464999999999261e-01 1.560539999999999949e+01 1.264789999999999992e+02 1.445650000000000091e+03
1.160000000000000059e-01 5.112510000000000110e-01 1.508749999999999858e+01 1.260640000000000072e+02 1.445514999999999873e+03
1.170000000000000068e-01 5.111505000000000631e-01 1.456949999999999967e+01 1.256340000000000003e+02 1.445380000000000109e+03
1.180000000000000077e-01 5.110440000000000538e-01 1.404640000000000022e+01 1.251825000000000045e+02 1.445235000000000127e+03
1.190000000000000085e-01 5.109299999999999953e-01 1.351378000000000057e+01 1.247015000000000100e+02 1.445090000000000146e+03
1.200000000000000094e-01 5.108074999999999699e-01 1.296796000000000149e+01 1.241864999999999952e+02 1.444930000000000064e+03
1.209999999999999964e-01 5.106764999999999777e-01 1.240618000000000087e+01 1.236324999999999932e+02 1.444764999999999873e+03
1.219999999999999973e-01 5.105355000000000310e-01 1.182676499999999997e+01 1.230390000000000015e+02 1.444579999999999927e+03
1.229999999999999982e-01 5.103849999999999776e-01 1.122899499999999939e+01 1.224035000000000082e+02 1.444394999999999982e+03
1.239999999999999991e-01 5.102269999999999861e-01 1.061338999999999899e+01 1.217289999999999992e+02 1.444200000000000045e+03
1.250000000000000000e-01 5.100605000000000278e-01 9.981460000000000221e+00 1.210185000000000031e+02 1.443985000000000127e+03
1.260000000000000009e-01 5.098875000000000490e-01 9.335895000000000721e+00 1.202775000000000034e+02 1.443764999999999873e+03
1.270000000000000018e-01 5.097104999999999553e-01 8.680225000000000080e+00 1.195109999999999957e+02 1.443539999999999964e+03
1.280000000000000027e-01 5.095300000000000384e-01 8.018945000000000434e+00 1.187289999999999992e+02 1.443309999999999945e+03
1.290000000000000036e-01 5.093495000000000106e-01 7.357159999999999478e+00 1.179389999999999930e+02 1.443070000000000164e+03
1.300000000000000044e-01 5.091704999999999703e-01 6.700614999999999988e+00 1.171510000000000105e+02 1.442840000000000146e+03
1.310000000000000053e-01 5.089949999999999752e-01 6.055395000000000749e+00 1.163764999999999930e+02 1.442605000000000018e+03
1.320000000000000062e-01 5.088260000000000005e-01 5.427705000000000446e+00 1.156250000000000000e+02 1.442375000000000000e+03
1.330000000000000071e-01 5.086660000000000625e-01 4.823724999999999596e+00 1.149069999999999965e+02 1.442150000000000091e+03
1.340000000000000080e-01 5.085159999999999680e-01 4.249354999999999549e+00 1.142330000000000041e+02 1.441940000000000055e+03
1.350000000000000089e-01 5.083790000000000253e-01 3.710049999999999848e+00 1.136105000000000018e+02 1.441744999999999891e+03
1.360000000000000098e-01 5.082560000000000411e-01 3.210599499999999829e+00 1.130480000000000018e+02 1.441565000000000055e+03
1.370000000000000107e-01 5.081480000000000441e-01 2.754980500000000276e+00 1.125515000000000043e+02 1.441400000000000091e+03
1.380000000000000115e-01 5.080565000000000220e-01 2.346238999999999741e+00 1.121260000000000048e+02 1.441260000000000218e+03
1.390000000000000124e-01 5.079814999999999747e-01 1.986372000000000027e+00 1.117729999999999961e+02 1.441135000000000218e+03
1.400000000000000133e-01 5.079234999999999722e-01 1.676304000000000016e+00 1.114945000000000022e+02 1.441025000000000091e+03
1.410000000000000142e-01 5.078810000000000269e-01 1.415864000000000011e+00 1.112895000000000039e+02 1.440950000000000045e+03
1.420000000000000151e-01 5.078544999999999865e-01 1.203815999999999997e+00 1.111539999999999964e+02 1.440884999999999991e+03
1.430000000000000160e-01 5.078415000000000568e-01 1.037960999999999911e+00 1.110840000000000032e+02 1.440844999999999800e+03
1.440000000000000169e-01 5.078420000000000156e-01 9.152059999999999640e-01 1.110734999999999957e+02 1.440820000000000164e+03
1.450000000000000178e-01 5.078525000000000400e-01 8.317350000000000021e-01 1.111154999999999973e+02 1.440809999999999945e+03
1.459999999999999909e-01 5.078730000000000189e-01 7.831515000000000004e-01 1.112015000000000100e+02 1.440815000000000055e+03
1.469999999999999918e-01 5.079004999999999770e-01 7.646489999999999121e-01 1.113224999999999909e+02 1.440835000000000036e+03
1.479999999999999927e-01 5.079329999999999679e-01 7.711864999999999970e-01 1.114699999999999989e+02 1.440865000000000009e+03
1.489999999999999936e-01 5.079679999999999751e-01 7.976574999999999083e-01 1.116345000000000027e+02 1.440894999999999982e+03
1.499999999999999944e-01 5.080050000000000399e-01 8.390310000000000823e-01 1.118084999999999951e+02 1.440934999999999945e+03
1.509999999999999953e-01 5.080419999999999936e-01 8.905254999999999699e-01 1.119814999999999969e+02 1.440974999999999909e+03
1.519999999999999962e-01 5.080765000000000420e-01 9.476860000000000284e-01 1.121495000000000033e+02 1.441019999999999982e+03
1.529999999999999971e-01 5.081074999999999342e-01 1.006513999999999909e+00 1.123029999999999973e+02 1.441059999999999945e+03
1.539999999999999980e-01 5.081344999999999335e-01 1.063522499999999926e+00 1.124389999999999930e+02 1.441095000000000027e+03
1.549999999999999989e-01 5.081565000000000110e-01 1.115781999999999829e+00 1.125525000000000091e+02 1.441130000000000109e+03
1.559999999999999998e-01 5.081729999999999858e-01 1.160959999999999992e+00 1.126405000000000030e+02 1.441154999999999973e+03
1.570000000000000007e-01 5.081839999999999691e-01 1.197300000000000031e+00 1.127019999999999982e+02 1.441179999999999836e+03
1.580000000000000016e-01 5.081885000000000430e-01 1.223610000000000086e+00 1.127349999999999994e+02 1.441190000000000055e+03
1.590000000000000024e-01 5.081869999999999443e-01 1.239254999999999995e+00 1.127404999999999973e+02 1.441195000000000164e+03
