# t [s], A [cm^2], U [cm/s], P [cPa], c [cm/s]
1.000000000000000021e-03 5.404565000000000063e-01 3.752650000000003205e-03 1.084975000000000023e+02 1.513414999999999964e+03
2.000000000000000042e-03 5.404495000000000271e-01 1.035490000000000022e-03 1.084789999999999992e+02 1.513414999999999964e+03
3.000000000000000062e-03 5.404910000000000547e-01 7.779064999999998897e-02 1.085554999999999950e+02 1.513430000000000064e+03
4.000000000000000083e-03 5.405360000000000165e-01 1.639165499999999942e-01 1.086640000000000015e+02 1.513464999999999918e+03
5.000000000000000104e-03 5.405290000000000372e-01 1.579220000000000068e-01 1.086530000000000058e+02 1.513465000000000146e+03
6.000000000000000125e-03 5.404869999999999397e-01 8.202700000000001657e-02 1.085074999999999932e+02 1.513440000000000055e+03
7.000000000000000146e-03 5.404440000000000355e-01 9.160000000000279030e-04 1.082930000000000064e+02 1.513389999999999873e+03
8.000000000000000167e-03 5.403870000000000617e-01 -1.148364999999999525e-01 1.079885000000000019e+02 1.513320000000000164e+03
9.000000000000001055e-03 5.402865000000000029e-01 -3.224449999999999816e-01 1.075185000000000031e+02 1.513210000000000036e+03
1.000000000000000194e-02 5.401354999999999906e-01 -6.355450000000000266e-01 1.068340000000000032e+02 1.513050000000000182e+03
1.099999999999999936e-02 5.399255000000000582e-01 -1.061325000000000074e+00 1.058934999999999889e+02 1.512825000000000045e+03
1.200000000000000025e-02 5.396440000000000126e-01 -1.609345000000000026e+00 1.046504999999999939e+02 1.512525000000000091e+03
1.300000000000000114e-02 5.392959999999999976e-01 -2.252830000000000332e+00 1.031000999999999976e+02 1.512134999999999991e+03
1.400000000000000203e-02 5.389104999999999590e-01 -2.908714999999999939e+00 1.013156000000000034e+02 1.511674999999999955e+03
1.499999999999999944e-02 5.385320000000000107e-01 -3.463630000000000209e+00 9.943410000000000082e+01 1.511175000000000182e+03
1.600000000000000033e-02 5.381960000000000077e-01 -3.819802999999999837e+00 9.760415000000000418e+01 1.510670000000000073e+03
1.700000000000000122e-02 5.379175000000000484e-01 -3.927234000000000336e+00 9.593160000000000309e+01 1.510175000000000182e+03
1.800000000000000211e-02 5.376889999999999725e-01 -3.790235000000000021e+00 9.445775000000000432e+01 1.509720000000000027e+03
1.900000000000000300e-02 5.374889999999999946e-01 -3.454441999999999791e+00 9.315889999999998849e+01 1.509295000000000073e+03
2.000000000000000042e-02 5.372915000000000330e-01 -2.984929999999999861e+00 9.196809999999999263e+01 1.508889999999999873e+03
2.100000000000000130e-02 5.370739999999999403e-01 -2.443942499999999907e+00 9.080395000000000039e+01 1.508490000000000009e+03
2.200000000000000219e-02 5.368239999999999679e-01 -1.874275000000000135e+00 8.959784999999999400e+01 1.508079999999999927e+03
2.299999999999999961e-02 5.365404999999999758e-01 -1.292195000000000205e+00 8.831274999999999409e+01 1.507654999999999973e+03
2.400000000000000050e-02 5.362335000000000296e-01 -6.912399999999998546e-01 8.694740000000000180e+01 1.507210000000000036e+03
2.500000000000000139e-02 5.359150000000000302e-01 -5.410500000000029175e-02 8.552684999999999604e+01 1.506755000000000109e+03
2.600000000000000228e-02 5.355965000000000309e-01 6.328049999999998398e-01 8.408504999999999541e+01 1.506289999999999964e+03
2.700000000000000316e-02 5.352814999999999657e-01 1.367919999999999803e+00 8.264654999999999063e+01 1.505815000000000055e+03
2.800000000000000058e-02 5.349665000000000115e-01 2.129290000000000127e+00 8.121379999999999200e+01 1.505345000000000027e+03
2.900000000000000147e-02 5.346410000000000329e-01 2.876224999999999810e+00 7.976285000000000025e+01 1.504875000000000000e+03
3.000000000000000236e-02 5.342885000000000550e-01 3.556394999999999307e+00 7.824760000000000559e+01 1.504384999999999991e+03
3.099999999999999978e-02 5.338935000000000208e-01 4.116080000000000183e+00 7.661045000000000016e+01 1.503864999999999782e+03
3.200000000000000067e-02 5.334449999999999470e-01 4.511065000000000325e+00 7.479715000000000202e+01 1.503304999999999836e+03
3.300000000000000155e-02 5.329380000000000228e-01 4.715815000000000090e+00 7.277154999999999063e+01 1.502700000000000045e+03
3.400000000000000244e-02 5.323775000000000590e-01 4.728885000000000005e+00 7.052740000000000009e+01 1.502039999999999964e+03
3.500000000000000333e-02 5.317769999999999442e-01 4.573215000000000252e+00 6.809375000000000000e+01 1.501329999999999927e+03
3.600000000000000422e-02 5.311569999999999903e-01 4.291745000000000587e+00 6.553379999999999939e+01 1.500595000000000027e+03
3.700000000000000511e-02 5.305420000000000691e-01 3.940030000000000143e+00 6.293704999999999927e+01 1.499840000000000146e+03
3.799999999999999906e-02 5.299565000000000525e-01 3.577205000000000634e+00 6.040760000000000218e+01 1.499095000000000027e+03
3.899999999999999994e-02 5.294250000000000345e-01 3.258889999999999620e+00 5.805185000000000173e+01 1.498390000000000100e+03
4.000000000000000083e-02 5.289650000000000185e-01 3.031339999999999701e+00 5.596744999999999948e+01 1.497750000000000000e+03
4.100000000000000172e-02 5.285910000000000331e-01 2.929265000000000008e+00 5.423539999999999850e+01 1.497195000000000164e+03
4.200000000000000261e-02 5.283120000000000038e-01 2.975675000000000292e+00 5.291604999999999848e+01 1.496744999999999891e+03
4.300000000000000350e-02 5.281314999999999760e-01 3.183619999999999894e+00 5.204819999999999425e+01 1.496420000000000073e+03
4.400000000000000439e-02 5.280525000000000357e-01 3.558980000000000032e+00 5.165130000000000621e+01 1.496220000000000027e+03
4.499999999999999833e-02 5.280730000000000146e-01 4.103334999999999511e+00 5.172944999999999993e+01 1.496150000000000091e+03
4.599999999999999922e-02 5.281919999999999948e-01 4.816290000000000404e+00 5.227530000000000143e+01 1.496220000000000027e+03
4.700000000000000011e-02 5.284055000000000835e-01 5.696730000000000516e+00 5.327409999999999712e+01 1.496414999999999964e+03
4.800000000000000100e-02 5.287104999999999722e-01 6.743064999999999642e+00 5.470645000000000380e+01 1.496744999999999891e+03
4.900000000000000189e-02 5.291034999999999489e-01 7.952460000000000306e+00 5.654975000000000307e+01 1.497194999999999936e+03
5.000000000000000278e-02 5.295784999999999521e-01 9.319630000000000081e+00 5.877785000000000082e+01 1.497759999999999991e+03
5.100000000000000366e-02 5.301305000000000600e-01 1.083560500000000104e+01 6.136075000000000301e+01 1.498434999999999945e+03
5.200000000000000455e-02 5.307509999999999728e-01 1.248681999999999981e+01 6.426380000000000337e+01 1.499215000000000146e+03
5.300000000000000544e-02 5.314309999999999867e-01 1.425478999999999985e+01 6.744705000000000439e+01 1.500079999999999927e+03
5.399999999999999939e-02 5.321599999999999664e-01 1.611674500000000165e+01 7.086594999999999800e+01 1.501025000000000091e+03
5.500000000000000028e-02 5.329274999999999984e-01 1.804661000000000115e+01 7.447175000000000011e+01 1.502035000000000082e+03
5.600000000000000117e-02 5.337214999999999598e-01 2.001650000000000063e+01 7.821399999999999864e+01 1.503094999999999800e+03
5.700000000000000205e-02 5.345309999999999784e-01 2.199855000000000160e+01 8.204205000000000325e+01 1.504200000000000045e+03
5.800000000000000294e-02 5.353464999999999474e-01 2.396615000000000251e+01 8.590794999999999959e+01 1.505324999999999818e+03
5.900000000000000383e-02 5.361590000000000522e-01 2.589565000000000339e+01 8.976859999999999218e+01 1.506460000000000036e+03
6.000000000000000472e-02 5.369614999999999805e-01 2.776735000000000042e+01 9.358695000000000164e+01 1.507594999999999800e+03
6.099999999999999867e-02 5.377490000000000325e-01 2.956550000000000011e+01 9.733455000000000723e+01 1.508724999999999909e+03
6.199999999999999956e-02 5.385180000000000522e-01 3.127905000000000157e+01 1.009909999999999997e+02 1.509835000000000036e+03
6.300000000000000044e-02 5.392670000000000519e-01 3.290115000000000123e+01 1.045437000000000012e+02 1.510924999999999955e+03
6.400000000000000133e-02 5.399959999999999205e-01 3.442855000000000132e+01 1.079880500000000012e+02 1.511994999999999891e+03
6.500000000000000222e-02 5.407054999999999501e-01 3.586129999999999995e+01 1.113265999999999991e+02 1.513039999999999964e+03
6.600000000000000311e-02 5.413985000000000047e-01 3.720165000000000077e+01 1.145660000000000025e+02 1.514054999999999836e+03
6.700000000000000400e-02 5.420764999999999612e-01 3.845374999999999943e+01 1.177169999999999987e+02 1.515050000000000182e+03
6.800000000000000488e-02 5.427429999999999755e-01 3.962255000000000393e+01 1.207934999999999945e+02 1.516030000000000200e+03
6.900000000000000577e-02 5.433999999999999941e-01 4.071359999999999957e+01 1.238084999999999951e+02 1.516985000000000127e+03
7.000000000000000666e-02 5.440490000000000048e-01 4.173194999999999766e+01 1.267740000000000009e+02 1.517929999999999836e+03
7.100000000000000755e-02 5.446929999999999827e-01 4.268229999999999791e+01 1.297004999999999768e+02 1.518865000000000009e+03
7.200000000000000844e-02 5.453324999999999978e-01 4.356804999999999950e+01 1.325960000000000036e+02 1.519784999999999854e+03
7.300000000000000933e-02 5.459675000000000500e-01 4.439114999999999611e+01 1.354625000000000057e+02 1.520700000000000045e+03
7.399999999999999634e-02 5.465969999999999995e-01 4.515205000000000268e+01 1.382994999999999948e+02 1.521605000000000018e+03
7.499999999999999722e-02 5.472194999999999698e-01 4.584969999999999857e+01 1.411019999999999754e+02 1.522500000000000000e+03
7.599999999999999811e-02 5.478325000000000555e-01 4.648134999999999906e+01 1.438594999999999970e+02 1.523384999999999991e+03
7.699999999999999900e-02 5.484329999999999483e-01 4.704319999999999879e+01 1.465595000000000141e+02 1.524250000000000000e+03
7.799999999999999989e-02 5.490160000000000595e-01 4.753045000000000186e+01 1.491845000000000141e+02 1.525090000000000146e+03
7.900000000000000078e-02 5.495790000000000397e-01 4.793784999999999741e+01 1.517185000000000059e+02 1.525914999999999964e+03
8.000000000000000167e-02 5.501169999999999671e-01 4.826000000000000512e+01 1.541399999999999864e+02 1.526704999999999927e+03
8.100000000000000255e-02 5.506260000000000598e-01 4.849174999999999613e+01 1.564320000000000164e+02 1.527454999999999927e+03
8.200000000000000344e-02 5.511024999999999396e-01 4.862879999999999825e+01 1.585755000000000052e+02 1.528164999999999964e+03
8.300000000000000433e-02 5.515434999999999643e-01 4.866779999999999973e+01 1.605554999999999950e+02 1.528829999999999927e+03
8.400000000000000522e-02 5.519460000000000477e-01 4.860654999999999859e+01 1.623594999999999970e+02 1.529445000000000164e+03
8.500000000000000611e-02 5.523085000000000910e-01 4.844440000000000168e+01 1.639770000000000039e+02 1.530005000000000109e+03
8.600000000000000699e-02 5.526299999999999546e-01 4.818220000000000169e+01 1.654019999999999868e+02 1.530505000000000109e+03
8.700000000000000788e-02 5.529094999999999427e-01 4.782229999999999848e+01 1.666320000000000050e+02 1.530950000000000045e+03
8.800000000000000877e-02 5.531485000000000429e-01 4.736860000000000070e+01 1.676689999999999827e+02 1.531335000000000036e+03
8.899999999999999578e-02 5.533474999999999921e-01 4.682665000000000077e+01 1.685169999999999959e+02 1.531660000000000082e+03
8.999999999999999667e-02 5.535080000000000000e-01 4.620305000000000462e+01 1.691845000000000141e+02 1.531934999999999945e+03
9.099999999999999756e-02 5.536330000000000418e-01 4.550589999999999691e+01 1.696825000000000045e+02 1.532150000000000091e+03
9.199999999999999845e-02 5.537244999999999528e-01 4.474425000000000097e+01 1.700244999999999891e+02 1.532320000000000164e+03
9.299999999999999933e-02 5.537874999999999881e-01 4.392790000000000106e+01 1.702259999999999991e+02 1.532434999999999945e+03
9.400000000000000022e-02 5.538239999999999830e-01 4.306735000000000468e+01 1.703050000000000068e+02 1.532514999999999873e+03
9.500000000000000111e-02 5.538380000000000525e-01 4.217324999999999591e+01 1.702785000000000082e+02 1.532555000000000064e+03
9.600000000000000200e-02 5.538350000000000772e-01 4.125634999999999764e+01 1.701650000000000205e+02 1.532565000000000055e+03
9.700000000000000289e-02 5.538159999999999750e-01 4.032704999999999984e+01 1.699839999999999804e+02 1.532549999999999955e+03
9.800000000000000377e-02 5.537864999999999593e-01 3.939509999999999934e+01 1.697510000000000048e+02 1.532514999999999873e+03
9.900000000000000466e-02 5.537499999999999645e-01 3.846945000000000192e+01 1.694839999999999804e+02 1.532454999999999927e+03
1.000000000000000056e-01 5.537079999999999780e-01 3.755774999999999864e+01 1.691955000000000098e+02 1.532394999999999982e+03
1.010000000000000064e-01 5.536634999999999751e-01 3.666635000000000133e+01 1.688990000000000009e+02 1.532315000000000055e+03
1.020000000000000073e-01 5.536179999999999435e-01 3.579995000000000260e+01 1.686030000000000086e+02 1.532240000000000009e+03
1.030000000000000082e-01 5.535740000000000105e-01 3.496164999999999878e+01 1.683140000000000214e+02 1.532159999999999854e+03
1.040000000000000091e-01 5.535295000000000076e-01 3.415279999999999916e+01 1.680355000000000132e+02 1.532079999999999927e+03
1.050000000000000100e-01 5.534864999999999924e-01 3.337314999999999543e+01 1.677685000000000173e+02 1.532000000000000000e+03
1.059999999999999970e-01 5.534434999999999771e-01 3.262095000000000056e+01 1.675110000000000241e+02 1.531920000000000073e+03
1.069999999999999979e-01 5.534000000000000030e-01 3.189314999999999856e+01 1.672580000000000098e+02 1.531835000000000036e+03
1.079999999999999988e-01 5.533540000000000125e-01 3.118560000000000088e+01 1.670034999999999741e+02 1.531755000000000109e+03
1.089999999999999997e-01 5.533034999999999481e-01 3.049340000000000117e+01 1.667400000000000091e+02 1.531670000000000073e+03
1.100000000000000006e-01 5.532479999999999620e-01 2.981119999999999948e+01 1.664585000000000150e+02 1.531585000000000036e+03
1.110000000000000014e-01 5.531840000000000090e-01 2.913329999999999842e+01 1.661500000000000057e+02 1.531485000000000127e+03
1.120000000000000023e-01 5.531110000000000193e-01 2.845429999999999637e+01 1.658044999999999902e+02 1.531380000000000109e+03
1.130000000000000032e-01 5.530270000000000463e-01 2.776890000000000214e+01 1.654150000000000205e+02 1.531264999999999873e+03
1.140000000000000041e-01 5.529304999999999914e-01 2.707280000000000086e+01 1.649735000000000014e+02 1.531130000000000109e+03
1.150000000000000050e-01 5.528199999999999781e-01 2.636209999999999809e+01 1.644749999999999943e+02 1.530985000000000127e+03
1.160000000000000059e-01 5.526960000000000761e-01 2.563419999999999987e+01 1.639145000000000039e+02 1.530820000000000164e+03
1.170000000000000068e-01 5.525579999999999936e-01 2.488739999999999952e+01 1.632909999999999968e+02 1.530634999999999991e+03
1.180000000000000077e-01 5.524054999999999938e-01 2.412124999999999986e+01 1.626050000000000182e+02 1.530434999999999945e+03
1.190000000000000085e-01 5.522409999999999819e-01 2.333664999999999878e+01 1.618580000000000041e+02 1.530215000000000146e+03
1.200000000000000094e-01 5.520639999999999992e-01 2.253545000000000087e+01 1.610559999999999832e+02 1.529980000000000018e+03
1.209999999999999964e-01 5.518769999999999509e-01 2.172074999999999889e+01 1.602044999999999959e+02 1.529730000000000018e+03
1.219999999999999973e-01 5.516820000000000057e-01 2.089685000000000059e+01 1.593125000000000000e+02 1.529465000000000146e+03
1.229999999999999982e-01 5.514809999999999990e-01 2.006854999999999833e+01 1.583890000000000100e+02 1.529195000000000164e+03
1.239999999999999991e-01 5.512764999999999471e-01 1.924179999999999779e+01 1.574465000000000146e+02 1.528910000000000082e+03
1.250000000000000000e-01 5.510709999999999775e-01 1.842269999999999897e+01 1.564964999999999975e+02 1.528625000000000000e+03
1.260000000000000009e-01 5.508679999999999133e-01 1.761785000000000068e+01 1.555504999999999995e+02 1.528340000000000146e+03
1.270000000000000018e-01 5.506685000000000052e-01 1.683384999999999820e+01 1.546215000000000259e+02 1.528055000000000064e+03
1.280000000000000027e-01 5.504769999999999941e-01 1.607704999999999984e+01 1.537214999999999918e+02 1.527775000000000091e+03
1.290000000000000036e-01 5.502940000000000609e-01 1.535350000000000037e+01 1.528605000000000018e+02 1.527509999999999991e+03
1.300000000000000044e-01 5.501230000000000286e-01 1.466872000000000043e+01 1.520495000000000232e+02 1.527250000000000000e+03
1.310000000000000053e-01 5.499640000000000084e-01 1.402715999999999852e+01 1.512955000000000041e+02 1.527009999999999991e+03
1.320000000000000062e-01 5.498195000000000165e-01 1.343252500000000182e+01 1.506055000000000064e+02 1.526784999999999854e+03
1.330000000000000071e-01 5.496900000000000119e-01 1.288753000000000171e+01 1.499834999999999923e+02 1.526579999999999927e+03
1.340000000000000080e-01 5.495754999999999946e-01 1.239357500000000023e+01 1.494320000000000164e+02 1.526389999999999873e+03
1.350000000000000089e-01 5.494755000000000056e-01 1.195112999999999914e+01 1.489519999999999982e+02 1.526224999999999909e+03
1.360000000000000098e-01 5.493905000000000038e-01 1.155949500000000008e+01 1.485409999999999968e+02 1.526075000000000045e+03
1.370000000000000107e-01 5.493190000000000017e-01 1.121695000000000064e+01 1.481954999999999814e+02 1.525950000000000045e+03
1.380000000000000115e-01 5.492600000000000815e-01 1.092084000000000010e+01 1.479110000000000014e+02 1.525845000000000027e+03
1.390000000000000124e-01 5.492114999999999636e-01 1.066791500000000070e+01 1.476804999999999950e+02 1.525750000000000000e+03
1.400000000000000133e-01 5.491730000000000222e-01 1.045422500000000099e+01 1.474975000000000023e+02 1.525670000000000073e+03
1.410000000000000142e-01 5.491414999999999491e-01 1.027547999999999995e+01 1.473534999999999968e+02 1.525605000000000018e+03
1.420000000000000151e-01 5.491160000000000485e-01 1.012708500000000100e+01 1.472404999999999973e+02 1.525554999999999836e+03
1.430000000000000160e-01 5.490954999999999586e-01 1.000441999999999965e+01 1.471500000000000057e+02 1.525505000000000109e+03
1.440000000000000169e-01 5.490764999999999674e-01 9.903024999999999523e+00 1.470755000000000052e+02 1.525470000000000027e+03
1.450000000000000178e-01 5.490599999999999925e-01 9.818659999999999499e+00 1.470090000000000146e+02 1.525440000000000055e+03
1.459999999999999909e-01 5.490424999999999889e-01 9.747365000000000279e+00 1.469454999999999814e+02 1.525409999999999854e+03
1.469999999999999918e-01 5.490249999999999853e-01 9.685589999999999478e+00 1.468795000000000073e+02 1.525375000000000000e+03
1.479999999999999927e-01 5.490055000000000351e-01 9.630359999999999587e+00 1.468064999999999998e+02 1.525345000000000027e+03
1.489999999999999936e-01 5.489834999999999576e-01 9.579015000000000057e+00 1.467239999999999895e+02 1.525315000000000055e+03
1.499999999999999944e-01 5.489600000000000035e-01 9.529555000000000220e+00 1.466299999999999955e+02 1.525279999999999973e+03
1.509999999999999953e-01 5.489330000000000043e-01 9.480315000000000936e+00 1.465235000000000127e+02 1.525240000000000009e+03
1.519999999999999962e-01 5.489040000000000585e-01 9.430080000000000240e+00 1.464050000000000011e+02 1.525204999999999927e+03
1.529999999999999971e-01 5.488720000000000265e-01 9.378080000000000638e+00 1.462740000000000009e+02 1.525164999999999964e+03
1.539999999999999980e-01 5.488389999999999658e-01 9.323800000000000310e+00 1.461315000000000168e+02 1.525119999999999891e+03
1.549999999999999989e-01 5.488034999999999997e-01 9.267095000000001193e+00 1.459800000000000182e+02 1.525069999999999936e+03
1.559999999999999998e-01 5.487670000000000048e-01 9.207934999999999093e+00 1.458209999999999980e+02 1.525019999999999982e+03
1.570000000000000007e-01 5.487294999999999812e-01 9.146509999999999252e+00 1.456560000000000059e+02 1.524970000000000027e+03
1.580000000000000016e-01 5.486910000000000398e-01 9.083230000000000359e+00 1.454870000000000232e+02 1.524920000000000073e+03
1.590000000000000024e-01 5.486524999999999874e-01 9.018425000000000580e+00 1.453149999999999977e+02 1.524869999999999891e+03
