# t [s], A [cm^2], U [cm/s], P [cPa], c [cm/s]
1.000000000000000021e-03 1.402309999999999945e-01 2.572419999999999707e-01 8.622135000000000105e+01 1.877345000000000027e+03
2.000000000000000042e-03 1.402100000000000013e-01 1.551079499999999944e+00 8.362415000000000020e+01 1.877130000000000109e+03
3.000000000000000062e-03 1.401320000000000066e-01 3.133608999999999867e+00 8.021565000000001078e+01 1.876394999999999982e+03
4.000000000000000083e-03 1.400155000000000149e-01 4.887282499999999530e+00 7.642775000000000318e+01 1.875315000000000055e+03
5.000000000000000104e-03 1.398820000000000063e-01 6.769585000000000186e+00 7.288560000000001082e+01 1.874090000000000146e+03
6.000000000000000125e-03 1.397464999999999957e-01 8.688344999999999985e+00 6.991049999999999898e+01 1.872855000000000018e+03
7.000000000000000146e-03 1.396160000000000179e-01 1.050112999999999985e+01 6.745210000000000150e+01 1.871680000000000064e+03
8.000000000000000167e-03 1.394934999999999925e-01 1.210016500000000050e+01 6.530535000000000423e+01 1.870595000000000027e+03
9.000000000000001055e-03 1.393800000000000039e-01 1.346935000000000038e+01 6.338465000000000771e+01 1.869605000000000018e+03
1.000000000000000194e-02 1.392800000000000149e-01 1.463719999999999999e+01 6.173314999999999486e+01 1.868740000000000009e+03
1.099999999999999936e-02 1.391924999999999968e-01 1.562219999999999942e+01 6.037919999999999732e+01 1.868000000000000000e+03
1.200000000000000025e-02 1.391195000000000070e-01 1.643090000000000117e+01 5.929534999999999911e+01 1.867380000000000109e+03
1.300000000000000114e-02 1.390589999999999882e-01 1.706820000000000093e+01 5.843099999999999739e+01 1.866875000000000000e+03
1.400000000000000203e-02 1.390089999999999937e-01 1.753715000000000046e+01 5.772285000000000110e+01 1.866464999999999918e+03
1.499999999999999944e-02 1.389679999999999804e-01 1.784580000000000055e+01 5.710694999999999766e+01 1.866130000000000109e+03
1.600000000000000033e-02 1.389325000000000143e-01 1.802655000000000030e+01 5.656704999999999472e+01 1.865849999999999909e+03
1.700000000000000122e-02 1.389050000000000007e-01 1.814734999999999943e+01 5.618415000000000248e+01 1.865634999999999991e+03
1.800000000000000211e-02 1.388874999999999971e-01 1.829744999999999777e+01 5.612865000000000038e+01 1.865509999999999991e+03
1.900000000000000300e-02 1.388854999999999951e-01 1.855449999999999733e+01 5.658480000000000132e+01 1.865509999999999991e+03
2.000000000000000042e-02 1.389024999999999843e-01 1.895255000000000223e+01 5.765209999999999724e+01 1.865654999999999973e+03
2.100000000000000130e-02 1.389374999999999916e-01 1.946829999999999927e+01 5.928144999999999953e+01 1.865960000000000036e+03
2.200000000000000219e-02 1.389885000000000148e-01 2.003030000000000044e+01 6.127405000000000257e+01 1.866404999999999973e+03
2.299999999999999961e-02 1.390490000000000059e-01 2.054380000000000095e+01 6.333715000000000828e+01 1.866924999999999955e+03
2.400000000000000050e-02 1.391114999999999990e-01 2.091995000000000005e+01 6.516849999999999454e+01 1.867469999999999800e+03
2.500000000000000139e-02 1.391669999999999852e-01 2.109935000000000116e+01 6.653530000000000655e+01 1.867960000000000036e+03
2.600000000000000228e-02 1.392110000000000014e-01 2.106374999999999886e+01 6.732560000000000855e+01 1.868355000000000018e+03
2.700000000000000316e-02 1.392404999999999893e-01 2.083389999999999986e+01 6.755745000000000289e+01 1.868634999999999991e+03
2.800000000000000058e-02 1.392570000000000197e-01 2.045714999999999861e+01 6.735239999999998872e+01 1.868784999999999854e+03
2.900000000000000147e-02 1.392614999999999825e-01 1.998935000000000173e+01 6.688290000000000646e+01 1.868839999999999918e+03
3.000000000000000236e-02 1.392579999999999929e-01 1.947775000000000034e+01 6.631579999999999586e+01 1.868825000000000045e+03
3.099999999999999978e-02 1.392504999999999993e-01 1.895040000000000191e+01 6.576779999999999404e+01 1.868764999999999873e+03
3.200000000000000067e-02 1.392415000000000180e-01 1.841310000000000002e+01 6.528494999999999493e+01 1.868690000000000055e+03
3.300000000000000155e-02 1.392315000000000080e-01 1.785419999999999874e+01 6.484739999999999327e+01 1.868605000000000018e+03
3.400000000000000244e-02 1.392194999999999960e-01 1.725444999999999851e+01 6.439345000000000141e+01 1.868505000000000109e+03
3.500000000000000333e-02 1.392049999999999954e-01 1.659794999999999732e+01 6.385354999999999848e+01 1.868389999999999873e+03
3.600000000000000422e-02 1.391870000000000052e-01 1.588145000000000095e+01 6.318269999999999698e+01 1.868235000000000127e+03
3.700000000000000511e-02 1.391644999999999965e-01 1.512000000000000099e+01 6.238364999999999583e+01 1.868045000000000073e+03
3.799999999999999906e-02 1.391384999999999983e-01 1.434679999999999822e+01 6.151449999999999818e+01 1.867829999999999927e+03
3.899999999999999994e-02 1.391114999999999990e-01 1.360784999999999911e+01 6.067964999999999520e+01 1.867605000000000018e+03
4.000000000000000083e-02 1.390865000000000018e-01 1.295339999999999847e+01 6.000785000000000480e+01 1.867389999999999873e+03
4.100000000000000172e-02 1.390675000000000106e-01 1.242769999999999975e+01 5.962239999999999895e+01 1.867215000000000146e+03
4.200000000000000261e-02 1.390564999999999996e-01 1.205959999999999965e+01 5.961249999999999716e+01 1.867119999999999891e+03
4.300000000000000350e-02 1.390564999999999996e-01 1.185725000000000051e+01 6.001205000000000211e+01 1.867110000000000127e+03
4.400000000000000439e-02 1.390685000000000116e-01 1.180610000000000070e+01 6.079104999999999848e+01 1.867204999999999927e+03
4.499999999999999833e-02 1.390909999999999924e-01 1.187190000000000012e+01 6.185975000000000534e+01 1.867389999999999873e+03
4.599999999999999922e-02 1.391219999999999957e-01 1.200655000000000072e+01 6.308419999999999561e+01 1.867650000000000091e+03
4.700000000000000011e-02 1.391574999999999895e-01 1.215520000000000067e+01 6.430809999999999604e+01 1.867940000000000055e+03
4.800000000000000100e-02 1.391935000000000255e-01 1.226435000000000031e+01 6.537685000000000457e+01 1.868244999999999891e+03
4.900000000000000189e-02 1.392249999999999877e-01 1.228760000000000119e+01 6.615729999999999222e+01 1.868519999999999982e+03
5.000000000000000278e-02 1.392484999999999973e-01 1.219010000000000105e+01 6.655285000000000650e+01 1.868720000000000027e+03
5.100000000000000366e-02 1.392614999999999825e-01 1.195045000000000002e+01 6.651005000000000678e+01 1.868840000000000146e+03
5.200000000000000455e-02 1.392614999999999825e-01 1.156034999999999968e+01 6.601800000000000068e+01 1.868844999999999800e+03
5.300000000000000544e-02 1.392490000000000117e-01 1.102299499999999988e+01 6.510250000000000625e+01 1.868739999999999782e+03
5.399999999999999939e-02 1.392224999999999990e-01 1.035044500000000056e+01 6.381624999999999659e+01 1.868519999999999982e+03
5.500000000000000028e-02 1.391850000000000032e-01 9.560694999999999055e+00 6.222845000000000226e+01 1.868199999999999818e+03
5.600000000000000117e-02 1.391359999999999819e-01 8.675769999999999982e+00 6.041530000000000200e+01 1.867784999999999854e+03
5.700000000000000205e-02 1.390790000000000082e-01 7.719470000000000276e+00 5.845329999999999870e+01 1.867304999999999836e+03
5.800000000000000294e-02 1.390164999999999873e-01 6.716974999999999696e+00 5.641485000000000127e+01 1.866764999999999873e+03
5.900000000000000383e-02 1.389495000000000036e-01 5.694259999999999877e+00 5.436755000000000138e+01 1.866195000000000164e+03
6.000000000000000472e-02 1.388809999999999767e-01 4.678269999999999484e+00 5.237470000000000425e+01 1.865605000000000018e+03
6.099999999999999867e-02 1.388134999999999786e-01 3.697140000000000093e+00 5.049710000000000321e+01 1.865019999999999982e+03
6.199999999999999956e-02 1.387480000000000102e-01 2.780247999999999831e+00 4.879449999999999932e+01 1.864460000000000036e+03
6.300000000000000044e-02 1.386875000000000191e-01 1.957998999999999823e+00 4.732750000000000057e+01 1.863940000000000055e+03
6.400000000000000133e-02 1.386344999999999938e-01 1.261226499999999806e+00 4.615680000000000405e+01 1.863474999999999909e+03
6.500000000000000222e-02 1.385905000000000054e-01 7.202234999999999054e-01 4.534215000000000373e+01 1.863090000000000146e+03
6.600000000000000311e-02 1.385580000000000145e-01 3.634664999999999702e-01 4.494025000000000603e+01 1.862804999999999836e+03
6.700000000000000400e-02 1.385385000000000089e-01 2.162630000000000385e-01 4.500124999999999886e+01 1.862630000000000109e+03
6.800000000000000488e-02 1.385349999999999915e-01 2.993234999999999646e-01 4.556610000000000582e+01 1.862585000000000036e+03
6.900000000000000577e-02 1.385474999999999901e-01 6.275727500000000125e-01 4.666275000000000261e+01 1.862680000000000064e+03
7.000000000000000666e-02 1.385780000000000067e-01 1.209199499999999983e+00 4.830440000000000111e+01 1.862930000000000064e+03
7.100000000000000755e-02 1.386270000000000002e-01 2.045140349999999607e+00 5.048789999999999623e+01 1.863329999999999927e+03
7.200000000000000844e-02 1.386939999999999840e-01 3.128928499999999779e+00 5.319330000000000069e+01 1.863894999999999982e+03
7.300000000000000933e-02 1.387789999999999857e-01 4.446975000000000122e+00 5.638499999999999801e+01 1.864610000000000127e+03
7.399999999999999634e-02 1.388814999999999911e-01 5.979255000000000209e+00 6.001314999999999600e+01 1.865474999999999909e+03
7.499999999999999722e-02 1.390000000000000124e-01 7.700235000000000163e+00 6.401680000000000348e+01 1.866485000000000127e+03
7.599999999999999811e-02 1.391319999999999779e-01 9.580085000000000406e+00 6.832659999999999911e+01 1.867605000000000018e+03
7.699999999999999900e-02 1.392754999999999965e-01 1.158602500000000113e+01 7.286875000000000568e+01 1.868835000000000036e+03
7.799999999999999989e-02 1.394289999999999974e-01 1.368372499999999903e+01 7.756815000000000282e+01 1.870150000000000091e+03
7.900000000000000078e-02 1.395885000000000042e-01 1.583874999999999922e+01 8.235229999999999961e+01 1.871529999999999973e+03
8.000000000000000167e-02 1.397535000000000027e-01 1.801780000000000115e+01 8.715409999999999968e+01 1.872954999999999927e+03
8.100000000000000255e-02 1.399210000000000176e-01 2.019004999999999939e+01 9.191474999999999795e+01 1.874405000000000200e+03
8.200000000000000344e-02 1.400885000000000047e-01 2.232784999999999798e+01 9.658504999999999541e+01 1.875860000000000127e+03
8.300000000000000433e-02 1.402550000000000185e-01 2.440784999999999982e+01 1.011276000000000010e+02 1.877315000000000055e+03
8.400000000000000522e-02 1.404185000000000016e-01 2.641100000000000136e+01 1.055173499999999933e+02 1.878744999999999891e+03
8.500000000000000611e-02 1.405790000000000095e-01 2.832310000000000016e+01 1.097385000000000019e+02 1.880144999999999982e+03
8.600000000000000699e-02 1.407345000000000124e-01 3.013429999999999964e+01 1.137890000000000015e+02 1.881514999999999873e+03
8.700000000000000788e-02 1.408849999999999825e-01 3.183889999999999887e+01 1.176724999999999994e+02 1.882840000000000146e+03
8.800000000000000877e-02 1.410305000000000031e-01 3.343480000000000274e+01 1.214009999999999962e+02 1.884125000000000000e+03
8.899999999999999578e-02 1.411715000000000053e-01 3.492280000000000229e+01 1.249899999999999949e+02 1.885375000000000000e+03
8.999999999999999667e-02 1.413079999999999892e-01 3.630564999999999998e+01 1.284569999999999936e+02 1.886585000000000036e+03
9.099999999999999756e-02 1.414409999999999834e-01 3.758764999999999645e+01 1.318205000000000098e+02 1.887764999999999873e+03
9.199999999999999845e-02 1.415700000000000014e-01 3.877344999999999686e+01 1.350960000000000036e+02 1.888909999999999854e+03
9.299999999999999933e-02 1.416959999999999886e-01 3.986799999999999500e+01 1.382969999999999970e+02 1.890029999999999973e+03
9.400000000000000022e-02 1.418190000000000006e-01 4.087554999999999694e+01 1.414304999999999950e+02 1.891130000000000109e+03
9.500000000000000111e-02 1.419389999999999818e-01 4.179964999999999975e+01 1.445020000000000095e+02 1.892210000000000036e+03
9.600000000000000200e-02 1.420569999999999888e-01 4.264260000000000161e+01 1.475099999999999909e+02 1.893264999999999873e+03
9.700000000000000289e-02 1.421729999999999938e-01 4.340574999999999761e+01 1.504499999999999886e+02 1.894300000000000182e+03
9.800000000000000377e-02 1.422864999999999824e-01 4.408910000000000196e+01 1.533120000000000118e+02 1.895309999999999945e+03
9.900000000000000466e-02 1.423965000000000092e-01 4.469169999999999732e+01 1.560840000000000032e+02 1.896295000000000073e+03
1.000000000000000056e-01 1.425029999999999908e-01 4.521155000000000257e+01 1.587515000000000214e+02 1.897255000000000109e+03
1.010000000000000064e-01 1.426064999999999972e-01 4.564605000000000246e+01 1.612980000000000018e+02 1.898179999999999836e+03
1.020000000000000073e-01 1.427049999999999985e-01 4.599200000000000443e+01 1.637069999999999936e+02 1.899069999999999936e+03
1.030000000000000082e-01 1.427994999999999959e-01 4.624599999999999511e+01 1.659619999999999891e+02 1.899914999999999964e+03
1.040000000000000091e-01 1.428880000000000150e-01 4.640474999999999994e+01 1.680464999999999804e+02 1.900715000000000146e+03
1.050000000000000100e-01 1.429705000000000004e-01 4.646524999999999750e+01 1.699465000000000146e+02 1.901464999999999918e+03
1.059999999999999970e-01 1.430470000000000075e-01 4.642499999999999716e+01 1.716505000000000223e+02 1.902150000000000091e+03
1.069999999999999979e-01 1.431165000000000076e-01 4.628244999999999720e+01 1.731485000000000127e+02 1.902785000000000082e+03
1.079999999999999988e-01 1.431790000000000007e-01 4.603690000000000282e+01 1.744340000000000259e+02 1.903349999999999909e+03
1.089999999999999997e-01 1.432340000000000002e-01 4.568890000000000384e+01 1.755034999999999741e+02 1.903845000000000027e+03
1.100000000000000006e-01 1.432815000000000061e-01 4.524049999999999727e+01 1.763574999999999875e+02 1.904279999999999973e+03
1.110000000000000014e-01 1.433210000000000039e-01 4.469490000000000407e+01 1.770009999999999764e+02 1.904644999999999982e+03
1.120000000000000023e-01 1.433530000000000082e-01 4.405705000000000382e+01 1.774399999999999977e+02 1.904934999999999945e+03
1.130000000000000032e-01 1.433769999999999767e-01 4.333305000000000007e+01 1.776860000000000070e+02 1.905164999999999964e+03
1.140000000000000041e-01 1.433949999999999947e-01 4.253055000000000518e+01 1.777529999999999859e+02 1.905335000000000036e+03
1.150000000000000050e-01 1.434059999999999779e-01 4.165825000000000244e+01 1.776580000000000155e+02 1.905440000000000055e+03
1.160000000000000059e-01 1.434104999999999963e-01 4.072560000000000002e+01 1.774189999999999827e+02 1.905490000000000009e+03
1.170000000000000068e-01 1.434100000000000097e-01 3.974300000000000210e+01 1.770559999999999832e+02 1.905485000000000127e+03
1.180000000000000077e-01 1.434039999999999759e-01 3.872084999999999866e+01 1.765889999999999986e+02 1.905444999999999936e+03
1.190000000000000085e-01 1.433944999999999803e-01 3.766995000000000005e+01 1.760395000000000039e+02 1.905360000000000127e+03
1.200000000000000094e-01 1.433805000000000218e-01 3.660060000000000002e+01 1.754254999999999995e+02 1.905244999999999891e+03
1.209999999999999964e-01 1.433639999999999914e-01 3.552250000000000085e+01 1.747660000000000196e+02 1.905099999999999909e+03
1.219999999999999973e-01 1.433450000000000002e-01 3.444474999999999909e+01 1.740759999999999934e+02 1.904934999999999945e+03
1.229999999999999982e-01 1.433244999999999936e-01 3.337514999999999787e+01 1.733695000000000164e+02 1.904750000000000000e+03
1.239999999999999991e-01 1.433030000000000137e-01 3.232059999999999889e+01 1.726585000000000036e+02 1.904559999999999945e+03
1.250000000000000000e-01 1.432800000000000185e-01 3.128640000000000043e+01 1.719490000000000123e+02 1.904360000000000127e+03
1.260000000000000009e-01 1.432574999999999821e-01 3.027669999999999817e+01 1.712464999999999975e+02 1.904150000000000091e+03
1.270000000000000018e-01 1.432335000000000136e-01 2.929410000000000025e+01 1.705540000000000020e+02 1.903940000000000055e+03
1.280000000000000027e-01 1.432100000000000040e-01 2.833999999999999986e+01 1.698704999999999927e+02 1.903724999999999909e+03
1.290000000000000036e-01 1.431864999999999943e-01 2.741434999999999889e+01 1.691929999999999836e+02 1.903509999999999991e+03
1.300000000000000044e-01 1.431624999999999981e-01 2.651604999999999990e+01 1.685169999999999959e+02 1.903295000000000073e+03
1.310000000000000053e-01 1.431379999999999875e-01 2.564284999999999926e+01 1.678350000000000080e+02 1.903075000000000045e+03
1.320000000000000062e-01 1.431135000000000046e-01 2.479184999999999661e+01 1.671394999999999982e+02 1.902855000000000018e+03
1.330000000000000071e-01 1.430885000000000074e-01 2.395925000000000082e+01 1.664215000000000089e+02 1.902630000000000109e+03
1.340000000000000080e-01 1.430624999999999813e-01 2.314095000000000013e+01 1.656715000000000089e+02 1.902389999999999873e+03
1.350000000000000089e-01 1.430349999999999955e-01 2.233245000000000147e+01 1.648804999999999836e+02 1.902144999999999982e+03
1.360000000000000098e-01 1.430064999999999809e-01 2.152929999999999922e+01 1.640380000000000109e+02 1.901884999999999991e+03
1.370000000000000107e-01 1.429759999999999920e-01 2.072719999999999985e+01 1.631374999999999886e+02 1.901610000000000127e+03
1.380000000000000115e-01 1.429435000000000011e-01 1.992210000000000036e+01 1.621709999999999923e+02 1.901320000000000164e+03
1.390000000000000124e-01 1.429090000000000082e-01 1.911050000000000182e+01 1.611324999999999932e+02 1.901005000000000109e+03
1.400000000000000133e-01 1.428709999999999980e-01 1.828965000000000174e+01 1.600190000000000055e+02 1.900674999999999955e+03
1.410000000000000142e-01 1.428315000000000001e-01 1.745759999999999934e+01 1.588274999999999864e+02 1.900320000000000164e+03
1.420000000000000151e-01 1.427889999999999993e-01 1.661325000000000074e+01 1.575595000000000141e+02 1.899940000000000055e+03
1.430000000000000160e-01 1.427434999999999954e-01 1.575659999999999883e+01 1.562169999999999845e+02 1.899539999999999964e+03
1.440000000000000169e-01 1.426959999999999895e-01 1.488884999999999970e+01 1.548044999999999902e+02 1.899115000000000009e+03
1.450000000000000178e-01 1.426459999999999950e-01 1.401190000000000069e+01 1.533305000000000007e+02 1.898664999999999964e+03
1.459999999999999909e-01 1.425929999999999975e-01 1.312899999999999956e+01 1.518034999999999854e+02 1.898200000000000045e+03
1.469999999999999918e-01 1.425389999999999990e-01 1.224408000000000030e+01 1.502344999999999970e+02 1.897715000000000146e+03
1.479999999999999927e-01 1.424829999999999985e-01 1.136199500000000029e+01 1.486365000000000123e+02 1.897215000000000146e+03
1.489999999999999936e-01 1.424254999999999827e-01 1.048807500000000026e+01 1.470235000000000127e+02 1.896710000000000036e+03
1.499999999999999944e-01 1.423674999999999802e-01 9.628109999999999502e+00 1.454089999999999918e+02 1.896195000000000164e+03
1.509999999999999953e-01 1.423095000000000054e-01 8.788074999999999193e+00 1.438075000000000045e+02 1.895675000000000182e+03
1.519999999999999962e-01 1.422515000000000029e-01 7.973819999999999908e+00 1.422334999999999923e+02 1.895155000000000200e+03
1.529999999999999971e-01 1.421939999999999871e-01 7.190999999999999837e+00 1.406990000000000123e+02 1.894644999999999982e+03
1.539999999999999980e-01 1.421375000000000000e-01 6.444690000000000474e+00 1.392155000000000200e+02 1.894144999999999982e+03
1.549999999999999989e-01 1.420825000000000005e-01 5.739370000000000083e+00 1.377934999999999945e+02 1.893654999999999973e+03
1.559999999999999998e-01 1.420290000000000163e-01 5.078680000000000305e+00 1.364389999999999930e+02 1.893179999999999836e+03
1.570000000000000007e-01 1.419785000000000075e-01 4.465370000000000061e+00 1.351585000000000036e+02 1.892730000000000018e+03
1.580000000000000016e-01 1.419294999999999862e-01 3.901215000000000099e+00 1.339544999999999959e+02 1.892295000000000073e+03
1.590000000000000024e-01 1.418834999999999957e-01 3.387040000000000273e+00 1.328285000000000196e+02 1.891880000000000109e+03
