# t [s], A [cm^2], U [cm/s], P [cPa], c [cm/s]
1.000000000000000021e-03 1.411240000000000272e-01 3.453574999999999839e-01 9.254760000000000275e+01 2.057284999999999854e+03
2.000000000000000042e-03 1.410875000000000046e-01 1.854435999999999751e+00 8.924314999999999998e+01 2.056869999999999891e+03
3.000000000000000062e-03 1.409874999999999878e-01 3.697391499999999720e+00 8.475710000000000832e+01 2.055774999999999636e+03
4.000000000000000083e-03 1.408504999999999896e-01 5.763653500000000207e+00 7.997409999999999286e+01 2.054289999999999964e+03
5.000000000000000104e-03 1.407039999999999957e-01 7.980900000000000105e+00 7.576750000000001251e+01 2.052724999999999909e+03
6.000000000000000125e-03 1.405629999999999935e-01 1.016480999999999923e+01 7.236379999999999768e+01 2.051225000000000364e+03
7.000000000000000146e-03 1.404305000000000136e-01 1.210255500000000062e+01 6.945445000000000846e+01 2.049849999999999909e+03
8.000000000000000167e-03 1.403085000000000027e-01 1.372918500000000108e+01 6.681145000000000778e+01 2.048605000000000018e+03
9.000000000000001055e-03 1.402010000000000201e-01 1.509270000000000067e+01 6.451224999999999454e+01 2.047519999999999982e+03
1.000000000000000194e-02 1.401094999999999979e-01 1.622640000000000171e+01 6.263009999999999877e+01 2.046610000000000127e+03
1.099999999999999936e-02 1.400345000000000062e-01 1.714320000000000022e+01 6.113065000000000282e+01 2.045865000000000009e+03
1.200000000000000025e-02 1.399735000000000007e-01 1.785604999999999976e+01 5.994859999999999900e+01 2.045275000000000091e+03
1.300000000000000114e-02 1.399239999999999928e-01 1.836785000000000068e+01 5.898349999999999937e+01 2.044799999999999955e+03
1.400000000000000203e-02 1.398824999999999930e-01 1.869030000000000058e+01 5.812444999999999595e+01 2.044414999999999964e+03
1.499999999999999944e-02 1.398484999999999867e-01 1.889375000000000071e+01 5.739215000000000089e+01 2.044095000000000255e+03
1.600000000000000033e-02 1.398250000000000048e-01 1.911870000000000047e+01 5.703770000000000095e+01 2.043885000000000218e+03
1.700000000000000122e-02 1.398199999999999998e-01 1.951619999999999777e+01 5.743845000000000312e+01 2.043844999999999800e+03
1.800000000000000211e-02 1.398400000000000198e-01 2.016394999999999982e+01 5.885000000000000142e+01 2.044049999999999955e+03
1.900000000000000300e-02 1.398864999999999970e-01 2.101729999999999876e+01 6.120109999999999673e+01 2.044510000000000218e+03
2.000000000000000042e-02 1.399520000000000208e-01 2.192524999999999835e+01 6.406640000000000157e+01 2.045170000000000073e+03
2.100000000000000130e-02 1.400250000000000106e-01 2.269290000000000163e+01 6.681440000000000623e+01 2.045909999999999854e+03
2.200000000000000219e-02 1.400905000000000067e-01 2.315625000000000000e+01 6.884114999999999895e+01 2.046585000000000036e+03
2.299999999999999961e-02 1.401370000000000116e-01 2.323714999999999975e+01 6.977590000000000714e+01 2.047074999999999818e+03
2.400000000000000050e-02 1.401585000000000192e-01 2.295889999999999986e+01 6.958124999999999716e+01 2.047319999999999936e+03
2.500000000000000139e-02 1.401560000000000028e-01 2.242410000000000281e+01 6.852150000000000318e+01 2.047325000000000045e+03
2.600000000000000228e-02 1.401364999999999972e-01 2.176684999999999803e+01 6.702774999999999750e+01 2.047144999999999982e+03
2.700000000000000316e-02 1.401080000000000103e-01 2.110235000000000127e+01 6.552509999999999479e+01 2.046875000000000000e+03
2.800000000000000058e-02 1.400794999999999957e-01 2.049295000000000044e+01 6.429230000000001155e+01 2.046585000000000036e+03
2.900000000000000147e-02 1.400534999999999974e-01 1.993950000000000244e+01 6.339925000000000210e+01 2.046324999999999818e+03
3.000000000000000236e-02 1.400319999999999898e-01 1.939654999999999774e+01 6.273004999999999853e+01 2.046105000000000018e+03
3.099999999999999978e-02 1.400109999999999966e-01 1.880194999999999794e+01 6.206719999999999970e+01 2.045890000000000100e+03
3.200000000000000067e-02 1.399870000000000003e-01 1.810849999999999937e+01 6.120000000000000284e+01 2.045650000000000091e+03
3.300000000000000155e-02 1.399565000000000115e-01 1.730855000000000032e+01 6.001930000000000121e+01 2.045355000000000018e+03
3.400000000000000244e-02 1.399199999999999888e-01 1.644375000000000142e+01 5.857005000000000194e+01 2.044990000000000009e+03
3.500000000000000333e-02 1.398780000000000023e-01 1.559779999999999944e+01 5.704909999999999570e+01 2.044575000000000045e+03
3.600000000000000422e-02 1.398385000000000045e-01 1.487495000000000189e+01 5.575000000000000000e+01 2.044179999999999836e+03
3.700000000000000511e-02 1.398075000000000012e-01 1.437154999999999916e+01 5.497525000000000261e+01 2.043860000000000127e+03
3.799999999999999906e-02 1.397915000000000130e-01 1.414894999999999925e+01 5.494565000000000055e+01 2.043684999999999945e+03
3.899999999999999994e-02 1.397950000000000026e-01 1.421754999999999924e+01 5.573449999999999704e+01 2.043700000000000045e+03
4.000000000000000083e-02 1.398174999999999835e-01 1.453330000000000055e+01 5.724405000000000143e+01 2.043914999999999964e+03
4.100000000000000172e-02 1.398570000000000091e-01 1.500799999999999912e+01 5.922690000000000055e+01 2.044295000000000073e+03
4.200000000000000261e-02 1.399070000000000036e-01 1.552745000000000175e+01 6.134015000000000128e+01 2.044775000000000091e+03
4.300000000000000350e-02 1.399575000000000125e-01 1.597289999999999921e+01 6.321574999999999989e+01 2.045284999999999854e+03
4.400000000000000439e-02 1.400020000000000153e-01 1.624034999999999940e+01 6.452750000000000341e+01 2.045730000000000018e+03
4.499999999999999833e-02 1.400315000000000032e-01 1.625419999999999732e+01 6.504054999999999609e+01 2.046029999999999745e+03
4.599999999999999922e-02 1.400405000000000122e-01 1.597344999999999970e+01 6.463715000000000543e+01 2.046139999999999873e+03
4.700000000000000011e-02 1.400264999999999982e-01 1.539114999999999966e+01 6.331634999999999991e+01 2.046009999999999991e+03
4.800000000000000100e-02 1.399894999999999889e-01 1.452865000000000073e+01 6.117334999999999923e+01 2.045650000000000091e+03
4.900000000000000189e-02 1.399305000000000132e-01 1.342684999999999995e+01 5.836764999999999759e+01 2.045079999999999927e+03
5.000000000000000278e-02 1.398550000000000071e-01 1.213751500000000050e+01 5.508849999999999625e+01 2.044320000000000164e+03
5.100000000000000366e-02 1.397645000000000137e-01 1.071603999999999957e+01 5.152590000000000003e+01 2.043429999999999836e+03
5.200000000000000455e-02 1.396664999999999990e-01 9.216664999999998997e+00 4.785150000000000148e+01 2.042440000000000055e+03
5.300000000000000544e-02 1.395629999999999926e-01 7.690974999999999895e+00 4.421134999999999593e+01 2.041404999999999973e+03
5.399999999999999939e-02 1.394589999999999996e-01 6.187594999999999956e+00 4.072670000000000101e+01 2.040360000000000127e+03
5.500000000000000028e-02 1.393574999999999953e-01 4.753524999999999778e+00 3.750104999999999933e+01 2.039340000000000146e+03
5.600000000000000117e-02 1.392629999999999979e-01 3.435233349999999852e+00 3.462829999999999586e+01 2.038384999999999991e+03
5.700000000000000205e-02 1.391775000000000095e-01 2.278953500000000076e+00 3.219879999999999853e+01 2.037519999999999982e+03
5.800000000000000294e-02 1.391040000000000054e-01 1.330049999999999955e+00 3.030185000000000173e+01 2.036769999999999982e+03
5.900000000000000383e-02 1.390454999999999885e-01 6.311999999999999833e-01 2.902369999999999806e+01 2.036164999999999964e+03
6.000000000000000472e-02 1.390045000000000031e-01 2.197974999999999790e-01 2.844214999999999804e+01 2.035740000000000009e+03
6.099999999999999867e-02 1.389830000000000232e-01 1.251224999999999976e-01 2.861899999999999977e+01 2.035509999999999991e+03
6.199999999999999956e-02 1.389839999999999964e-01 3.657603999999999855e-01 2.959219999999999828e+01 2.035500000000000000e+03
6.300000000000000044e-02 1.390075000000000061e-01 9.478119999999999878e-01 3.137035000000000196e+01 2.035710000000000036e+03
6.400000000000000133e-02 1.390550000000000119e-01 1.864138550000000061e+00 3.392950000000000443e+01 2.036159999999999854e+03
6.500000000000000222e-02 1.391240000000000254e-01 3.094751500000000100e+00 3.721365000000000123e+01 2.036829999999999927e+03
6.600000000000000311e-02 1.392145000000000188e-01 4.608204999999999885e+00 4.113824999999999932e+01 2.037719999999999800e+03
6.700000000000000400e-02 1.393240000000000034e-01 6.363754999999999384e+00 4.559649999999999892e+01 2.038799999999999955e+03
6.800000000000000488e-02 1.394489999999999896e-01 8.313905000000000101e+00 5.046665000000000134e+01 2.040045000000000073e+03
6.900000000000000577e-02 1.395874999999999755e-01 1.040733999999999959e+01 5.562030000000000030e+01 2.041425000000000182e+03
7.000000000000000666e-02 1.397355000000000125e-01 1.259157500000000063e+01 6.092994999999999806e+01 2.042904999999999745e+03
7.100000000000000755e-02 1.398889999999999856e-01 1.481559999999999988e+01 6.627584999999999127e+01 2.044450000000000045e+03
7.200000000000000844e-02 1.400454999999999894e-01 1.703239999999999910e+01 7.155240000000000578e+01 2.046025000000000091e+03
7.300000000000000933e-02 1.402009999999999923e-01 1.920094999999999885e+01 7.667284999999999684e+01 2.047610000000000127e+03
7.399999999999999634e-02 1.403540000000000065e-01 2.128800000000000026e+01 8.157265000000001010e+01 2.049159999999999854e+03
7.499999999999999722e-02 1.405020000000000158e-01 2.326905000000000001e+01 8.621174999999999500e+01 2.050675000000000182e+03
7.599999999999999811e-02 1.406439999999999912e-01 2.512910000000000110e+01 9.057480000000001041e+01 2.052130000000000109e+03
7.699999999999999900e-02 1.407795000000000019e-01 2.686234999999999928e+01 9.466979999999999507e+01 2.053519999999999982e+03
7.799999999999999989e-02 1.409079999999999777e-01 2.847145000000000081e+01 9.852439999999999998e+01 2.054845000000000255e+03
7.900000000000000078e-02 1.410310000000000175e-01 2.996620000000000061e+01 1.021830500000000086e+02 2.056109999999999673e+03
8.000000000000000167e-02 1.411485000000000101e-01 3.136159999999999926e+01 1.056981499999999983e+02 2.057329999999999927e+03
8.100000000000000255e-02 1.412619999999999987e-01 3.267564999999999742e+01 1.091270000000000095e+02 2.058505000000000109e+03
8.200000000000000344e-02 1.413734999999999853e-01 3.392764999999999986e+01 1.125254999999999939e+02 2.059664999999999964e+03
8.300000000000000433e-02 1.414839999999999987e-01 3.513564999999999827e+01 1.159399999999999977e+02 2.060804999999999836e+03
8.400000000000000522e-02 1.415945000000000120e-01 3.631534999999999513e+01 1.194074999999999989e+02 2.061949999999999818e+03
8.500000000000000611e-02 1.417059999999999986e-01 3.747830000000000439e+01 1.229495000000000005e+02 2.063110000000000127e+03
8.600000000000000699e-02 1.418194999999999872e-01 3.863139999999999930e+01 1.265729999999999933e+02 2.064279999999999745e+03
8.700000000000000788e-02 1.419345000000000190e-01 3.977649999999999864e+01 1.302694999999999936e+02 2.065470000000000255e+03
8.800000000000000877e-02 1.420514999999999972e-01 4.091044999999999732e+01 1.340165000000000077e+02 2.066675000000000182e+03
8.899999999999999578e-02 1.421689999999999898e-01 4.202524999999999977e+01 1.377785000000000082e+02 2.067894999999999982e+03
8.999999999999999667e-02 1.422864999999999824e-01 4.310925000000000296e+01 1.415130000000000052e+02 2.069114999999999782e+03
9.099999999999999756e-02 1.424030000000000018e-01 4.414770000000000039e+01 1.451700000000000159e+02 2.070324999999999818e+03
9.199999999999999845e-02 1.425170000000000048e-01 4.512380000000000280e+01 1.486970000000000027e+02 2.071510000000000218e+03
9.299999999999999933e-02 1.426270000000000038e-01 4.601989999999999981e+01 1.520405000000000086e+02 2.072654999999999745e+03
9.400000000000000022e-02 1.427315000000000111e-01 4.681855000000000189e+01 1.551519999999999868e+02 2.073750000000000000e+03
9.500000000000000111e-02 1.428290000000000115e-01 4.750319999999999965e+01 1.579855000000000018e+02 2.074775000000000091e+03
9.600000000000000200e-02 1.429190000000000182e-01 4.805949999999999989e+01 1.605045000000000073e+02 2.075720000000000255e+03
9.700000000000000289e-02 1.430000000000000160e-01 4.847594999999999743e+01 1.626800000000000068e+02 2.076570000000000164e+03
9.800000000000000377e-02 1.430710000000000037e-01 4.874429999999999552e+01 1.644925000000000068e+02 2.077314999999999600e+03
9.900000000000000466e-02 1.431315000000000226e-01 4.886029999999999518e+01 1.659340000000000259e+02 2.077954999999999927e+03
1.000000000000000056e-01 1.431810000000000027e-01 4.882385000000000019e+01 1.670060000000000002e+02 2.078484999999999673e+03
1.010000000000000064e-01 1.432194999999999996e-01 4.863904999999999745e+01 1.677210000000000036e+02 2.078904999999999745e+03
1.020000000000000073e-01 1.432474999999999998e-01 4.831404999999999461e+01 1.681014999999999873e+02 2.079210000000000036e+03
1.030000000000000082e-01 1.432660000000000045e-01 4.786065000000000680e+01 1.681779999999999973e+02 2.079409999999999854e+03
1.040000000000000091e-01 1.432749999999999857e-01 4.729370000000000118e+01 1.679879999999999995e+02 2.079519999999999982e+03
1.050000000000000100e-01 1.432765000000000011e-01 4.663060000000000116e+01 1.675740000000000123e+02 2.079545000000000073e+03
1.059999999999999970e-01 1.432700000000000085e-01 4.589034999999999798e+01 1.669809999999999945e+02 2.079489999999999782e+03
1.069999999999999979e-01 1.432585000000000108e-01 4.509260000000000446e+01 1.662554999999999836e+02 2.079380000000000109e+03
1.079999999999999988e-01 1.432424999999999948e-01 4.425714999999999577e+01 1.654420000000000073e+02 2.079215000000000146e+03
1.089999999999999997e-01 1.432229999999999892e-01 4.340279999999999916e+01 1.645825000000000102e+02 2.079019999999999982e+03
1.100000000000000006e-01 1.432015000000000093e-01 4.254664999999999964e+01 1.637135000000000105e+02 2.078795000000000073e+03
1.110000000000000014e-01 1.431790000000000007e-01 4.170380000000000109e+01 1.628659999999999854e+02 2.078565000000000055e+03
1.120000000000000023e-01 1.431560000000000055e-01 4.088660000000000139e+01 1.620649999999999977e+02 2.078329999999999927e+03
1.130000000000000032e-01 1.431339999999999835e-01 4.010425000000000040e+01 1.613265000000000100e+02 2.078105000000000018e+03
1.140000000000000041e-01 1.431129999999999902e-01 3.936299999999999955e+01 1.606589999999999918e+02 2.077885000000000218e+03
1.150000000000000050e-01 1.430945000000000134e-01 3.866550000000000153e+01 1.600639999999999930e+02 2.077680000000000291e+03
1.160000000000000059e-01 1.430759999999999810e-01 3.801135000000000019e+01 1.595360000000000014e+02 2.077489999999999782e+03
1.170000000000000068e-01 1.430600000000000205e-01 3.739724999999999966e+01 1.590625000000000000e+02 2.077315000000000055e+03
1.180000000000000077e-01 1.430444999999999911e-01 3.681719999999999970e+01 1.586250000000000000e+02 2.077154999999999745e+03
1.190000000000000085e-01 1.430305000000000049e-01 3.626304999999999978e+01 1.582024999999999864e+02 2.077005000000000109e+03
1.200000000000000094e-01 1.430164999999999909e-01 3.572504999999999598e+01 1.577690000000000055e+02 2.076855000000000018e+03
1.209999999999999964e-01 1.430020000000000180e-01 3.519259999999999877e+01 1.572984999999999900e+02 2.076699999999999818e+03
1.219999999999999973e-01 1.429865000000000164e-01 3.465474999999999994e+01 1.567644999999999982e+02 2.076534999999999854e+03
1.229999999999999982e-01 1.429690000000000127e-01 3.410069999999999624e+01 1.561430000000000007e+02 2.076349999999999909e+03
1.239999999999999991e-01 1.429489999999999927e-01 3.352074999999999960e+01 1.554125000000000227e+02 2.076140000000000327e+03
1.250000000000000000e-01 1.429254999999999831e-01 3.290675000000000239e+01 1.545560000000000116e+02 2.075899999999999636e+03
1.260000000000000009e-01 1.428989999999999982e-01 3.225249999999999773e+01 1.535615000000000236e+02 2.075625000000000000e+03
1.270000000000000018e-01 1.428685000000000094e-01 3.155400000000000205e+01 1.524240000000000066e+02 2.075309999999999945e+03
1.280000000000000027e-01 1.428340000000000165e-01 3.081015000000000015e+01 1.511455000000000268e+02 2.074954999999999927e+03
1.290000000000000036e-01 1.427960000000000063e-01 3.002250000000000085e+01 1.497330000000000041e+02 2.074559999999999945e+03
1.300000000000000044e-01 1.427529999999999910e-01 2.919515000000000171e+01 1.482019999999999982e+02 2.074114999999999782e+03
1.310000000000000053e-01 1.427074999999999871e-01 2.833509999999999707e+01 1.465724999999999909e+02 2.073650000000000091e+03
1.320000000000000062e-01 1.426589999999999803e-01 2.745129999999999981e+01 1.448700000000000045e+02 2.073144999999999982e+03
1.330000000000000071e-01 1.426080000000000125e-01 2.655450000000000088e+01 1.431245000000000118e+02 2.072619999999999891e+03
1.340000000000000080e-01 1.425560000000000160e-01 2.565690000000000026e+01 1.413675000000000068e+02 2.072085000000000036e+03
1.350000000000000089e-01 1.425035000000000052e-01 2.477134999999999820e+01 1.396315000000000168e+02 2.071534999999999854e+03
1.360000000000000098e-01 1.424509999999999943e-01 2.391080000000000183e+01 1.379495000000000005e+02 2.070994999999999891e+03
1.370000000000000107e-01 1.424005000000000132e-01 2.308765000000000001e+01 1.363505000000000109e+02 2.070470000000000255e+03
1.380000000000000115e-01 1.423519999999999786e-01 2.231340000000000146e+01 1.348625000000000114e+02 2.069965000000000146e+03
1.390000000000000124e-01 1.423059999999999881e-01 2.159779999999999944e+01 1.335070000000000050e+02 2.069489999999999782e+03
1.400000000000000133e-01 1.422640000000000016e-01 2.094885000000000019e+01 1.323019999999999925e+02 2.069050000000000182e+03
1.410000000000000142e-01 1.422265000000000057e-01 2.037230000000000274e+01 1.312584999999999980e+02 2.068650000000000091e+03
1.420000000000000151e-01 1.421924999999999994e-01 1.987154999999999916e+01 1.303824999999999932e+02 2.068300000000000182e+03
1.430000000000000160e-01 1.421640000000000126e-01 1.944754999999999967e+01 1.296740000000000066e+02 2.068000000000000000e+03
1.440000000000000169e-01 1.421399999999999886e-01 1.909924999999999784e+01 1.291270000000000095e+02 2.067739999999999782e+03
1.450000000000000178e-01 1.421205000000000107e-01 1.882325000000000159e+01 1.287315000000000111e+02 2.067534999999999854e+03
1.459999999999999909e-01 1.421060000000000101e-01 1.861444999999999794e+01 1.284735000000000014e+02 2.067375000000000000e+03
1.469999999999999918e-01 1.420949999999999991e-01 1.846625000000000227e+01 1.283360000000000127e+02 2.067260000000000218e+03
1.479999999999999927e-01 1.420879999999999921e-01 1.837105000000000032e+01 1.283004999999999995e+02 2.067175000000000182e+03
1.489999999999999936e-01 1.420835000000000015e-01 1.832034999999999769e+01 1.283470000000000084e+02 2.067130000000000109e+03
1.499999999999999944e-01 1.420819999999999861e-01 1.830550000000000210e+01 1.284549999999999841e+02 2.067105000000000018e+03
1.509999999999999953e-01 1.420825000000000005e-01 1.831770000000000209e+01 1.286055000000000064e+02 2.067110000000000127e+03
1.519999999999999962e-01 1.420845000000000025e-01 1.834844999999999970e+01 1.287810000000000059e+02 2.067125000000000000e+03
1.529999999999999971e-01 1.420874999999999777e-01 1.839000000000000057e+01 1.289649999999999750e+02 2.067154999999999745e+03
1.539999999999999980e-01 1.420914999999999817e-01 1.843520000000000181e+01 1.291435000000000173e+02 2.067189999999999600e+03
1.549999999999999989e-01 1.420949999999999991e-01 1.847804999999999964e+01 1.293054999999999950e+02 2.067225000000000364e+03
1.559999999999999998e-01 1.420985000000000165e-01 1.851359999999999673e+01 1.294420000000000073e+02 2.067264999999999873e+03
1.570000000000000007e-01 1.421020000000000061e-01 1.853795000000000215e+01 1.295484999999999900e+02 2.067295000000000073e+03
1.580000000000000016e-01 1.421044999999999947e-01 1.854864999999999853e+01 1.296200000000000045e+02 2.067319999999999709e+03
1.590000000000000024e-01 1.421060000000000101e-01 1.854420000000000002e+01 1.296580000000000155e+02 2.067340000000000146e+03
