# t [s], A [cm^2], U [cm/s], P [cPa], c [cm/s]
1.000000000000000021e-03 5.313010000000000232e-01 4.756200000000002093e-03 9.717599999999998772e+01 1.634125000000000000e+03
2.000000000000000042e-03 5.312930000000000152e-01 8.120949999999996574e-04 9.714920000000000755e+01 1.634119999999999891e+03
3.000000000000000062e-03 5.313440000000000385e-01 1.110549000000000119e-01 9.726785000000000991e+01 1.634150000000000091e+03
4.000000000000000083e-03 5.313809999999999922e-01 2.024963999999999931e-01 9.738110000000000355e+01 1.634179999999999836e+03
5.000000000000000104e-03 5.313495000000000301e-01 1.579524500000000220e-01 9.729050000000000864e+01 1.634160000000000082e+03
6.000000000000000125e-03 5.312909999999999577e-01 4.880299999999998528e-02 9.703764999999999930e+01 1.634105000000000018e+03
7.000000000000000146e-03 5.312365000000000004e-01 -6.241149999999995313e-02 9.671125000000000682e+01 1.634034999999999854e+03
8.000000000000000167e-03 5.311445000000000194e-01 -2.671049999999999258e-01 9.621139999999999759e+01 1.633920000000000073e+03
9.000000000000001055e-03 5.309965000000000934e-01 -6.089649999999998675e-01 9.545029999999999859e+01 1.633750000000000000e+03
1.000000000000000194e-02 5.307884999999999964e-01 -1.087870000000000115e+00 9.438464999999999350e+01 1.633505000000000109e+03
1.099999999999999936e-02 5.305039999999999756e-01 -1.727209999999999912e+00 9.294239999999999213e+01 1.633174999999999955e+03
1.200000000000000025e-02 5.301384999999999570e-01 -2.516309999999999825e+00 9.108715000000000828e+01 1.632740000000000009e+03
1.300000000000000114e-02 5.297290000000000054e-01 -3.346884999999999888e+00 8.891894999999999527e+01 1.632220000000000027e+03
1.400000000000000203e-02 5.293400000000000327e-01 -4.045188999999999702e+00 8.666534999999998945e+01 1.631660000000000082e+03
1.499999999999999944e-02 5.290219999999999922e-01 -4.461191999999999602e+00 8.457310000000001082e+01 1.631105000000000018e+03
1.600000000000000033e-02 5.287920000000000398e-01 -4.532119999999999926e+00 8.280019999999998959e+01 1.630615000000000009e+03
1.700000000000000122e-02 5.286294999999999744e-01 -4.290494999999999948e+00 8.137109999999999843e+01 1.630179999999999836e+03
1.800000000000000211e-02 5.284935000000000604e-01 -3.832829999999999959e+00 8.019360000000000355e+01 1.629795000000000073e+03
1.900000000000000300e-02 5.283424999999999372e-01 -3.273774000000000406e+00 7.911339999999999861e+01 1.629440000000000055e+03
2.000000000000000042e-02 5.281460000000000043e-01 -2.703712250000000150e+00 7.797939999999999827e+01 1.629074999999999818e+03
2.100000000000000130e-02 5.278975000000000195e-01 -2.162767000000000106e+00 7.669749999999999091e+01 1.628679999999999836e+03
2.200000000000000219e-02 5.276099999999999124e-01 -1.639100000000000001e+00 7.525379999999999825e+01 1.628255000000000109e+03
2.299999999999999961e-02 5.273079999999999989e-01 -1.090055000000000218e+00 7.370044999999998936e+01 1.627805000000000064e+03
2.400000000000000050e-02 5.270105000000000484e-01 -4.739599999999999369e-01 7.211679999999999779e+01 1.627345000000000027e+03
2.500000000000000139e-02 5.267304999999999904e-01 2.225350000000001494e-01 7.056399999999999295e+01 1.626884999999999991e+03
2.600000000000000228e-02 5.264594999999999692e-01 9.713300000000002488e-01 6.905409999999999116e+01 1.626429999999999836e+03
2.700000000000000316e-02 5.261795000000000222e-01 1.705560000000000187e+00 6.753914999999999225e+01 1.625974999999999909e+03
2.800000000000000058e-02 5.258625000000000105e-01 2.334550000000000125e+00 6.592150000000000887e+01 1.625494999999999891e+03
2.900000000000000147e-02 5.254809999999999759e-01 2.765830000000000233e+00 6.408029999999999404e+01 1.624974999999999909e+03
3.000000000000000236e-02 5.250159999999999272e-01 2.928269999999999929e+00 6.190615000000000379e+01 1.624380000000000109e+03
3.099999999999999978e-02 5.244624999999999426e-01 2.790589999999999460e+00 5.933520000000000039e+01 1.623690000000000055e+03
3.200000000000000067e-02 5.238329999999999931e-01 2.369615000000000471e+00 5.637250000000000227e+01 1.622920000000000073e+03
3.300000000000000155e-02 5.231544999999999668e-01 1.726354999999999862e+00 5.309779999999999944e+01 1.622069999999999936e+03
3.400000000000000244e-02 5.224634999999999696e-01 9.514949999999995356e-01 4.965295000000000414e+01 1.621170000000000073e+03
3.500000000000000333e-02 5.217975000000000252e-01 1.465050000000003294e-01 4.621659999999999968e+01 1.620259999999999991e+03
3.600000000000000422e-02 5.211915000000000298e-01 -5.939500000000004221e-01 4.297475000000000023e+01 1.619384999999999991e+03
3.700000000000000511e-02 5.206724999999999826e-01 -1.194300000000000139e+00 4.009530000000000172e+01 1.618585000000000036e+03
3.799999999999999906e-02 5.202584999999999571e-01 -1.603320000000000078e+00 3.771000000000000085e+01 1.617894999999999982e+03
3.899999999999999994e-02 5.199570000000000025e-01 -1.793525000000000258e+00 3.590630000000000166e+01 1.617345000000000027e+03
4.000000000000000083e-02 5.197699999999999543e-01 -1.756405000000000216e+00 3.472769999999999868e+01 1.616945000000000164e+03
4.100000000000000172e-02 5.196944999999999482e-01 -1.495536500000000046e+00 3.418084999999999951e+01 1.616704999999999927e+03
4.200000000000000261e-02 5.197245000000000337e-01 -1.019783499999999954e+00 3.424640000000000128e+01 1.616625000000000000e+03
4.300000000000000350e-02 5.198534999999999684e-01 -3.381300000000000416e-01 3.489010000000000389e+01 1.616694999999999936e+03
4.400000000000000439e-02 5.200755000000000239e-01 5.427049999999999930e-01 3.607160000000000366e+01 1.616925000000000182e+03
4.499999999999999833e-02 5.203845000000000276e-01 1.617930000000000090e+00 3.775014999999999787e+01 1.617284999999999854e+03
4.599999999999999922e-02 5.207760000000000167e-01 2.882164999999999644e+00 3.988510000000000133e+01 1.617779999999999973e+03
4.700000000000000011e-02 5.212425000000000530e-01 4.326150000000000162e+00 4.243449999999999989e+01 1.618384999999999991e+03
4.800000000000000100e-02 5.217754999999999477e-01 5.933989999999999654e+00 4.535150000000000148e+01 1.619099999999999909e+03
4.900000000000000189e-02 5.223649999999999682e-01 7.681617499999999765e+00 4.858235000000000525e+01 1.619909999999999854e+03
5.000000000000000278e-02 5.229975000000000041e-01 9.537225999999998649e+00 5.206489999999999441e+01 1.620795000000000073e+03
5.100000000000000366e-02 5.236600000000000144e-01 1.146324500000000057e+01 5.573045000000000471e+01 1.621740000000000009e+03
5.200000000000000455e-02 5.243370000000000530e-01 1.341913999999999874e+01 5.950645000000000095e+01 1.622730000000000018e+03
5.300000000000000544e-02 5.250170000000000670e-01 1.536504000000000048e+01 6.332110000000000127e+01 1.623744999999999891e+03
5.399999999999999939e-02 5.256874999999999742e-01 1.726454499999999825e+01 6.710824999999999818e+01 1.624764999999999873e+03
5.500000000000000028e-02 5.263390000000000013e-01 1.908760000000000190e+01 7.081175000000000352e+01 1.625775000000000091e+03
5.600000000000000117e-02 5.269654999999999756e-01 2.081149999999999878e+01 7.438880000000000337e+01 1.626769999999999982e+03
5.700000000000000205e-02 5.275649999999999507e-01 2.242184999999999917e+01 7.781144999999999357e+01 1.627724999999999909e+03
5.800000000000000294e-02 5.281350000000000211e-01 2.391185000000000116e+01 8.106725000000000136e+01 1.628654999999999973e+03
5.900000000000000383e-02 5.286784999999999402e-01 2.528140000000000143e+01 8.415764999999998963e+01 1.629545000000000073e+03
6.000000000000000472e-02 5.291989999999999750e-01 2.653600000000000136e+01 8.709604999999999109e+01 1.630394999999999982e+03
6.099999999999999867e-02 5.297005000000000186e-01 2.768509999999999849e+01 8.990514999999999191e+01 1.631215000000000146e+03
6.199999999999999956e-02 5.301894999999999802e-01 2.874109999999999943e+01 9.261365000000000691e+01 1.632009999999999991e+03
6.300000000000000044e-02 5.306714999999999627e-01 2.971770000000000067e+01 9.525440000000000396e+01 1.632780000000000200e+03
6.400000000000000133e-02 5.311514999999999986e-01 3.062914999999999921e+01 9.785925000000000296e+01 1.633539999999999964e+03
6.500000000000000222e-02 5.316345000000000098e-01 3.148890000000000100e+01 1.004585500000000025e+02 1.634299999999999955e+03
6.600000000000000311e-02 5.321249999999999591e-01 3.230880000000000507e+01 1.030777999999999963e+02 1.635059999999999945e+03
6.700000000000000400e-02 5.326250000000000151e-01 3.309799999999999898e+01 1.057359999999999900e+02 1.635824999999999818e+03
6.800000000000000488e-02 5.331354999999999844e-01 3.386234999999999928e+01 1.084429999999999978e+02 1.636599999999999909e+03
6.900000000000000577e-02 5.336560000000000192e-01 3.460379999999999967e+01 1.111999999999999886e+02 1.637389999999999873e+03
7.000000000000000666e-02 5.341839999999999922e-01 3.532050000000000267e+01 1.139979999999999905e+02 1.638194999999999936e+03
7.100000000000000755e-02 5.347155000000000102e-01 3.600665000000000049e+01 1.168195000000000050e+02 1.638994999999999891e+03
7.200000000000000844e-02 5.352445000000000119e-01 3.665355000000000274e+01 1.196384999999999934e+02 1.639804999999999836e+03
7.300000000000000933e-02 5.357650000000000468e-01 3.725005000000000166e+01 1.224240000000000066e+02 1.640599999999999909e+03
7.399999999999999634e-02 5.362710000000000532e-01 3.778374999999999773e+01 1.251400000000000006e+02 1.641389999999999873e+03
7.499999999999999722e-02 5.367554999999999410e-01 3.824184999999999945e+01 1.277500000000000000e+02 1.642144999999999982e+03
7.599999999999999811e-02 5.372114999999999529e-01 3.861225000000000307e+01 1.302179999999999893e+02 1.642869999999999891e+03
7.699999999999999900e-02 5.376345000000000152e-01 3.888434999999999775e+01 1.325124999999999886e+02 1.643554999999999836e+03
7.799999999999999989e-02 5.380194999999999839e-01 3.904954999999999643e+01 1.346049999999999898e+02 1.644180000000000064e+03
7.900000000000000078e-02 5.383629999999999249e-01 3.910179999999999723e+01 1.364745000000000061e+02 1.644755000000000109e+03
8.000000000000000167e-02 5.386630000000000029e-01 3.903810000000000002e+01 1.381059999999999945e+02 1.645264999999999873e+03
8.100000000000000255e-02 5.389185000000000780e-01 3.885815000000000197e+01 1.394914999999999736e+02 1.645704999999999927e+03
8.200000000000000344e-02 5.391304999999999570e-01 3.856504999999999939e+01 1.406324999999999932e+02 1.646090000000000146e+03
8.300000000000000433e-02 5.393000000000000016e-01 3.816429999999999723e+01 1.415349999999999966e+02 1.646400000000000091e+03
8.400000000000000522e-02 5.394300000000000761e-01 3.766445000000000221e+01 1.422124999999999773e+02 1.646644999999999982e+03
8.500000000000000611e-02 5.395235000000000447e-01 3.707630000000000337e+01 1.426839999999999975e+02 1.646835000000000036e+03
8.600000000000000699e-02 5.395855000000000512e-01 3.641259999999999764e+01 1.429719999999999800e+02 1.646974999999999909e+03
8.700000000000000788e-02 5.396205000000000584e-01 3.568744999999999834e+01 1.431034999999999968e+02 1.647054999999999836e+03
8.800000000000000877e-02 5.396339999999999471e-01 3.491604999999999848e+01 1.431069999999999993e+02 1.647105000000000018e+03
8.899999999999999578e-02 5.396309999999999718e-01 3.411375000000000313e+01 1.430120000000000005e+02 1.647119999999999891e+03
8.999999999999999667e-02 5.396164999999999434e-01 3.329579999999999984e+01 1.428469999999999800e+02 1.647110000000000127e+03
9.099999999999999756e-02 5.395955000000000057e-01 3.247625000000000028e+01 1.426409999999999911e+02 1.647079999999999927e+03
9.199999999999999845e-02 5.395725000000000104e-01 3.166795000000000115e+01 1.424170000000000016e+02 1.647034999999999854e+03
9.299999999999999933e-02 5.395495000000000152e-01 3.088145000000000095e+01 1.421970000000000027e+02 1.646990000000000009e+03
9.400000000000000022e-02 5.395305000000000240e-01 3.012509999999999977e+01 1.419960000000000093e+02 1.646940000000000055e+03
9.500000000000000111e-02 5.395164999999999544e-01 2.940444999999999709e+01 1.418260000000000218e+02 1.646904999999999973e+03
9.600000000000000200e-02 5.395079999999999876e-01 2.872240000000000038e+01 1.416920000000000073e+02 1.646865000000000009e+03
9.700000000000000289e-02 5.395045000000000535e-01 2.807914999999999850e+01 1.415949999999999989e+02 1.646835000000000036e+03
9.800000000000000377e-02 5.395054999999999712e-01 2.747230000000000061e+01 1.415310000000000059e+02 1.646815000000000055e+03
9.900000000000000466e-02 5.395094999999999752e-01 2.689730000000000132e+01 1.414895000000000209e+02 1.646800000000000182e+03
1.000000000000000056e-01 5.395124999999999504e-01 2.634785000000000110e+01 1.414599999999999795e+02 1.646784999999999854e+03
1.010000000000000064e-01 5.395130000000000203e-01 2.581634999999999991e+01 1.414265000000000043e+02 1.646769999999999982e+03
1.020000000000000073e-01 5.395075000000000287e-01 2.529429999999999978e+01 1.413735000000000070e+02 1.646750000000000000e+03
1.030000000000000082e-01 5.394930000000000003e-01 2.477309999999999945e+01 1.412835000000000036e+02 1.646719999999999800e+03
1.040000000000000091e-01 5.394674999999999887e-01 2.424419999999999931e+01 1.411405000000000030e+02 1.646684999999999945e+03
1.050000000000000100e-01 5.394274999999999487e-01 2.369975000000000165e+01 1.409295000000000186e+02 1.646630000000000109e+03
1.059999999999999970e-01 5.393715000000000037e-01 2.313325000000000031e+01 1.406380000000000052e+02 1.646555000000000064e+03
1.069999999999999979e-01 5.392979999999999441e-01 2.253934999999999889e+01 1.402570000000000050e+02 1.646454999999999927e+03
1.079999999999999988e-01 5.392069999999999919e-01 2.191469999999999985e+01 1.397805000000000177e+02 1.646329999999999927e+03
1.089999999999999997e-01 5.390969999999999374e-01 2.125804999999999723e+01 1.392069999999999936e+02 1.646184999999999945e+03
1.100000000000000006e-01 5.389705000000000190e-01 2.057010000000000005e+01 1.385384999999999991e+02 1.646009999999999991e+03
1.110000000000000014e-01 5.388280000000000847e-01 1.985369999999999990e+01 1.377830000000000155e+02 1.645815000000000055e+03
1.120000000000000023e-01 5.386724999999999985e-01 1.911379999999999768e+01 1.369495000000000005e+02 1.645590000000000146e+03
1.130000000000000032e-01 5.385064999999999991e-01 1.835715000000000074e+01 1.360534999999999854e+02 1.645355000000000018e+03
1.140000000000000041e-01 5.383335000000000203e-01 1.759190000000000254e+01 1.351114999999999782e+02 1.645105000000000018e+03
1.150000000000000050e-01 5.381564999999999266e-01 1.682755000000000223e+01 1.341435000000000173e+02 1.644845000000000027e+03
1.160000000000000059e-01 5.379804999999999726e-01 1.607430000000000092e+01 1.331694999999999993e+02 1.644574999999999818e+03
1.170000000000000068e-01 5.378080000000000638e-01 1.534250000000000114e+01 1.322110000000000127e+02 1.644309999999999945e+03
1.180000000000000077e-01 5.376440000000000108e-01 1.464242000000000132e+01 1.312889999999999873e+02 1.644049999999999955e+03
1.190000000000000085e-01 5.374915000000000109e-01 1.398364499999999921e+01 1.304225000000000136e+02 1.643805000000000064e+03
1.200000000000000094e-01 5.373529999999999696e-01 1.337456500000000048e+01 1.296289999999999907e+02 1.643574999999999818e+03
1.209999999999999964e-01 5.372305000000000552e-01 1.282232499999999931e+01 1.289219999999999970e+02 1.643365000000000009e+03
1.219999999999999973e-01 5.371270000000000211e-01 1.233220500000000008e+01 1.283125000000000000e+02 1.643180000000000064e+03
1.229999999999999982e-01 5.370424999999999782e-01 1.190755500000000033e+01 1.278064999999999998e+02 1.643019999999999982e+03
1.239999999999999991e-01 5.369774999999999965e-01 1.154983000000000004e+01 1.274085000000000036e+02 1.642889999999999873e+03
1.250000000000000000e-01 5.369310000000000471e-01 1.125844000000000023e+01 1.271159999999999854e+02 1.642784999999999854e+03
1.260000000000000009e-01 5.369014999999999205e-01 1.103088999999999942e+01 1.269249999999999972e+02 1.642704999999999927e+03
1.270000000000000018e-01 5.368884999999999907e-01 1.086309999999999931e+01 1.268269999999999982e+02 1.642654999999999973e+03
1.280000000000000027e-01 5.368895000000000195e-01 1.074963999999999942e+01 1.268110000000000070e+02 1.642630000000000109e+03
1.290000000000000036e-01 5.369014999999999205e-01 1.068388000000000027e+01 1.268644999999999925e+02 1.642619999999999891e+03
1.300000000000000044e-01 5.369224999999999692e-01 1.065852500000000092e+01 1.269739999999999895e+02 1.642630000000000109e+03
1.310000000000000053e-01 5.369500000000000384e-01 1.066592999999999947e+01 1.271250000000000000e+02 1.642650000000000091e+03
1.320000000000000062e-01 5.369810000000000416e-01 1.069836499999999901e+01 1.273029999999999973e+02 1.642684999999999945e+03
1.330000000000000071e-01 5.370139999999999914e-01 1.074840999999999980e+01 1.274939999999999998e+02 1.642724999999999909e+03
1.340000000000000080e-01 5.370460000000000234e-01 1.080908000000000158e+01 1.276870000000000118e+02 1.642764999999999873e+03
1.350000000000000089e-01 5.370755000000000390e-01 1.087406000000000006e+01 1.278710000000000093e+02 1.642809999999999945e+03
1.360000000000000098e-01 5.371015000000000095e-01 1.093802499999999966e+01 1.280374999999999943e+02 1.642849999999999909e+03
1.370000000000000107e-01 5.371230000000000171e-01 1.099652500000000011e+01 1.281804999999999950e+02 1.642889999999999873e+03
1.380000000000000115e-01 5.371394999999999920e-01 1.104605000000000103e+01 1.282964999999999804e+02 1.642920000000000073e+03
1.390000000000000124e-01 5.371505000000000862e-01 1.108417999999999992e+01 1.283820000000000050e+02 1.642940000000000055e+03
1.400000000000000133e-01 5.371565000000000367e-01 1.110946999999999996e+01 1.284379999999999882e+02 1.642960000000000036e+03
1.410000000000000142e-01 5.371574999999999545e-01 1.112131499999999917e+01 1.284654999999999916e+02 1.642970000000000027e+03
1.420000000000000151e-01 5.371540000000000203e-01 1.111992499999999851e+01 1.284675000000000011e+02 1.642974999999999909e+03
1.430000000000000160e-01 5.371479999999999588e-01 1.110623999999999967e+01 1.284480000000000075e+02 1.642970000000000027e+03
1.440000000000000169e-01 5.371394999999999920e-01 1.108177500000000038e+01 1.284119999999999777e+02 1.642965000000000146e+03
1.450000000000000178e-01 5.371285000000000087e-01 1.104841499999999854e+01 1.283645000000000209e+02 1.642954999999999927e+03
1.459999999999999909e-01 5.371179999999999843e-01 1.100848000000000049e+01 1.283109999999999786e+02 1.642944999999999936e+03
1.469999999999999918e-01 5.371074999999999600e-01 1.096427999999999869e+01 1.282565000000000168e+02 1.642929999999999836e+03
1.479999999999999927e-01 5.370984999999999232e-01 1.091817499999999974e+01 1.282065000000000055e+02 1.642920000000000073e+03
1.489999999999999936e-01 5.370915000000000550e-01 1.087251499999999993e+01 1.281649999999999920e+02 1.642909999999999854e+03
1.499999999999999944e-01 5.370869999999999811e-01 1.082933500000000038e+01 1.281359999999999957e+02 1.642900000000000091e+03
1.509999999999999953e-01 5.370859999999999523e-01 1.079021499999999989e+01 1.281219999999999857e+02 1.642900000000000091e+03
1.519999999999999962e-01 5.370874999999999400e-01 1.075654499999999913e+01 1.281245000000000118e+02 1.642900000000000091e+03
1.529999999999999971e-01 5.370924999999999727e-01 1.072909500000000094e+01 1.281444999999999936e+02 1.642904999999999973e+03
1.539999999999999980e-01 5.371004999999999807e-01 1.070824999999999960e+01 1.281809999999999832e+02 1.642914999999999964e+03
1.549999999999999989e-01 5.371114999999999640e-01 1.069393999999999956e+01 1.282330000000000041e+02 1.642924999999999955e+03
1.559999999999999998e-01 5.371250000000000746e-01 1.068566500000000019e+01 1.282984999999999900e+02 1.642945000000000164e+03
1.570000000000000007e-01 5.371399999999999508e-01 1.068260499999999880e+01 1.283750000000000000e+02 1.642960000000000036e+03
1.580000000000000016e-01 5.371559999999999668e-01 1.068367999999999896e+01 1.284585000000000150e+02 1.642985000000000127e+03
1.590000000000000024e-01 5.371725000000000527e-01 1.068767500000000048e+01 1.285459999999999923e+02 1.643009999999999991e+03
