# t [s], A [cm^2], U [cm/s], P [cPa], c [cm/s]
1.000000000000000021e-03 6.016015000000000112e-01 5.332249999999996715e-03 1.065765000000000100e+02 1.593275000000000091e+03
2.000000000000000042e-03 6.015915000000000568e-01 -2.273371000000000159e-03 1.065519999999999925e+02 1.593269999999999982e+03
3.000000000000000062e-03 6.016325000000000145e-01 6.934975000000001555e-02 1.066285000000000025e+02 1.593289999999999964e+03
4.000000000000000083e-03 6.016825000000000090e-01 1.630665499999999768e-01 1.067489999999999952e+02 1.593315000000000055e+03
5.000000000000000104e-03 6.016755000000000297e-01 1.649384999999999879e-01 1.067415000000000020e+02 1.593320000000000164e+03
6.000000000000000125e-03 6.016234999999999777e-01 8.538850000000000606e-02 1.065800000000000125e+02 1.593284999999999854e+03
7.000000000000000146e-03 6.015755000000000408e-01 8.915499999999965119e-03 1.063599999999999994e+02 1.593240000000000009e+03
8.000000000000000167e-03 6.015169999999999684e-01 -9.529949999999998145e-02 1.060639999999999930e+02 1.593174999999999955e+03
9.000000000000001055e-03 6.014139999999998931e-01 -2.932599999999999651e-01 1.056059999999999945e+02 1.593079999999999927e+03
1.000000000000000194e-02 6.012595000000000578e-01 -5.990449999999999386e-01 1.049380000000000024e+02 1.592934999999999945e+03
1.099999999999999936e-02 6.010424999999999240e-01 -1.024469999999999992e+00 1.040124999999999886e+02 1.592735000000000127e+03
1.200000000000000025e-02 6.007480000000000597e-01 -1.584325000000000205e+00 1.027716000000000065e+02 1.592465000000000146e+03
1.300000000000000114e-02 6.003849999999999465e-01 -2.245560000000000223e+00 1.012153999999999883e+02 1.592119999999999891e+03
1.400000000000000203e-02 5.999924999999999287e-01 -2.908774999999999888e+00 9.943975000000000364e+01 1.591710000000000036e+03
1.499999999999999944e-02 5.996230000000000171e-01 -3.448095000000000354e+00 9.760470000000000823e+01 1.591275000000000091e+03
1.600000000000000033e-02 5.993119999999999559e-01 -3.767226999999999659e+00 9.586400000000000432e+01 1.590839999999999918e+03
1.700000000000000122e-02 5.990655000000000285e-01 -3.830392449999999727e+00 9.430664999999999054e+01 1.590429999999999836e+03
1.800000000000000211e-02 5.988655000000000506e-01 -3.660689000000000082e+00 9.294114999999999327e+01 1.590049999999999955e+03
1.900000000000000300e-02 5.986804999999999488e-01 -3.318411999999999917e+00 9.171150000000000091e+01 1.589695000000000164e+03
2.000000000000000042e-02 5.984795000000000531e-01 -2.873641999999999808e+00 9.052889999999999304e+01 1.589344999999999800e+03
2.100000000000000130e-02 5.982414999999999816e-01 -2.382590500000000056e+00 8.930795000000000528e+01 1.588985000000000127e+03
2.200000000000000219e-02 5.979605000000000059e-01 -1.873420000000000085e+00 8.799450000000000216e+01 1.588610000000000127e+03
2.299999999999999961e-02 5.976460000000000106e-01 -1.344579999999999886e+00 8.657829999999999870e+01 1.588204999999999927e+03
2.400000000000000050e-02 5.973135000000000527e-01 -7.750049999999997219e-01 8.508760000000000900e+01 1.587784999999999854e+03
2.500000000000000139e-02 5.969809999999999839e-01 -1.410699999999995846e-01 8.356970000000001164e+01 1.587360000000000127e+03
2.600000000000000228e-02 5.966584999999999805e-01 5.670299999999999230e-01 8.206669999999999732e+01 1.586929999999999836e+03
2.700000000000000316e-02 5.963450000000000140e-01 1.335274999999999990e+00 8.059584999999999866e+01 1.586509999999999991e+03
2.800000000000000058e-02 5.960285000000000721e-01 2.124405000000000321e+00 7.913994999999999891e+01 1.586085000000000036e+03
2.900000000000000147e-02 5.956909999999999705e-01 2.876210000000000377e+00 7.764914999999999168e+01 1.585655000000000200e+03
3.000000000000000236e-02 5.953110000000000346e-01 3.525104999999999933e+00 7.605254999999999654e+01 1.585204999999999927e+03
3.099999999999999978e-02 5.948700000000000099e-01 4.011829999999999785e+00 7.427609999999999957e+01 1.584720000000000027e+03
3.200000000000000067e-02 5.943585000000000118e-01 4.296240000000000059e+00 7.226285000000000025e+01 1.584184999999999945e+03
3.300000000000000155e-02 5.937784999999999869e-01 4.365645000000000664e+00 6.998939999999998918e+01 1.583595000000000027e+03
3.400000000000000244e-02 5.931444999999999634e-01 4.237059999999999604e+00 6.747525000000000261e+01 1.582954999999999927e+03
3.500000000000000333e-02 5.924795000000000478e-01 3.952644999999999964e+00 6.478230000000000643e+01 1.582275000000000091e+03
3.600000000000000422e-02 5.918109999999999760e-01 3.570245000000000335e+00 6.200504999999999711e+01 1.581570000000000164e+03
3.700000000000000511e-02 5.911680000000000268e-01 3.152069999999999705e+00 5.925554999999999950e+01 1.580860000000000127e+03
3.799999999999999906e-02 5.905764999999999487e-01 2.755199999999999871e+00 5.664685000000000059e+01 1.580179999999999836e+03
3.899999999999999994e-02 5.900539999999999674e-01 2.425040000000000084e+00 5.428025000000000233e+01 1.579549999999999955e+03
4.000000000000000083e-02 5.896139999999999715e-01 2.192990000000000439e+00 5.223539999999999850e+01 1.578989999999999782e+03
4.100000000000000172e-02 5.892625000000000224e-01 2.077004999999999768e+00 5.056749999999999545e+01 1.578514999999999873e+03
4.200000000000000261e-02 5.890024999999999844e-01 2.084855000000000125e+00 4.930754999999999910e+01 1.578135000000000218e+03
4.300000000000000350e-02 5.888315000000000632e-01 2.218104999999999993e+00 4.846684999999999377e+01 1.577860000000000127e+03
4.400000000000000439e-02 5.887474999999999792e-01 2.476109500000000185e+00 4.804260000000000019e+01 1.577690000000000055e+03
4.499999999999999833e-02 5.887485000000000079e-01 2.858954999999999913e+00 4.802424999999999500e+01 1.577619999999999891e+03
4.599999999999999922e-02 5.888320000000000221e-01 3.368879999999999875e+00 4.839775000000000205e+01 1.577650000000000091e+03
4.700000000000000011e-02 5.889960000000000750e-01 4.009974999999999845e+00 4.914894999999999925e+01 1.577784999999999854e+03
4.800000000000000100e-02 5.892395000000000271e-01 4.786640000000000228e+00 5.026335000000000264e+01 1.578014999999999873e+03
4.900000000000000189e-02 5.895599999999999730e-01 5.701309999999999434e+00 5.172525000000000261e+01 1.578335000000000036e+03
5.000000000000000278e-02 5.899524999999999908e-01 6.752314999999999401e+00 5.351559999999999917e+01 1.578740000000000009e+03
5.100000000000000366e-02 5.904125000000000068e-01 7.932190000000000296e+00 5.560949999999999704e+01 1.579230000000000018e+03
5.200000000000000455e-02 5.909299999999999553e-01 9.227389999999999759e+00 5.797530000000000427e+01 1.579795000000000073e+03
5.300000000000000544e-02 5.914975000000000094e-01 1.061833999999999989e+01 6.057385000000000019e+01 1.580420000000000073e+03
5.399999999999999939e-02 5.921020000000000172e-01 1.208126500000000192e+01 6.336009999999999565e+01 1.581105000000000018e+03
5.500000000000000028e-02 5.927324999999999955e-01 1.358956000000000053e+01 6.628489999999999327e+01 1.581829999999999927e+03
5.600000000000000117e-02 5.933775000000000022e-01 1.511641000000000012e+01 6.929800000000000182e+01 1.582589999999999918e+03
5.700000000000000205e-02 5.940259999999999430e-01 1.663628500000000088e+01 7.235124999999999318e+01 1.583365000000000009e+03
5.800000000000000294e-02 5.946704999999999908e-01 1.812700000000000244e+01 7.540129999999999200e+01 1.584154999999999973e+03
5.900000000000000383e-02 5.953040000000000553e-01 1.957039999999999935e+01 7.841190000000000282e+01 1.584940000000000055e+03
6.000000000000000472e-02 5.959214999999999929e-01 2.095299999999999940e+01 8.135540000000000305e+01 1.585719999999999800e+03
6.099999999999999867e-02 5.965205000000000091e-01 2.226619999999999777e+01 8.421350000000001046e+01 1.586484999999999900e+03
6.199999999999999956e-02 5.971009999999999929e-01 2.350544999999999973e+01 8.697660000000000480e+01 1.587230000000000018e+03
6.300000000000000044e-02 5.976630000000000553e-01 2.466980000000000217e+01 8.964334999999999809e+01 1.587954999999999927e+03
6.400000000000000133e-02 5.982089999999999907e-01 2.576124999999999687e+01 9.221890000000000498e+01 1.588659999999999854e+03
6.500000000000000222e-02 5.987415000000000376e-01 2.678340000000000032e+01 9.471280000000000143e+01 1.589349999999999909e+03
6.600000000000000311e-02 5.992640000000000189e-01 2.774130000000000251e+01 9.713920000000000243e+01 1.590019999999999982e+03
6.700000000000000400e-02 5.997780000000000333e-01 2.864029999999999987e+01 9.951130000000000564e+01 1.590675000000000182e+03
6.800000000000000488e-02 6.002870000000000150e-01 2.948550000000000182e+01 1.018442000000000007e+02 1.591319999999999936e+03
6.900000000000000577e-02 6.007940000000000502e-01 3.028135000000000332e+01 1.041499499999999898e+02 1.591960000000000036e+03
7.000000000000000666e-02 6.012994999999999868e-01 3.103099999999999881e+01 1.064369999999999976e+02 1.592594999999999800e+03
7.100000000000000755e-02 6.018034999999999357e-01 3.173624999999999829e+01 1.087115000000000009e+02 1.593220000000000027e+03
7.200000000000000844e-02 6.023060000000000080e-01 3.239714999999999634e+01 1.109739999999999895e+02 1.593849999999999909e+03
7.300000000000000933e-02 6.028054999999999941e-01 3.301219999999999999e+01 1.132199999999999989e+02 1.594470000000000027e+03
7.399999999999999634e-02 6.032994999999999886e-01 3.357845000000000368e+01 1.154420000000000073e+02 1.595085000000000036e+03
7.499999999999999722e-02 6.037844999999999462e-01 3.409174999999999756e+01 1.176274999999999977e+02 1.595695000000000164e+03
7.599999999999999811e-02 6.042579999999999618e-01 3.454710000000000036e+01 1.197614999999999981e+02 1.596285000000000082e+03
7.699999999999999900e-02 6.047150000000000025e-01 3.493935000000000457e+01 1.218280000000000030e+02 1.596865000000000009e+03
7.799999999999999989e-02 6.051524999999999821e-01 3.526340000000000430e+01 1.238100000000000023e+02 1.597420000000000073e+03
7.900000000000000078e-02 6.055665000000000076e-01 3.551449999999999818e+01 1.256890000000000072e+02 1.597954999999999927e+03
8.000000000000000167e-02 6.059535000000000338e-01 3.568860000000000099e+01 1.274500000000000028e+02 1.598460000000000036e+03
8.100000000000000255e-02 6.063119999999999621e-01 3.578289999999999793e+01 1.290784999999999911e+02 1.598925000000000182e+03
8.200000000000000344e-02 6.066384999999999694e-01 3.579545000000000243e+01 1.305645000000000095e+02 1.599365000000000009e+03
8.300000000000000433e-02 6.069325000000000969e-01 3.572549999999999670e+01 1.318985000000000127e+02 1.599755000000000109e+03
8.400000000000000522e-02 6.071925000000000239e-01 3.557365000000000066e+01 1.330745000000000005e+02 1.600115000000000009e+03
8.500000000000000611e-02 6.074180000000000135e-01 3.534165000000000134e+01 1.340914999999999964e+02 1.600430000000000064e+03
8.600000000000000699e-02 6.076094999999999136e-01 3.503235000000000099e+01 1.349490000000000123e+02 1.600700000000000045e+03
8.700000000000000788e-02 6.077679999999999749e-01 3.464999999999999858e+01 1.356510000000000105e+02 1.600924999999999955e+03
8.800000000000000877e-02 6.078950000000000742e-01 3.419984999999999786e+01 1.362035000000000196e+02 1.601115000000000009e+03
8.899999999999999578e-02 6.079930000000000057e-01 3.368840000000000146e+01 1.366159999999999854e+02 1.601269999999999982e+03
8.999999999999999667e-02 6.080635000000000900e-01 3.312295000000000300e+01 1.368990000000000009e+02 1.601384999999999991e+03
9.099999999999999756e-02 6.081095000000000805e-01 3.251170000000000471e+01 1.370654999999999859e+02 1.601460000000000036e+03
9.199999999999999845e-02 6.081350000000000922e-01 3.186355000000000004e+01 1.371304999999999836e+02 1.601509999999999991e+03
9.299999999999999933e-02 6.081425000000000303e-01 3.118764999999999787e+01 1.371089999999999804e+02 1.601539999999999964e+03
9.400000000000000022e-02 6.081360000000000099e-01 3.049319999999999808e+01 1.370165000000000077e+02 1.601539999999999964e+03
9.500000000000000111e-02 6.081185000000000063e-01 2.978925000000000267e+01 1.368695000000000164e+02 1.601525000000000091e+03
9.600000000000000200e-02 6.080935000000000645e-01 2.908404999999999774e+01 1.366829999999999927e+02 1.601494999999999891e+03
9.700000000000000289e-02 6.080624999999999503e-01 2.838510000000000133e+01 1.364694999999999823e+02 1.601450000000000045e+03
9.800000000000000377e-02 6.080289999999999306e-01 2.769849999999999923e+01 1.362425000000000068e+02 1.601405000000000200e+03
9.900000000000000466e-02 6.079939999999999234e-01 2.702895000000000181e+01 1.360090000000000146e+02 1.601349999999999909e+03
1.000000000000000056e-01 6.079590000000000272e-01 2.637980000000000302e+01 1.357775000000000034e+02 1.601300000000000182e+03
1.010000000000000064e-01 6.079239999999999089e-01 2.575250000000000128e+01 1.355509999999999877e+02 1.601240000000000009e+03
1.020000000000000073e-01 6.078890000000000127e-01 2.514705000000000013e+01 1.353294999999999959e+02 1.601180000000000064e+03
1.030000000000000082e-01 6.078535000000000466e-01 2.456210000000000093e+01 1.351134999999999877e+02 1.601125000000000000e+03
1.040000000000000091e-01 6.078164999999999818e-01 2.399504999999999910e+01 1.348965000000000032e+02 1.601065000000000055e+03
1.050000000000000100e-01 6.077764999999999418e-01 2.344219999999999970e+01 1.346734999999999900e+02 1.601005000000000109e+03
1.059999999999999970e-01 6.077310000000000212e-01 2.289934999999999832e+01 1.344375000000000000e+02 1.600940000000000055e+03
1.069999999999999979e-01 6.076794999999999281e-01 2.236175000000000068e+01 1.341800000000000068e+02 1.600869999999999891e+03
1.079999999999999988e-01 6.076190000000000202e-01 2.182455000000000211e+01 1.338919999999999959e+02 1.600795000000000073e+03
1.089999999999999997e-01 6.075490000000000057e-01 2.128314999999999912e+01 1.335660000000000025e+02 1.600710000000000036e+03
1.100000000000000006e-01 6.074669999999999792e-01 2.073310000000000031e+01 1.331945000000000050e+02 1.600610000000000127e+03
1.110000000000000014e-01 6.073729999999999407e-01 2.017085000000000150e+01 1.327715000000000032e+02 1.600500000000000000e+03
1.120000000000000023e-01 6.072655000000000136e-01 1.959339999999999904e+01 1.322914999999999850e+02 1.600380000000000109e+03
1.130000000000000032e-01 6.071440000000000170e-01 1.899889999999999901e+01 1.317524999999999977e+02 1.600240000000000009e+03
1.140000000000000041e-01 6.070090000000000208e-01 1.838635000000000019e+01 1.311535000000000082e+02 1.600085000000000036e+03
1.150000000000000050e-01 6.068614999999999426e-01 1.775614999999999810e+01 1.304960000000000093e+02 1.599920000000000073e+03
1.160000000000000059e-01 6.067020000000000746e-01 1.710965000000000202e+01 1.297839999999999918e+02 1.599730000000000018e+03
1.170000000000000068e-01 6.065320000000000711e-01 1.644955000000000211e+01 1.290219999999999914e+02 1.599534999999999854e+03
1.180000000000000077e-01 6.063540000000000596e-01 1.577945000000000064e+01 1.282194999999999823e+02 1.599329999999999927e+03
1.190000000000000085e-01 6.061695000000000277e-01 1.510399999999999920e+01 1.273859999999999957e+02 1.599115000000000009e+03
1.200000000000000094e-01 6.059820000000000206e-01 1.442871500000000040e+01 1.265314999999999941e+02 1.598889999999999873e+03
1.209999999999999964e-01 6.057939999999999436e-01 1.375951500000000038e+01 1.256690000000000111e+02 1.598664999999999964e+03
1.219999999999999973e-01 6.056075000000000763e-01 1.310297000000000089e+01 1.248109999999999928e+02 1.598440000000000055e+03
1.229999999999999982e-01 6.054265000000000896e-01 1.246554500000000054e+01 1.239710000000000036e+02 1.598210000000000036e+03
1.239999999999999991e-01 6.052534999999999998e-01 1.185380500000000126e+01 1.231610000000000014e+02 1.597990000000000009e+03
1.250000000000000000e-01 6.050899999999999057e-01 1.127385500000000107e+01 1.223940000000000055e+02 1.597780000000000200e+03
1.260000000000000009e-01 6.049400000000000333e-01 1.073123499999999986e+01 1.216804999999999950e+02 1.597585000000000036e+03
1.270000000000000018e-01 6.048040000000000083e-01 1.023060500000000062e+01 1.210289999999999964e+02 1.597400000000000091e+03
1.280000000000000027e-01 6.046834999999999294e-01 9.775829999999999131e+00 1.204480000000000075e+02 1.597235000000000127e+03
1.290000000000000036e-01 6.045800000000000063e-01 9.369609999999999772e+00 1.199424999999999955e+02 1.597085000000000036e+03
1.300000000000000044e-01 6.044929999999999470e-01 9.013444999999999041e+00 1.195150000000000006e+02 1.596954999999999927e+03
1.310000000000000053e-01 6.044240000000000723e-01 8.707695000000001073e+00 1.191670000000000016e+02 1.596845000000000027e+03
1.320000000000000062e-01 6.043709999999999916e-01 8.451584999999999681e+00 1.188965000000000032e+02 1.596755000000000109e+03
1.330000000000000071e-01 6.043330000000000091e-01 8.243285000000000196e+00 1.187009999999999934e+02 1.596680000000000064e+03
1.340000000000000080e-01 6.043099999999999028e-01 8.079964999999999620e+00 1.185734999999999957e+02 1.596630000000000109e+03
1.350000000000000089e-01 6.042994999999999894e-01 7.958109999999999573e+00 1.185090000000000003e+02 1.596594999999999800e+03
1.360000000000000098e-01 6.042990000000000306e-01 7.873590000000000089e+00 1.184989999999999952e+02 1.596575000000000045e+03
1.370000000000000107e-01 6.043080000000000673e-01 7.821859999999999147e+00 1.185355000000000132e+02 1.596574999999999818e+03
1.380000000000000115e-01 6.043244999999999312e-01 7.798194999999999766e+00 1.186089999999999947e+02 1.596579999999999927e+03
1.390000000000000124e-01 6.043460000000000498e-01 7.797850000000000392e+00 1.187109999999999985e+02 1.596590000000000146e+03
1.400000000000000133e-01 6.043705000000000327e-01 7.816194999999999560e+00 1.188340000000000032e+02 1.596610000000000127e+03
1.410000000000000142e-01 6.043979999999999908e-01 7.848900000000000432e+00 1.189705000000000013e+02 1.596634999999999991e+03
1.420000000000000151e-01 6.044264999999999777e-01 7.891985000000000028e+00 1.191129999999999995e+02 1.596664999999999964e+03
1.430000000000000160e-01 6.044540000000000468e-01 7.941925000000000345e+00 1.192570000000000050e+02 1.596700000000000045e+03
1.440000000000000169e-01 6.044810000000000461e-01 7.995689999999999742e+00 1.193979999999999961e+02 1.596724999999999909e+03
1.450000000000000178e-01 6.045070000000000165e-01 8.050750000000000739e+00 1.195320000000000107e+02 1.596759999999999991e+03
1.459999999999999909e-01 6.045305000000000817e-01 8.105084999999998985e+00 1.196580000000000013e+02 1.596789999999999964e+03
1.469999999999999918e-01 6.045519999999999783e-01 8.157165000000000887e+00 1.197745000000000033e+02 1.596819999999999936e+03
1.479999999999999927e-01 6.045719999999999983e-01 8.205930000000000391e+00 1.198810000000000002e+02 1.596849999999999909e+03
1.489999999999999936e-01 6.045899999999999608e-01 8.250714999999999577e+00 1.199780000000000086e+02 1.596869999999999891e+03
1.499999999999999944e-01 6.046070000000000055e-01 8.291249999999999787e+00 1.200664999999999907e+02 1.596900000000000091e+03
1.509999999999999953e-01 6.046219999999999928e-01 8.327560000000000073e+00 1.201484999999999985e+02 1.596920000000000073e+03
1.519999999999999962e-01 6.046369999999999800e-01 8.359935000000000116e+00 1.202254999999999967e+02 1.596944999999999936e+03
1.529999999999999971e-01 6.046519999999999673e-01 8.388870000000000715e+00 1.203000000000000114e+02 1.596960000000000036e+03
1.539999999999999980e-01 6.046669999999999545e-01 8.414984999999999715e+00 1.203730000000000047e+02 1.596985000000000127e+03
1.549999999999999989e-01 6.046825000000000117e-01 8.438995000000000246e+00 1.204480000000000075e+02 1.597005000000000109e+03
1.559999999999999998e-01 6.046989999999999865e-01 8.461615000000000109e+00 1.205259999999999962e+02 1.597025000000000091e+03
1.570000000000000007e-01 6.047175000000000189e-01 8.483519999999998618e+00 1.206080000000000041e+02 1.597045000000000073e+03
1.580000000000000016e-01 6.047365000000000101e-01 8.505330000000000723e+00 1.206959999999999980e+02 1.597069999999999936e+03
1.590000000000000024e-01 6.047580000000000178e-01 8.527499999999999858e+00 1.207905000000000086e+02 1.597099999999999909e+03
