# t [s], A [cm^2], U [cm/s], P [cPa], c [cm/s]
1.000000000000000021e-03 6.569279999999999564e-01 5.012000000000002564e-03 9.668514999999999304e+01 1.661565000000000055e+03
2.000000000000000042e-03 6.569190000000000307e-01 2.385840000000000183e-03 9.665655000000000996e+01 1.661565000000000055e+03
3.000000000000000062e-03 6.569884999999999753e-01 1.281403999999999876e-01 9.679420000000000357e+01 1.661595000000000027e+03
4.000000000000000083e-03 6.570274999999999865e-01 2.168470000000000120e-01 9.690045000000000641e+01 1.661619999999999891e+03
5.000000000000000104e-03 6.569750000000000867e-01 1.507090000000000096e-01 9.676304999999999268e+01 1.661590000000000146e+03
6.000000000000000125e-03 6.568964999999999943e-01 3.082550000000000567e-02 9.646344999999999459e+01 1.661525000000000091e+03
7.000000000000000146e-03 6.568175000000000541e-01 -1.021350000000000868e-01 9.607474999999999454e+01 1.661440000000000055e+03
8.000000000000000167e-03 6.566760000000000375e-01 -3.620450000000000612e-01 9.545980000000000132e+01 1.661304999999999836e+03
9.000000000000001055e-03 6.564590000000000147e-01 -7.761450000000000848e-01 9.453915000000000646e+01 1.661099999999999909e+03
1.000000000000000194e-02 6.561600000000000765e-01 -1.344480000000000341e+00 9.326524999999999466e+01 1.660815000000000055e+03
1.099999999999999936e-02 6.557520000000000016e-01 -2.095494999999999663e+00 9.155310000000000059e+01 1.660425000000000182e+03
1.200000000000000025e-02 6.552439999999999376e-01 -2.993395000000000028e+00 8.939289999999999736e+01 1.659929999999999836e+03
1.300000000000000114e-02 6.547030000000000349e-01 -3.881324999999999914e+00 8.695720000000000027e+01 1.659344999999999800e+03
1.400000000000000203e-02 6.542239999999999167e-01 -4.551070000000000171e+00 8.454550000000000409e+01 1.658750000000000000e+03
1.499999999999999944e-02 6.538649999999999185e-01 -4.855072499999999458e+00 8.243145000000001232e+01 1.658194999999999936e+03
1.600000000000000033e-02 6.536284999999999457e-01 -4.764334999999999987e+00 8.074609999999999843e+01 1.657710000000000036e+03
1.700000000000000122e-02 6.534689999999999666e-01 -4.357530000000000570e+00 7.945125000000000171e+01 1.657309999999999945e+03
1.800000000000000211e-02 6.533204999999999707e-01 -3.771044999999999980e+00 7.838439999999999941e+01 1.656960000000000036e+03
1.900000000000000300e-02 6.531244999999999967e-01 -3.139753999999999934e+00 7.734000000000000341e+01 1.656619999999999891e+03
2.000000000000000042e-02 6.528534999999999755e-01 -2.549053300000000188e+00 7.615315000000001078e+01 1.656255000000000109e+03
2.100000000000000130e-02 6.525110000000000632e-01 -2.014305000000000234e+00 7.475485000000000468e+01 1.655844999999999800e+03
2.200000000000000219e-02 6.521284999999999998e-01 -1.494314999999999838e+00 7.317834999999999468e+01 1.655400000000000091e+03
2.299999999999999961e-02 6.517444999999999489e-01 -9.291249999999999787e-01 7.151900000000000546e+01 1.654934999999999945e+03
2.400000000000000050e-02 6.513815000000000577e-01 -2.809149999999998037e-01 6.987354999999999450e+01 1.654470000000000027e+03
2.500000000000000139e-02 6.510430000000000383e-01 4.400900000000000922e-01 6.828844999999999743e+01 1.654005000000000109e+03
2.600000000000000228e-02 6.507054999999999367e-01 1.170984999999999943e+00 6.673389999999999134e+01 1.653554999999999836e+03
2.700000000000000316e-02 6.503315000000000623e-01 1.810119999999999729e+00 6.510779999999999745e+01 1.653085000000000036e+03
2.800000000000000058e-02 6.498770000000000380e-01 2.242884999999999351e+00 6.326330000000000098e+01 1.652570000000000164e+03
2.900000000000000147e-02 6.493094999999999839e-01 2.371890000000000054e+00 6.105214999999999748e+01 1.651980000000000018e+03
3.000000000000000236e-02 6.486129999999999951e-01 2.143635000000000179e+00 5.837165000000000248e+01 1.651289999999999964e+03
3.099999999999999978e-02 6.477994999999999726e-01 1.563884999999999970e+00 5.520080000000000098e+01 1.650490000000000009e+03
3.200000000000000067e-02 6.469024999999999359e-01 6.969300000000000495e-01 5.161489999999999867e+01 1.649589999999999918e+03
3.300000000000000155e-02 6.459749999999999659e-01 -3.505500000000001393e-01 4.777459999999999951e+01 1.648625000000000000e+03
3.400000000000000244e-02 6.450724999999999376e-01 -1.453430000000000000e+00 4.389464999999999861e+01 1.647634999999999991e+03
3.500000000000000333e-02 6.442485000000000017e-01 -2.492274999999999796e+00 4.020584999999999809e+01 1.646680000000000064e+03
3.600000000000000422e-02 6.435444999999999638e-01 -3.369874999999999954e+00 3.691949999999999932e+01 1.645799999999999955e+03
3.700000000000000511e-02 6.429860000000000575e-01 -4.019845000000000113e+00 3.420250000000000057e+01 1.645039999999999964e+03
3.799999999999999906e-02 6.425879999999999370e-01 -4.406864999999999810e+00 3.216479999999999961e+01 1.644434999999999945e+03
3.899999999999999994e-02 6.423499999999999766e-01 -4.520669999999999966e+00 3.085895000000000010e+01 1.644009999999999991e+03
4.000000000000000083e-02 6.422664999999999624e-01 -4.367689999999999628e+00 3.028869999999999862e+01 1.643755000000000109e+03
4.100000000000000172e-02 6.423274999999999402e-01 -3.961960000000000370e+00 3.042325000000000301e+01 1.643690000000000055e+03
4.200000000000000261e-02 6.425214999999999677e-01 -3.318232000000000070e+00 3.121220000000000283e+01 1.643795000000000073e+03
4.300000000000000350e-02 6.428369999999999918e-01 -2.448539999999999939e+00 3.259805000000000064e+01 1.644059999999999945e+03
4.400000000000000439e-02 6.432655000000000456e-01 -1.362535000000000274e+00 3.452315000000000111e+01 1.644470000000000027e+03
4.499999999999999833e-02 6.437964999999999938e-01 -7.052999999999975955e-02 3.693110000000000070e+01 1.645019999999999982e+03
4.599999999999999922e-02 6.444189999999999641e-01 1.412354999999999805e+00 3.976440000000000197e+01 1.645680000000000064e+03
4.700000000000000011e-02 6.451195000000000679e-01 3.062860000000000138e+00 4.296065000000000111e+01 1.646449999999999818e+03
4.800000000000000100e-02 6.458805000000000796e-01 4.848164999999999836e+00 4.644930000000000092e+01 1.647309999999999945e+03
4.900000000000000189e-02 6.466834999999999667e-01 6.726700000000000124e+00 5.015085000000000548e+01 1.648230000000000018e+03
5.000000000000000278e-02 6.475079999999999725e-01 8.651130999999999460e+00 5.397915000000000418e+01 1.649200000000000045e+03
5.100000000000000366e-02 6.483339999999999659e-01 1.057213000000000136e+01 5.784619999999999607e+01 1.650194999999999936e+03
5.200000000000000455e-02 6.491424999999999557e-01 1.244289500000000004e+01 6.166750000000000398e+01 1.651195000000000164e+03
5.300000000000000544e-02 6.499194999999999833e-01 1.422286000000000072e+01 6.536860000000000070e+01 1.652175000000000182e+03
5.399999999999999939e-02 6.506525000000000780e-01 1.588023000000000096e+01 6.888989999999999725e+01 1.653125000000000000e+03
5.500000000000000028e-02 6.513359999999999150e-01 1.739349999999999952e+01 7.219020000000000437e+01 1.654029999999999973e+03
5.600000000000000117e-02 6.519684999999999508e-01 1.875130000000000052e+01 7.524784999999999968e+01 1.654880000000000109e+03
5.700000000000000205e-02 6.525505000000000333e-01 1.995154999999999745e+01 7.805975000000000819e+01 1.655674999999999955e+03
5.800000000000000294e-02 6.530880000000000019e-01 2.100005000000000166e+01 8.063954999999999984e+01 1.656420000000000073e+03
5.900000000000000383e-02 6.535870000000000291e-01 2.190854999999999819e+01 8.301390000000000668e+01 1.657105000000000018e+03
6.000000000000000472e-02 6.540569999999999995e-01 2.269300000000000139e+01 8.521909999999999741e+01 1.657750000000000000e+03
6.099999999999999867e-02 6.545064999999999911e-01 2.337230000000000274e+01 8.729730000000000700e+01 1.658360000000000127e+03
6.199999999999999956e-02 6.549454999999999583e-01 2.396670000000000300e+01 8.929279999999999973e+01 1.658945000000000164e+03
6.300000000000000044e-02 6.553820000000000201e-01 2.449649999999999750e+01 9.124899999999999523e+01 1.659509999999999991e+03
6.400000000000000133e-02 6.558239999999999625e-01 2.498075000000000045e+01 9.320515000000000327e+01 1.660079999999999927e+03
6.500000000000000222e-02 6.562780000000000280e-01 2.543605000000000160e+01 9.519355000000000189e+01 1.660639999999999873e+03
6.600000000000000311e-02 6.567465000000000108e-01 2.587534999999999741e+01 9.723734999999999218e+01 1.661224999999999909e+03
6.700000000000000400e-02 6.572320000000000384e-01 2.630685000000000073e+01 9.934825000000000728e+01 1.661809999999999945e+03
6.800000000000000488e-02 6.577325000000000532e-01 2.673364999999999725e+01 1.015263000000000062e+02 1.662414999999999964e+03
6.900000000000000577e-02 6.582445000000000102e-01 2.715344999999999942e+01 1.037580000000000098e+02 1.663035000000000082e+03
7.000000000000000666e-02 6.587604999999999711e-01 2.755900000000000105e+01 1.060210000000000008e+02 1.663659999999999854e+03
7.100000000000000755e-02 6.592729999999999979e-01 2.793910000000000338e+01 1.082800000000000011e+02 1.664285000000000082e+03
7.200000000000000844e-02 6.597724999999999840e-01 2.827949999999999875e+01 1.104959999999999951e+02 1.664900000000000091e+03
7.300000000000000933e-02 6.602485000000000159e-01 2.856470000000000198e+01 1.126239999999999952e+02 1.665494999999999891e+03
7.399999999999999634e-02 6.606924999999999049e-01 2.877890000000000015e+01 1.146200000000000045e+02 1.666065000000000055e+03
7.499999999999999722e-02 6.610949999999999882e-01 2.890745000000000076e+01 1.164420000000000073e+02 1.666585000000000036e+03
7.599999999999999811e-02 6.614484999999999948e-01 2.893800000000000239e+01 1.180529999999999973e+02 1.667059999999999945e+03
7.699999999999999900e-02 6.617480000000000029e-01 2.886104999999999876e+01 1.194240000000000066e+02 1.667474999999999909e+03
7.799999999999999989e-02 6.619889999999999386e-01 2.867070000000000007e+01 1.205335000000000036e+02 1.667819999999999936e+03
7.900000000000000078e-02 6.621710000000000651e-01 2.836505000000000010e+01 1.213704999999999927e+02 1.668099999999999909e+03
8.000000000000000167e-02 6.622934999999999794e-01 2.794594999999999985e+01 1.219339999999999975e+02 1.668300000000000182e+03
8.100000000000000255e-02 6.623585000000000722e-01 2.741895000000000238e+01 1.222309999999999945e+02 1.668434999999999945e+03
8.200000000000000344e-02 6.623715000000000019e-01 2.679330000000000211e+01 1.222785000000000082e+02 1.668500000000000000e+03
8.300000000000000433e-02 6.623375000000000234e-01 2.608125000000000071e+01 1.220995000000000061e+02 1.668500000000000000e+03
8.400000000000000522e-02 6.622624999999999762e-01 2.529749999999999943e+01 1.217250000000000085e+02 1.668450000000000045e+03
8.500000000000000611e-02 6.621550000000000491e-01 2.445864999999999867e+01 1.211885000000000048e+02 1.668349999999999909e+03
8.600000000000000699e-02 6.620224999999999582e-01 2.358249999999999957e+01 1.205275000000000034e+02 1.668204999999999927e+03
8.700000000000000788e-02 6.618735000000000035e-01 2.268710000000000093e+01 1.197805000000000035e+02 1.668034999999999854e+03
8.800000000000000877e-02 6.617150000000000531e-01 2.179019999999999868e+01 1.189844999999999970e+02 1.667845000000000027e+03
8.899999999999999578e-02 6.615554999999999630e-01 2.090824999999999889e+01 1.181744999999999948e+02 1.667644999999999982e+03
8.999999999999999667e-02 6.614010000000000167e-01 2.005584999999999951e+01 1.173829999999999956e+02 1.667440000000000055e+03
9.099999999999999756e-02 6.612565000000000248e-01 1.924504999999999910e+01 1.166359999999999957e+02 1.667244999999999891e+03
9.199999999999999845e-02 6.611260000000001025e-01 1.848499999999999943e+01 1.159530000000000030e+02 1.667059999999999945e+03
9.299999999999999933e-02 6.610119999999999330e-01 1.778150000000000119e+01 1.153490000000000038e+02 1.666884999999999991e+03
9.400000000000000022e-02 6.609145000000000714e-01 1.713700000000000045e+01 1.148310000000000031e+02 1.666735000000000127e+03
9.500000000000000111e-02 6.608350000000000612e-01 1.655059999999999931e+01 1.143995000000000033e+02 1.666609999999999900e+03
9.600000000000000200e-02 6.607699999999999685e-01 1.601845000000000141e+01 1.140484999999999900e+02 1.666494999999999891e+03
9.700000000000000289e-02 6.607169999999999987e-01 1.553379999999999939e+01 1.137660000000000053e+02 1.666400000000000091e+03
9.800000000000000377e-02 6.606730000000000658e-01 1.508790000000000120e+01 1.135374999999999943e+02 1.666325000000000045e+03
9.900000000000000466e-02 6.606334999999999846e-01 1.467029999999999923e+01 1.133425000000000011e+02 1.666255000000000109e+03
1.000000000000000056e-01 6.605935000000000556e-01 1.426960000000000051e+01 1.131599999999999966e+02 1.666194999999999936e+03
1.010000000000000064e-01 6.605484999999999829e-01 1.387400000000000055e+01 1.129679999999999893e+02 1.666130000000000109e+03
1.020000000000000073e-01 6.604944999999999844e-01 1.347190000000000154e+01 1.127454999999999927e+02 1.666065000000000055e+03
1.030000000000000082e-01 6.604265000000000274e-01 1.305284999999999940e+01 1.124720000000000084e+02 1.665984999999999900e+03
1.040000000000000091e-01 6.603419999999999845e-01 1.260778499999999980e+01 1.121310000000000002e+02 1.665889999999999873e+03
1.050000000000000100e-01 6.602384999999999504e-01 1.212967500000000065e+01 1.117090000000000032e+02 1.665779999999999973e+03
1.059999999999999970e-01 6.601155000000000772e-01 1.161387000000000036e+01 1.111984999999999957e+02 1.665650000000000091e+03
1.069999999999999979e-01 6.599725000000000730e-01 1.105839500000000086e+01 1.105970000000000084e+02 1.665494999999999891e+03
1.079999999999999988e-01 6.598095000000000487e-01 1.046416999999999931e+01 1.099060000000000059e+02 1.665320000000000164e+03
1.089999999999999997e-01 6.596305000000000085e-01 9.834770000000000678e+00 1.091340000000000003e+02 1.665125000000000000e+03
1.100000000000000006e-01 6.594379999999999686e-01 9.176429999999999865e+00 1.082930000000000064e+02 1.664910000000000082e+03
1.110000000000000014e-01 6.592359999999999332e-01 8.497645000000000337e+00 1.074014999999999986e+02 1.664674999999999955e+03
1.120000000000000023e-01 6.590300000000000047e-01 7.808835000000000193e+00 1.064799999999999898e+02 1.664440000000000055e+03
1.130000000000000032e-01 6.588255000000000638e-01 7.121655000000000513e+00 1.055515000000000043e+02 1.664195000000000164e+03
1.140000000000000041e-01 6.586269999999999625e-01 6.448509999999999742e+00 1.046415499999999952e+02 1.663950000000000045e+03
1.150000000000000050e-01 6.584404999999999841e-01 5.801905000000000534e+00 1.037747499999999974e+02 1.663714999999999918e+03
1.160000000000000059e-01 6.582710000000000505e-01 5.193794999999999717e+00 1.029740500000000054e+02 1.663494999999999891e+03
1.170000000000000068e-01 6.581219999999999848e-01 4.634954999999999714e+00 1.022616999999999905e+02 1.663295000000000073e+03
1.180000000000000077e-01 6.579979999999999718e-01 4.134504999999999875e+00 1.016543000000000063e+02 1.663119999999999891e+03
1.190000000000000085e-01 6.579010000000000691e-01 3.699460000000000193e+00 1.011658500000000060e+02 1.662970000000000027e+03
1.200000000000000094e-01 6.578315000000000135e-01 3.334439999999999849e+00 1.008041499999999928e+02 1.662855000000000018e+03
1.209999999999999964e-01 6.577915000000000845e-01 3.041514999999999969e+00 1.005722999999999985e+02 1.662769999999999982e+03
1.219999999999999973e-01 6.577785000000000437e-01 2.820209999999999884e+00 1.004688000000000017e+02 1.662720000000000027e+03
1.229999999999999982e-01 6.577910000000000146e-01 2.667629999999999946e+00 1.004860500000000059e+02 1.662700000000000045e+03
1.239999999999999991e-01 6.578260000000000218e-01 2.578689999999999927e+00 1.006129999999999995e+02 1.662710000000000036e+03
1.250000000000000000e-01 6.578800000000000203e-01 2.546499999999999986e+00 1.008344999999999914e+02 1.662750000000000000e+03
1.260000000000000009e-01 6.579494999999999649e-01 2.562730000000000175e+00 1.011334999999999980e+02 1.662809999999999945e+03
1.270000000000000018e-01 6.580300000000000038e-01 2.618055000000000021e+00 1.014900000000000091e+02 1.662884999999999991e+03
1.280000000000000027e-01 6.581159999999999233e-01 2.702644999999999964e+00 1.018840000000000003e+02 1.662974999999999909e+03
1.290000000000000036e-01 6.582044999999999702e-01 2.806564999999999976e+00 1.022959999999999923e+02 1.663075000000000045e+03
1.300000000000000044e-01 6.582915000000000294e-01 2.920169999999999710e+00 1.027065000000000055e+02 1.663170000000000073e+03
1.310000000000000053e-01 6.583729999999999860e-01 3.034464999999999968e+00 1.030989999999999895e+02 1.663269999999999982e+03
1.320000000000000062e-01 6.584464999999999346e-01 3.141395000000000159e+00 1.034579999999999984e+02 1.663365000000000009e+03
1.330000000000000071e-01 6.585095000000000809e-01 3.234065000000000190e+00 1.037725000000000080e+02 1.663449999999999818e+03
1.340000000000000080e-01 6.585594999999999644e-01 3.306865000000000165e+00 1.040320000000000107e+02 1.663519999999999982e+03
1.350000000000000089e-01 6.585969999999999880e-01 3.355640000000000178e+00 1.042315000000000111e+02 1.663579999999999927e+03
1.360000000000000098e-01 6.586209999999999010e-01 3.377625000000000099e+00 1.043670000000000044e+02 1.663625000000000000e+03
1.370000000000000107e-01 6.586309999999999665e-01 3.371494999999999909e+00 1.044385000000000048e+02 1.663650000000000091e+03
1.380000000000000115e-01 6.586279999999999912e-01 3.337254999999999860e+00 1.044480000000000075e+02 1.663659999999999854e+03
1.390000000000000124e-01 6.586134999999999629e-01 3.276139999999999830e+00 1.044004999999999939e+02 1.663655000000000200e+03
1.400000000000000133e-01 6.585890000000000910e-01 3.190439999999999721e+00 1.043010000000000019e+02 1.663644999999999982e+03
1.410000000000000142e-01 6.585555000000000714e-01 3.083315000000000250e+00 1.041574999999999989e+02 1.663615000000000009e+03
1.420000000000000151e-01 6.585155000000000314e-01 2.958610000000000184e+00 1.039790000000000134e+02 1.663574999999999818e+03
1.430000000000000160e-01 6.584710000000000285e-01 2.820580000000000087e+00 1.037734999999999985e+02 1.663529999999999973e+03
1.440000000000000169e-01 6.584235000000000504e-01 2.673704999999999998e+00 1.035504999999999995e+02 1.663474999999999909e+03
1.450000000000000178e-01 6.583749999999999325e-01 2.522415000000000074e+00 1.033180000000000121e+02 1.663420000000000073e+03
1.459999999999999909e-01 6.583259999999999668e-01 2.370905000000000040e+00 1.030835000000000008e+02 1.663360000000000127e+03
1.469999999999999918e-01 6.582795000000000174e-01 2.222919999999999785e+00 1.028539999999999992e+02 1.663304999999999836e+03
1.479999999999999927e-01 6.582354999999999734e-01 2.081620000000000026e+00 1.026340000000000003e+02 1.663244999999999891e+03
1.489999999999999936e-01 6.581945000000000157e-01 1.949425000000000185e+00 1.024269999999999925e+02 1.663190000000000055e+03
1.499999999999999944e-01 6.581565000000000332e-01 1.827999999999999847e+00 1.022344999999999970e+02 1.663139999999999873e+03
1.509999999999999953e-01 6.581220000000000958e-01 1.718202999999999925e+00 1.020570000000000022e+02 1.663085000000000036e+03
1.519999999999999962e-01 6.580894999999999939e-01 1.620138999999999996e+00 1.018925000000000125e+02 1.663039999999999964e+03
1.529999999999999971e-01 6.580595000000000194e-01 1.533244000000000051e+00 1.017390000000000043e+02 1.662994999999999891e+03
1.539999999999999980e-01 6.580304999999999627e-01 1.456395000000000106e+00 1.015925000000000011e+02 1.662954999999999927e+03
1.549999999999999989e-01 6.580010000000000581e-01 1.388063000000000047e+00 1.014474999999999909e+02 1.662914999999999964e+03
1.559999999999999998e-01 6.579709999999999726e-01 1.326471999999999873e+00 1.013010000000000019e+02 1.662875000000000000e+03
1.570000000000000007e-01 6.579380000000000228e-01 1.269766500000000020e+00 1.011474999999999937e+02 1.662835000000000036e+03
1.580000000000000016e-01 6.579025000000000567e-01 1.216152000000000122e+00 1.009830000000000041e+02 1.662784999999999854e+03
1.590000000000000024e-01 6.578634999999999344e-01 1.164020499999999902e+00 1.008029999999999973e+02 1.662735000000000127e+03
