# t [s], A [cm^2], U [cm/s], P [cPa], c [cm/s]
1.000000000000000021e-03 1.835904999999999898e-01 6.452085000000000736e-01 9.380480000000000018e+01 2.237715000000000146e+03
2.000000000000000042e-03 1.835005000000000108e-01 2.571854500000000154e+00 8.880934999999999491e+01 2.236970000000000255e+03
3.000000000000000062e-03 1.833184999999999953e-01 4.855211200000000282e+00 8.249715000000000487e+01 2.235505000000000109e+03
4.000000000000000083e-03 1.831094999999999806e-01 7.419685000000000308e+00 7.690404999999999802e+01 2.233840000000000146e+03
5.000000000000000104e-03 1.829139999999999933e-01 9.984594999999998777e+00 7.278350000000000364e+01 2.232295000000000073e+03
6.000000000000000125e-03 1.827364999999999962e-01 1.213715499999999992e+01 6.938219999999999743e+01 2.230920000000000073e+03
7.000000000000000146e-03 1.825775000000000037e-01 1.381764499999999884e+01 6.627844999999999231e+01 2.229724999999999909e+03
8.000000000000000167e-03 1.824454999999999827e-01 1.515244999999999997e+01 6.376295000000000357e+01 2.228744999999999891e+03
9.000000000000001055e-03 1.823400000000000021e-01 1.617159999999999798e+01 6.184314999999999429e+01 2.227970000000000255e+03
1.000000000000000194e-02 1.822600000000000053e-01 1.691754999999999853e+01 6.041919999999999646e+01 2.227389999999999873e+03
1.099999999999999936e-02 1.822004999999999875e-01 1.742839999999999989e+01 5.941635000000000133e+01 2.226965000000000146e+03
1.200000000000000025e-02 1.821550000000000114e-01 1.770805000000000007e+01 5.861410000000000053e+01 2.226654999999999745e+03
1.300000000000000114e-02 1.821204999999999907e-01 1.787930000000000064e+01 5.803464999999999918e+01 2.226420000000000073e+03
1.400000000000000203e-02 1.821099999999999941e-01 1.825000000000000000e+01 5.835864999999999725e+01 2.226360000000000127e+03
1.499999999999999944e-02 1.821455000000000157e-01 1.910419999999999874e+01 6.048284999999999911e+01 2.226625000000000000e+03
1.600000000000000033e-02 1.822380000000000111e-01 2.043459999999999965e+01 6.458265000000000100e+01 2.227309999999999945e+03
1.700000000000000122e-02 1.823719999999999786e-01 2.188279999999999959e+01 6.965420000000000300e+01 2.228304999999999836e+03
1.800000000000000211e-02 1.825094999999999912e-01 2.292204999999999870e+01 7.391960000000000264e+01 2.229345000000000255e+03
1.900000000000000300e-02 1.826045000000000029e-01 2.313260000000000005e+01 7.574164999999999281e+01 2.230085000000000036e+03
2.000000000000000042e-02 1.826269999999999838e-01 2.240599999999999881e+01 7.444880000000000564e+01 2.230295000000000073e+03
2.100000000000000130e-02 1.825729999999999853e-01 2.097504999999999953e+01 7.061965000000000714e+01 2.229935000000000400e+03
2.200000000000000219e-02 1.824669999999999903e-01 1.927090000000000103e+01 6.570935000000000059e+01 2.229159999999999854e+03
2.299999999999999961e-02 1.823460000000000081e-01 1.770384999999999920e+01 6.128189999999999316e+01 2.228265000000000327e+03
2.400000000000000050e-02 1.822420000000000151e-01 1.649484999999999957e+01 5.831099999999999994e+01 2.227475000000000364e+03
2.500000000000000139e-02 1.821705000000000130e-01 1.563085000000000058e+01 5.689020000000000010e+01 2.226929999999999836e+03
2.600000000000000228e-02 1.821284999999999987e-01 1.493625000000000114e+01 5.640375000000000227e+01 2.226595000000000255e+03
2.700000000000000316e-02 1.820984999999999965e-01 1.420015000000000072e+01 5.597395000000000209e+01 2.226364999999999782e+03
2.800000000000000058e-02 1.820634999999999892e-01 1.329630000000000045e+01 5.493779999999999575e+01 2.226105000000000018e+03
2.900000000000000147e-02 1.820134999999999947e-01 1.225000000000000000e+01 5.315815000000000623e+01 2.225734999999999673e+03
3.000000000000000236e-02 1.819514999999999882e-01 1.123071000000000019e+01 5.106819999999999737e+01 2.225275000000000091e+03
3.099999999999999978e-02 1.818940000000000001e-01 1.047864500000000021e+01 4.945515000000000327e+01 2.224840000000000146e+03
3.200000000000000067e-02 1.818604999999999805e-01 1.019935500000000062e+01 4.909244999999999948e+01 2.224574999999999818e+03
3.300000000000000155e-02 1.818670000000000009e-01 1.047409999999999997e+01 5.038909999999999911e+01 2.224599999999999909e+03
3.400000000000000244e-02 1.819179999999999964e-01 1.122100000000000009e+01 5.320145000000000124e+01 2.224954999999999927e+03
3.500000000000000333e-02 1.820045000000000135e-01 1.221509999999999962e+01 5.686285000000000167e+01 2.225579999999999927e+03
3.600000000000000422e-02 1.821050000000000169e-01 1.315099999999999980e+01 6.038724999999999454e+01 2.226324999999999818e+03
3.700000000000000511e-02 1.821919999999999928e-01 1.371940000000000026e+01 6.274724999999999397e+01 2.226975000000000364e+03
3.799999999999999906e-02 1.822389999999999843e-01 1.367319999999999958e+01 6.312515000000000498e+01 2.227345000000000255e+03
3.899999999999999994e-02 1.822265000000000135e-01 1.286759999999999948e+01 6.107090000000000174e+01 2.227265000000000327e+03
4.000000000000000083e-02 1.821435000000000137e-01 1.127148000000000039e+01 5.654439999999999600e+01 2.226670000000000073e+03
4.100000000000000172e-02 1.819904999999999995e-01 8.954359999999999431e+00 4.985829999999999984e+01 2.225550000000000182e+03
4.200000000000000261e-02 1.817765000000000075e-01 6.058436999999999628e+00 4.156045000000000300e+01 2.223965000000000146e+03
4.300000000000000350e-02 1.815160000000000107e-01 2.766620000000000079e+00 3.230124999999999602e+01 2.222034999999999854e+03
4.400000000000000439e-02 1.812274999999999858e-01 -7.239499999999998714e-01 2.272515000000000285e+01 2.219885000000000218e+03
4.499999999999999833e-02 1.809284999999999921e-01 -4.219755000000000145e+00 1.340475999999999956e+01 2.217650000000000091e+03
4.599999999999999922e-02 1.806355000000000044e-01 -7.539295000000000080e+00 4.819940000000000779e+00 2.215460000000000036e+03
4.700000000000000011e-02 1.803639999999999965e-01 -1.051515999999999984e+01 -2.633159999999999279e+00 2.213420000000000073e+03
4.800000000000000100e-02 1.801265000000000227e-01 -1.299482000000000070e+01 -8.622415000000000163e+00 2.211625000000000000e+03
4.900000000000000189e-02 1.799339999999999828e-01 -1.484220000000000006e+01 -1.286440500000000142e+01 2.210164999999999964e+03
5.000000000000000278e-02 1.797969999999999846e-01 -1.594335000000000058e+01 -1.512508500000000033e+01 2.209114999999999782e+03
5.100000000000000366e-02 1.797225000000000072e-01 -1.621529999999999916e+01 -1.523659999999999926e+01 2.208524999999999636e+03
5.200000000000000455e-02 1.797165000000000012e-01 -1.561580000000000013e+01 -1.312464999999999904e+01 2.208434999999999945e+03
5.300000000000000544e-02 1.797809999999999964e-01 -1.415210000000000079e+01 -8.836140000000000327e+00 2.208869999999999891e+03
5.399999999999999939e-02 1.799135000000000040e-01 -1.188438999999999979e+01 -2.555279999999999774e+00 2.209815000000000055e+03
5.500000000000000028e-02 1.801085000000000047e-01 -8.923090000000000188e+00 5.400515000000000398e+00 2.211230000000000018e+03
5.600000000000000117e-02 1.803560000000000163e-01 -5.418815000000000381e+00 1.460641500000000015e+01 2.213039999999999964e+03
5.700000000000000205e-02 1.806424999999999836e-01 -1.547970000000000290e+00 2.457414999999999949e+01 2.215154999999999745e+03
5.800000000000000294e-02 1.809534999999999894e-01 2.503890000000000171e+00 3.480270000000000152e+01 2.217465000000000146e+03
5.900000000000000383e-02 1.812745000000000051e-01 6.557312999999999725e+00 4.482659999999999911e+01 2.219869999999999891e+03
6.000000000000000472e-02 1.815915000000000168e-01 1.045081499999999863e+01 5.425074999999999648e+01 2.222244999999999891e+03
6.099999999999999867e-02 1.818925000000000125e-01 1.404865000000000208e+01 6.277009999999999934e+01 2.224524999999999636e+03
6.199999999999999956e-02 1.821679999999999966e-01 1.724510000000000076e+01 7.017510000000000048e+01 2.226614999999999782e+03
6.300000000000000044e-02 1.824115000000000042e-01 1.996649999999999991e+01 7.634829999999999472e+01 2.228475000000000364e+03
6.400000000000000133e-02 1.826180000000000025e-01 2.217239999999999966e+01 8.125790000000000646e+01 2.230065000000000055e+03
6.500000000000000222e-02 1.827870000000000050e-01 2.385544999999999760e+01 8.495125000000000171e+01 2.231375000000000000e+03
6.600000000000000311e-02 1.829199999999999993e-01 2.504160000000000252e+01 8.754904999999999404e+01 2.232409999999999854e+03
6.700000000000000400e-02 1.830195000000000016e-01 2.578739999999999810e+01 8.923824999999999363e+01 2.233194999999999709e+03
6.800000000000000488e-02 1.830910000000000037e-01 2.617640000000000100e+01 9.026200000000000045e+01 2.233775000000000091e+03
6.900000000000000577e-02 1.831435000000000146e-01 2.631315000000000026e+01 9.090430000000000632e+01 2.234194999999999709e+03
7.000000000000000666e-02 1.831834999999999991e-01 2.631504999999999939e+01 9.147034999999999627e+01 2.234529999999999745e+03
7.100000000000000755e-02 1.832215000000000094e-01 2.630274999999999963e+01 9.226279999999999859e+01 2.234835000000000036e+03
7.200000000000000844e-02 1.832670000000000132e-01 2.639065000000000083e+01 9.355750000000000455e+01 2.235190000000000055e+03
7.300000000000000933e-02 1.833269999999999900e-01 2.667730000000000246e+01 9.557990000000000919e+01 2.235649999999999636e+03
7.399999999999999634e-02 1.834085000000000021e-01 2.723745000000000260e+01 9.848554999999998927e+01 2.236275000000000091e+03
7.499999999999999722e-02 1.835169999999999857e-01 2.811599999999999966e+01 1.023473999999999933e+02 2.237090000000000146e+03
7.599999999999999811e-02 1.836534999999999973e-01 2.932484999999999786e+01 1.071479999999999961e+02 2.238119999999999891e+03
7.699999999999999900e-02 1.838175000000000225e-01 3.084270000000000067e+01 1.127845000000000084e+02 2.239355000000000018e+03
7.799999999999999989e-02 1.840060000000000029e-01 3.261795000000000044e+01 1.190759999999999934e+02 2.240780000000000200e+03
7.900000000000000078e-02 1.842135000000000022e-01 3.457379999999999853e+01 1.257824999999999989e+02 2.242345000000000255e+03
8.000000000000000167e-02 1.844319999999999848e-01 3.661574999999999847e+01 1.326270000000000095e+02 2.244010000000000218e+03
8.100000000000000255e-02 1.846544999999999992e-01 3.863994999999999891e+01 1.393185000000000002e+02 2.245704999999999927e+03
8.200000000000000344e-02 1.848715000000000219e-01 4.054155000000000086e+01 1.455765000000000100e+02 2.247364999999999782e+03
8.300000000000000433e-02 1.850745000000000029e-01 4.222279999999999944e+01 1.511514999999999986e+02 2.248925000000000182e+03
8.400000000000000522e-02 1.852554999999999896e-01 4.359940000000000282e+01 1.558404999999999916e+02 2.250324999999999818e+03
8.500000000000000611e-02 1.854095000000000049e-01 4.460580000000000211e+01 1.595000000000000000e+02 2.251524999999999636e+03
8.600000000000000699e-02 1.855320000000000025e-01 4.519825000000000159e+01 1.620464999999999804e+02 2.252485000000000127e+03
8.700000000000000788e-02 1.856194999999999928e-01 4.535629999999999740e+01 1.634599999999999795e+02 2.253179999999999836e+03
8.800000000000000877e-02 1.856725000000000181e-01 4.508299999999999841e+01 1.637800000000000011e+02 2.253609999999999673e+03
8.899999999999999578e-02 1.856909999999999950e-01 4.440309999999999491e+01 1.630980000000000132e+02 2.253769999999999982e+03
8.999999999999999667e-02 1.856780000000000097e-01 4.336075000000000301e+01 1.615475000000000136e+02 2.253699999999999818e+03
9.099999999999999756e-02 1.856375000000000108e-01 4.201590000000000202e+01 1.592955000000000041e+02 2.253404999999999745e+03
9.199999999999999845e-02 1.855745000000000033e-01 4.043999999999999773e+01 1.565294999999999845e+02 2.252940000000000055e+03
9.299999999999999933e-02 1.854945000000000066e-01 3.871215000000000117e+01 1.534499999999999886e+02 2.252345000000000255e+03
9.400000000000000022e-02 1.854040000000000132e-01 3.691389999999999816e+01 1.502560000000000002e+02 2.251664999999999964e+03
9.500000000000000111e-02 1.853084999999999871e-01 3.512525000000000119e+01 1.471374999999999886e+02 2.250939999999999600e+03
9.600000000000000200e-02 1.852145000000000041e-01 3.342000000000000171e+01 1.442660000000000196e+02 2.250224999999999909e+03
9.700000000000000289e-02 1.851269999999999860e-01 3.186230000000000118e+01 1.417855000000000132e+02 2.249550000000000182e+03
9.800000000000000377e-02 1.850515000000000077e-01 3.050314999999999799e+01 1.398044999999999902e+02 2.248965000000000146e+03
9.900000000000000466e-02 1.849895000000000012e-01 2.937829999999999941e+01 1.383950000000000102e+02 2.248480000000000018e+03
1.000000000000000056e-01 1.849445000000000117e-01 2.850675000000000026e+01 1.375844999999999914e+02 2.248125000000000000e+03
1.010000000000000064e-01 1.849169999999999980e-01 2.789025000000000176e+01 1.373600000000000136e+02 2.247905000000000200e+03
1.020000000000000073e-01 1.849075000000000024e-01 2.751415000000000077e+01 1.376684999999999945e+02 2.247809999999999945e+03
1.030000000000000082e-01 1.849135000000000084e-01 2.734890000000000043e+01 1.384209999999999923e+02 2.247845000000000255e+03
1.040000000000000091e-01 1.849330000000000140e-01 2.735269999999999868e+01 1.395009999999999764e+02 2.247984999999999673e+03
1.050000000000000100e-01 1.849625000000000019e-01 2.747449999999999903e+01 1.407730000000000246e+02 2.248195000000000164e+03
1.059999999999999970e-01 1.849979999999999958e-01 2.765775000000000006e+01 1.420914999999999964e+02 2.248454999999999927e+03
1.069999999999999979e-01 1.850344999999999906e-01 2.784400000000000119e+01 1.433085000000000093e+02 2.248725000000000364e+03
1.079999999999999988e-01 1.850680000000000103e-01 2.797700000000000031e+01 1.442880000000000109e+02 2.248980000000000018e+03
1.089999999999999997e-01 1.850939999999999808e-01 2.800580000000000069e+01 1.449105000000000132e+02 2.249180000000000291e+03
1.100000000000000006e-01 1.851094999999999824e-01 2.788814999999999955e+01 1.450810000000000173e+02 2.249300000000000182e+03
1.110000000000000014e-01 1.851109999999999978e-01 2.759264999999999901e+01 1.447355000000000018e+02 2.249319999999999709e+03
1.120000000000000023e-01 1.850974999999999981e-01 2.710079999999999956e+01 1.438444999999999823e+02 2.249215000000000146e+03
1.130000000000000032e-01 1.850664999999999949e-01 2.640739999999999910e+01 1.424124999999999943e+02 2.248989999999999782e+03
1.140000000000000041e-01 1.850189999999999890e-01 2.552110000000000056e+01 1.404775000000000205e+02 2.248639999999999873e+03
1.150000000000000050e-01 1.849564999999999959e-01 2.446294999999999931e+01 1.381080000000000041e+02 2.248164999999999964e+03
1.160000000000000059e-01 1.848805000000000032e-01 2.326534999999999798e+01 1.354005000000000223e+02 2.247595000000000255e+03
1.170000000000000068e-01 1.847945000000000004e-01 2.196930000000000049e+01 1.324680000000000177e+02 2.246940000000000055e+03
1.180000000000000077e-01 1.847010000000000041e-01 2.062219999999999942e+01 1.294364999999999952e+02 2.246230000000000018e+03
1.190000000000000085e-01 1.846039999999999903e-01 1.927479999999999905e+01 1.264385000000000048e+02 2.245494999999999891e+03
1.200000000000000094e-01 1.845085000000000197e-01 1.797790000000000177e+01 1.235999999999999943e+02 2.244765000000000327e+03
1.209999999999999964e-01 1.844179999999999986e-01 1.677965000000000018e+01 1.210405000000000086e+02 2.244074999999999818e+03
1.219999999999999973e-01 1.843354999999999855e-01 1.572289999999999921e+01 1.188615000000000066e+02 2.243440000000000055e+03
1.229999999999999982e-01 1.842650000000000121e-01 1.484270000000000067e+01 1.171419999999999959e+02 2.242894999999999982e+03
1.239999999999999991e-01 1.842084999999999972e-01 1.416445000000000043e+01 1.159375000000000000e+02 2.242454999999999927e+03
1.250000000000000000e-01 1.841679999999999984e-01 1.370279999999999987e+01 1.152729999999999961e+02 2.242135000000000218e+03
1.260000000000000009e-01 1.841444999999999887e-01 1.346099999999999852e+01 1.151465000000000032e+02 2.241944999999999709e+03
1.270000000000000018e-01 1.841369999999999951e-01 1.343114999999999881e+01 1.155264999999999986e+02 2.241875000000000000e+03
1.280000000000000027e-01 1.841460000000000041e-01 1.359485000000000099e+01 1.163580000000000041e+02 2.241929999999999836e+03
1.290000000000000036e-01 1.841689999999999994e-01 1.392464999999999975e+01 1.175635000000000048e+02 2.242095000000000255e+03
1.300000000000000044e-01 1.842039999999999789e-01 1.438574999999999982e+01 1.190500000000000114e+02 2.242350000000000364e+03
1.310000000000000053e-01 1.842479999999999951e-01 1.493864999999999910e+01 1.207139999999999986e+02 2.242675000000000182e+03
1.320000000000000062e-01 1.842975000000000030e-01 1.554095000000000049e+01 1.224484999999999957e+02 2.243045000000000073e+03
1.330000000000000071e-01 1.843494999999999995e-01 1.615034999999999954e+01 1.241495000000000033e+02 2.243439999999999600e+03
1.340000000000000080e-01 1.844009999999999816e-01 1.672644999999999982e+01 1.257210000000000036e+02 2.243835000000000036e+03
1.350000000000000089e-01 1.844494999999999885e-01 1.723344999999999771e+01 1.270794999999999959e+02 2.244199999999999818e+03
1.360000000000000098e-01 1.844915000000000027e-01 1.764124999999999943e+01 1.281585000000000036e+02 2.244519999999999982e+03
1.370000000000000107e-01 1.845249999999999946e-01 1.792729999999999890e+01 1.289124999999999943e+02 2.244784999999999854e+03
1.380000000000000115e-01 1.845485000000000042e-01 1.807695000000000007e+01 1.293154999999999859e+02 2.244970000000000255e+03
1.390000000000000124e-01 1.845620000000000038e-01 1.808429999999999893e+01 1.293645000000000209e+02 2.245079999999999927e+03
1.400000000000000133e-01 1.845644999999999925e-01 1.795170000000000243e+01 1.290745000000000005e+02 2.245105000000000018e+03
1.410000000000000142e-01 1.845569999999999988e-01 1.768914999999999793e+01 1.284805000000000064e+02 2.245050000000000182e+03
1.420000000000000151e-01 1.845394999999999952e-01 1.731354999999999933e+01 1.276314999999999884e+02 2.244929999999999836e+03
1.430000000000000160e-01 1.845140000000000113e-01 1.684700000000000131e+01 1.265879999999999939e+02 2.244744999999999891e+03
1.440000000000000169e-01 1.844830000000000081e-01 1.631579999999999941e+01 1.254184999999999945e+02 2.244510000000000218e+03
1.450000000000000178e-01 1.844474999999999865e-01 1.574799999999999933e+01 1.241935000000000002e+02 2.244244999999999891e+03
1.459999999999999909e-01 1.844100000000000183e-01 1.517234999999999978e+01 1.229830000000000041e+02 2.243965000000000146e+03
1.469999999999999918e-01 1.843734999999999957e-01 1.461619999999999919e+01 1.218520000000000039e+02 2.243684999999999945e+03
1.479999999999999927e-01 1.843385000000000162e-01 1.410419999999999874e+01 1.208564999999999969e+02 2.243414999999999964e+03
1.489999999999999936e-01 1.843075000000000130e-01 1.365695000000000014e+01 1.200399999999999920e+02 2.243180000000000291e+03
1.499999999999999944e-01 1.842820000000000014e-01 1.328985000000000127e+01 1.194350000000000023e+02 2.242980000000000018e+03
1.509999999999999953e-01 1.842624999999999957e-01 1.301279999999999859e+01 1.190569999999999879e+02 2.242829999999999927e+03
1.519999999999999962e-01 1.842499999999999971e-01 1.282954999999999934e+01 1.189074999999999989e+02 2.242730000000000018e+03
1.529999999999999971e-01 1.842444999999999777e-01 1.273775000000000013e+01 1.189739999999999895e+02 2.242684999999999945e+03
1.539999999999999980e-01 1.842455000000000065e-01 1.272984999999999900e+01 1.192295000000000016e+02 2.242684999999999945e+03
1.549999999999999989e-01 1.842519999999999991e-01 1.279325000000000045e+01 1.196370000000000005e+02 2.242730000000000018e+03
1.559999999999999998e-01 1.842635000000000245e-01 1.291159999999999997e+01 1.201509999999999962e+02 2.242809999999999945e+03
1.570000000000000007e-01 1.842779999999999974e-01 1.306595000000000084e+01 1.207214999999999918e+02 2.242920000000000073e+03
1.580000000000000016e-01 1.842945000000000000e-01 1.323600000000000065e+01 1.212969999999999970e+02 2.243039999999999964e+03
1.590000000000000024e-01 1.843110000000000026e-01 1.340145000000000053e+01 1.218265000000000100e+02 2.243164999999999964e+03
