# t [s], A [cm^2], U [cm/s], P [cPa], c [cm/s]
1.000000000000000021e-03 1.661969999999999836e-01 4.435601499999999864e-01 9.577889999999999304e+01 2.183355000000000018e+03
2.000000000000000042e-03 1.661400000000000099e-01 2.112584500000000087e+00 9.181350000000000477e+01 2.182750000000000000e+03
3.000000000000000062e-03 1.660065000000000013e-01 4.132205500000000420e+00 8.648359999999999559e+01 2.181360000000000127e+03
4.000000000000000083e-03 1.658350000000000102e-01 6.405230000000000423e+00 8.111969999999999459e+01 2.179600000000000364e+03
5.000000000000000104e-03 1.656614999999999893e-01 8.806594999999999729e+00 7.670289999999999964e+01 2.177829999999999927e+03
6.000000000000000125e-03 1.654984999999999928e-01 1.105268999999999835e+01 7.318179999999999552e+01 2.176199999999999818e+03
7.000000000000000146e-03 1.653479999999999950e-01 1.293341999999999992e+01 7.005510000000001014e+01 2.174730000000000018e+03
8.000000000000000167e-03 1.652139999999999997e-01 1.447194999999999965e+01 6.726869999999999550e+01 2.173439999999999600e+03
9.000000000000001055e-03 1.651004999999999834e-01 1.573254999999999981e+01 6.498329999999999984e+01 2.172359999999999673e+03
1.000000000000000194e-02 1.650079999999999880e-01 1.673539999999999850e+01 6.318635000000000446e+01 2.171489999999999782e+03
1.099999999999999936e-02 1.649344999999999839e-01 1.750150000000000006e+01 6.180109999999999815e+01 2.170809999999999945e+03
1.200000000000000025e-02 1.648769999999999958e-01 1.803815000000000168e+01 6.070850000000000080e+01 2.170284999999999854e+03
1.300000000000000114e-02 1.648299999999999765e-01 1.835245000000000104e+01 5.974199999999999733e+01 2.169860000000000127e+03
1.400000000000000203e-02 1.647905000000000064e-01 1.853519999999999968e+01 5.892079999999999984e+01 2.169510000000000218e+03
1.499999999999999944e-02 1.647665000000000102e-01 1.878709999999999880e+01 5.864354999999999762e+01 2.169309999999999945e+03
1.600000000000000033e-02 1.647699999999999998e-01 1.931670000000000087e+01 5.949250000000000682e+01 2.169355000000000018e+03
1.700000000000000122e-02 1.648114999999999997e-01 2.019715000000000060e+01 6.177540000000000475e+01 2.169750000000000000e+03
1.800000000000000211e-02 1.648890000000000078e-01 2.130250000000000199e+01 6.520185000000000741e+01 2.170480000000000018e+03
1.900000000000000300e-02 1.649865000000000081e-01 2.236209999999999809e+01 6.893170000000000641e+01 2.171409999999999854e+03
2.000000000000000042e-02 1.650804999999999911e-01 2.308634999999999948e+01 7.193184999999999718e+01 2.172324999999999818e+03
2.100000000000000130e-02 1.651485000000000036e-01 2.328969999999999985e+01 7.341469999999999629e+01 2.173010000000000218e+03
2.200000000000000219e-02 1.651774999999999771e-01 2.295469999999999899e+01 7.313505000000000678e+01 2.173319999999999709e+03
2.299999999999999961e-02 1.651659999999999795e-01 2.221804999999999808e+01 7.142754999999999654e+01 2.173250000000000000e+03
2.400000000000000050e-02 1.651265000000000094e-01 2.129379999999999740e+01 6.899864999999999782e+01 2.172890000000000327e+03
2.500000000000000139e-02 1.650729999999999975e-01 2.037975000000000136e+01 6.659754999999999825e+01 2.172389999999999873e+03
2.600000000000000228e-02 1.650214999999999876e-01 1.958735000000000070e+01 6.472780000000000200e+01 2.171894999999999982e+03
2.700000000000000316e-02 1.649795000000000011e-01 1.892159999999999798e+01 6.351144999999999641e+01 2.171489999999999782e+03
2.800000000000000058e-02 1.649474999999999969e-01 1.830669999999999931e+01 6.273109999999999786e+01 2.171175000000000182e+03
2.900000000000000147e-02 1.649194999999999967e-01 1.763935000000000031e+01 6.199620000000000175e+01 2.170904999999999745e+03
3.000000000000000236e-02 1.648875000000000202e-01 1.684550000000000125e+01 6.094974999999999454e+01 2.170599999999999909e+03
3.099999999999999978e-02 1.648459999999999925e-01 1.591985000000000028e+01 5.943744999999999834e+01 2.170210000000000036e+03
3.200000000000000067e-02 1.647954999999999837e-01 1.493740000000000023e+01 5.758404999999999774e+01 2.169735000000000127e+03
3.300000000000000155e-02 1.647405000000000119e-01 1.403275000000000006e+01 5.575685000000000002e+01 2.169215000000000146e+03
3.400000000000000244e-02 1.646934999999999927e-01 1.335665000000000013e+01 5.443605000000000160e+01 2.168760000000000218e+03
3.500000000000000333e-02 1.646650000000000058e-01 1.302609999999999957e+01 5.404340000000000543e+01 2.168470000000000255e+03
3.600000000000000422e-02 1.646624999999999894e-01 1.308624999999999972e+01 5.479349999999999454e+01 2.168425000000000182e+03
3.700000000000000511e-02 1.646905000000000174e-01 1.349484999999999957e+01 5.661700000000000443e+01 2.168664999999999964e+03
3.799999999999999906e-02 1.647434999999999872e-01 1.413250000000000028e+01 5.917310000000000514e+01 2.169144999999999982e+03
3.899999999999999994e-02 1.648114999999999997e-01 1.483145000000000024e+01 6.193665000000000020e+01 2.169789999999999964e+03
4.000000000000000083e-02 1.648809999999999998e-01 1.541215000000000046e+01 6.432319999999999993e+01 2.170449999999999818e+03
4.100000000000000172e-02 1.649380000000000013e-01 1.571780000000000044e+01 6.581470000000000198e+01 2.170989999999999782e+03
4.200000000000000261e-02 1.649685000000000179e-01 1.563840000000000074e+01 6.605264999999999986e+01 2.171300000000000182e+03
4.300000000000000350e-02 1.649650000000000005e-01 1.512180000000000035e+01 6.488329999999999131e+01 2.171284999999999854e+03
4.400000000000000439e-02 1.649239999999999873e-01 1.417174999999999940e+01 6.235325000000000273e+01 2.170909999999999854e+03
4.499999999999999833e-02 1.648465000000000069e-01 1.283673499999999912e+01 5.866649999999999920e+01 2.170190000000000055e+03
4.599999999999999922e-02 1.647379999999999955e-01 1.119371499999999919e+01 5.412120000000000175e+01 2.169164999999999964e+03
4.700000000000000011e-02 1.646055000000000157e-01 9.333270000000000621e+00 4.904689999999999372e+01 2.167909999999999854e+03
4.800000000000000100e-02 1.644565000000000055e-01 7.347595000000000098e+00 4.375570000000000448e+01 2.166494999999999891e+03
4.900000000000000189e-02 1.643005000000000160e-01 5.323826000000000391e+00 3.851555000000000462e+01 2.165010000000000218e+03
5.000000000000000278e-02 1.641440000000000121e-01 3.342210000000000125e+00 3.354344999999999999e+01 2.163510000000000218e+03
5.100000000000000366e-02 1.639940000000000009e-01 1.476710000000000189e+00 2.901435000000000031e+01 2.162069999999999709e+03
5.200000000000000455e-02 1.638550000000000006e-01 -2.032899999999999707e-01 2.507454999999999856e+01 2.160734999999999673e+03
5.300000000000000544e-02 1.637330000000000174e-01 -1.632079999999999975e+00 2.185444999999999993e+01 2.159555000000000291e+03
5.399999999999999939e-02 1.636319999999999997e-01 -2.748453499999999661e+00 1.947449999999999903e+01 2.158579999999999927e+03
5.500000000000000028e-02 1.635564999999999936e-01 -3.498384999999999856e+00 1.804325000000000045e+01 2.157829999999999927e+03
5.600000000000000117e-02 1.635090000000000154e-01 -3.838989999999999903e+00 1.764845000000000041e+01 2.157359999999999673e+03
5.700000000000000205e-02 1.634935000000000138e-01 -3.742774999999999963e+00 1.834505000000000052e+01 2.157180000000000291e+03
5.800000000000000294e-02 1.635105000000000031e-01 -3.201119999999999965e+00 2.014349999999999952e+01 2.157310000000000400e+03
5.900000000000000383e-02 1.635610000000000119e-01 -2.226058000000000092e+00 2.300280000000000058e+01 2.157760000000000218e+03
6.000000000000000472e-02 1.636429999999999829e-01 -8.499149999999999761e-01 2.682925000000000182e+01 2.158519999999999982e+03
6.099999999999999867e-02 1.637550000000000117e-01 8.771100000000000563e-01 3.148264999999999958e+01 2.159559999999999945e+03
6.199999999999999956e-02 1.638920000000000099e-01 2.890884999999999927e+00 3.678744999999999976e+01 2.160840000000000146e+03
6.300000000000000044e-02 1.640490000000000004e-01 5.118208999999999342e+00 4.254749999999999943e+01 2.162324999999999818e+03
6.400000000000000133e-02 1.642210000000000059e-01 7.481779999999999653e+00 4.856069999999999709e+01 2.163954999999999927e+03
6.500000000000000222e-02 1.644019999999999926e-01 9.904914999999999026e+00 5.463330000000000553e+01 2.165680000000000291e+03
6.600000000000000311e-02 1.645860000000000101e-01 1.231560999999999950e+01 6.059059999999999491e+01 2.167444999999999709e+03
6.700000000000000400e-02 1.647680000000000256e-01 1.465005000000000024e+01 6.628615000000000634e+01 2.169204999999999927e+03
6.800000000000000488e-02 1.649444999999999939e-01 1.685525000000000162e+01 7.160765000000000668e+01 2.170909999999999854e+03
6.900000000000000577e-02 1.651114999999999944e-01 1.889165000000000205e+01 7.648075000000000045e+01 2.172525000000000091e+03
7.000000000000000666e-02 1.652664999999999829e-01 2.073414999999999964e+01 8.087115000000000009e+01 2.174039999999999964e+03
7.100000000000000755e-02 1.654079999999999995e-01 2.237284999999999968e+01 8.478419999999999845e+01 2.175429999999999836e+03
7.200000000000000844e-02 1.655375000000000041e-01 2.381244999999999834e+01 8.826165000000000305e+01 2.176699999999999818e+03
7.300000000000000933e-02 1.656544999999999823e-01 2.507099999999999795e+01 9.137659999999999627e+01 2.177860000000000127e+03
7.399999999999999634e-02 1.657615000000000061e-01 2.617699999999999960e+01 9.422495000000000687e+01 2.178920000000000073e+03
7.499999999999999722e-02 1.658614999999999950e-01 2.716640000000000299e+01 9.691599999999999682e+01 2.179904999999999745e+03
7.599999999999999811e-02 1.659565000000000068e-01 2.807854999999999990e+01 9.956100000000000705e+01 2.180845000000000255e+03
7.699999999999999900e-02 1.660504999999999898e-01 2.895250000000000057e+01 1.022650000000000006e+02 2.181774999999999636e+03
7.799999999999999989e-02 1.661455000000000015e-01 2.982365000000000066e+01 1.051135000000000019e+02 2.182719999999999800e+03
7.900000000000000078e-02 1.662449999999999761e-01 3.072030000000000172e+01 1.081689999999999969e+02 2.183690000000000055e+03
8.000000000000000167e-02 1.663494999999999835e-01 3.166195000000000093e+01 1.114660000000000082e+02 2.184715000000000146e+03
8.100000000000000255e-02 1.664605000000000112e-01 3.265780000000000172e+01 1.150065000000000026e+02 2.185804999999999836e+03
8.200000000000000344e-02 1.665774999999999895e-01 3.370649999999999835e+01 1.187634999999999934e+02 2.186954999999999927e+03
8.300000000000000433e-02 1.667005000000000015e-01 3.479694999999999538e+01 1.226839999999999975e+02 2.188154999999999745e+03
8.400000000000000522e-02 1.668275000000000174e-01 3.590954999999999586e+01 1.266949999999999932e+02 2.189400000000000091e+03
8.500000000000000611e-02 1.669565000000000077e-01 3.701814999999999856e+01 1.307079999999999984e+02 2.190664999999999964e+03
8.600000000000000699e-02 1.670849999999999835e-01 3.809215000000000373e+01 1.346270000000000095e+02 2.191930000000000291e+03
8.700000000000000788e-02 1.672099999999999975e-01 3.909924999999999784e+01 1.383559999999999945e+02 2.193164999999999964e+03
8.800000000000000877e-02 1.673290000000000055e-01 4.000730000000000075e+01 1.418054999999999950e+02 2.194340000000000146e+03
8.899999999999999578e-02 1.674395000000000189e-01 4.078685000000000116e+01 1.448969999999999914e+02 2.195439999999999600e+03
8.999999999999999667e-02 1.675395000000000079e-01 4.141264999999999930e+01 1.475659999999999741e+02 2.196435000000000400e+03
9.099999999999999756e-02 1.676269999999999982e-01 4.186544999999999561e+01 1.497685000000000173e+02 2.197309999999999945e+03
9.199999999999999845e-02 1.677005000000000023e-01 4.213275000000000148e+01 1.514784999999999968e+02 2.198045000000000073e+03
9.299999999999999933e-02 1.677584999999999771e-01 4.220949999999999847e+01 1.526924999999999955e+02 2.198640000000000327e+03
9.400000000000000022e-02 1.678024999999999933e-01 4.209805000000000064e+01 1.534259999999999877e+02 2.199085000000000036e+03
9.500000000000000111e-02 1.678315000000000223e-01 4.180819999999999936e+01 1.537115000000000009e+02 2.199385000000000218e+03
9.600000000000000200e-02 1.678469999999999962e-01 4.135609999999999786e+01 1.535975000000000250e+02 2.199550000000000182e+03
9.700000000000000289e-02 1.678499999999999992e-01 4.076330000000000098e+01 1.531454999999999984e+02 2.199599999999999909e+03
9.800000000000000377e-02 1.678425000000000056e-01 4.005545000000000044e+01 1.524234999999999900e+02 2.199539999999999964e+03
9.900000000000000466e-02 1.678264999999999896e-01 3.926080000000000325e+01 1.515045000000000073e+02 2.199389999999999873e+03
1.000000000000000056e-01 1.678044999999999953e-01 3.840895000000000437e+01 1.504619999999999891e+02 2.199184999999999945e+03
1.010000000000000064e-01 1.677774999999999961e-01 3.752880000000000393e+01 1.493659999999999854e+02 2.198920000000000073e+03
1.020000000000000073e-01 1.677485000000000226e-01 3.664780000000000371e+01 1.482805000000000177e+02 2.198639999999999873e+03
1.030000000000000082e-01 1.677184999999999926e-01 3.579035000000000366e+01 1.472599999999999909e+02 2.198355000000000018e+03
1.040000000000000091e-01 1.676904999999999923e-01 3.497679999999999723e+01 1.463480000000000132e+02 2.198074999999999818e+03
1.050000000000000100e-01 1.676644999999999941e-01 3.422289999999999566e+01 1.455754999999999768e+02 2.197810000000000400e+03
1.059999999999999970e-01 1.676420000000000132e-01 3.353889999999999816e+01 1.449594999999999914e+02 2.197585000000000036e+03
1.069999999999999979e-01 1.676229999999999942e-01 3.292964999999999520e+01 1.445040000000000191e+02 2.197400000000000091e+03
1.079999999999999988e-01 1.676095000000000224e-01 3.239440000000000452e+01 1.441990000000000123e+02 2.197255000000000109e+03
1.089999999999999997e-01 1.675989999999999980e-01 3.192719999999999914e+01 1.440219999999999914e+02 2.197144999999999982e+03
1.100000000000000006e-01 1.675915000000000044e-01 3.151740000000000208e+01 1.439410000000000025e+02 2.197069999999999709e+03
1.110000000000000014e-01 1.675869999999999860e-01 3.115070000000000050e+01 1.439145000000000039e+02 2.197019999999999982e+03
1.120000000000000023e-01 1.675845000000000251e-01 3.080989999999999895e+01 1.438965000000000032e+02 2.196985000000000127e+03
1.130000000000000032e-01 1.675809999999999800e-01 3.047589999999999932e+01 1.438380000000000223e+02 2.196949999999999818e+03
1.140000000000000041e-01 1.675765000000000171e-01 3.012954999999999828e+01 1.436895000000000095e+02 2.196904999999999745e+03
1.150000000000000050e-01 1.675695000000000101e-01 2.975229999999999819e+01 1.434060000000000059e+02 2.196835000000000036e+03
1.160000000000000059e-01 1.675584999999999991e-01 2.932744999999999891e+01 1.429484999999999957e+02 2.196724999999999909e+03
1.170000000000000068e-01 1.675424999999999831e-01 2.884159999999999968e+01 1.422869999999999777e+02 2.196565000000000055e+03
1.180000000000000077e-01 1.675200000000000022e-01 2.828504999999999825e+01 1.414035000000000082e+02 2.196350000000000364e+03
1.190000000000000085e-01 1.674915000000000154e-01 2.765270000000000294e+01 1.402909999999999968e+02 2.196070000000000164e+03
1.200000000000000094e-01 1.674565000000000081e-01 2.694435000000000002e+01 1.389565000000000055e+02 2.195725000000000364e+03
1.209999999999999964e-01 1.674140000000000073e-01 2.616485000000000127e+01 1.374184999999999945e+02 2.195314999999999600e+03
1.219999999999999973e-01 1.673665000000000014e-01 2.532349999999999923e+01 1.357079999999999984e+02 2.194845000000000255e+03
1.229999999999999982e-01 1.673129999999999895e-01 2.443395000000000294e+01 1.338659999999999854e+02 2.194329999999999927e+03
1.239999999999999991e-01 1.672559999999999880e-01 2.351295000000000002e+01 1.319395000000000095e+02 2.193775000000000091e+03
1.250000000000000000e-01 1.671969999999999845e-01 2.257974999999999710e+01 1.299814999999999827e+02 2.193190000000000055e+03
1.260000000000000009e-01 1.671360000000000068e-01 2.165469999999999828e+01 1.280465000000000089e+02 2.192595000000000255e+03
1.270000000000000018e-01 1.670760000000000023e-01 2.075825000000000031e+01 1.261879999999999882e+02 2.192005000000000109e+03
1.280000000000000027e-01 1.670185000000000142e-01 1.990980000000000061e+01 1.244534999999999911e+02 2.191435000000000400e+03
1.290000000000000036e-01 1.669640000000000013e-01 1.912684999999999746e+01 1.228859999999999957e+02 2.190900000000000091e+03
1.300000000000000044e-01 1.669145000000000212e-01 1.842385000000000161e+01 1.215190000000000055e+02 2.190409999999999854e+03
1.310000000000000053e-01 1.668709999999999916e-01 1.781190000000000140e+01 1.203770000000000095e+02 2.189974999999999909e+03
1.320000000000000062e-01 1.668334999999999957e-01 1.729840000000000089e+01 1.194724999999999966e+02 2.189605000000000018e+03
1.330000000000000071e-01 1.668029999999999791e-01 1.688635000000000019e+01 1.188094999999999999e+02 2.189295000000000073e+03
1.340000000000000080e-01 1.667800000000000116e-01 1.657525000000000048e+01 1.183815000000000026e+02 2.189059999999999945e+03
1.350000000000000089e-01 1.667639999999999956e-01 1.636064999999999969e+01 1.181734999999999900e+02 2.188894999999999982e+03
1.360000000000000098e-01 1.667540000000000133e-01 1.623494999999999777e+01 1.181620000000000061e+02 2.188789999999999964e+03
1.370000000000000107e-01 1.667510000000000103e-01 1.618789999999999907e+01 1.183190000000000026e+02 2.188750000000000000e+03
1.380000000000000115e-01 1.667520000000000113e-01 1.620720000000000027e+01 1.186129999999999995e+02 2.188760000000000218e+03
1.390000000000000124e-01 1.667580000000000173e-01 1.627929999999999922e+01 1.190084999999999980e+02 2.188810000000000400e+03
1.400000000000000133e-01 1.667675000000000129e-01 1.638990000000000080e+01 1.194710000000000036e+02 2.188894999999999982e+03
1.410000000000000142e-01 1.667794999999999972e-01 1.652469999999999928e+01 1.199675000000000011e+02 2.189005000000000109e+03
1.420000000000000151e-01 1.667919999999999958e-01 1.667010000000000147e+01 1.204660000000000082e+02 2.189130000000000109e+03
1.430000000000000160e-01 1.668054999999999954e-01 1.681360000000000099e+01 1.209399999999999977e+02 2.189260000000000218e+03
1.440000000000000169e-01 1.668184999999999807e-01 1.694429999999999836e+01 1.213644999999999925e+02 2.189380000000000109e+03
1.450000000000000178e-01 1.668304999999999927e-01 1.705299999999999727e+01 1.217245000000000061e+02 2.189500000000000000e+03
1.459999999999999909e-01 1.668410000000000171e-01 1.713309999999999889e+01 1.220049999999999955e+02 2.189599999999999909e+03
1.469999999999999918e-01 1.668489999999999973e-01 1.717980000000000018e+01 1.222005000000000052e+02 2.189679999999999836e+03
1.479999999999999927e-01 1.668550000000000033e-01 1.719109999999999872e+01 1.223094999999999999e+02 2.189744999999999891e+03
1.489999999999999936e-01 1.668584999999999929e-01 1.716704999999999970e+01 1.223365000000000009e+02 2.189779999999999745e+03
1.499999999999999944e-01 1.668600000000000083e-01 1.710979999999999990e+01 1.222899999999999920e+02 2.189795000000000073e+03
1.509999999999999953e-01 1.668589999999999796e-01 1.702329999999999899e+01 1.221825000000000045e+02 2.189789999999999964e+03
1.519999999999999962e-01 1.668565000000000187e-01 1.691304999999999836e+01 1.220289999999999964e+02 2.189765000000000327e+03
1.529999999999999971e-01 1.668525000000000147e-01 1.678545000000000087e+01 1.218474999999999966e+02 2.189735000000000127e+03
1.539999999999999980e-01 1.668479999999999963e-01 1.664764999999999873e+01 1.216564999999999941e+02 2.189690000000000055e+03
1.549999999999999989e-01 1.668429999999999913e-01 1.650675000000000026e+01 1.214729999999999990e+02 2.189644999999999982e+03
1.559999999999999998e-01 1.668379999999999863e-01 1.636965000000000003e+01 1.213119999999999976e+02 2.189595000000000255e+03
1.570000000000000007e-01 1.668339999999999823e-01 1.624255000000000138e+01 1.211894999999999953e+02 2.189555000000000291e+03
1.580000000000000016e-01 1.668304999999999927e-01 1.613060000000000116e+01 1.211140000000000043e+02 2.189525000000000091e+03
1.590000000000000024e-01 1.668290000000000051e-01 1.603754999999999953e+01 1.210939999999999941e+02 2.189505000000000109e+03
