# t [s], A [cm^2], U [cm/s], P [cPa], c [cm/s]
1.000000000000000021e-03 4.917120000000000379e-01 2.722149999999999570e-03 9.052214999999999634e+01 1.603769999999999982e+03
2.000000000000000042e-03 4.917084999999999928e-01 9.274950000000000555e-03 9.050094999999998890e+01 1.603764999999999873e+03
3.000000000000000062e-03 4.917664999999999953e-01 1.475614499999999829e-01 9.064500000000001023e+01 1.603804999999999836e+03
4.000000000000000083e-03 4.917914999999999925e-01 2.228680000000000105e-01 9.073214999999999009e+01 1.603825000000000045e+03
5.000000000000000104e-03 4.917470000000000452e-01 1.410040000000000182e-01 9.057489999999999952e+01 1.603789999999999964e+03
6.000000000000000125e-03 4.916850000000000387e-01 9.033000000000013241e-03 9.025675000000001091e+01 1.603715000000000146e+03
7.000000000000000146e-03 4.916129999999999667e-01 -1.588199999999999612e-01 8.981409999999999627e+01 1.603605000000000018e+03
8.000000000000000167e-03 4.914855000000000196e-01 -4.700500000000000789e-01 8.911090000000000089e+01 1.603429999999999836e+03
9.000000000000001055e-03 4.912950000000000372e-01 -9.401700000000000612e-01 8.807694999999999652e+01 1.603170000000000073e+03
1.000000000000000194e-02 4.910364999999999869e-01 -1.566289999999999960e+00 8.666929999999999268e+01 1.602815000000000055e+03
1.099999999999999936e-02 4.906915000000000027e-01 -2.372780000000000111e+00 8.481315000000000737e+01 1.602335000000000036e+03
1.200000000000000025e-02 4.902655000000000207e-01 -3.319069999999999965e+00 8.250919999999999277e+01 1.601720000000000027e+03
1.300000000000000114e-02 4.898144999999999860e-01 -4.243555000000000632e+00 7.993760000000000332e+01 1.601014999999999873e+03
1.400000000000000203e-02 4.894129999999999869e-01 -4.930556000000000161e+00 7.741079999999999472e+01 1.600295000000000073e+03
1.499999999999999944e-02 4.891134999999999788e-01 -5.223571500000000256e+00 7.522344999999999970e+01 1.599634999999999991e+03
1.600000000000000033e-02 4.889210000000000500e-01 -5.088544999999999874e+00 7.352899999999999636e+01 1.599070000000000164e+03
1.700000000000000122e-02 4.888025000000000286e-01 -4.607965000000000089e+00 7.230115000000000691e+01 1.598610000000000127e+03
1.800000000000000211e-02 4.887034999999999574e-01 -3.931799999999999962e+00 7.137090000000000600e+01 1.598230000000000018e+03
1.900000000000000300e-02 4.885734999999999939e-01 -3.214770000000000127e+00 7.050730000000000075e+01 1.597880000000000109e+03
2.000000000000000042e-02 4.883824999999999972e-01 -2.562248999999999999e+00 6.950804999999999723e+01 1.597505000000000109e+03
2.100000000000000130e-02 4.881275000000000475e-01 -2.003659999999999997e+00 6.826645000000000607e+01 1.597085000000000036e+03
2.200000000000000219e-02 4.878295000000000270e-01 -1.502615000000000034e+00 6.678770000000000095e+01 1.596605000000000018e+03
2.299999999999999961e-02 4.875169999999999781e-01 -9.948650000000001103e-01 6.515534999999999854e+01 1.596090000000000146e+03
2.400000000000000050e-02 4.872115000000000196e-01 -4.319550000000003109e-01 6.347034999999999627e+01 1.595550000000000182e+03
2.500000000000000139e-02 4.869189999999999907e-01 1.890199999999997438e-01 6.179529999999999745e+01 1.595005000000000109e+03
2.600000000000000228e-02 4.866260000000000030e-01 8.175099999999999589e-01 6.012284999999999968e+01 1.594454999999999927e+03
2.700000000000000316e-02 4.863070000000000448e-01 1.361134999999999984e+00 5.837260000000000559e+01 1.593880000000000109e+03
2.800000000000000058e-02 4.859295000000000142e-01 1.710079999999999600e+00 5.641405000000000314e+01 1.593259999999999991e+03
2.900000000000000147e-02 4.854669999999999819e-01 1.766599999999999948e+00 5.410569999999999879e+01 1.592549999999999955e+03
3.000000000000000236e-02 4.849054999999999893e-01 1.472024999999999917e+00 5.134029999999999916e+01 1.591735000000000127e+03
3.099999999999999978e-02 4.842484999999999706e-01 8.239199999999993196e-01 4.808254999999999768e+01 1.590789999999999964e+03
3.200000000000000067e-02 4.835184999999999622e-01 -1.212499999999998579e-01 4.438920000000000243e+01 1.589730000000000018e+03
3.300000000000000155e-02 4.827525000000000288e-01 -1.260029999999999539e+00 4.040540000000000020e+01 1.588579999999999927e+03
3.400000000000000244e-02 4.819964999999999944e-01 -2.463479999999999670e+00 3.634085000000000321e+01 1.587400000000000091e+03
3.500000000000000333e-02 4.812950000000000284e-01 -3.600395000000000234e+00 3.243475000000000108e+01 1.586235000000000127e+03
3.600000000000000422e-02 4.806850000000000289e-01 -4.556494999999999962e+00 2.892050000000000054e+01 1.585159999999999854e+03
3.700000000000000511e-02 4.801965000000000261e-01 -5.246175000000000033e+00 2.599605000000000032e+01 1.584224999999999909e+03
3.799999999999999906e-02 4.798465000000000091e-01 -5.615950500000000289e+00 2.380590000000000117e+01 1.583474999999999909e+03
3.899999999999999994e-02 4.796414999999999429e-01 -5.642339999999999911e+00 2.243404999999999916e+01 1.582940000000000055e+03
4.000000000000000083e-02 4.795814999999999939e-01 -5.324645000000000294e+00 2.190740000000000265e+01 1.582640000000000100e+03
4.100000000000000172e-02 4.796584999999999877e-01 -4.676895000000000024e+00 2.220665000000000333e+01 1.582579999999999927e+03
4.200000000000000261e-02 4.798620000000000108e-01 -3.720218500000000095e+00 2.328014999999999901e+01 1.582750000000000000e+03
4.300000000000000350e-02 4.801810000000000245e-01 -2.477820000000000356e+00 2.505809999999999960e+01 1.583134999999999991e+03
4.400000000000000439e-02 4.806034999999999613e-01 -9.731350000000000833e-01 2.746224999999999739e+01 1.583720000000000027e+03
4.499999999999999833e-02 4.811170000000000169e-01 7.691600000000002879e-01 3.041185000000000116e+01 1.584474999999999909e+03
4.599999999999999922e-02 4.817084999999999839e-01 2.720609999999999751e+00 3.382465000000000543e+01 1.585384999999999991e+03
4.700000000000000011e-02 4.823635000000000561e-01 4.846569999999999823e+00 3.761585000000000178e+01 1.586429999999999836e+03
4.800000000000000100e-02 4.830664999999999543e-01 7.104805000000000703e+00 4.169650000000000034e+01 1.587574999999999818e+03
4.900000000000000189e-02 4.838010000000000366e-01 9.446428499999999673e+00 4.597310000000000230e+01 1.588789999999999964e+03
5.000000000000000278e-02 4.845484999999999376e-01 1.181797500000000056e+01 5.034994999999999266e+01 1.590065000000000055e+03
5.100000000000000366e-02 4.852929999999999744e-01 1.416546999999999912e+01 5.473264999999999958e+01 1.591355000000000018e+03
5.200000000000000455e-02 4.860194999999999932e-01 1.643826999999999927e+01 5.903364999999999441e+01 1.592650000000000091e+03
5.300000000000000544e-02 4.867150000000000087e-01 1.859299999999999997e+01 6.317784999999999229e+01 1.593920000000000073e+03
5.399999999999999939e-02 4.873720000000000274e-01 2.059629999999999939e+01 6.710745000000000005e+01 1.595139999999999873e+03
5.500000000000000028e-02 4.879860000000000309e-01 2.242620000000000147e+01 7.078499999999999659e+01 1.596304999999999836e+03
5.600000000000000117e-02 4.885550000000000170e-01 2.407254999999999967e+01 7.419480000000000075e+01 1.597404999999999973e+03
5.700000000000000205e-02 4.890829999999999900e-01 2.553610000000000113e+01 7.734190000000000964e+01 1.598434999999999945e+03
5.800000000000000294e-02 4.895739999999999537e-01 2.682655000000000101e+01 8.024949999999999761e+01 1.599400000000000091e+03
5.900000000000000383e-02 4.900364999999999860e-01 2.796065000000000111e+01 8.295519999999999072e+01 1.600304999999999836e+03
6.000000000000000472e-02 4.904784999999999839e-01 2.896020000000000039e+01 8.550679999999999836e+01 1.601170000000000073e+03
6.099999999999999867e-02 4.909090000000000398e-01 2.985020000000000095e+01 8.795770000000000266e+01 1.601994999999999891e+03
6.199999999999999956e-02 4.913374999999999826e-01 3.065709999999999980e+01 9.036339999999999861e+01 1.602799999999999955e+03
6.300000000000000044e-02 4.917730000000000157e-01 3.140735000000000099e+01 9.277770000000001005e+01 1.603605000000000018e+03
6.400000000000000133e-02 4.922225000000000072e-01 3.212640000000000384e+01 9.524954999999999927e+01 1.604420000000000073e+03
6.500000000000000222e-02 4.926924999999999777e-01 3.283705000000000496e+01 9.782075000000000387e+01 1.605255000000000109e+03
6.600000000000000311e-02 4.931885000000000296e-01 3.355794999999999817e+01 1.005223000000000013e+02 1.606125000000000000e+03
6.700000000000000400e-02 4.937124999999999986e-01 3.430290000000000106e+01 1.033747999999999934e+02 1.607025000000000091e+03
6.800000000000000488e-02 4.942644999999999955e-01 3.507909999999999684e+01 1.063834999999999980e+02 1.607980000000000018e+03
6.900000000000000577e-02 4.948420000000000041e-01 3.588680000000000092e+01 1.095399999999999920e+02 1.608964999999999918e+03
7.000000000000000666e-02 4.954395000000000326e-01 3.671925000000000239e+01 1.128209999999999980e+02 1.609994999999999891e+03
7.100000000000000755e-02 4.960505000000000053e-01 3.756300000000000239e+01 1.161899999999999977e+02 1.611049999999999955e+03
7.200000000000000844e-02 4.966654999999999820e-01 3.839894999999999925e+01 1.195985000000000014e+02 1.612125000000000000e+03
7.300000000000000933e-02 4.972745000000000637e-01 3.920390000000000441e+01 1.229904999999999973e+02 1.613195000000000164e+03
7.399999999999999634e-02 4.978659999999999752e-01 3.995230000000000103e+01 1.263040000000000020e+02 1.614255000000000109e+03
7.499999999999999722e-02 4.984299999999999842e-01 4.061820000000000164e+01 1.294775000000000205e+02 1.615275000000000091e+03
7.599999999999999811e-02 4.989559999999999551e-01 4.117685000000000173e+01 1.324515000000000100e+02 1.616244999999999891e+03
7.699999999999999900e-02 4.994349999999999623e-01 4.160665000000000191e+01 1.351734999999999900e+02 1.617150000000000091e+03
7.799999999999999989e-02 4.998614999999999586e-01 4.189010000000000389e+01 1.376000000000000227e+02 1.617974999999999909e+03
7.900000000000000078e-02 5.002299999999999525e-01 4.201484999999999559e+01 1.396995000000000005e+02 1.618700000000000045e+03
8.000000000000000167e-02 5.005379999999999274e-01 4.197429999999999950e+01 1.414534999999999911e+02 1.619329999999999927e+03
8.100000000000000255e-02 5.007854999999999945e-01 4.176770000000000493e+01 1.428555000000000064e+02 1.619855000000000018e+03
8.200000000000000344e-02 5.009744999999999893e-01 4.140005000000000024e+01 1.439139999999999873e+02 1.620275000000000091e+03
8.300000000000000433e-02 5.011084999999999567e-01 4.088174999999999670e+01 1.446474999999999795e+02 1.620595000000000027e+03
8.400000000000000522e-02 5.011934999999999585e-01 4.022780000000000200e+01 1.450850000000000080e+02 1.620820000000000164e+03
8.500000000000000611e-02 5.012349999999999861e-01 3.945725000000000193e+01 1.452635000000000218e+02 1.620960000000000036e+03
8.600000000000000699e-02 5.012419999999999654e-01 3.859189999999999543e+01 1.452275000000000205e+02 1.621029999999999973e+03
8.700000000000000788e-02 5.012210000000000276e-01 3.765569999999999595e+01 1.450240000000000009e+02 1.621039999999999964e+03
8.800000000000000877e-02 5.011820000000000164e-01 3.667334999999999923e+01 1.447015000000000100e+02 1.621000000000000000e+03
8.899999999999999578e-02 5.011320000000000219e-01 3.566924999999999812e+01 1.443075000000000045e+02 1.620929999999999836e+03
8.999999999999999667e-02 5.010784999999999823e-01 3.466655000000000086e+01 1.438865000000000123e+02 1.620840000000000146e+03
9.099999999999999756e-02 5.010274999999999590e-01 3.368619999999999948e+01 1.434795000000000016e+02 1.620740000000000009e+03
9.199999999999999845e-02 5.009854999999999725e-01 3.274604999999999677e+01 1.431179999999999950e+02 1.620650000000000091e+03
9.299999999999999933e-02 5.009559999999999569e-01 3.186019999999999897e+01 1.428284999999999911e+02 1.620565000000000055e+03
9.400000000000000022e-02 5.009409999999999696e-01 3.103855000000000075e+01 1.426279999999999859e+02 1.620505000000000109e+03
9.500000000000000111e-02 5.009415000000000395e-01 3.028670000000000329e+01 1.425254999999999939e+02 1.620470000000000027e+03
9.600000000000000200e-02 5.009580000000000144e-01 2.960585000000000377e+01 1.425209999999999866e+02 1.620450000000000045e+03
9.700000000000000289e-02 5.009875000000000300e-01 2.899290000000000234e+01 1.426059999999999945e+02 1.620464999999999918e+03
9.800000000000000377e-02 5.010280000000000289e-01 2.844125000000000014e+01 1.427655000000000030e+02 1.620500000000000000e+03
9.900000000000000466e-02 5.010760000000000769e-01 2.794104999999999706e+01 1.429795000000000016e+02 1.620545000000000073e+03
1.000000000000000056e-01 5.011265000000000303e-01 2.747995000000000232e+01 1.432219999999999800e+02 1.620605000000000018e+03
1.010000000000000064e-01 5.011734999999999385e-01 2.704410000000000025e+01 1.434660000000000082e+02 1.620670000000000073e+03
1.020000000000000073e-01 5.012140000000000484e-01 2.661860000000000070e+01 1.436819999999999879e+02 1.620724999999999909e+03
1.030000000000000082e-01 5.012425000000000352e-01 2.618860000000000099e+01 1.438410000000000082e+02 1.620775000000000091e+03
1.040000000000000091e-01 5.012539999999999774e-01 2.574025000000000318e+01 1.439164999999999850e+02 1.620799999999999955e+03
1.050000000000000100e-01 5.012455000000000105e-01 2.526099999999999923e+01 1.438859999999999957e+02 1.620789999999999964e+03
1.059999999999999970e-01 5.012134999999999785e-01 2.474060000000000059e+01 1.437309999999999945e+02 1.620755000000000109e+03
1.069999999999999979e-01 5.011575000000000335e-01 2.417174999999999940e+01 1.434379999999999882e+02 1.620680000000000064e+03
1.079999999999999988e-01 5.010755000000000070e-01 2.355000000000000071e+01 1.430024999999999977e+02 1.620565000000000055e+03
1.089999999999999997e-01 5.009689999999999976e-01 2.287440000000000140e+01 1.424225000000000136e+02 1.620405000000000200e+03
1.100000000000000006e-01 5.008390000000000342e-01 2.214730000000000132e+01 1.417065000000000055e+02 1.620204999999999927e+03
1.110000000000000014e-01 5.006884999999999808e-01 2.137444999999999951e+01 1.408670000000000186e+02 1.619970000000000027e+03
1.120000000000000023e-01 5.005205000000000348e-01 2.056449999999999889e+01 1.399230000000000018e+02 1.619699999999999818e+03
1.130000000000000032e-01 5.003400000000000070e-01 1.972860000000000014e+01 1.388975000000000080e+02 1.619400000000000091e+03
1.140000000000000041e-01 5.001519999999999300e-01 1.888015000000000043e+01 1.378189999999999884e+02 1.619079999999999927e+03
1.150000000000000050e-01 4.999605000000000299e-01 1.803365000000000151e+01 1.367160000000000082e+02 1.618750000000000000e+03
1.160000000000000059e-01 4.997725000000000084e-01 1.720445000000000135e+01 1.356195000000000164e+02 1.618420000000000073e+03
1.170000000000000068e-01 4.995924999999999949e-01 1.640769999999999840e+01 1.345600000000000023e+02 1.618090000000000146e+03
1.180000000000000077e-01 4.994244999999999934e-01 1.565779999999999994e+01 1.335649999999999977e+02 1.617775000000000091e+03
1.190000000000000085e-01 4.992739999999999956e-01 1.496749999999999936e+01 1.326599999999999966e+02 1.617485000000000127e+03
1.200000000000000094e-01 4.991430000000000033e-01 1.434759999999999991e+01 1.318650000000000091e+02 1.617220000000000027e+03
1.209999999999999964e-01 4.990340000000000331e-01 1.380631999999999948e+01 1.311965000000000146e+02 1.616985000000000127e+03
1.219999999999999973e-01 4.989489999999999759e-01 1.334887499999999960e+01 1.306630000000000109e+02 1.616799999999999955e+03
1.229999999999999982e-01 4.988879999999999981e-01 1.297766000000000020e+01 1.302690000000000055e+02 1.616644999999999982e+03
1.239999999999999991e-01 4.988505000000000300e-01 1.269190000000000040e+01 1.300130000000000052e+02 1.616529999999999973e+03
1.250000000000000000e-01 4.988339999999999996e-01 1.248809999999999931e+01 1.298870000000000005e+02 1.616460000000000036e+03
1.260000000000000009e-01 4.988374999999999893e-01 1.236025000000000063e+01 1.298785000000000025e+02 1.616420000000000073e+03
1.270000000000000018e-01 4.988569999999999949e-01 1.230010000000000048e+01 1.299719999999999800e+02 1.616420000000000073e+03
1.280000000000000027e-01 4.988890000000000269e-01 1.229785000000000039e+01 1.301485000000000127e+02 1.616440000000000055e+03
1.290000000000000036e-01 4.989304999999999990e-01 1.234254999999999924e+01 1.303874999999999886e+02 1.616485000000000127e+03
1.300000000000000044e-01 4.989784999999999915e-01 1.242265000000000086e+01 1.306670000000000016e+02 1.616549999999999955e+03
1.310000000000000053e-01 4.990274999999999572e-01 1.252655000000000030e+01 1.309669999999999845e+02 1.616619999999999891e+03
1.320000000000000062e-01 4.990765000000000340e-01 1.264294999999999902e+01 1.312659999999999911e+02 1.616694999999999936e+03
1.330000000000000071e-01 4.991210000000000369e-01 1.276144999999999996e+01 1.315475000000000136e+02 1.616775000000000091e+03
1.340000000000000080e-01 4.991585000000000605e-01 1.287260000000000026e+01 1.317969999999999970e+02 1.616840000000000146e+03
1.350000000000000089e-01 4.991885000000000350e-01 1.296865000000000023e+01 1.320014999999999930e+02 1.616900000000000091e+03
1.360000000000000098e-01 4.992084999999999995e-01 1.304309999999999903e+01 1.321525000000000034e+02 1.616945000000000164e+03
1.370000000000000107e-01 4.992189999999999683e-01 1.309140000000000015e+01 1.322454999999999927e+02 1.616980000000000018e+03
1.380000000000000115e-01 4.992185000000000095e-01 1.311059999999999981e+01 1.322769999999999868e+02 1.617000000000000000e+03
1.390000000000000124e-01 4.992084999999999995e-01 1.309934999999999938e+01 1.322489999999999952e+02 1.617000000000000000e+03
1.400000000000000133e-01 4.991889999999999938e-01 1.305799999999999983e+01 1.321655000000000086e+02 1.616980000000000018e+03
1.410000000000000142e-01 4.991619999999999946e-01 1.298835000000000051e+01 1.320324999999999989e+02 1.616944999999999936e+03
1.420000000000000151e-01 4.991280000000000161e-01 1.289320000000000022e+01 1.318574999999999875e+02 1.616904999999999973e+03
1.430000000000000160e-01 4.990895000000000192e-01 1.277645000000000053e+01 1.316510000000000105e+02 1.616855000000000018e+03
1.440000000000000169e-01 4.990479999999999916e-01 1.264296000000000042e+01 1.314215000000000089e+02 1.616789999999999964e+03
1.450000000000000178e-01 4.990050000000000319e-01 1.249772499999999908e+01 1.311809999999999832e+02 1.616724999999999909e+03
1.459999999999999909e-01 4.989624999999999755e-01 1.234616000000000113e+01 1.309390000000000214e+02 1.616654999999999973e+03
1.469999999999999918e-01 4.989230000000000054e-01 1.219355000000000011e+01 1.307049999999999841e+02 1.616585000000000036e+03
1.479999999999999927e-01 4.988859999999999961e-01 1.204487999999999914e+01 1.304879999999999995e+02 1.616519999999999982e+03
1.489999999999999936e-01 4.988544999999999785e-01 1.190468999999999866e+01 1.302950000000000159e+02 1.616464999999999918e+03
1.499999999999999944e-01 4.988279999999999936e-01 1.177672500000000078e+01 1.301324999999999932e+02 1.616409999999999854e+03
1.509999999999999953e-01 4.988080000000000291e-01 1.166385999999999967e+01 1.300035000000000025e+02 1.616369999999999891e+03
1.519999999999999962e-01 4.987939999999999596e-01 1.156815999999999889e+01 1.299095000000000084e+02 1.616335000000000036e+03
1.529999999999999971e-01 4.987865000000000215e-01 1.149061500000000002e+01 1.298520000000000039e+02 1.616309999999999945e+03
1.539999999999999980e-01 4.987844999999999640e-01 1.143134500000000031e+01 1.298274999999999864e+02 1.616295000000000073e+03
1.549999999999999989e-01 4.987874999999999392e-01 1.138939500000000038e+01 1.298344999999999914e+02 1.616289999999999964e+03
1.559999999999999998e-01 4.987949999999999884e-01 1.136320500000000067e+01 1.298675000000000068e+02 1.616295000000000073e+03
1.570000000000000007e-01 4.988055000000000128e-01 1.135046499999999980e+01 1.299205000000000041e+02 1.616304999999999836e+03
1.580000000000000016e-01 4.988174999999999693e-01 1.134833499999999873e+01 1.299875000000000114e+02 1.616319999999999936e+03
1.590000000000000024e-01 4.988310000000000244e-01 1.135378000000000043e+01 1.300614999999999952e+02 1.616339999999999918e+03
