# t [s], A [cm^2], U [cm/s], P [cPa], c [cm/s]
1.000000000000000021e-03 8.076244999999999674e-01 5.844000000000001971e-03 9.427500000000000568e+01 1.674110000000000127e+03
2.000000000000000042e-03 8.076110000000000788e-01 8.428450000000000525e-04 9.423994999999999322e+01 1.674099999999999909e+03
3.000000000000000062e-03 8.077019999999999200e-01 1.397733999999999921e-01 9.439015000000000555e+01 1.674134999999999991e+03
4.000000000000000083e-03 8.077469999999999928e-01 2.327915000000000123e-01 9.449134999999999707e+01 1.674159999999999854e+03
5.000000000000000104e-03 8.076605000000000034e-01 1.453480000000000050e-01 9.430254999999999654e+01 1.674119999999999891e+03
6.000000000000000125e-03 8.075495000000000312e-01 1.041549999999996645e-02 9.394759999999999422e+01 1.674039999999999964e+03
7.000000000000000146e-03 8.074350000000000138e-01 -1.444550000000000001e-01 9.349654999999999916e+01 1.673940000000000055e+03
8.000000000000000167e-03 8.072239999999999416e-01 -4.627249999999999419e-01 9.276935000000000286e+01 1.673775000000000091e+03
9.000000000000001055e-03 8.069144999999999790e-01 -9.476700000000000124e-01 9.170659999999999457e+01 1.673539999999999964e+03
1.000000000000000194e-02 8.065029999999999699e-01 -1.592054999999999998e+00 9.027000000000001023e+01 1.673219999999999800e+03
1.099999999999999936e-02 8.059460000000000512e-01 -2.437110000000000110e+00 8.835429999999999495e+01 1.672779999999999973e+03
1.200000000000000025e-02 8.052589999999999471e-01 -3.432949999999999502e+00 8.596049999999999613e+01 1.672230000000000018e+03
1.300000000000000114e-02 8.045569999999999666e-01 -4.372173000000000087e+00 8.333044999999999902e+01 1.671605000000000018e+03
1.400000000000000203e-02 8.039804999999999868e-01 -4.999713999999999992e+00 8.084575000000000955e+01 1.670980000000000018e+03
1.499999999999999944e-02 8.036024999999999974e-01 -5.160464999999999414e+00 7.881440000000000623e+01 1.670440000000000055e+03
1.600000000000000033e-02 8.034010000000000318e-01 -4.859144999999999825e+00 7.733480000000000132e+01 1.670005000000000109e+03
1.700000000000000122e-02 8.032850000000000268e-01 -4.230850000000000222e+00 7.628579999999999472e+01 1.669659999999999854e+03
1.800000000000000211e-02 8.031435000000000102e-01 -3.467975000000000030e+00 7.540659999999999741e+01 1.669349999999999909e+03
1.900000000000000300e-02 8.028904999999999514e-01 -2.739462999999999759e+00 7.441594999999999516e+01 1.669035000000000082e+03
2.000000000000000042e-02 8.024964999999999460e-01 -2.129514000000000351e+00 7.312685000000000457e+01 1.668659999999999854e+03
2.100000000000000130e-02 8.019924999999999971e-01 -1.620480000000000143e+00 7.150815000000000055e+01 1.668220000000000027e+03
2.200000000000000219e-02 8.014455000000000329e-01 -1.126929999999999987e+00 6.966655000000000086e+01 1.667724999999999909e+03
2.299999999999999961e-02 8.009204999999999242e-01 -5.577000000000000846e-01 6.776815000000000566e+01 1.667215000000000146e+03
2.400000000000000050e-02 8.004504999999999537e-01 1.293250000000001343e-01 6.594729999999999848e+01 1.666710000000000036e+03
2.500000000000000139e-02 8.000234999999999985e-01 9.011549999999997063e-01 6.424309999999999832e+01 1.666219999999999800e+03
2.600000000000000228e-02 7.995910000000000517e-01 1.654420000000000002e+00 6.257985000000000042e+01 1.665744999999999891e+03
2.700000000000000316e-02 7.990809999999999302e-01 2.242680000000000007e+00 6.078775000000000261e+01 1.665250000000000000e+03
2.800000000000000058e-02 7.984259999999999691e-01 2.516520000000000312e+00 5.865359999999999729e+01 1.664680000000000064e+03
2.900000000000000147e-02 7.975780000000000092e-01 2.366319999999999535e+00 5.598874999999999602e+01 1.664000000000000000e+03
3.000000000000000236e-02 7.965305000000000302e-01 1.755735000000000490e+00 5.269350000000000023e+01 1.663184999999999945e+03
3.099999999999999978e-02 7.953220000000000844e-01 7.343099999999997962e-01 4.879779999999999518e+01 1.662230000000000018e+03
3.200000000000000067e-02 7.940260000000000096e-01 -5.759999999999996234e-01 4.446309999999999718e+01 1.661170000000000073e+03
3.300000000000000155e-02 7.927329999999999099e-01 -2.012395000000000600e+00 3.994760000000000133e+01 1.660050000000000182e+03
3.400000000000000244e-02 7.915324999999999722e-01 -3.408440000000000580e+00 3.555225000000000080e+01 1.658944999999999936e+03
3.500000000000000333e-02 7.904970000000000052e-01 -4.622474999999999667e+00 3.156634999999999991e+01 1.657910000000000082e+03
3.600000000000000422e-02 7.896745000000000569e-01 -5.554264999999999119e+00 2.822630000000000194e+01 1.657009999999999991e+03
3.700000000000000511e-02 7.890894999999999992e-01 -6.148541999999999952e+00 2.569239999999999924e+01 1.656284999999999854e+03
3.799999999999999906e-02 7.887435000000000418e-01 -6.389260000000000161e+00 2.404319999999999879e+01 1.655769999999999982e+03
3.899999999999999994e-02 7.886250000000000204e-01 -6.287810000000000343e+00 2.328509999999999991e+01 1.655464999999999918e+03
4.000000000000000083e-02 7.887135000000000673e-01 -5.869820000000000704e+00 2.337170000000000059e+01 1.655375000000000000e+03
4.100000000000000172e-02 7.889865000000000350e-01 -5.163310000000000066e+00 2.422659999999999769e+01 1.655490000000000009e+03
4.200000000000000261e-02 7.894240000000000146e-01 -4.191564999999999763e+00 2.576404999999999745e+01 1.655779999999999973e+03
4.300000000000000350e-02 7.900095000000000312e-01 -2.971829999999999750e+00 2.790129999999999910e+01 1.656234999999999900e+03
4.400000000000000439e-02 7.907275000000000276e-01 -1.518970000000000375e+00 3.056299999999999883e+01 1.656835000000000036e+03
4.499999999999999833e-02 7.915624999999999467e-01 1.482799999999997453e-01 3.367689999999999628e+01 1.657559999999999945e+03
4.599999999999999922e-02 7.924940000000000317e-01 2.001625000000000210e+00 3.716779999999999973e+01 1.658394999999999982e+03
4.700000000000000011e-02 7.934995000000000243e-01 4.000185000000000102e+00 4.095114999999999839e+01 1.659315000000000055e+03
4.800000000000000100e-02 7.945484999999999909e-01 6.091414999999999580e+00 4.493120000000000402e+01 1.660295000000000073e+03
4.900000000000000189e-02 7.956119999999999859e-01 8.214539999999999509e+00 4.900310000000000343e+01 1.661315000000000055e+03
5.000000000000000278e-02 7.966584999999999361e-01 1.030677500000000002e+01 5.305920000000000414e+01 1.662349999999999909e+03
5.100000000000000366e-02 7.976615000000000233e-01 1.230934000000000061e+01 5.699790000000000134e+01 1.663369999999999891e+03
5.200000000000000455e-02 7.985999999999999766e-01 1.417310000000000159e+01 6.073190000000000310e+01 1.664349999999999909e+03
5.300000000000000544e-02 7.994605000000000183e-01 1.586209000000000024e+01 6.419554999999999723e+01 1.665279999999999973e+03
5.399999999999999939e-02 8.002369999999999761e-01 1.735510000000000019e+01 6.734919999999999618e+01 1.666144999999999982e+03
5.500000000000000028e-02 8.009314999999999074e-01 1.864505000000000123e+01 7.017945000000000277e+01 1.666929999999999836e+03
5.600000000000000117e-02 8.015494999999999148e-01 1.973700000000000188e+01 7.269750000000000512e+01 1.667650000000000091e+03
5.700000000000000205e-02 8.021030000000000104e-01 2.064535000000000053e+01 7.493444999999999823e+01 1.668289999999999964e+03
5.800000000000000294e-02 8.026054999999999717e-01 2.139144999999999897e+01 7.693649999999999523e+01 1.668875000000000000e+03
5.900000000000000383e-02 8.030725000000000779e-01 2.200110000000000099e+01 7.875950000000000273e+01 1.669409999999999854e+03
6.000000000000000472e-02 8.035194999999999421e-01 2.250289999999999679e+01 8.046465000000000600e+01 1.669914999999999964e+03
6.099999999999999867e-02 8.039624999999999133e-01 2.292689999999999984e+01 8.211459999999999582e+01 1.670389999999999873e+03
6.199999999999999956e-02 8.044165000000000898e-01 2.330344999999999800e+01 8.376994999999999436e+01 1.670865000000000009e+03
6.300000000000000044e-02 8.048954999999999860e-01 2.366140000000000043e+01 8.548624999999999829e+01 1.671349999999999909e+03
6.400000000000000133e-02 8.054090000000000416e-01 2.402680000000000149e+01 8.731029999999999802e+01 1.671855000000000018e+03
6.500000000000000222e-02 8.059665000000000301e-01 2.442030000000000101e+01 8.927719999999999345e+01 1.672384999999999991e+03
6.600000000000000311e-02 8.065695000000000503e-01 2.485589999999999833e+01 9.140699999999999648e+01 1.672960000000000036e+03
6.700000000000000400e-02 8.072184999999999500e-01 2.533915000000000006e+01 9.370244999999999891e+01 1.673569999999999936e+03
6.800000000000000488e-02 8.079050000000000953e-01 2.586680000000000135e+01 9.614809999999999945e+01 1.674210000000000036e+03
6.900000000000000577e-02 8.086189999999999767e-01 2.642725000000000080e+01 9.871115000000000350e+01 1.674890000000000100e+03
7.000000000000000666e-02 8.093449999999999811e-01 2.700150000000000006e+01 1.013437000000000126e+02 1.675585000000000036e+03
7.100000000000000755e-02 8.100665000000000227e-01 2.756575000000000131e+01 1.039863000000000000e+02 1.676285000000000082e+03
7.200000000000000844e-02 8.107659999999999867e-01 2.809284999999999854e+01 1.065734999999999957e+02 1.676980000000000018e+03
7.300000000000000933e-02 8.114239999999999231e-01 2.855534999999999712e+01 1.090384999999999991e+02 1.677650000000000091e+03
7.399999999999999634e-02 8.120254999999999557e-01 2.892755000000000010e+01 1.113165000000000049e+02 1.678275000000000091e+03
7.499999999999999722e-02 8.125569999999999737e-01 2.918699999999999761e+01 1.133524999999999920e+02 1.678845000000000027e+03
7.599999999999999811e-02 8.130089999999999817e-01 2.931629999999999825e+01 1.151015000000000015e+02 1.679349999999999909e+03
7.699999999999999900e-02 8.133734999999999715e-01 2.930379999999999896e+01 1.165329999999999870e+02 1.679769999999999982e+03
7.799999999999999989e-02 8.136495000000000255e-01 2.914394999999999669e+01 1.176289999999999907e+02 1.680110000000000127e+03
7.900000000000000078e-02 8.138365000000000737e-01 2.883749999999999858e+01 1.183875000000000028e+02 1.680365000000000009e+03
8.000000000000000167e-02 8.139399999999999968e-01 2.839114999999999966e+01 1.188215000000000003e+02 1.680539999999999964e+03
8.100000000000000255e-02 8.139674999999999550e-01 2.781700000000000017e+01 1.189544999999999959e+02 1.680625000000000000e+03
8.200000000000000344e-02 8.139290000000000136e-01 2.713154999999999717e+01 1.188220000000000027e+02 1.680644999999999982e+03
8.300000000000000433e-02 8.138369999999999216e-01 2.635524999999999807e+01 1.184660000000000082e+02 1.680599999999999909e+03
8.400000000000000522e-02 8.137034999999999130e-01 2.551105000000000089e+01 1.179364999999999952e+02 1.680505000000000109e+03
8.500000000000000611e-02 8.135425000000000573e-01 2.462324999999999875e+01 1.172835000000000036e+02 1.680365000000000009e+03
8.600000000000000699e-02 8.133669999999999511e-01 2.371649999999999991e+01 1.165600000000000023e+02 1.680200000000000045e+03
8.700000000000000788e-02 8.131899999999999684e-01 2.281435000000000102e+01 1.158144999999999953e+02 1.680029999999999973e+03
8.800000000000000877e-02 8.130230000000000512e-01 2.193844999999999956e+01 1.150914999999999964e+02 1.679849999999999909e+03
8.899999999999999578e-02 8.128735000000000266e-01 2.110719999999999885e+01 1.144304999999999950e+02 1.679679999999999836e+03
8.999999999999999667e-02 8.127495000000000136e-01 2.033530000000000015e+01 1.138605000000000018e+02 1.679529999999999973e+03
9.099999999999999756e-02 8.126554999999999751e-01 1.963309999999999889e+01 1.134025000000000034e+02 1.679405000000000200e+03
9.199999999999999845e-02 8.125934999999999686e-01 1.900629999999999953e+01 1.130690000000000026e+02 1.679304999999999836e+03
9.299999999999999933e-02 8.125625000000000764e-01 1.845599999999999952e+01 1.128615000000000066e+02 1.679230000000000018e+03
9.400000000000000022e-02 8.125610000000000888e-01 1.797889999999999944e+01 1.127725000000000080e+02 1.679190000000000055e+03
9.500000000000000111e-02 8.125824999999999854e-01 1.756770000000000209e+01 1.127884999999999991e+02 1.679175000000000182e+03
9.600000000000000200e-02 8.126229999999999842e-01 1.721175000000000210e+01 1.128880000000000052e+02 1.679184999999999945e+03
9.700000000000000289e-02 8.126729999999999787e-01 1.689775000000000205e+01 1.130434999999999945e+02 1.679210000000000036e+03
9.800000000000000377e-02 8.127254999999999896e-01 1.661039999999999850e+01 1.132255000000000109e+02 1.679244999999999891e+03
9.900000000000000466e-02 8.127720000000000500e-01 1.633339999999999748e+01 1.134014999999999986e+02 1.679275000000000091e+03
1.000000000000000056e-01 8.128039999999999710e-01 1.605020000000000024e+01 1.135399999999999920e+02 1.679309999999999945e+03
1.010000000000000064e-01 8.128130000000000077e-01 1.574530000000000030e+01 1.136094999999999970e+02 1.679329999999999927e+03
1.020000000000000073e-01 8.127944999999999753e-01 1.540455000000000041e+01 1.135840000000000032e+02 1.679320000000000164e+03
1.030000000000000082e-01 8.127415000000000056e-01 1.501650000000000063e+01 1.134410000000000025e+02 1.679289999999999964e+03
1.040000000000000091e-01 8.126519999999999300e-01 1.457290000000000063e+01 1.131664999999999992e+02 1.679230000000000018e+03
1.050000000000000100e-01 8.125244999999999829e-01 1.406905000000000072e+01 1.127500000000000000e+02 1.679130000000000109e+03
1.059999999999999970e-01 8.123599999999999710e-01 1.350441000000000003e+01 1.121929999999999978e+02 1.679000000000000000e+03
1.069999999999999979e-01 8.121614999999999807e-01 1.288244999999999862e+01 1.115024999999999977e+02 1.678835000000000036e+03
1.079999999999999988e-01 8.119334999999999747e-01 1.221052500000000052e+01 1.106939999999999884e+02 1.678634999999999991e+03
1.089999999999999997e-01 8.116835000000000022e-01 1.149955999999999889e+01 1.097899999999999920e+02 1.678414999999999964e+03
1.100000000000000006e-01 8.114194999999999602e-01 1.076332999999999984e+01 1.088185000000000002e+02 1.678170000000000073e+03
1.110000000000000014e-01 8.111500000000000377e-01 1.001782000000000039e+01 1.078114999999999952e+02 1.677914999999999964e+03
1.120000000000000023e-01 8.108850000000000779e-01 9.280310000000000059e+00 1.068040000000000020e+02 1.677655000000000200e+03
1.130000000000000032e-01 8.106329999999999369e-01 8.568350000000000577e+00 1.058325000000000102e+02 1.677405000000000200e+03
1.140000000000000041e-01 8.104040000000000132e-01 7.899059999999999526e+00 1.049294500000000028e+02 1.677159999999999854e+03
1.150000000000000050e-01 8.102044999999999941e-01 7.287874999999999659e+00 1.041269499999999937e+02 1.676945000000000164e+03
1.160000000000000059e-01 8.100410000000000110e-01 6.748075000000000045e+00 1.034507499999999993e+02 1.676750000000000000e+03
1.170000000000000068e-01 8.099190000000000556e-01 6.289884999999999948e+00 1.029206499999999949e+02 1.676599999999999909e+03
1.180000000000000077e-01 8.098395000000000454e-01 5.920204999999999274e+00 1.025504999999999995e+02 1.676474999999999909e+03
1.190000000000000085e-01 8.098039999999999683e-01 5.642274999999999707e+00 1.023454999999999870e+02 1.676400000000000091e+03
1.200000000000000094e-01 8.098110000000000586e-01 5.455684999999999896e+00 1.023044999999999902e+02 1.676365000000000009e+03
1.209999999999999964e-01 8.098575000000000079e-01 5.356544999999999668e+00 1.024184999999999945e+02 1.676369999999999891e+03
1.219999999999999973e-01 8.099389999999999645e-01 5.337860000000000049e+00 1.026730000000000018e+02 1.676409999999999854e+03
1.229999999999999982e-01 8.100495000000000889e-01 5.390015000000000001e+00 1.030484999999999900e+02 1.676485000000000127e+03
1.239999999999999991e-01 8.101819999999999578e-01 5.501360000000000028e+00 1.035200000000000102e+02 1.676585000000000036e+03
1.250000000000000000e-01 8.103299999999999947e-01 5.658844999999999459e+00 1.040619999999999976e+02 1.676710000000000036e+03
1.260000000000000009e-01 8.104860000000000397e-01 5.848684999999999690e+00 1.046479999999999961e+02 1.676845000000000027e+03
1.270000000000000018e-01 8.106440000000000312e-01 6.056969999999999743e+00 1.052510000000000048e+02 1.676994999999999891e+03
1.280000000000000027e-01 8.107960000000000722e-01 6.270240000000000258e+00 1.058449999999999989e+02 1.677139999999999873e+03
1.290000000000000036e-01 8.109374999999999778e-01 6.476020000000000110e+00 1.064070000000000107e+02 1.677279999999999973e+03
1.300000000000000044e-01 8.110640000000000072e-01 6.663224999999999731e+00 1.069184999999999945e+02 1.677420000000000073e+03
1.310000000000000053e-01 8.111709999999999754e-01 6.822520000000000806e+00 1.073635000000000019e+02 1.677539999999999964e+03
1.320000000000000062e-01 8.112565000000000470e-01 6.946550000000000225e+00 1.077295000000000016e+02 1.677639999999999873e+03
1.330000000000000071e-01 8.113194999999999713e-01 7.030100000000000016e+00 1.080105000000000075e+02 1.677724999999999909e+03
1.340000000000000080e-01 8.113595000000000113e-01 7.070140000000000313e+00 1.082024999999999864e+02 1.677784999999999854e+03
1.350000000000000089e-01 8.113770000000000149e-01 7.065805000000000113e+00 1.083079999999999927e+02 1.677825000000000045e+03
1.360000000000000098e-01 8.113734999999999697e-01 7.018264999999999532e+00 1.083305000000000007e+02 1.677839999999999918e+03
1.370000000000000107e-01 8.113519999999999621e-01 6.930569999999999453e+00 1.082794999999999987e+02 1.677840000000000146e+03
1.380000000000000115e-01 8.113154999999999673e-01 6.807369999999999699e+00 1.081645000000000039e+02 1.677825000000000045e+03
1.390000000000000124e-01 8.112679999999999891e-01 6.654635000000000744e+00 1.079989999999999952e+02 1.677789999999999964e+03
1.400000000000000133e-01 8.112120000000000442e-01 6.479300000000000281e+00 1.077969999999999970e+02 1.677750000000000000e+03
1.410000000000000142e-01 8.111530000000000129e-01 6.288864999999999483e+00 1.075724999999999909e+02 1.677699999999999818e+03
1.420000000000000151e-01 8.110939999999999817e-01 6.091039999999999566e+00 1.073404999999999916e+02 1.677650000000000091e+03
1.430000000000000160e-01 8.110379999999999256e-01 5.893325000000000813e+00 1.071144999999999925e+02 1.677595000000000027e+03
1.440000000000000169e-01 8.109880000000000422e-01 5.702645000000000408e+00 1.069060000000000059e+02 1.677539999999999964e+03
1.450000000000000178e-01 8.109465000000000146e-01 5.525034999999999918e+00 1.067259999999999991e+02 1.677494999999999891e+03
1.459999999999999909e-01 8.109159999999999702e-01 5.365344999999999587e+00 1.065810000000000031e+02 1.677460000000000036e+03
1.469999999999999918e-01 8.108964999999999090e-01 5.227079999999999949e+00 1.064754999999999967e+02 1.677425000000000182e+03
1.479999999999999927e-01 8.108874999999999833e-01 5.112289999999999779e+00 1.064124999999999943e+02 1.677404999999999973e+03
1.489999999999999936e-01 8.108899999999999997e-01 5.021544999999999703e+00 1.063900000000000006e+02 1.677394999999999982e+03
1.499999999999999944e-01 8.109009999999999829e-01 4.954055000000000319e+00 1.064044999999999987e+02 1.677389999999999873e+03
1.509999999999999953e-01 8.109189999999999454e-01 4.907804999999999751e+00 1.064499999999999886e+02 1.677400000000000091e+03
1.519999999999999962e-01 8.109425000000000106e-01 4.879794999999999661e+00 1.065185000000000031e+02 1.677409999999999854e+03
1.529999999999999971e-01 8.109684999999999810e-01 4.866295000000000037e+00 1.066014999999999873e+02 1.677429999999999836e+03
1.539999999999999980e-01 8.109939999999999927e-01 4.863160000000000593e+00 1.066899999999999977e+02 1.677449999999999818e+03
1.549999999999999989e-01 8.110174999999999468e-01 4.866049999999999542e+00 1.067740000000000009e+02 1.677469999999999800e+03
1.559999999999999998e-01 8.110364999999999380e-01 4.870765000000000455e+00 1.068455000000000013e+02 1.677485000000000127e+03
1.570000000000000007e-01 8.110485000000000610e-01 4.873434999999999739e+00 1.068959999999999866e+02 1.677500000000000000e+03
1.580000000000000016e-01 8.110530000000000239e-01 4.870704999999999174e+00 1.069205000000000041e+02 1.677505000000000109e+03
1.590000000000000024e-01 8.110485000000000610e-01 4.859854999999999592e+00 1.069140000000000015e+02 1.677505000000000109e+03
