# t [s], A [cm^2], U [cm/s], P [cPa], c [cm/s]
1.000000000000000021e-03 6.446110000000000451e-01 4.152499999999996472e-03 9.298304999999999154e+01 1.856279999999999973e+03
2.000000000000000042e-03 6.446140000000000203e-01 2.661084999999999839e-02 9.296999999999999886e+01 1.856284999999999854e+03
3.000000000000000062e-03 6.446939999999999893e-01 2.041530000000000011e-01 9.319110000000000582e+01 1.856324999999999818e+03
4.000000000000000083e-03 6.446909999999999030e-01 2.340865000000000029e-01 9.320170000000000243e+01 1.856324999999999818e+03
5.000000000000000104e-03 6.446024999999999672e-01 8.665000000000000480e-02 9.284669999999999845e+01 1.856259999999999991e+03
6.000000000000000125e-03 6.445195000000000229e-01 -6.946499999999999897e-02 9.234884999999999877e+01 1.856164999999999964e+03
7.000000000000000146e-03 6.443764999999999077e-01 -3.684049999999999825e-01 9.155474999999999852e+01 1.856014999999999873e+03
8.000000000000000167e-03 6.441384999999999472e-01 -8.897099999999998898e-01 9.029049999999999443e+01 1.855765000000000100e+03
9.000000000000001055e-03 6.437994999999999690e-01 -1.632959999999999967e+00 8.848104999999999620e+01 1.855414999999999964e+03
1.000000000000000194e-02 6.433290000000000397e-01 -2.639479999999999826e+00 8.599379999999999313e+01 1.854930000000000064e+03
1.099999999999999936e-02 6.427515000000000311e-01 -3.823884999999999756e+00 8.287180000000000746e+01 1.854299999999999955e+03
1.200000000000000025e-02 6.421825000000001005e-01 -4.903618999999999950e+00 7.951175000000000637e+01 1.853605000000000018e+03
1.300000000000000114e-02 6.417390000000000594e-01 -5.574111999999999512e+00 7.646240000000000236e+01 1.852929999999999836e+03
1.400000000000000203e-02 6.414655000000000218e-01 -5.698064999999999714e+00 7.409560000000000457e+01 1.852365000000000009e+03
1.499999999999999944e-02 6.413180000000000547e-01 -5.347720000000000695e+00 7.244589999999999463e+01 1.851920000000000073e+03
1.600000000000000033e-02 6.412075000000000413e-01 -4.728089999999999904e+00 7.125784999999999059e+01 1.851569999999999936e+03
1.700000000000000122e-02 6.410474999999999923e-01 -4.059585000000000221e+00 7.015415000000000134e+01 1.851240000000000009e+03
1.800000000000000211e-02 6.407955000000000734e-01 -3.477294999999999803e+00 6.882730000000000814e+01 1.850884999999999991e+03
1.900000000000000300e-02 6.404635000000000744e-01 -2.989572599999999802e+00 6.716495000000000459e+01 1.850480000000000018e+03
2.000000000000000042e-02 6.400965000000000682e-01 -2.512789999999999857e+00 6.525104999999999222e+01 1.850025000000000091e+03
2.100000000000000130e-02 6.397425000000001027e-01 -1.952969999999999873e+00 6.325905000000000200e+01 1.849545000000000073e+03
2.200000000000000219e-02 6.394174999999999720e-01 -1.280355000000000132e+00 6.131670000000000442e+01 1.849075000000000045e+03
2.299999999999999961e-02 6.391024999999999068e-01 -5.609699999999999687e-01 5.941559999999999775e+01 1.848599999999999909e+03
2.400000000000000050e-02 6.387445000000000483e-01 5.847999999999986542e-02 5.739475000000000193e+01 1.848105000000000018e+03
2.500000000000000139e-02 6.382830000000000448e-01 3.979449999999999932e-01 5.499150000000000205e+01 1.847535000000000082e+03
2.600000000000000228e-02 6.376684999999999715e-01 3.046950000000001602e-01 5.193625000000000114e+01 1.846855000000000018e+03
2.700000000000000316e-02 6.368834999999999358e-01 -2.930099999999997706e-01 4.805774999999999864e+01 1.846014999999999873e+03
2.800000000000000058e-02 6.359520000000000728e-01 -1.358779999999999433e+00 4.336039999999999850e+01 1.845014999999999873e+03
2.900000000000000147e-02 6.349344999999999573e-01 -2.758110000000000284e+00 3.804205000000000325e+01 1.843875000000000000e+03
3.000000000000000236e-02 6.339084999999999859e-01 -4.298524999999999707e+00 3.245009999999999906e+01 1.842670000000000073e+03
3.099999999999999978e-02 6.329525000000000290e-01 -5.780144999999999200e+00 2.699934999999999974e+01 1.841465000000000146e+03
3.200000000000000067e-02 6.321300000000000807e-01 -7.036195000000001087e+00 2.208677499999999938e+01 1.840349999999999909e+03
3.300000000000000155e-02 6.314815000000000289e-01 -7.954520500000000105e+00 1.802682000000000073e+01 1.839380000000000109e+03
3.400000000000000244e-02 6.310255000000000170e-01 -8.480185000000000528e+00 1.501874499999999912e+01 1.838619999999999891e+03
3.500000000000000333e-02 6.307614999999999750e-01 -8.603715000000001112e+00 1.314508499999999991e+01 1.838085000000000036e+03
3.600000000000000422e-02 6.306795000000000595e-01 -8.343585000000000917e+00 1.239270000000000138e+01 1.837795000000000073e+03
3.700000000000000511e-02 6.307629999999999626e-01 -7.728225000000000122e+00 1.268689499999999981e+01 1.837735000000000127e+03
3.799999999999999906e-02 6.309955000000000425e-01 -6.784119999999999706e+00 1.392440500000000014e+01 1.837884999999999991e+03
3.899999999999999994e-02 6.313609999999999500e-01 -5.532092500000000079e+00 1.599697499999999906e+01 1.838240000000000009e+03
4.000000000000000083e-02 6.318479999999999652e-01 -3.991374999999999673e+00 1.880047499999999872e+01 1.838764999999999873e+03
4.100000000000000172e-02 6.324389999999999734e-01 -2.187025000000000219e+00 2.223190500000000114e+01 1.839440000000000055e+03
4.200000000000000261e-02 6.331165000000000820e-01 -1.572650000000006543e-01 2.618139499999999842e+01 1.840244999999999891e+03
4.300000000000000350e-02 6.338580000000000325e-01 2.043575000000000141e+00 3.052505000000000024e+01 1.841150000000000091e+03
4.400000000000000439e-02 6.346365000000000478e-01 4.347049999999999415e+00 3.512349999999999994e+01 1.842130000000000109e+03
4.499999999999999833e-02 6.354239999999999888e-01 6.676759999999999806e+00 3.982784999999999798e+01 1.843150000000000091e+03
4.599999999999999922e-02 6.361965000000000536e-01 8.956751999999999825e+00 4.449060000000000059e+01 1.844184999999999945e+03
4.700000000000000011e-02 6.369299999999999962e-01 1.111943500000000107e+01 4.897885000000000133e+01 1.845195000000000164e+03
4.800000000000000100e-02 6.376100000000000101e-01 1.311230000000000118e+01 5.318689999999999429e+01 1.846164999999999964e+03
4.900000000000000189e-02 6.382284999999999764e-01 1.490098000000000056e+01 5.704449999999999932e+01 1.847075000000000045e+03
5.000000000000000278e-02 6.387829999999999897e-01 1.646989999999999910e+01 6.052049999999999841e+01 1.847909999999999854e+03
5.100000000000000366e-02 6.392789999999999306e-01 1.782055000000000078e+01 6.362145000000000294e+01 1.848670000000000073e+03
5.200000000000000455e-02 6.397250000000000991e-01 1.896819999999999951e+01 6.638624999999998977e+01 1.849365000000000009e+03
5.300000000000000544e-02 6.401329999999999520e-01 1.993844999999999956e+01 6.887850000000000250e+01 1.849994999999999891e+03
5.399999999999999939e-02 6.405179999999999207e-01 2.076415000000000077e+01 7.117859999999998877e+01 1.850579999999999927e+03
5.500000000000000028e-02 6.408949999999999925e-01 2.148185000000000144e+01 7.337534999999999741e+01 1.851134999999999991e+03
5.600000000000000117e-02 6.412774999999999448e-01 2.212950000000000017e+01 7.555825000000000102e+01 1.851679999999999836e+03
5.700000000000000205e-02 6.416794999999999582e-01 2.274340000000000117e+01 7.781034999999999968e+01 1.852235000000000127e+03
5.800000000000000294e-02 6.421120000000000161e-01 2.335540000000000305e+01 8.020159999999999911e+01 1.852809999999999945e+03
5.900000000000000383e-02 6.425810000000000688e-01 2.399024999999999963e+01 8.278249999999999886e+01 1.853424999999999955e+03
6.000000000000000472e-02 6.430895000000000916e-01 2.466329999999999956e+01 8.557975000000000421e+01 1.854079999999999927e+03
6.099999999999999867e-02 6.436349999999999572e-01 2.537910000000000110e+01 8.859345000000000425e+01 1.854775000000000091e+03
6.199999999999999956e-02 6.442120000000000068e-01 2.613130000000000308e+01 9.179680000000000462e+01 1.855514999999999873e+03
6.300000000000000044e-02 6.448089999999999655e-01 2.690380000000000038e+01 9.513904999999999745e+01 1.856279999999999973e+03
6.400000000000000133e-02 6.454124999999999446e-01 2.767285000000000039e+01 9.854999999999999716e+01 1.857075000000000045e+03
6.500000000000000222e-02 6.460090000000000554e-01 2.840979999999999706e+01 1.019480000000000075e+02 1.857869999999999891e+03
6.600000000000000311e-02 6.465830000000000188e-01 2.908420000000000272e+01 1.052452499999999986e+02 1.858640000000000100e+03
6.700000000000000400e-02 6.471194999999999586e-01 2.966635000000000133e+01 1.083569999999999993e+02 1.859384999999999991e+03
6.800000000000000488e-02 6.476079999999999615e-01 3.012995000000000090e+01 1.112079999999999984e+02 1.860075000000000045e+03
6.900000000000000577e-02 6.480380000000000029e-01 3.045394999999999897e+01 1.137360000000000042e+02 1.860694999999999936e+03
7.000000000000000666e-02 6.484035000000000215e-01 3.062369999999999948e+01 1.158965000000000032e+02 1.861244999999999891e+03
7.100000000000000755e-02 6.487015000000000420e-01 3.063185000000000002e+01 1.176649999999999920e+02 1.861710000000000036e+03
7.200000000000000844e-02 6.489325000000000232e-01 3.047845000000000226e+01 1.190370000000000061e+02 1.862079999999999927e+03
7.300000000000000933e-02 6.491000000000000103e-01 3.017109999999999914e+01 1.200260000000000105e+02 1.862369999999999891e+03
7.399999999999999634e-02 6.492094999999999949e-01 2.972364999999999924e+01 1.206624999999999943e+02 1.862579999999999927e+03
7.499999999999999722e-02 6.492700000000000138e-01 2.915610000000000213e+01 1.209929999999999950e+02 1.862715000000000146e+03
7.599999999999999811e-02 6.492904999999999927e-01 2.849265000000000114e+01 1.210720000000000027e+02 1.862784999999999854e+03
7.699999999999999900e-02 6.492830000000000545e-01 2.776055000000000206e+01 1.209625000000000057e+02 1.862809999999999945e+03
7.799999999999999989e-02 6.492569999999999730e-01 2.698830000000000240e+01 1.207295000000000016e+02 1.862789999999999964e+03
7.900000000000000078e-02 6.492240000000000233e-01 2.620390000000000086e+01 1.204369999999999976e+02 1.862759999999999991e+03
8.000000000000000167e-02 6.491934999999999789e-01 2.543339999999999890e+01 1.201444999999999936e+02 1.862710000000000036e+03
8.100000000000000255e-02 6.491730000000000000e-01 2.469924999999999926e+01 1.199014999999999986e+02 1.862664999999999964e+03
8.200000000000000344e-02 6.491685000000000372e-01 2.401905000000000001e+01 1.197469999999999999e+02 1.862639999999999873e+03
8.300000000000000433e-02 6.491835000000000244e-01 2.340509999999999735e+01 1.197085000000000008e+02 1.862630000000000109e+03
8.400000000000000522e-02 6.492195000000000604e-01 2.286339999999999861e+01 1.197965000000000089e+02 1.862644999999999982e+03
8.500000000000000611e-02 6.492755000000000054e-01 2.239420000000000144e+01 1.200109999999999957e+02 1.862684999999999945e+03
8.600000000000000699e-02 6.493480000000000363e-01 2.199200000000000088e+01 1.203384999999999962e+02 1.862744999999999891e+03
8.700000000000000788e-02 6.494325000000000792e-01 2.164639999999999986e+01 1.207535000000000025e+02 1.862829999999999927e+03
8.800000000000000877e-02 6.495225000000000026e-01 2.134304999999999808e+01 1.212229999999999990e+02 1.862925000000000182e+03
8.899999999999999578e-02 6.496119999999999672e-01 2.106465000000000032e+01 1.217059999999999889e+02 1.863030000000000200e+03
8.999999999999999667e-02 6.496925000000000061e-01 2.079230000000000089e+01 1.221610000000000014e+02 1.863130000000000109e+03
9.099999999999999756e-02 6.497574999999999878e-01 2.050685000000000002e+01 1.225439999999999969e+02 1.863210000000000036e+03
9.199999999999999845e-02 6.498005000000000031e-01 2.019040000000000035e+01 1.228155000000000001e+02 1.863280000000000200e+03
9.299999999999999933e-02 6.498154999999999903e-01 1.982719999999999771e+01 1.229405000000000001e+02 1.863319999999999936e+03
9.400000000000000022e-02 6.497995000000000854e-01 1.940514999999999901e+01 1.228924999999999983e+02 1.863315000000000055e+03
9.500000000000000111e-02 6.497500000000000497e-01 1.891649999999999920e+01 1.226550000000000011e+02 1.863279999999999973e+03
9.600000000000000200e-02 6.496669999999999945e-01 1.835849999999999937e+01 1.222235000000000014e+02 1.863199999999999818e+03
9.700000000000000289e-02 6.495519999999999072e-01 1.773364999999999725e+01 1.216034999999999968e+02 1.863074999999999818e+03
9.800000000000000377e-02 6.494100000000000428e-01 1.704945000000000022e+01 1.208139999999999930e+02 1.862920000000000073e+03
9.900000000000000466e-02 6.492450000000000720e-01 1.631810000000000116e+01 1.198834999999999980e+02 1.862724999999999909e+03
1.000000000000000056e-01 6.490650000000000031e-01 1.555560000000000009e+01 1.188490000000000038e+02 1.862500000000000000e+03
1.010000000000000064e-01 6.488774999999999959e-01 1.478079999999999927e+01 1.177530000000000001e+02 1.862264999999999873e+03
1.020000000000000073e-01 6.486899999999999888e-01 1.401396500000000067e+01 1.166419999999999959e+02 1.862019999999999982e+03
1.030000000000000082e-01 6.485115000000000185e-01 1.327581500000000148e+01 1.155645000000000095e+02 1.861775000000000091e+03
1.040000000000000091e-01 6.483480000000000354e-01 1.258591499999999996e+01 1.145635000000000048e+02 1.861539999999999964e+03
1.050000000000000100e-01 6.482069999999999776e-01 1.196161500000000011e+01 1.136795000000000044e+02 1.861329999999999927e+03
1.059999999999999970e-01 6.480924999999999603e-01 1.141711000000000098e+01 1.129435000000000002e+02 1.861150000000000091e+03
1.069999999999999979e-01 6.480084999999999873e-01 1.096257500000000107e+01 1.123790000000000049e+02 1.861000000000000000e+03
1.079999999999999988e-01 6.479555000000000176e-01 1.060374000000000017e+01 1.119979999999999905e+02 1.860894999999999982e+03
1.089999999999999997e-01 6.479334999999999400e-01 1.034173499999999990e+01 1.118025000000000091e+02 1.860824999999999818e+03
1.100000000000000006e-01 6.479414999999999480e-01 1.017342000000000013e+01 1.117855000000000132e+02 1.860795000000000073e+03
1.110000000000000014e-01 6.479749999999999677e-01 1.009176000000000073e+01 1.119304999999999950e+02 1.860805000000000064e+03
1.120000000000000023e-01 6.480299999999999949e-01 1.008630499999999941e+01 1.122139999999999986e+02 1.860845000000000027e+03
1.130000000000000032e-01 6.481019999999999559e-01 1.014434500000000128e+01 1.126069999999999993e+02 1.860909999999999854e+03
1.140000000000000041e-01 6.481844999999999413e-01 1.025142999999999915e+01 1.130784999999999911e+02 1.861000000000000000e+03
1.150000000000000050e-01 6.482725000000000293e-01 1.039250499999999988e+01 1.135960000000000036e+02 1.861099999999999909e+03
1.160000000000000059e-01 6.483615000000000350e-01 1.055246999999999957e+01 1.141280000000000001e+02 1.861204999999999927e+03
1.170000000000000068e-01 6.484455000000000080e-01 1.071720000000000006e+01 1.146460000000000008e+02 1.861315000000000055e+03
1.180000000000000077e-01 6.485220000000000429e-01 1.087385000000000090e+01 1.151244999999999976e+02 1.861420000000000073e+03
1.190000000000000085e-01 6.485875000000000945e-01 1.101160000000000139e+01 1.155450000000000017e+02 1.861514999999999873e+03
1.200000000000000094e-01 6.486399999999999944e-01 1.112195000000000000e+01 1.158919999999999959e+02 1.861599999999999909e+03
1.209999999999999964e-01 6.486780000000000879e-01 1.119875499999999846e+01 1.161564999999999941e+02 1.861664999999999964e+03
1.219999999999999973e-01 6.487020000000000008e-01 1.123853499999999883e+01 1.163370000000000033e+02 1.861715000000000146e+03
1.229999999999999982e-01 6.487119999999999553e-01 1.124025500000000122e+01 1.164339999999999975e+02 1.861744999999999891e+03
1.239999999999999991e-01 6.487104999999999677e-01 1.120530499999999918e+01 1.164565000000000055e+02 1.861759999999999991e+03
1.250000000000000000e-01 6.486990000000000256e-01 1.113711499999999965e+01 1.164145000000000039e+02 1.861764999999999873e+03
1.260000000000000009e-01 6.486799999999999233e-01 1.104089499999999902e+01 1.163220000000000027e+02 1.861744999999999891e+03
1.270000000000000018e-01 6.486559999999998993e-01 1.092312000000000083e+01 1.161949999999999932e+02 1.861730000000000018e+03
1.280000000000000027e-01 6.486309999999999576e-01 1.079115499999999983e+01 1.160504999999999995e+02 1.861704999999999927e+03
1.290000000000000036e-01 6.486075000000000035e-01 1.065265499999999932e+01 1.159060000000000059e+02 1.861675000000000182e+03
1.300000000000000044e-01 6.485870000000000246e-01 1.051503500000000102e+01 1.157764999999999986e+02 1.861650000000000091e+03
1.310000000000000053e-01 6.485729999999999551e-01 1.038513999999999982e+01 1.156760000000000019e+02 1.861630000000000109e+03
1.320000000000000062e-01 6.485665000000000457e-01 1.026876999999999995e+01 1.156154999999999973e+02 1.861614999999999782e+03
1.330000000000000071e-01 6.485680000000000334e-01 1.017022000000000048e+01 1.156024999999999920e+02 1.861610000000000127e+03
1.340000000000000080e-01 6.485790000000000166e-01 1.009231499999999926e+01 1.156409999999999911e+02 1.861615000000000009e+03
1.350000000000000089e-01 6.485990000000000366e-01 1.003627000000000002e+01 1.157305000000000064e+02 1.861634999999999991e+03
1.360000000000000098e-01 6.486264999999999947e-01 1.000166499999999914e+01 1.158675000000000068e+02 1.861659999999999854e+03
1.370000000000000107e-01 6.486604999999999732e-01 9.986674999999999969e+00 1.160459999999999923e+02 1.861700000000000045e+03
1.380000000000000115e-01 6.487000000000000544e-01 9.988364999999999938e+00 1.162560000000000002e+02 1.861740000000000009e+03
1.390000000000000124e-01 6.487414999999999710e-01 1.000289000000000073e+01 1.164885000000000019e+02 1.861789999999999964e+03
1.400000000000000133e-01 6.487840000000000273e-01 1.002599000000000018e+01 1.167309999999999945e+02 1.861845000000000027e+03
1.410000000000000142e-01 6.488264999999999727e-01 1.005330999999999975e+01 1.169729999999999990e+02 1.861894999999999982e+03
1.420000000000000151e-01 6.488655000000000950e-01 1.008055500000000038e+01 1.172040000000000077e+02 1.861949999999999818e+03
1.430000000000000160e-01 6.489015000000000200e-01 1.010398999999999958e+01 1.174164999999999992e+02 1.862000000000000000e+03
1.440000000000000169e-01 6.489320000000000643e-01 1.012052999999999869e+01 1.176030000000000086e+02 1.862045000000000073e+03
1.450000000000000178e-01 6.489575000000000760e-01 1.012798000000000087e+01 1.177595000000000027e+02 1.862079999999999927e+03
1.459999999999999909e-01 6.489774999999999849e-01 1.012496499999999955e+01 1.178850000000000051e+02 1.862109999999999900e+03
1.469999999999999918e-01 6.489924999999999722e-01 1.011115500000000011e+01 1.179795000000000016e+02 1.862139999999999873e+03
1.479999999999999927e-01 6.490025000000000377e-01 1.008717499999999845e+01 1.180469999999999970e+02 1.862154999999999973e+03
1.489999999999999936e-01 6.490089999999999471e-01 1.005460499999999868e+01 1.180914999999999964e+02 1.862170000000000073e+03
1.499999999999999944e-01 6.490139999999999798e-01 1.001565500000000064e+01 1.181214999999999975e+02 1.862179999999999836e+03
1.509999999999999953e-01 6.490175000000000249e-01 9.973375000000000767e+00 1.181444999999999936e+02 1.862184999999999945e+03
1.519999999999999962e-01 6.490225000000000577e-01 9.931165000000000020e+00 1.181690000000000111e+02 1.862194999999999936e+03
1.529999999999999971e-01 6.490289999999999671e-01 9.892749999999999488e+00 1.182060000000000031e+02 1.862204999999999927e+03
1.539999999999999980e-01 6.490405000000000202e-01 9.861959999999999837e+00 1.182634999999999934e+02 1.862214999999999918e+03
1.549999999999999989e-01 6.490580000000000238e-01 9.842354999999999521e+00 1.183515000000000015e+02 1.862235000000000127e+03
1.559999999999999998e-01 6.490814999999999779e-01 9.837334999999999496e+00 1.184774999999999920e+02 1.862264999999999873e+03
1.570000000000000007e-01 6.491130000000000511e-01 9.849624999999999631e+00 1.186469999999999914e+02 1.862295000000000073e+03
1.580000000000000016e-01 6.491534999999999389e-01 9.881145000000000067e+00 1.188659999999999997e+02 1.862344999999999800e+03
1.590000000000000024e-01 6.492025000000000157e-01 9.933189999999999742e+00 1.191364999999999981e+02 1.862400000000000091e+03
