# t [s], A [cm^2], U [cm/s], P [cPa], c [cm/s]
1.000000000000000021e-03 1.747529999999999917e-01 2.239754999999999940e-01 9.523644999999999072e+01 2.223255000000000109e+03
2.000000000000000042e-03 1.747144999999999948e-01 1.556993500000000141e+00 9.216335000000000832e+01 2.222869999999999891e+03
3.000000000000000062e-03 1.746070000000000122e-01 3.249045500000000253e+00 8.780339999999999634e+01 2.221835000000000036e+03
4.000000000000000083e-03 1.744580000000000020e-01 5.177085499999999563e+00 8.293565000000000964e+01 2.220430000000000291e+03
5.000000000000000104e-03 1.742965000000000209e-01 7.275140000000000384e+00 7.846705000000000041e+01 2.218914999999999964e+03
6.000000000000000125e-03 1.741399999999999892e-01 9.378099999999999881e+00 7.475034999999999741e+01 2.217474999999999909e+03
7.000000000000000146e-03 1.739934999999999954e-01 1.126743000000000094e+01 7.155734999999999957e+01 2.216144999999999982e+03
8.000000000000000167e-03 1.738580000000000125e-01 1.285449500000000000e+01 6.865794999999999959e+01 2.214940000000000055e+03
9.000000000000001055e-03 1.737390000000000045e-01 1.417429999999999879e+01 6.611979999999999791e+01 2.213890000000000327e+03
1.000000000000000194e-02 1.736380000000000146e-01 1.526154999999999973e+01 6.403605000000000302e+01 2.213010000000000218e+03
1.099999999999999936e-02 1.735555000000000014e-01 1.613190000000000168e+01 6.239480000000000359e+01 2.212309999999999945e+03
1.200000000000000025e-02 1.734899999999999776e-01 1.679244999999999877e+01 6.112094999999999345e+01 2.211755000000000109e+03
1.300000000000000114e-02 1.734375000000000222e-01 1.723695000000000022e+01 6.007549999999999812e+01 2.211315000000000055e+03
1.400000000000000203e-02 1.733929999999999916e-01 1.747844999999999871e+01 5.912380000000000280e+01 2.210949999999999818e+03
1.499999999999999944e-02 1.733560000000000101e-01 1.760085000000000122e+01 5.830965000000000487e+01 2.210654999999999745e+03
1.600000000000000033e-02 1.733319999999999861e-01 1.775764999999999816e+01 5.793365000000000009e+01 2.210465000000000146e+03
1.700000000000000122e-02 1.733314999999999995e-01 1.809969999999999857e+01 5.840109999999999957e+01 2.210470000000000255e+03
1.800000000000000211e-02 1.733600000000000141e-01 1.869120000000000203e+01 5.994695000000000107e+01 2.210720000000000255e+03
1.900000000000000300e-02 1.734169999999999878e-01 1.947315000000000040e+01 6.244710000000000605e+01 2.211215000000000146e+03
2.000000000000000042e-02 1.734944999999999959e-01 2.029209999999999781e+01 6.542969999999999686e+01 2.211890000000000327e+03
2.100000000000000130e-02 1.735765000000000224e-01 2.096904999999999930e+01 6.825784999999999059e+01 2.212614999999999782e+03
2.200000000000000219e-02 1.736485000000000112e-01 2.136874999999999858e+01 7.037004999999999200e+01 2.213269999999999982e+03
2.299999999999999961e-02 1.737000000000000210e-01 2.144219999999999970e+01 7.146370000000000289e+01 2.213744999999999891e+03
2.400000000000000050e-02 1.737259999999999915e-01 2.122849999999999682e+01 7.155715000000000714e+01 2.214005000000000109e+03
2.500000000000000139e-02 1.737305000000000099e-01 2.082419999999999760e+01 7.092445000000000732e+01 2.214069999999999709e+03
2.600000000000000228e-02 1.737204999999999999e-01 2.033704999999999785e+01 6.994929999999999382e+01 2.213994999999999891e+03
2.700000000000000316e-02 1.737029999999999963e-01 1.984420000000000073e+01 6.896490000000000009e+01 2.213849999999999909e+03
2.800000000000000058e-02 1.736849999999999783e-01 1.937020000000000053e+01 6.814465000000001282e+01 2.213690000000000055e+03
2.900000000000000147e-02 1.736665000000000014e-01 1.888964999999999961e+01 6.747259999999999991e+01 2.213529999999999745e+03
3.000000000000000236e-02 1.736469999999999958e-01 1.834870000000000090e+01 6.679170000000000584e+01 2.213359999999999673e+03
3.099999999999999978e-02 1.736225000000000129e-01 1.769579999999999842e+01 6.590024999999999977e+01 2.213149999999999636e+03
3.200000000000000067e-02 1.735895000000000077e-01 1.691000000000000014e+01 6.465764999999998963e+01 2.212864999999999782e+03
3.300000000000000155e-02 1.735464999999999924e-01 1.601789999999999736e+01 6.306204999999999927e+01 2.212494999999999891e+03
3.400000000000000244e-02 1.734959999999999836e-01 1.509329999999999927e+01 6.127499999999999858e+01 2.212059999999999945e+03
3.500000000000000333e-02 1.734450000000000158e-01 1.423944999999999794e+01 5.958460000000000178e+01 2.211609999999999673e+03
3.600000000000000422e-02 1.734005000000000130e-01 1.356114999999999959e+01 5.832280000000000086e+01 2.211215000000000146e+03
3.700000000000000511e-02 1.733719999999999983e-01 1.313599999999999923e+01 5.776610000000000156e+01 2.210949999999999818e+03
3.799999999999999906e-02 1.733635000000000037e-01 1.299435000000000073e+01 5.805480000000000018e+01 2.210860000000000127e+03
3.899999999999999994e-02 1.733784999999999910e-01 1.311270000000000024e+01 5.915424999999999756e+01 2.210965000000000146e+03
4.000000000000000083e-02 1.734130000000000116e-01 1.342145000000000010e+01 6.086520000000000152e+01 2.211250000000000000e+03
4.100000000000000172e-02 1.734610000000000041e-01 1.382215000000000060e+01 6.287400000000000233e+01 2.211659999999999854e+03
4.200000000000000261e-02 1.735140000000000016e-01 1.420864999999999867e+01 6.482460000000000377e+01 2.212119999999999891e+03
4.300000000000000350e-02 1.735634999999999817e-01 1.448600000000000065e+01 6.638894999999999413e+01 2.212555000000000291e+03
4.400000000000000439e-02 1.736004999999999909e-01 1.458419999999999916e+01 6.732179999999999609e+01 2.212889999999999873e+03
4.499999999999999833e-02 1.736209999999999976e-01 1.446379999999999910e+01 6.748855000000000359e+01 2.213074999999999818e+03
4.599999999999999922e-02 1.736199999999999966e-01 1.411469999999999914e+01 6.686660000000000537e+01 2.213079999999999927e+03
4.700000000000000011e-02 1.735975000000000157e-01 1.355010000000000048e+01 6.552360000000000184e+01 2.212899999999999636e+03
4.800000000000000100e-02 1.735555000000000014e-01 1.279734999999999978e+01 6.358474999999999966e+01 2.212539999999999964e+03
4.900000000000000189e-02 1.734974999999999989e-01 1.189024000000000036e+01 6.119754999999999967e+01 2.212039999999999964e+03
5.000000000000000278e-02 1.734260000000000246e-01 1.086260000000000048e+01 5.850444999999999851e+01 2.211420000000000073e+03
5.100000000000000366e-02 1.733449999999999991e-01 9.745824999999999960e+00 5.562669999999999959e+01 2.210704999999999927e+03
5.200000000000000455e-02 1.732569999999999943e-01 8.568570000000001130e+00 5.266079999999999472e+01 2.209940000000000055e+03
5.300000000000000544e-02 1.731655000000000000e-01 7.358829999999999316e+00 4.968449999999999989e+01 2.209135000000000218e+03
5.399999999999999939e-02 1.730734999999999912e-01 6.146354999999999791e+00 4.676715000000000089e+01 2.208324999999999818e+03
5.500000000000000028e-02 1.729819999999999969e-01 4.964889999999999581e+00 4.398109999999999786e+01 2.207519999999999982e+03
5.600000000000000117e-02 1.728945000000000065e-01 3.852784999999999904e+00 4.140904999999999347e+01 2.206750000000000000e+03
5.700000000000000205e-02 1.728139999999999954e-01 2.852365500000000331e+00 3.914600000000000080e+01 2.206029999999999745e+03
5.800000000000000294e-02 1.727440000000000087e-01 2.007676650000000063e+00 3.729579999999999984e+01 2.205404999999999745e+03
5.900000000000000383e-02 1.726865000000000205e-01 1.361284999999999856e+00 3.596299999999999386e+01 2.204889999999999873e+03
6.000000000000000472e-02 1.726455000000000073e-01 9.506839999999999735e-01 3.524244999999999806e+01 2.204519999999999982e+03
6.099999999999999867e-02 1.726239999999999997e-01 8.049870000000000081e-01 3.520855000000000246e+01 2.204310000000000400e+03
6.199999999999999956e-02 1.726234999999999853e-01 9.424095000000000111e-01 3.590670000000000073e+01 2.204280000000000200e+03
6.300000000000000044e-02 1.726449999999999929e-01 1.368823499999999971e+00 3.734844999999999970e+01 2.204454999999999927e+03
6.400000000000000133e-02 1.726894999999999958e-01 2.077540500000000012e+00 3.950979999999999848e+01 2.204819999999999709e+03
6.500000000000000222e-02 1.727559999999999929e-01 3.050148999999999777e+00 4.233395000000000152e+01 2.205385000000000218e+03
6.600000000000000311e-02 1.728425000000000100e-01 4.258230000000000182e+00 4.573644999999999783e+01 2.206125000000000000e+03
6.700000000000000400e-02 1.729465000000000030e-01 5.665740000000000443e+00 4.961314999999999742e+01 2.207025000000000091e+03
6.800000000000000488e-02 1.730659999999999976e-01 7.231740000000000279e+00 5.384855000000000302e+01 2.208055000000000291e+03
6.900000000000000577e-02 1.731965000000000032e-01 8.913325000000000387e+00 5.832495000000000118e+01 2.209194999999999709e+03
7.000000000000000666e-02 1.733345000000000025e-01 1.066832499999999939e+01 6.293119999999999692e+01 2.210409999999999854e+03
7.100000000000000755e-02 1.734780000000000211e-01 1.245796500000000151e+01 6.756929999999999836e+01 2.211670000000000073e+03
7.200000000000000844e-02 1.736229999999999996e-01 1.424879999999999924e+01 7.216089999999999804e+01 2.212954999999999927e+03
7.300000000000000933e-02 1.737680000000000058e-01 1.601405000000000101e+01 7.664979999999999905e+01 2.214239999999999782e+03
7.399999999999999634e-02 1.739109999999999823e-01 1.773409999999999798e+01 8.100315000000000509e+01 2.215510000000000218e+03
7.499999999999999722e-02 1.740510000000000113e-01 1.939659999999999940e+01 8.520969999999999800e+01 2.216760000000000218e+03
7.599999999999999811e-02 1.741880000000000095e-01 2.099534999999999840e+01 8.927615000000000123e+01 2.217985000000000127e+03
7.699999999999999900e-02 1.743210000000000037e-01 2.252909999999999968e+01 9.322180000000000177e+01 2.219179999999999836e+03
7.799999999999999989e-02 1.744519999999999960e-01 2.400000000000000000e+01 9.707394999999999641e+01 2.220355000000000018e+03
7.900000000000000078e-02 1.745800000000000129e-01 2.541219999999999857e+01 1.008594999999999970e+02 2.221510000000000218e+03
8.000000000000000167e-02 1.747064999999999868e-01 2.677005000000000123e+01 1.046026999999999987e+02 2.222649999999999636e+03
8.100000000000000255e-02 1.748325000000000018e-01 2.807760000000000034e+01 1.083220000000000027e+02 2.223780000000000200e+03
8.200000000000000344e-02 1.749570000000000014e-01 2.933729999999999905e+01 1.120264999999999986e+02 2.224905000000000200e+03
8.300000000000000433e-02 1.750815000000000010e-01 3.054999999999999716e+01 1.157160000000000082e+02 2.226025000000000091e+03
8.400000000000000522e-02 1.752049999999999996e-01 3.171495000000000175e+01 1.193829999999999956e+02 2.227139999999999873e+03
8.500000000000000611e-02 1.753270000000000106e-01 3.282959999999999923e+01 1.230125000000000028e+02 2.228250000000000000e+03
8.600000000000000699e-02 1.754485000000000072e-01 3.388989999999999725e+01 1.265834999999999866e+02 2.229340000000000146e+03
8.700000000000000788e-02 1.755670000000000008e-01 3.489060000000000628e+01 1.300730000000000075e+02 2.230420000000000073e+03
8.800000000000000877e-02 1.756834999999999924e-01 3.582549999999999812e+01 1.334540000000000077e+02 2.231470000000000255e+03
8.899999999999999578e-02 1.757960000000000078e-01 3.668750000000000000e+01 1.366995000000000005e+02 2.232494999999999891e+03
8.999999999999999667e-02 1.759034999999999904e-01 3.746880000000000166e+01 1.397810000000000059e+02 2.233475000000000364e+03
9.099999999999999756e-02 1.760069999999999968e-01 3.816145000000000209e+01 1.426705000000000041e+02 2.234414999999999964e+03
9.199999999999999845e-02 1.761030000000000095e-01 3.875750000000000028e+01 1.453405000000000200e+02 2.235289999999999964e+03
9.299999999999999933e-02 1.761925000000000019e-01 3.924929999999999808e+01 1.477669999999999959e+02 2.236104999999999563e+03
9.400000000000000022e-02 1.762739999999999863e-01 3.963030000000000541e+01 1.499275000000000091e+02 2.236855000000000018e+03
9.500000000000000111e-02 1.763470000000000037e-01 3.989525000000000432e+01 1.518045000000000186e+02 2.237525000000000091e+03
9.600000000000000200e-02 1.764114999999999989e-01 4.004094999999999516e+01 1.533859999999999957e+02 2.238114999999999782e+03
9.700000000000000289e-02 1.764660000000000117e-01 4.006685000000000230e+01 1.546674999999999898e+02 2.238625000000000000e+03
9.800000000000000377e-02 1.765109999999999735e-01 3.997480000000000189e+01 1.556525000000000034e+02 2.239045000000000073e+03
9.900000000000000466e-02 1.765464999999999951e-01 3.976975000000000193e+01 1.563514999999999873e+02 2.239380000000000109e+03
1.000000000000000056e-01 1.765734999999999943e-01 3.945920000000000272e+01 1.567824999999999989e+02 2.239630000000000109e+03
1.010000000000000064e-01 1.765919999999999990e-01 3.905330000000000013e+01 1.569720000000000084e+02 2.239810000000000400e+03
1.020000000000000073e-01 1.766019999999999812e-01 3.856405000000000172e+01 1.569495000000000005e+02 2.239914999999999964e+03
1.030000000000000082e-01 1.766059999999999852e-01 3.800489999999999924e+01 1.567490000000000236e+02 2.239960000000000036e+03
1.040000000000000091e-01 1.766039999999999832e-01 3.739024999999999466e+01 1.564070000000000107e+02 2.239949999999999818e+03
1.050000000000000100e-01 1.765974999999999906e-01 3.673440000000000083e+01 1.559584999999999866e+02 2.239894999999999982e+03
1.059999999999999970e-01 1.765869999999999940e-01 3.605120000000000147e+01 1.554364999999999952e+02 2.239800000000000182e+03
1.069999999999999979e-01 1.765734999999999943e-01 3.535370000000000346e+01 1.548709999999999809e+02 2.239689999999999600e+03
1.079999999999999988e-01 1.765585000000000071e-01 3.465319999999999823e+01 1.542880000000000109e+02 2.239554999999999836e+03
1.089999999999999997e-01 1.765424999999999911e-01 3.395940000000000225e+01 1.537069999999999936e+02 2.239409999999999854e+03
1.100000000000000006e-01 1.765260000000000162e-01 3.327965000000000373e+01 1.531430000000000007e+02 2.239265000000000327e+03
1.110000000000000014e-01 1.765094999999999859e-01 3.261925000000000097e+01 1.526050000000000182e+02 2.239114999999999782e+03
1.120000000000000023e-01 1.764939999999999842e-01 3.198100000000000165e+01 1.520944999999999823e+02 2.238965000000000146e+03
1.130000000000000032e-01 1.764780000000000237e-01 3.136560000000000059e+01 1.516090000000000089e+02 2.238824999999999818e+03
1.140000000000000041e-01 1.764624999999999944e-01 3.077139999999999986e+01 1.511410000000000196e+02 2.238684999999999945e+03
1.150000000000000050e-01 1.764475000000000071e-01 3.019500000000000028e+01 1.506775000000000091e+02 2.238545000000000073e+03
1.160000000000000059e-01 1.764324999999999921e-01 2.963145000000000095e+01 1.502035000000000196e+02 2.238399999999999636e+03
1.170000000000000068e-01 1.764165000000000039e-01 2.907439999999999714e+01 1.496995000000000005e+02 2.238255000000000109e+03
1.180000000000000077e-01 1.763994999999999869e-01 2.851689999999999969e+01 1.491479999999999961e+02 2.238105000000000018e+03
1.190000000000000085e-01 1.763804999999999956e-01 2.795190000000000197e+01 1.485294999999999845e+02 2.237930000000000291e+03
1.200000000000000094e-01 1.763595000000000024e-01 2.737239999999999895e+01 1.478265000000000100e+02 2.237734999999999673e+03
1.209999999999999964e-01 1.763355000000000061e-01 2.677224999999999966e+01 1.470235000000000127e+02 2.237524999999999636e+03
1.219999999999999973e-01 1.763089999999999935e-01 2.614639999999999986e+01 1.461105000000000018e+02 2.237279999999999745e+03
1.229999999999999982e-01 1.762785000000000046e-01 2.549139999999999873e+01 1.450794999999999959e+02 2.237010000000000218e+03
1.239999999999999991e-01 1.762444999999999984e-01 2.480564999999999998e+01 1.439300000000000068e+02 2.236704999999999927e+03
1.250000000000000000e-01 1.762070000000000025e-01 2.408960000000000079e+01 1.426670000000000016e+02 2.236364999999999782e+03
1.260000000000000009e-01 1.761659999999999893e-01 2.334584999999999866e+01 1.412990000000000066e+02 2.235994999999999891e+03
1.270000000000000018e-01 1.761220000000000008e-01 2.257900000000000063e+01 1.398430000000000177e+02 2.235599999999999909e+03
1.280000000000000027e-01 1.760749999999999815e-01 2.179565000000000197e+01 1.383190000000000168e+02 2.235179999999999836e+03
1.290000000000000036e-01 1.760260000000000158e-01 2.100394999999999968e+01 1.367509999999999764e+02 2.234739999999999782e+03
1.300000000000000044e-01 1.759759999999999935e-01 2.021325000000000216e+01 1.351659999999999968e+02 2.234284999999999854e+03
1.310000000000000053e-01 1.759255000000000124e-01 1.943355000000000032e+01 1.335930000000000177e+02 2.233829999999999927e+03
1.320000000000000062e-01 1.758744999999999892e-01 1.867520000000000024e+01 1.320595000000000141e+02 2.233369999999999891e+03
1.330000000000000071e-01 1.758254999999999957e-01 1.794800000000000040e+01 1.305925000000000011e+02 2.232925000000000182e+03
1.340000000000000080e-01 1.757785000000000042e-01 1.726119999999999877e+01 1.292154999999999916e+02 2.232500000000000000e+03
1.350000000000000089e-01 1.757340000000000013e-01 1.662259999999999849e+01 1.279495000000000005e+02 2.232095000000000255e+03
1.360000000000000098e-01 1.756925000000000014e-01 1.603865000000000052e+01 1.268095000000000141e+02 2.231720000000000255e+03
1.370000000000000107e-01 1.756555000000000200e-01 1.551404999999999923e+01 1.258055000000000092e+02 2.231380000000000109e+03
1.380000000000000115e-01 1.756220000000000003e-01 1.505160000000000053e+01 1.249429999999999978e+02 2.231074999999999818e+03
1.390000000000000124e-01 1.755935000000000135e-01 1.465230000000000032e+01 1.242229999999999990e+02 2.230805000000000291e+03
1.400000000000000133e-01 1.755684999999999885e-01 1.431540000000000035e+01 1.236415000000000077e+02 2.230579999999999927e+03
1.410000000000000142e-01 1.755484999999999962e-01 1.403875000000000028e+01 1.231905000000000001e+02 2.230390000000000327e+03
1.420000000000000151e-01 1.755319999999999936e-01 1.381864999999999988e+01 1.228594999999999970e+02 2.230239999999999782e+03
1.430000000000000160e-01 1.755194999999999950e-01 1.365060000000000073e+01 1.226364999999999981e+02 2.230114999999999782e+03
1.440000000000000169e-01 1.755099999999999993e-01 1.352895000000000003e+01 1.225065000000000026e+02 2.230029999999999745e+03
1.450000000000000178e-01 1.755035000000000067e-01 1.344774999999999920e+01 1.224544999999999959e+02 2.229970000000000255e+03
1.459999999999999909e-01 1.755005000000000037e-01 1.340054999999999907e+01 1.224654999999999916e+02 2.229929999999999836e+03
1.469999999999999918e-01 1.754985000000000017e-01 1.338100000000000023e+01 1.225250000000000057e+02 2.229909999999999854e+03
1.479999999999999927e-01 1.754990000000000161e-01 1.338269999999999982e+01 1.226189999999999998e+02 2.229904999999999745e+03
1.489999999999999936e-01 1.754999999999999893e-01 1.339965000000000117e+01 1.227340000000000089e+02 2.229920000000000073e+03
1.499999999999999944e-01 1.755019999999999913e-01 1.342620000000000147e+01 1.228590000000000089e+02 2.229934999999999945e+03
1.509999999999999953e-01 1.755045000000000077e-01 1.345749999999999957e+01 1.229840000000000089e+02 2.229954999999999927e+03
1.519999999999999962e-01 1.755074999999999830e-01 1.348934999999999995e+01 1.231009999999999991e+02 2.229980000000000018e+03
1.529999999999999971e-01 1.755105000000000137e-01 1.351829999999999998e+01 1.232049999999999983e+02 2.230010000000000218e+03
1.539999999999999980e-01 1.755130000000000023e-01 1.354180000000000028e+01 1.232909999999999968e+02 2.230025000000000091e+03
1.549999999999999989e-01 1.755150000000000043e-01 1.355819999999999936e+01 1.233584999999999923e+02 2.230045000000000073e+03
1.559999999999999998e-01 1.755170000000000063e-01 1.356680000000000064e+01 1.234060000000000059e+02 2.230059999999999945e+03
1.570000000000000007e-01 1.755185000000000217e-01 1.356745000000000090e+01 1.234375000000000000e+02 2.230074999999999818e+03
1.580000000000000016e-01 1.755190000000000083e-01 1.356090000000000018e+01 1.234549999999999983e+02 2.230085000000000036e+03
1.590000000000000024e-01 1.755194999999999950e-01 1.354819999999999958e+01 1.234629999999999939e+02 2.230090000000000146e+03
