# t [s], A [cm^2], U [cm/s], P [cPa], c [cm/s]
1.000000000000000021e-03 1.262309999999999821e-01 4.534960000000000102e-01 9.331174999999998931e+01 1.798659999999999854e+03
2.000000000000000042e-03 1.262024999999999952e-01 2.122067499999999995e+00 8.998874999999999602e+01 1.798289999999999964e+03
3.000000000000000062e-03 1.261105000000000143e-01 4.093439000000000050e+00 8.578024999999999523e+01 1.797155000000000200e+03
4.000000000000000083e-03 1.259780000000000066e-01 6.253631500000000010e+00 8.138665000000000305e+01 1.795535000000000082e+03
5.000000000000000104e-03 1.258295000000000108e-01 8.541729999999999379e+00 7.752660000000000196e+01 1.793740000000000009e+03
6.000000000000000125e-03 1.256809999999999872e-01 1.081626999999999938e+01 7.441169999999999618e+01 1.791964999999999918e+03
7.000000000000000146e-03 1.255394999999999983e-01 1.290697000000000116e+01 7.183339999999999748e+01 1.790289999999999964e+03
8.000000000000000167e-03 1.254059999999999897e-01 1.472963500000000003e+01 6.954970000000000141e+01 1.788740000000000009e+03
9.000000000000001055e-03 1.252840000000000065e-01 1.630124999999999957e+01 6.752615000000000123e+01 1.787340000000000146e+03
1.000000000000000194e-02 1.251764999999999961e-01 1.765554999999999808e+01 6.581194999999999595e+01 1.786115000000000009e+03
1.099999999999999936e-02 1.250829999999999997e-01 1.880409999999999826e+01 6.439225000000000421e+01 1.785065000000000055e+03
1.200000000000000025e-02 1.250034999999999896e-01 1.975544999999999973e+01 6.321325000000000216e+01 1.784179999999999836e+03
1.300000000000000114e-02 1.249359999999999915e-01 2.052179999999999893e+01 6.222639999999999816e+01 1.783434999999999945e+03
1.400000000000000203e-02 1.248795000000000044e-01 2.111270000000000024e+01 6.137850000000000250e+01 1.782815000000000055e+03
1.499999999999999944e-02 1.248309999999999975e-01 2.154679999999999751e+01 6.062465000000000259e+01 1.782300000000000182e+03
1.600000000000000033e-02 1.247894999999999976e-01 2.187584999999999980e+01 5.999219999999999686e+01 1.781865000000000009e+03
1.700000000000000122e-02 1.247580000000000078e-01 2.219044999999999845e+01 5.962500000000000000e+01 1.781534999999999854e+03
1.800000000000000211e-02 1.247395000000000032e-01 2.259224999999999994e+01 5.973985000000000412e+01 1.781349999999999909e+03
1.900000000000000300e-02 1.247395000000000032e-01 2.314914999999999878e+01 6.051189999999999714e+01 1.781365000000000009e+03
2.000000000000000042e-02 1.247604999999999964e-01 2.386200000000000188e+01 6.196150000000000091e+01 1.781610000000000127e+03
2.100000000000000130e-02 1.248015000000000096e-01 2.466035000000000110e+01 6.391009999999999991e+01 1.782069999999999936e+03
2.200000000000000219e-02 1.248555000000000081e-01 2.542680000000000007e+01 6.602230000000000132e+01 1.782684999999999945e+03
2.299999999999999961e-02 1.249139999999999973e-01 2.603565000000000040e+01 6.790770000000000550e+01 1.783355000000000018e+03
2.400000000000000050e-02 1.249675000000000091e-01 2.639085000000000036e+01 6.923590000000000089e+01 1.783970000000000027e+03
2.500000000000000139e-02 1.250074999999999936e-01 2.644984999999999786e+01 6.982330000000000325e+01 1.784450000000000045e+03
2.600000000000000228e-02 1.250304999999999889e-01 2.622899999999999920e+01 6.966670000000000584e+01 1.784735000000000127e+03
2.700000000000000316e-02 1.250360000000000082e-01 2.579084999999999894e+01 6.892070000000001073e+01 1.784815000000000055e+03
2.800000000000000058e-02 1.250259999999999982e-01 2.522060000000000102e+01 6.783225000000000193e+01 1.784730000000000018e+03
2.900000000000000147e-02 1.250065000000000204e-01 2.460045000000000215e+01 6.666020000000000323e+01 1.784530000000000200e+03
3.000000000000000236e-02 1.249829999999999969e-01 2.398969999999999914e+01 6.560585000000000377e+01 1.784275000000000091e+03
3.099999999999999978e-02 1.249599999999999878e-01 2.341595000000000226e+01 6.477264999999999873e+01 1.784015000000000100e+03
3.200000000000000067e-02 1.249394999999999950e-01 2.287664999999999793e+01 6.416249999999999432e+01 1.783784999999999854e+03
3.300000000000000155e-02 1.249214999999999909e-01 2.234969999999999857e+01 6.370080000000000098e+01 1.783585000000000036e+03
3.400000000000000244e-02 1.249050000000000021e-01 2.180709999999999837e+01 6.327884999999999849e+01 1.783405000000000200e+03
3.500000000000000333e-02 1.248885000000000134e-01 2.122860000000000014e+01 6.279824999999999591e+01 1.783224999999999909e+03
3.600000000000000422e-02 1.248704999999999954e-01 2.061129999999999995e+01 6.220640000000000214e+01 1.783025000000000091e+03
3.700000000000000511e-02 1.248500000000000026e-01 1.997384999999999877e+01 6.151465000000000316e+01 1.782795000000000073e+03
3.799999999999999906e-02 1.248275000000000079e-01 1.935334999999999894e+01 6.079720000000000368e+01 1.782545000000000073e+03
3.899999999999999994e-02 1.248049999999999993e-01 1.879809999999999803e+01 6.017194999999999538e+01 1.782295000000000073e+03
4.000000000000000083e-02 1.247860000000000080e-01 1.835660000000000025e+01 5.977004999999999768e+01 1.782079999999999927e+03
4.100000000000000172e-02 1.247735000000000094e-01 1.806604999999999706e+01 5.970194999999999652e+01 1.781940000000000055e+03
4.200000000000000261e-02 1.247710000000000069e-01 1.794385000000000119e+01 6.002830000000000155e+01 1.781900000000000091e+03
4.300000000000000350e-02 1.247790000000000010e-01 1.798245000000000005e+01 6.074320000000000164e+01 1.781974999999999909e+03
4.400000000000000439e-02 1.247975000000000056e-01 1.814985000000000070e+01 6.177105000000000246e+01 1.782179999999999836e+03
4.499999999999999833e-02 1.248249999999999915e-01 1.839410000000000167e+01 6.297820000000000107e+01 1.782474999999999909e+03
4.599999999999999922e-02 1.248579999999999968e-01 1.865095000000000169e+01 6.419405000000000427e+01 1.782835000000000036e+03
4.700000000000000011e-02 1.248920000000000030e-01 1.885289999999999822e+01 6.523789999999999623e+01 1.783210000000000036e+03
4.800000000000000100e-02 1.249214999999999909e-01 1.893779999999999930e+01 6.594440000000000168e+01 1.783545000000000073e+03
4.900000000000000189e-02 1.249429999999999985e-01 1.885544999999999760e+01 6.618444999999999823e+01 1.783785000000000082e+03
5.000000000000000278e-02 1.249514999999999931e-01 1.857235000000000014e+01 6.587805000000000177e+01 1.783889999999999873e+03
5.100000000000000366e-02 1.249450000000000005e-01 1.807269999999999754e+01 6.499890000000000612e+01 1.783824999999999818e+03
5.200000000000000455e-02 1.249224999999999919e-01 1.735835000000000150e+01 6.357025000000000148e+01 1.783575000000000045e+03
5.300000000000000544e-02 1.248829999999999940e-01 1.644565000000000055e+01 6.165649999999999409e+01 1.783134999999999991e+03
5.399999999999999939e-02 1.248279999999999945e-01 1.536270000000000024e+01 5.935020000000000095e+01 1.782534999999999854e+03
5.500000000000000028e-02 1.247604999999999964e-01 1.414515000000000100e+01 5.676010000000000133e+01 1.781775000000000091e+03
5.600000000000000117e-02 1.246825000000000017e-01 1.283336999999999861e+01 5.400000000000000000e+01 1.780900000000000091e+03
5.700000000000000205e-02 1.245964999999999989e-01 1.146995000000000076e+01 5.118085000000000662e+01 1.779940000000000055e+03
5.800000000000000294e-02 1.245064999999999922e-01 1.009787500000000016e+01 4.840614999999999668e+01 1.778934999999999945e+03
5.900000000000000383e-02 1.244154999999999844e-01 8.759529999999999816e+00 4.577009999999999934e+01 1.777910000000000082e+03
6.000000000000000472e-02 1.243265000000000065e-01 7.496129999999999960e+00 4.335750000000000171e+01 1.776909999999999854e+03
6.099999999999999867e-02 1.242429999999999923e-01 6.347430000000000128e+00 4.124490000000000123e+01 1.775964999999999918e+03
6.199999999999999956e-02 1.241664999999999852e-01 5.351074999999999804e+00 3.950189999999999912e+01 1.775105000000000018e+03
6.300000000000000044e-02 1.241005000000000025e-01 4.542159999999999975e+00 3.819105000000000416e+01 1.774360000000000127e+03
6.400000000000000133e-02 1.240475000000000050e-01 3.952284999999999826e+00 3.736759999999999593e+01 1.773759999999999991e+03
6.500000000000000222e-02 1.240090000000000081e-01 3.608455000000000190e+00 3.707800000000000296e+01 1.773315000000000055e+03
6.600000000000000311e-02 1.239875000000000005e-01 3.531894999999999563e+00 3.735739999999999839e+01 1.773059999999999945e+03
6.700000000000000400e-02 1.239839999999999970e-01 3.736889999999999823e+00 3.822715000000000174e+01 1.773005000000000109e+03
6.800000000000000488e-02 1.239994999999999986e-01 4.229829999999999757e+00 3.969289999999999452e+01 1.773160000000000082e+03
6.900000000000000577e-02 1.240350000000000064e-01 5.008684999999999832e+00 4.174259999999999593e+01 1.773534999999999854e+03
7.000000000000000666e-02 1.240900000000000059e-01 6.062890000000000335e+00 4.434655000000000058e+01 1.774130000000000109e+03
7.100000000000000755e-02 1.241635000000000100e-01 7.373804999999999055e+00 4.745810000000000173e+01 1.774940000000000055e+03
7.200000000000000844e-02 1.242554999999999910e-01 8.915565000000000850e+00 5.101600000000000534e+01 1.775954999999999927e+03
7.300000000000000933e-02 1.243634999999999879e-01 1.065645999999999916e+01 5.494740000000000180e+01 1.777155000000000200e+03
7.399999999999999634e-02 1.244859999999999856e-01 1.256055500000000080e+01 5.917199999999999704e+01 1.778514999999999873e+03
7.499999999999999722e-02 1.246204999999999952e-01 1.458934999999999960e+01 6.360625000000000284e+01 1.780014999999999873e+03
7.599999999999999811e-02 1.247634999999999994e-01 1.670349999999999824e+01 6.816729999999999734e+01 1.781619999999999891e+03
7.699999999999999900e-02 1.249139999999999973e-01 1.886425000000000196e+01 7.277694999999999936e+01 1.783309999999999945e+03
7.799999999999999989e-02 1.250680000000000125e-01 2.103549999999999898e+01 7.736464999999999748e+01 1.785055000000000064e+03
7.900000000000000078e-02 1.252240000000000020e-01 2.318410000000000082e+01 8.186994999999998868e+01 1.786829999999999927e+03
8.000000000000000167e-02 1.253799999999999915e-01 2.528159999999999741e+01 8.624430000000000973e+01 1.788599999999999909e+03
8.100000000000000255e-02 1.255334999999999923e-01 2.730465000000000231e+01 9.045179999999999154e+01 1.790355000000000018e+03
8.200000000000000344e-02 1.256840000000000179e-01 2.923550000000000182e+01 9.446985000000000809e+01 1.792075000000000045e+03
8.300000000000000433e-02 1.258289999999999964e-01 3.106219999999999715e+01 9.828835000000000832e+01 1.793755000000000109e+03
8.400000000000000522e-02 1.259699999999999986e-01 3.277870000000000061e+01 1.019104999999999990e+02 1.795369999999999891e+03
8.500000000000000611e-02 1.261049999999999949e-01 3.438419999999999987e+01 1.053490500000000054e+02 1.796934999999999945e+03
8.600000000000000699e-02 1.262344999999999995e-01 3.588309999999999889e+01 1.086264999999999930e+02 1.798440000000000055e+03
8.700000000000000788e-02 1.263595000000000135e-01 3.728354999999999819e+01 1.117715000000000032e+02 1.799889999999999873e+03
8.800000000000000877e-02 1.264795000000000225e-01 3.859704999999999586e+01 1.148170000000000073e+02 1.801295000000000073e+03
8.899999999999999578e-02 1.265965000000000007e-01 3.983704999999999785e+01 1.177990000000000066e+02 1.802659999999999854e+03
8.999999999999999667e-02 1.267115000000000047e-01 4.101784999999999570e+01 1.207510000000000048e+02 1.804000000000000000e+03
9.099999999999999756e-02 1.268239999999999923e-01 4.215350000000000108e+01 1.237039999999999935e+02 1.805325000000000045e+03
9.199999999999999845e-02 1.269365000000000077e-01 4.325670000000000215e+01 1.266829999999999927e+02 1.806644999999999982e+03
9.299999999999999933e-02 1.270494999999999819e-01 4.433790000000000475e+01 1.297050000000000125e+02 1.807964999999999918e+03
9.400000000000000022e-02 1.271619999999999973e-01 4.540449999999999875e+01 1.327805000000000177e+02 1.809289999999999964e+03
9.500000000000000111e-02 1.272765000000000146e-01 4.646059999999999945e+01 1.359085000000000036e+02 1.810634999999999991e+03
9.600000000000000200e-02 1.273920000000000052e-01 4.750665000000000049e+01 1.390805000000000007e+02 1.811989999999999782e+03
9.700000000000000289e-02 1.275084999999999968e-01 4.853945000000000221e+01 1.422794999999999845e+02 1.813360000000000127e+03
9.800000000000000377e-02 1.276265000000000038e-01 4.955225000000000080e+01 1.454795000000000016e+02 1.814740000000000009e+03
9.900000000000000466e-02 1.277429999999999954e-01 5.053575000000000017e+01 1.486504999999999939e+02 1.816119999999999891e+03
1.000000000000000056e-01 1.278590000000000004e-01 5.147790000000000532e+01 1.517579999999999814e+02 1.817489999999999782e+03
1.010000000000000064e-01 1.279734999999999900e-01 5.236540000000000106e+01 1.547640000000000100e+02 1.818835000000000036e+03
1.020000000000000073e-01 1.280844999999999900e-01 5.318394999999999584e+01 1.576310000000000002e+02 1.820150000000000091e+03
1.030000000000000082e-01 1.281909999999999994e-01 5.391910000000000025e+01 1.603220000000000027e+02 1.821414999999999964e+03
1.040000000000000091e-01 1.282925000000000038e-01 5.455724999999999625e+01 1.628045000000000186e+02 1.822619999999999891e+03
1.050000000000000100e-01 1.283874999999999877e-01 5.508579999999999899e+01 1.650495000000000232e+02 1.823750000000000000e+03
1.059999999999999970e-01 1.284744999999999915e-01 5.549430000000000263e+01 1.670324999999999989e+02 1.824789999999999964e+03
1.069999999999999979e-01 1.285534999999999872e-01 5.577434999999999832e+01 1.687364999999999782e+02 1.825730000000000018e+03
1.079999999999999988e-01 1.286235000000000017e-01 5.592034999999999911e+01 1.701504999999999939e+02 1.826575000000000045e+03
1.089999999999999997e-01 1.286835000000000062e-01 5.592954999999999899e+01 1.712699999999999818e+02 1.827304999999999836e+03
1.100000000000000006e-01 1.287345000000000017e-01 5.580219999999999914e+01 1.720969999999999800e+02 1.827914999999999964e+03
1.110000000000000014e-01 1.287750000000000006e-01 5.554134999999999422e+01 1.726409999999999911e+02 1.828409999999999854e+03
1.120000000000000023e-01 1.288064999999999904e-01 5.515314999999999657e+01 1.729159999999999968e+02 1.828795000000000073e+03
1.130000000000000032e-01 1.288279999999999981e-01 5.464610000000000412e+01 1.729420000000000073e+02 1.829065000000000055e+03
1.140000000000000041e-01 1.288409999999999833e-01 5.403125000000000000e+01 1.727434999999999832e+02 1.829230000000000018e+03
1.150000000000000050e-01 1.288455000000000017e-01 5.332130000000000081e+01 1.723474999999999966e+02 1.829299999999999955e+03
1.160000000000000059e-01 1.288429999999999853e-01 5.253064999999999429e+01 1.717844999999999800e+02 1.829279999999999973e+03
1.170000000000000068e-01 1.288334999999999897e-01 5.167449999999999477e+01 1.710849999999999795e+02 1.829180000000000064e+03
1.180000000000000077e-01 1.288185000000000024e-01 5.076855000000000473e+01 1.702814999999999941e+02 1.829005000000000109e+03
1.190000000000000085e-01 1.287989999999999968e-01 4.982845000000000368e+01 1.694039999999999964e+02 1.828784999999999854e+03
1.200000000000000094e-01 1.287760000000000016e-01 4.886929999999999552e+01 1.684824999999999875e+02 1.828514999999999873e+03
1.209999999999999964e-01 1.287504999999999900e-01 4.790510000000000446e+01 1.675424999999999898e+02 1.828215000000000146e+03
1.219999999999999973e-01 1.287224999999999897e-01 4.694849999999999568e+01 1.666069999999999993e+02 1.827889999999999873e+03
1.229999999999999982e-01 1.286944999999999895e-01 4.601050000000000040e+01 1.656949999999999932e+02 1.827559999999999945e+03
1.239999999999999991e-01 1.286654999999999882e-01 4.509985000000000355e+01 1.648215000000000146e+02 1.827220000000000027e+03
1.250000000000000000e-01 1.286370000000000013e-01 4.422334999999999638e+01 1.639959999999999809e+02 1.826880000000000109e+03
1.260000000000000009e-01 1.286094999999999877e-01 4.338535000000000252e+01 1.632244999999999777e+02 1.826550000000000182e+03
1.270000000000000018e-01 1.285830000000000028e-01 4.258820000000000050e+01 1.625065000000000168e+02 1.826230000000000018e+03
1.280000000000000027e-01 1.285574999999999912e-01 4.183185000000000286e+01 1.618405000000000200e+02 1.825929999999999836e+03
1.290000000000000036e-01 1.285330000000000084e-01 4.111435000000000173e+01 1.612180000000000177e+02 1.825634999999999991e+03
1.300000000000000044e-01 1.285104999999999997e-01 4.043195000000000050e+01 1.606289999999999907e+02 1.825365000000000009e+03
1.310000000000000053e-01 1.284879999999999911e-01 3.977944999999999709e+01 1.600609999999999786e+02 1.825090000000000146e+03
1.320000000000000062e-01 1.284665000000000112e-01 3.915050000000000097e+01 1.594995000000000118e+02 1.824835000000000036e+03
1.330000000000000071e-01 1.284454999999999902e-01 3.853794999999999504e+01 1.589284999999999854e+02 1.824575000000000045e+03
1.340000000000000080e-01 1.284234999999999960e-01 3.793415000000000248e+01 1.583324999999999818e+02 1.824315000000000055e+03
1.350000000000000089e-01 1.284009999999999874e-01 3.733129999999999882e+01 1.576954999999999814e+02 1.824049999999999955e+03
1.360000000000000098e-01 1.283779999999999921e-01 3.672200000000000131e+01 1.570035000000000025e+02 1.823764999999999873e+03
1.370000000000000107e-01 1.283524999999999805e-01 3.609929999999999950e+01 1.562434999999999832e+02 1.823470000000000027e+03
1.380000000000000115e-01 1.283254999999999812e-01 3.545714999999999861e+01 1.554050000000000011e+02 1.823144999999999982e+03
1.390000000000000124e-01 1.282965000000000078e-01 3.479075000000000273e+01 1.544814999999999827e+02 1.822795000000000073e+03
1.400000000000000133e-01 1.282639999999999891e-01 3.409644999999999726e+01 1.534675000000000011e+02 1.822414999999999964e+03
1.410000000000000142e-01 1.282289999999999819e-01 3.337210000000000321e+01 1.523615000000000066e+02 1.822005000000000109e+03
1.420000000000000151e-01 1.281909999999999994e-01 3.261719999999999686e+01 1.511664999999999850e+02 1.821559999999999945e+03
1.430000000000000160e-01 1.281505000000000005e-01 3.183279999999999887e+01 1.498865000000000123e+02 1.821075000000000045e+03
1.440000000000000169e-01 1.281065000000000120e-01 3.102155000000000129e+01 1.485319999999999823e+02 1.820559999999999945e+03
1.450000000000000178e-01 1.280604999999999938e-01 3.018764999999999787e+01 1.471125000000000114e+02 1.820014999999999873e+03
1.459999999999999909e-01 1.280120000000000147e-01 2.933650000000000091e+01 1.456440000000000055e+02 1.819445000000000164e+03
1.469999999999999918e-01 1.279615000000000058e-01 2.847470000000000212e+01 1.441415000000000077e+02 1.818855000000000018e+03
1.479999999999999927e-01 1.279099999999999959e-01 2.760989999999999966e+01 1.426235000000000070e+02 1.818244999999999891e+03
1.489999999999999936e-01 1.278569999999999984e-01 2.675029999999999930e+01 1.411084999999999923e+02 1.817630000000000109e+03
1.499999999999999944e-01 1.278040000000000009e-01 2.590435000000000088e+01 1.396150000000000091e+02 1.817005000000000109e+03
1.509999999999999953e-01 1.277510000000000034e-01 2.508070000000000022e+01 1.381620000000000061e+02 1.816384999999999991e+03
1.519999999999999962e-01 1.276994999999999936e-01 2.428760000000000119e+01 1.367675000000000125e+02 1.815775000000000091e+03
1.529999999999999971e-01 1.276494999999999991e-01 2.353289999999999793e+01 1.354465000000000146e+02 1.815184999999999945e+03
1.539999999999999980e-01 1.276010000000000200e-01 2.282345000000000113e+01 1.342139999999999986e+02 1.814615000000000009e+03
1.549999999999999989e-01 1.275550000000000017e-01 2.216519999999999868e+01 1.330804999999999723e+02 1.814075000000000045e+03
1.559999999999999998e-01 1.275125000000000008e-01 2.156285000000000096e+01 1.320550000000000068e+02 1.813570000000000164e+03
1.570000000000000007e-01 1.274730000000000030e-01 2.101980000000000004e+01 1.311424999999999841e+02 1.813105000000000018e+03
1.580000000000000016e-01 1.274370000000000225e-01 2.053774999999999906e+01 1.303469999999999800e+02 1.812675000000000182e+03
1.590000000000000024e-01 1.274045000000000039e-01 2.011739999999999995e+01 1.296659999999999968e+02 1.812295000000000073e+03
