# t [s], A [cm^2], U [cm/s], P [cPa], c [cm/s]
1.000000000000000021e-03 6.636085000000000456e-01 6.311499999999997668e-03 9.590084999999999127e+01 1.708315000000000055e+03
2.000000000000000042e-03 6.635979999999999102e-01 5.108350000000002819e-04 9.586554999999999893e+01 1.708309999999999945e+03
3.000000000000000062e-03 6.636695000000000233e-01 1.350091500000000222e-01 9.601574999999999704e+01 1.708340000000000146e+03
4.000000000000000083e-03 6.637064999999999770e-01 2.281179499999999860e-01 9.612215000000000487e+01 1.708365000000000009e+03
5.000000000000000104e-03 6.636404999999999665e-01 1.450450000000000073e-01 9.594149999999999068e+01 1.708324999999999818e+03
6.000000000000000125e-03 6.635550000000000059e-01 1.631699999999997042e-02 9.559754999999999825e+01 1.708250000000000000e+03
7.000000000000000146e-03 6.634685000000000166e-01 -1.279450000000000864e-01 9.516365000000000407e+01 1.708160000000000082e+03
8.000000000000000167e-03 6.633084999999999676e-01 -4.261949999999999905e-01 9.446375000000000455e+01 1.708005000000000109e+03
9.000000000000001055e-03 6.630719999999999947e-01 -8.863099999999999312e-01 9.343455000000000155e+01 1.707779999999999973e+03
1.000000000000000194e-02 6.627520000000000078e-01 -1.508064999999999989e+00 9.202830000000000155e+01 1.707474999999999909e+03
1.099999999999999936e-02 6.623160000000000158e-01 -2.330535000000000245e+00 9.013960000000000150e+01 1.707049999999999955e+03
1.200000000000000025e-02 6.617809999999999526e-01 -3.295799999999999841e+00 8.778159999999999741e+01 1.706515000000000100e+03
1.300000000000000114e-02 6.612400000000000500e-01 -4.197421499999999916e+00 8.520324999999999704e+01 1.705914999999999964e+03
1.400000000000000203e-02 6.607985000000000664e-01 -4.794880365000000033e+00 8.277429999999999666e+01 1.705320000000000164e+03
1.499999999999999944e-02 6.605064999999999964e-01 -4.951365000000000016e+00 8.077840000000000487e+01 1.704789999999999964e+03
1.600000000000000033e-02 6.603414999999999146e-01 -4.682409999999999961e+00 7.929179999999999495e+01 1.704360000000000127e+03
1.700000000000000122e-02 6.602310000000000123e-01 -4.120804999999999829e+00 7.818625000000000114e+01 1.704009999999999991e+03
1.800000000000000211e-02 6.600939999999999586e-01 -3.443585000000000118e+00 7.721340000000000714e+01 1.703690000000000055e+03
1.900000000000000300e-02 6.598714999999999442e-01 -2.796723999999999766e+00 7.612154999999999916e+01 1.703360000000000127e+03
2.000000000000000042e-02 6.595490000000000519e-01 -2.243286499999999961e+00 7.475829999999999131e+01 1.702970000000000027e+03
2.100000000000000130e-02 6.591555000000000053e-01 -1.755115000000000203e+00 7.311779999999998836e+01 1.702525000000000091e+03
2.200000000000000219e-02 6.587425000000000086e-01 -1.249650000000000150e+00 7.131405000000000882e+01 1.702045000000000073e+03
2.299999999999999961e-02 6.583544999999999536e-01 -6.480349999999999167e-01 6.950244999999999607e+01 1.701559999999999945e+03
2.400000000000000050e-02 6.580125000000000002e-01 7.687499999999980460e-02 6.779589999999998895e+01 1.701085000000000036e+03
2.500000000000000139e-02 6.576999999999999513e-01 8.803950000000002607e-01 6.621035000000000537e+01 1.700634999999999991e+03
2.600000000000000228e-02 6.573759999999999604e-01 1.654230000000000089e+00 6.465279999999999916e+01 1.700194999999999936e+03
2.700000000000000316e-02 6.569860000000000699e-01 2.255205000000000126e+00 6.294700000000000273e+01 1.699724999999999909e+03
2.800000000000000058e-02 6.564784999999999648e-01 2.544970000000000176e+00 6.088729999999999620e+01 1.699184999999999945e+03
2.900000000000000147e-02 6.558220000000000161e-01 2.430435000000000567e+00 5.830514999999999759e+01 1.698535000000000082e+03
3.000000000000000236e-02 6.550215000000000343e-01 1.892855000000000398e+00 5.512980000000000302e+01 1.697764999999999873e+03
3.099999999999999978e-02 6.541120000000000267e-01 9.947949999999998738e-01 5.141989999999999839e+01 1.696869999999999891e+03
3.200000000000000067e-02 6.531545000000000822e-01 -1.377500000000004832e-01 4.735674999999999812e+01 1.695889999999999873e+03
3.300000000000000155e-02 6.522205000000000918e-01 -1.348440000000000083e+00 4.320390000000000441e+01 1.694875000000000000e+03
3.400000000000000244e-02 6.513750000000000373e-01 -2.485049999999999759e+00 3.925189999999999912e+01 1.693884999999999991e+03
3.500000000000000333e-02 6.506689999999999419e-01 -3.425054999999999517e+00 3.576780000000000115e+01 1.692985000000000127e+03
3.600000000000000422e-02 6.501325000000000021e-01 -4.087490000000000734e+00 3.295909999999999940e+01 1.692224999999999909e+03
3.700000000000000511e-02 6.497785000000000366e-01 -4.433064800000000361e+00 3.095689999999999742e+01 1.691644999999999982e+03
3.799999999999999906e-02 6.496060000000000167e-01 -4.456215000000000259e+00 2.981579999999999586e+01 1.691264999999999873e+03
3.899999999999999994e-02 6.496025000000000826e-01 -4.172354999999999592e+00 2.952749999999999986e+01 1.691090000000000146e+03
4.000000000000000083e-02 6.497530000000000250e-01 -3.604835000000000012e+00 3.004189999999999827e+01 1.691110000000000127e+03
4.100000000000000172e-02 6.500440000000000662e-01 -2.774849999999999817e+00 3.128920000000000101e+01 1.691324999999999818e+03
4.200000000000000261e-02 6.504630000000000134e-01 -1.696624999999999828e+00 3.319745000000000346e+01 1.691719999999999800e+03
4.300000000000000350e-02 6.510004999999999820e-01 -3.784550000000002079e-01 3.570109999999999673e+01 1.692264999999999873e+03
4.400000000000000439e-02 6.516474999999999351e-01 1.171889999999999876e+00 3.874099999999999966e+01 1.692954999999999927e+03
4.499999999999999833e-02 6.523944999999999883e-01 2.940430000000000099e+00 4.225840000000000174e+01 1.693775000000000091e+03
4.599999999999999922e-02 6.532259999999999733e-01 4.901594999999999480e+00 4.618694999999999595e+01 1.694710000000000036e+03
4.700000000000000011e-02 6.541235000000000799e-01 7.016410000000000480e+00 5.044765000000000299e+01 1.695734999999999900e+03
4.800000000000000100e-02 6.550650000000000084e-01 9.233691999999999567e+00 5.494749999999999801e+01 1.696835000000000036e+03
4.900000000000000189e-02 6.560259999999999980e-01 1.149482500000000051e+01 5.958324999999999960e+01 1.697985000000000127e+03
5.000000000000000278e-02 6.569834999999999425e-01 1.373970500000000072e+01 6.424840000000000373e+01 1.699155000000000200e+03
5.100000000000000366e-02 6.579159999999999453e-01 1.591236999999999924e+01 6.884220000000000539e+01 1.700325000000000045e+03
5.200000000000000455e-02 6.588070000000000315e-01 1.796637499999999932e+01 7.327774999999999750e+01 1.701474999999999909e+03
5.300000000000000544e-02 6.596469999999999834e-01 1.986720000000000041e+01 7.748900000000000432e+01 1.702579999999999927e+03
5.399999999999999939e-02 6.604299999999999615e-01 2.159369999999999834e+01 8.143379999999999086e+01 1.703630000000000109e+03
5.500000000000000028e-02 6.611555000000000071e-01 2.313700000000000045e+01 8.509444999999999482e+01 1.704619999999999891e+03
5.600000000000000117e-02 6.618275000000000130e-01 2.449864999999999782e+01 8.847509999999999764e+01 1.705545000000000073e+03
5.700000000000000205e-02 6.624529999999999585e-01 2.568829999999999814e+01 9.159815000000000396e+01 1.706409999999999854e+03
5.800000000000000294e-02 6.630395000000000039e-01 2.672159999999999869e+01 9.450010000000000332e+01 1.707219999999999800e+03
5.900000000000000383e-02 6.635984999999999800e-01 2.761834999999999951e+01 9.722540000000000759e+01 1.707990000000000009e+03
6.000000000000000472e-02 6.641394999999999937e-01 2.840084999999999837e+01 9.982495000000000118e+01 1.708715000000000146e+03
6.099999999999999867e-02 6.646724999999999994e-01 2.909270000000000067e+01 1.023494000000000028e+02 1.709420000000000073e+03
6.199999999999999956e-02 6.652070000000001038e-01 2.971739999999999782e+01 1.048479999999999990e+02 1.710110000000000127e+03
6.300000000000000044e-02 6.657505000000000228e-01 3.029645000000000010e+01 1.073635000000000019e+02 1.710805000000000064e+03
6.400000000000000133e-02 6.663099999999999579e-01 3.084805000000000064e+01 1.099290000000000020e+02 1.711505000000000109e+03
6.500000000000000222e-02 6.668870000000000076e-01 3.138500000000000156e+01 1.125660000000000025e+02 1.712215000000000146e+03
6.600000000000000311e-02 6.674815000000000609e-01 3.191359999999999886e+01 1.152800000000000011e+02 1.712945000000000164e+03
6.700000000000000400e-02 6.680899999999999617e-01 3.243330000000000268e+01 1.180600000000000023e+02 1.713684999999999945e+03
6.800000000000000488e-02 6.687045000000000350e-01 3.293680000000000518e+01 1.208814999999999884e+02 1.714440000000000055e+03
6.900000000000000577e-02 6.693164999999999809e-01 3.341100000000000136e+01 1.237055000000000007e+02 1.715195000000000164e+03
7.000000000000000666e-02 6.699139999999998984e-01 3.383889999999999532e+01 1.264834999999999923e+02 1.715945000000000164e+03
7.100000000000000755e-02 6.704855000000000675e-01 3.420120000000000005e+01 1.291610000000000014e+02 1.716664999999999964e+03
7.200000000000000844e-02 6.710199999999999498e-01 3.447845000000000226e+01 1.316820000000000164e+02 1.717349999999999909e+03
7.300000000000000933e-02 6.715054999999999774e-01 3.465285000000000082e+01 1.339954999999999927e+02 1.717994999999999891e+03
7.399999999999999634e-02 6.719355000000000189e-01 3.470950000000000557e+01 1.360540000000000020e+02 1.718575000000000045e+03
7.499999999999999722e-02 6.723014999999999963e-01 3.463729999999999620e+01 1.378235000000000241e+02 1.719079999999999927e+03
7.599999999999999811e-02 6.726014999999999633e-01 3.442980000000000018e+01 1.392785000000000082e+02 1.719509999999999991e+03
7.699999999999999900e-02 6.728324999999999445e-01 3.408549999999999613e+01 1.404060000000000059e+02 1.719865000000000009e+03
7.799999999999999989e-02 6.729959999999999276e-01 3.360775000000000290e+01 1.412079999999999984e+02 1.720130000000000109e+03
7.900000000000000078e-02 6.730955000000000688e-01 3.300430000000000064e+01 1.416949999999999932e+02 1.720309999999999945e+03
8.000000000000000167e-02 6.731365000000000265e-01 3.228730000000000189e+01 1.418890000000000100e+02 1.720420000000000073e+03
8.100000000000000255e-02 6.731260000000000021e-01 3.147244999999999848e+01 1.418224999999999909e+02 1.720454999999999927e+03
8.200000000000000344e-02 6.730715000000000447e-01 3.057829999999999870e+01 1.415335000000000036e+02 1.720425000000000182e+03
8.300000000000000433e-02 6.729829999999999979e-01 2.962539999999999907e+01 1.410649999999999977e+02 1.720345000000000027e+03
8.400000000000000522e-02 6.728700000000000792e-01 2.863550000000000040e+01 1.404635000000000105e+02 1.720224999999999909e+03
8.500000000000000611e-02 6.727410000000000334e-01 2.763034999999999997e+01 1.397754999999999939e+02 1.720069999999999936e+03
8.600000000000000699e-02 6.726064999999999960e-01 2.663074999999999903e+01 1.390459999999999923e+02 1.719910000000000082e+03
8.700000000000000788e-02 6.724734999999999463e-01 2.565570000000000306e+01 1.383160000000000025e+02 1.719730000000000018e+03
8.800000000000000877e-02 6.723489999999999744e-01 2.472119999999999962e+01 1.376204999999999927e+02 1.719555000000000064e+03
8.899999999999999578e-02 6.722384999999999611e-01 2.384009999999999962e+01 1.369900000000000091e+02 1.719389999999999873e+03
8.999999999999999667e-02 6.721449999999999925e-01 2.302100000000000080e+01 1.364429999999999836e+02 1.719244999999999891e+03
9.099999999999999756e-02 6.720710000000000850e-01 2.226839999999999975e+01 1.359925000000000068e+02 1.719115000000000009e+03
9.199999999999999845e-02 6.720159999999999467e-01 2.158274999999999721e+01 1.356409999999999911e+02 1.719009999999999991e+03
9.299999999999999933e-02 6.719779999999999642e-01 2.096049999999999969e+01 1.353855000000000075e+02 1.718930000000000064e+03
9.400000000000000022e-02 6.719545000000000101e-01 2.039464999999999861e+01 1.352124999999999773e+02 1.718869999999999891e+03
9.500000000000000111e-02 6.719414999999999694e-01 1.987534999999999741e+01 1.351055000000000064e+02 1.718819999999999936e+03
9.600000000000000200e-02 6.719334999999999614e-01 1.939059999999999917e+01 1.350414999999999850e+02 1.718789999999999964e+03
9.700000000000000289e-02 6.719249999999999945e-01 1.892680000000000007e+01 1.349950000000000045e+02 1.718769999999999982e+03
9.800000000000000377e-02 6.719125000000000236e-01 1.846989999999999910e+01 1.349379999999999882e+02 1.718740000000000009e+03
9.900000000000000466e-02 6.718880000000000408e-01 1.800585000000000235e+01 1.348455000000000155e+02 1.718715000000000146e+03
1.000000000000000056e-01 6.718480000000000008e-01 1.752169999999999916e+01 1.346915000000000191e+02 1.718670000000000073e+03
1.010000000000000064e-01 6.717885000000000106e-01 1.700600000000000023e+01 1.344555000000000007e+02 1.718605000000000018e+03
1.020000000000000073e-01 6.717064999999999841e-01 1.644989999999999952e+01 1.341189999999999998e+02 1.718525000000000091e+03
1.030000000000000082e-01 6.715994999999999049e-01 1.584730000000000061e+01 1.336719999999999970e+02 1.718414999999999964e+03
1.040000000000000091e-01 6.714685000000000237e-01 1.519560000000000066e+01 1.331089999999999804e+02 1.718280000000000200e+03
1.050000000000000100e-01 6.713145000000000362e-01 1.449544999999999995e+01 1.324329999999999927e+02 1.718115000000000009e+03
1.059999999999999970e-01 6.711400000000000698e-01 1.375122499999999981e+01 1.316530000000000200e+02 1.717924999999999955e+03
1.069999999999999979e-01 6.709484999999999477e-01 1.297042499999999876e+01 1.307835000000000036e+02 1.717715000000000146e+03
1.079999999999999988e-01 6.707454999999999945e-01 1.216341500000000053e+01 1.298474999999999966e+02 1.717480000000000018e+03
1.089999999999999997e-01 6.705365000000000908e-01 1.134283500000000089e+01 1.288689999999999998e+02 1.717240000000000009e+03
1.100000000000000006e-01 6.703280000000000349e-01 1.052289000000000030e+01 1.278780000000000001e+02 1.716985000000000127e+03
1.110000000000000014e-01 6.701259999999999994e-01 9.718524999999999636e+00 1.269035000000000082e+02 1.716730000000000018e+03
1.120000000000000023e-01 6.699370000000000047e-01 8.944549999999999557e+00 1.259765000000000015e+02 1.716490000000000009e+03
1.130000000000000032e-01 6.697660000000000835e-01 8.215020000000000877e+00 1.251234999999999928e+02 1.716264999999999873e+03
1.140000000000000041e-01 6.696180000000000465e-01 7.542360000000000397e+00 1.243704999999999927e+02 1.716059999999999945e+03
1.150000000000000050e-01 6.694975000000000787e-01 6.936840000000000117e+00 1.237374999999999972e+02 1.715880000000000109e+03
1.160000000000000059e-01 6.694054999999999866e-01 6.405980000000000452e+00 1.232369999999999948e+02 1.715734999999999900e+03
1.170000000000000068e-01 6.693440000000000500e-01 5.954385000000000261e+00 1.228785000000000025e+02 1.715625000000000000e+03
1.180000000000000077e-01 6.693120000000000180e-01 5.583574999999999733e+00 1.226629999999999967e+02 1.715545000000000073e+03
1.190000000000000085e-01 6.693085000000000839e-01 5.292054999999999509e+00 1.225854999999999961e+02 1.715500000000000000e+03
1.200000000000000094e-01 6.693299999999999805e-01 5.075580000000000425e+00 1.226370000000000005e+02 1.715489999999999782e+03
1.209999999999999964e-01 6.693739999999999135e-01 4.927509999999999835e+00 1.228010000000000019e+02 1.715509999999999991e+03
1.219999999999999973e-01 6.694350000000000023e-01 4.839280000000000470e+00 1.230589999999999975e+02 1.715559999999999945e+03
1.229999999999999982e-01 6.695094999999999796e-01 4.800934999999999953e+00 1.233894999999999982e+02 1.715625000000000000e+03
1.239999999999999991e-01 6.695919999999999650e-01 4.801680000000000170e+00 1.237704999999999984e+02 1.715704999999999927e+03
1.250000000000000000e-01 6.696779999999999955e-01 4.830395000000000216e+00 1.241779999999999973e+02 1.715799999999999955e+03
1.260000000000000009e-01 6.697629999999999972e-01 4.876100000000000101e+00 1.245914999999999964e+02 1.715894999999999982e+03
1.270000000000000018e-01 6.698439999999999950e-01 4.928425000000000722e+00 1.249890000000000043e+02 1.715994999999999891e+03
1.280000000000000027e-01 6.699159999999999560e-01 4.977895000000000181e+00 1.253545000000000016e+02 1.716085000000000036e+03
1.290000000000000036e-01 6.699770000000000447e-01 5.016249999999999432e+00 1.256724999999999994e+02 1.716164999999999964e+03
1.300000000000000044e-01 6.700249999999999817e-01 5.036595000000000155e+00 1.259309999999999974e+02 1.716235000000000127e+03
1.310000000000000053e-01 6.700589999999999602e-01 5.033549999999999969e+00 1.261229999999999905e+02 1.716289999999999964e+03
1.320000000000000062e-01 6.700779999999999514e-01 5.003305000000000113e+00 1.262435000000000116e+02 1.716325000000000045e+03
1.330000000000000071e-01 6.700814999999999966e-01 4.943590000000000373e+00 1.262899999999999920e+02 1.716349999999999909e+03
1.340000000000000080e-01 6.700705000000000133e-01 4.853670000000000151e+00 1.262650000000000006e+02 1.716349999999999909e+03
1.350000000000000089e-01 6.700459999999999194e-01 4.734225000000000350e+00 1.261719999999999970e+02 1.716335000000000036e+03
1.360000000000000098e-01 6.700099999999999945e-01 4.587204999999999977e+00 1.260169999999999959e+02 1.716304999999999836e+03
1.370000000000000107e-01 6.699634999999999341e-01 4.415680000000000049e+00 1.258075000000000045e+02 1.716259999999999991e+03
1.380000000000000115e-01 6.699079999999999480e-01 4.223620000000000374e+00 1.255534999999999997e+02 1.716204999999999927e+03
1.390000000000000124e-01 6.698465000000000114e-01 4.015634999999999621e+00 1.252640000000000100e+02 1.716134999999999991e+03
1.400000000000000133e-01 6.697809999999999597e-01 3.796765000000000168e+00 1.249484999999999957e+02 1.716059999999999945e+03
1.410000000000000142e-01 6.697135000000000726e-01 3.572169999999999845e+00 1.246189999999999998e+02 1.715980000000000018e+03
1.420000000000000151e-01 6.696450000000000458e-01 3.346865000000000201e+00 1.242824999999999989e+02 1.715900000000000091e+03
1.430000000000000160e-01 6.695785000000000764e-01 3.125515000000000043e+00 1.239490000000000123e+02 1.715815000000000055e+03
1.440000000000000169e-01 6.695145000000000124e-01 2.912169999999999703e+00 1.236235000000000070e+02 1.715735000000000127e+03
1.450000000000000178e-01 6.694535000000000347e-01 2.710144999999999804e+00 1.233130000000000024e+02 1.715654999999999973e+03
1.459999999999999909e-01 6.693964999999999499e-01 2.521879999999999900e+00 1.230185000000000031e+02 1.715575000000000045e+03
1.469999999999999918e-01 6.693434999999999802e-01 2.348930000000000184e+00 1.227435000000000116e+02 1.715494999999999891e+03
1.479999999999999927e-01 6.692940000000000556e-01 2.191969999999999974e+00 1.224855000000000018e+02 1.715430000000000064e+03
1.489999999999999936e-01 6.692474999999999952e-01 2.050860000000000127e+00 1.222444999999999879e+02 1.715365000000000009e+03
1.499999999999999944e-01 6.692029999999999923e-01 1.924809999999999910e+00 1.220155000000000030e+02 1.715299999999999955e+03
1.509999999999999953e-01 6.691595000000000182e-01 1.812485000000000124e+00 1.217950000000000017e+02 1.715235000000000127e+03
1.519999999999999962e-01 6.691165000000000029e-01 1.712198499999999957e+00 1.215784999999999911e+02 1.715179999999999836e+03
1.529999999999999971e-01 6.690724999999999589e-01 1.622076499999999921e+00 1.213610000000000042e+02 1.715119999999999891e+03
1.539999999999999980e-01 6.690270000000000383e-01 1.540235000000000021e+00 1.211384999999999934e+02 1.715059999999999945e+03
1.549999999999999989e-01 6.689784999999999204e-01 1.464914499999999897e+00 1.209074999999999989e+02 1.715000000000000000e+03
1.559999999999999998e-01 6.689279999999999671e-01 1.394610499999999975e+00 1.206650000000000063e+02 1.714930000000000064e+03
1.570000000000000007e-01 6.688735000000000097e-01 1.328159000000000090e+00 1.204089999999999918e+02 1.714860000000000127e+03
1.580000000000000016e-01 6.688160000000000771e-01 1.264810499999999838e+00 1.201389999999999958e+02 1.714795000000000073e+03
1.590000000000000024e-01 6.687559999999999061e-01 1.204274000000000067e+00 1.198559999999999945e+02 1.714720000000000027e+03
