# t [s], A [cm^2], U [cm/s], P [cPa], c [cm/s]
1.000000000000000021e-03 1.488430000000000031e-01 2.335514999999999952e-01 1.038594999999999970e+02 1.839750000000000000e+03
2.000000000000000042e-03 1.488244999999999985e-01 1.685721000000000025e+00 1.010157000000000096e+02 1.839550000000000182e+03
3.000000000000000062e-03 1.487370000000000081e-01 3.498740499999999809e+00 9.732845000000000368e+01 1.838710000000000036e+03
4.000000000000000083e-03 1.486009999999999831e-01 5.516651949999999971e+00 9.309534999999999627e+01 1.837414999999999964e+03
5.000000000000000104e-03 1.484379999999999866e-01 7.688340000000000174e+00 8.894780000000000086e+01 1.835884999999999991e+03
6.000000000000000125e-03 1.482669999999999821e-01 9.931154999999998623e+00 8.528399999999999181e+01 1.834284999999999854e+03
7.000000000000000146e-03 1.480984999999999940e-01 1.211480000000000068e+01 8.216694999999999993e+01 1.832730000000000018e+03
8.000000000000000167e-03 1.479369999999999852e-01 1.411708499999999944e+01 7.945054999999999268e+01 1.831259999999999991e+03
9.000000000000001055e-03 1.477849999999999997e-01 1.588658500000000018e+01 7.701140000000000896e+01 1.829900000000000091e+03
1.000000000000000194e-02 1.476459999999999995e-01 1.743270000000000053e+01 7.484524999999999295e+01 1.828670000000000073e+03
1.099999999999999936e-02 1.475229999999999875e-01 1.877604999999999791e+01 7.298579999999999757e+01 1.827585000000000036e+03
1.200000000000000025e-02 1.474149999999999905e-01 1.992800000000000082e+01 7.143160000000000309e+01 1.826650000000000091e+03
1.300000000000000114e-02 1.473234999999999961e-01 2.089545000000000030e+01 7.014894999999999925e+01 1.825860000000000127e+03
1.400000000000000203e-02 1.472454999999999736e-01 2.168305000000000149e+01 6.908715000000000828e+01 1.825200000000000045e+03
1.499999999999999944e-02 1.471804999999999919e-01 2.229480000000000217e+01 6.818415000000000248e+01 1.824650000000000091e+03
1.600000000000000033e-02 1.471244999999999914e-01 2.274520000000000053e+01 6.738984999999999559e+01 1.824184999999999945e+03
1.700000000000000122e-02 1.470764999999999989e-01 2.307339999999999947e+01 6.670879999999999654e+01 1.823795000000000073e+03
1.800000000000000211e-02 1.470390000000000030e-01 2.334475000000000122e+01 6.622504999999999598e+01 1.823494999999999891e+03
1.900000000000000300e-02 1.470140000000000058e-01 2.363524999999999920e+01 6.607954999999999757e+01 1.823299999999999955e+03
2.000000000000000042e-02 1.470055000000000112e-01 2.400554999999999950e+01 6.640735000000000809e+01 1.823240000000000009e+03
2.100000000000000130e-02 1.470154999999999934e-01 2.447974999999999923e+01 6.727055000000000007e+01 1.823335000000000036e+03
2.200000000000000219e-02 1.470440000000000080e-01 2.503914999999999935e+01 6.861975000000001046e+01 1.823595000000000027e+03
2.299999999999999961e-02 1.470890000000000253e-01 2.562984999999999758e+01 7.029855000000000587e+01 1.823994999999999891e+03
2.400000000000000050e-02 1.471435000000000104e-01 2.618140000000000001e+01 7.208469999999999800e+01 1.824480000000000018e+03
2.500000000000000139e-02 1.472025000000000139e-01 2.662699999999999889e+01 7.374760000000000559e+01 1.825005000000000109e+03
2.600000000000000228e-02 1.472585000000000144e-01 2.692014999999999958e+01 7.510265000000001123e+01 1.825509999999999991e+03
2.700000000000000316e-02 1.473065000000000069e-01 2.704254999999999853e+01 7.604664999999999964e+01 1.825944999999999936e+03
2.800000000000000058e-02 1.473440000000000027e-01 2.700430000000000064e+01 7.656745000000000800e+01 1.826289999999999964e+03
2.900000000000000147e-02 1.473694999999999866e-01 2.683565000000000111e+01 7.672944999999999993e+01 1.826539999999999964e+03
3.000000000000000236e-02 1.473864999999999759e-01 2.657564999999999955e+01 7.664185000000000514e+01 1.826700000000000045e+03
3.099999999999999978e-02 1.473949999999999982e-01 2.626030000000000086e+01 7.642150000000000887e+01 1.826784999999999854e+03
3.200000000000000067e-02 1.473984999999999879e-01 2.591414999999999935e+01 7.616110000000000468e+01 1.826829999999999927e+03
3.300000000000000155e-02 1.473990000000000022e-01 2.554684999999999917e+01 7.591059999999998809e+01 1.826840000000000146e+03
3.400000000000000244e-02 1.473975000000000146e-01 2.515465000000000018e+01 7.567414999999999736e+01 1.826829999999999927e+03
3.500000000000000333e-02 1.473939999999999972e-01 2.472565000000000168e+01 7.542095000000000482e+01 1.826804999999999836e+03
3.600000000000000422e-02 1.473875000000000046e-01 2.424719999999999942e+01 7.510495000000000232e+01 1.826759999999999991e+03
3.700000000000000511e-02 1.473774999999999946e-01 2.371255000000000024e+01 7.468645000000000778e+01 1.826674999999999955e+03
3.799999999999999906e-02 1.473634999999999806e-01 2.312610000000000099e+01 7.415055000000000973e+01 1.826559999999999945e+03
3.899999999999999994e-02 1.473455000000000181e-01 2.250520000000000209e+01 7.351765000000000327e+01 1.826404999999999973e+03
4.000000000000000083e-02 1.473244999999999971e-01 2.187855000000000061e+01 7.284409999999999741e+01 1.826230000000000018e+03
4.100000000000000172e-02 1.473025000000000029e-01 2.128219999999999956e+01 7.221305000000000973e+01 1.826034999999999854e+03
4.200000000000000261e-02 1.472824999999999829e-01 2.075285000000000224e+01 7.171840000000000259e+01 1.825865000000000009e+03
4.300000000000000350e-02 1.472669999999999813e-01 2.032160000000000011e+01 7.144589999999999463e+01 1.825730000000000018e+03
4.400000000000000439e-02 1.472590000000000010e-01 2.000809999999999889e+01 7.145539999999999736e+01 1.825650000000000091e+03
4.499999999999999833e-02 1.472600000000000020e-01 1.981779999999999831e+01 7.176904999999999291e+01 1.825650000000000091e+03
4.599999999999999922e-02 1.472700000000000120e-01 1.974060000000000059e+01 7.236639999999999873e+01 1.825735000000000127e+03
4.700000000000000011e-02 1.472890000000000033e-01 1.975350000000000250e+01 7.318800000000000239e+01 1.825889999999999873e+03
4.800000000000000100e-02 1.473154999999999881e-01 1.982385000000000019e+01 7.414494999999999436e+01 1.826115000000000009e+03
4.900000000000000189e-02 1.473464999999999914e-01 1.991424999999999912e+01 7.513245000000000573e+01 1.826380000000000109e+03
5.000000000000000278e-02 1.473785000000000234e-01 1.998744999999999905e+01 7.604429999999999268e+01 1.826659999999999854e+03
5.100000000000000366e-02 1.474084999999999979e-01 2.001010000000000133e+01 7.678605000000000302e+01 1.826920000000000073e+03
5.200000000000000455e-02 1.474340000000000095e-01 1.995575000000000188e+01 7.728425000000000011e+01 1.827144999999999982e+03
5.300000000000000544e-02 1.474524999999999864e-01 1.980624999999999858e+01 7.749150000000000205e+01 1.827304999999999836e+03
5.399999999999999939e-02 1.474610000000000087e-01 1.955180000000000007e+01 7.738755000000000450e+01 1.827384999999999991e+03
5.500000000000000028e-02 1.474604999999999944e-01 1.918999999999999773e+01 7.697584999999999411e+01 1.827384999999999991e+03
5.600000000000000117e-02 1.474489999999999967e-01 1.872460000000000235e+01 7.627889999999999304e+01 1.827289999999999964e+03
5.700000000000000205e-02 1.474274999999999891e-01 1.816349999999999909e+01 7.533154999999999291e+01 1.827105000000000018e+03
5.800000000000000294e-02 1.473975000000000146e-01 1.751764999999999972e+01 7.417564999999999031e+01 1.826845000000000027e+03
5.900000000000000383e-02 1.473585000000000034e-01 1.679950000000000188e+01 7.285515000000000896e+01 1.826514999999999873e+03
6.000000000000000472e-02 1.473134999999999861e-01 1.602284999999999826e+01 7.141325000000000500e+01 1.826119999999999891e+03
6.099999999999999867e-02 1.472625000000000184e-01 1.520234999999999914e+01 6.989100000000000534e+01 1.825679999999999836e+03
6.199999999999999956e-02 1.472074999999999911e-01 1.435345000000000049e+01 6.832804999999999040e+01 1.825200000000000045e+03
6.300000000000000044e-02 1.471505000000000174e-01 1.349320000000000164e+01 6.676290000000000191e+01 1.824699999999999818e+03
6.400000000000000133e-02 1.470914999999999861e-01 1.263992499999999986e+01 6.523494999999999777e+01 1.824184999999999945e+03
6.500000000000000222e-02 1.470335000000000114e-01 1.181366500000000030e+01 6.378535000000000110e+01 1.823674999999999955e+03
6.600000000000000311e-02 1.469774999999999832e-01 1.103582499999999911e+01 6.245754999999999768e+01 1.823184999999999945e+03
6.700000000000000400e-02 1.469245000000000134e-01 1.032886500000000041e+01 6.129690000000000794e+01 1.822720000000000027e+03
6.800000000000000488e-02 1.468780000000000086e-01 9.715564999999999785e+00 6.035004999999999598e+01 1.822309999999999945e+03
6.900000000000000577e-02 1.468384999999999829e-01 9.218099999999999739e+00 5.966254999999999598e+01 1.821960000000000036e+03
7.000000000000000666e-02 1.468079999999999941e-01 8.857195000000000817e+00 5.927709999999999724e+01 1.821684999999999945e+03
7.100000000000000755e-02 1.467880000000000018e-01 8.650859999999999772e+00 5.923094999999999999e+01 1.821505000000000109e+03
7.200000000000000844e-02 1.467804999999999804e-01 8.613765000000000782e+00 5.955365000000000464e+01 1.821424999999999955e+03
7.300000000000000933e-02 1.467864999999999864e-01 8.756364999999998844e+00 6.026525000000000176e+01 1.821465000000000146e+03
7.399999999999999634e-02 1.468059999999999921e-01 9.084424999999999528e+00 6.137505000000000166e+01 1.821625000000000000e+03
7.499999999999999722e-02 1.468409999999999993e-01 9.598845000000000738e+00 6.288115000000000521e+01 1.821920000000000073e+03
7.599999999999999811e-02 1.468905000000000072e-01 1.029571999999999932e+01 6.477055000000000007e+01 1.822340000000000146e+03
7.699999999999999900e-02 1.469550000000000023e-01 1.116659999999999897e+01 6.702004999999999768e+01 1.822889999999999873e+03
7.799999999999999989e-02 1.470334999999999837e-01 1.219906499999999916e+01 6.959805000000000064e+01 1.823559999999999945e+03
7.900000000000000078e-02 1.471244999999999914e-01 1.337744999999999962e+01 7.246595000000000653e+01 1.824349999999999909e+03
8.000000000000000167e-02 1.472279999999999978e-01 1.468355000000000032e+01 7.558074999999999477e+01 1.825244999999999891e+03
8.100000000000000255e-02 1.473415000000000141e-01 1.609765000000000157e+01 7.889715000000001055e+01 1.826230000000000018e+03
8.200000000000000344e-02 1.474644999999999984e-01 1.759940000000000282e+01 8.236979999999999791e+01 1.827300000000000182e+03
8.300000000000000433e-02 1.475940000000000030e-01 1.916835000000000022e+01 8.595539999999999736e+01 1.828434999999999945e+03
8.400000000000000522e-02 1.477295000000000136e-01 2.078500000000000014e+01 8.961424999999999841e+01 1.829630000000000109e+03
8.500000000000000611e-02 1.478694999999999871e-01 2.243135000000000190e+01 9.331180000000000518e+01 1.830855000000000018e+03
8.600000000000000699e-02 1.480124999999999913e-01 2.409125000000000227e+01 9.701959999999999695e+01 1.832119999999999891e+03
8.700000000000000788e-02 1.481574999999999975e-01 2.575059999999999860e+01 1.007145500000000027e+02 1.833400000000000091e+03
8.800000000000000877e-02 1.483029999999999904e-01 2.739775000000000205e+01 1.043812499999999943e+02 1.834695000000000164e+03
8.899999999999999578e-02 1.484489999999999976e-01 2.902324999999999733e+01 1.080084999999999980e+02 1.835990000000000009e+03
8.999999999999999667e-02 1.485945000000000182e-01 3.061970000000000169e+01 1.115904999999999916e+02 1.837284999999999854e+03
9.099999999999999756e-02 1.487390000000000101e-01 3.218124999999999858e+01 1.151255000000000024e+02 1.838574999999999818e+03
9.199999999999999845e-02 1.488829999999999876e-01 3.370390000000000441e+01 1.186144999999999925e+02 1.839865000000000009e+03
9.299999999999999933e-02 1.490254999999999774e-01 3.518425000000000580e+01 1.220579999999999927e+02 1.841144999999999982e+03
9.400000000000000022e-02 1.491669999999999940e-01 3.661990000000000123e+01 1.254579999999999984e+02 1.842414999999999964e+03
9.500000000000000111e-02 1.493069999999999953e-01 3.800874999999999915e+01 1.288170000000000073e+02 1.843674999999999955e+03
9.600000000000000200e-02 1.494459999999999955e-01 3.934860000000000468e+01 1.321334999999999980e+02 1.844920000000000073e+03
9.700000000000000289e-02 1.495830000000000215e-01 4.063734999999999786e+01 1.354060000000000059e+02 1.846164999999999964e+03
9.800000000000000377e-02 1.497189999999999910e-01 4.187239999999999895e+01 1.386289999999999907e+02 1.847389999999999873e+03
9.900000000000000466e-02 1.498535000000000006e-01 4.305100000000000193e+01 1.417959999999999923e+02 1.848605000000000018e+03
1.000000000000000056e-01 1.499849999999999794e-01 4.417005000000000337e+01 1.448994999999999891e+02 1.849799999999999955e+03
1.010000000000000064e-01 1.501149999999999984e-01 4.522585000000000122e+01 1.479279999999999973e+02 1.850974999999999909e+03
1.020000000000000073e-01 1.502419999999999867e-01 4.621479999999999677e+01 1.508709999999999809e+02 1.852130000000000109e+03
1.030000000000000082e-01 1.503659999999999997e-01 4.713289999999999935e+01 1.537150000000000034e+02 1.853255000000000109e+03
1.040000000000000091e-01 1.504854999999999943e-01 4.797605000000000075e+01 1.564480000000000075e+02 1.854355000000000018e+03
1.050000000000000100e-01 1.506014999999999993e-01 4.874029999999999774e+01 1.590569999999999879e+02 1.855409999999999854e+03
1.059999999999999970e-01 1.507129999999999859e-01 4.942190000000000083e+01 1.615294999999999845e+02 1.856429999999999836e+03
1.069999999999999979e-01 1.508190000000000086e-01 5.001699999999999591e+01 1.638534999999999968e+02 1.857404999999999973e+03
1.079999999999999988e-01 1.509194999999999842e-01 5.052254999999999541e+01 1.660185000000000173e+02 1.858325000000000045e+03
1.089999999999999997e-01 1.510139999999999816e-01 5.093545000000000300e+01 1.680144999999999982e+02 1.859195000000000164e+03
1.100000000000000006e-01 1.511025000000000007e-01 5.125355000000000416e+01 1.698329999999999984e+02 1.860005000000000109e+03
1.110000000000000014e-01 1.511834999999999984e-01 5.147504999999999598e+01 1.714669999999999845e+02 1.860755000000000109e+03
1.120000000000000023e-01 1.512574999999999892e-01 5.159915000000000163e+01 1.729114999999999895e+02 1.861440000000000055e+03
1.130000000000000032e-01 1.513245000000000007e-01 5.162574999999999648e+01 1.741634999999999991e+02 1.862059999999999945e+03
1.140000000000000041e-01 1.513835000000000042e-01 5.155580000000000496e+01 1.752219999999999800e+02 1.862610000000000127e+03
1.150000000000000050e-01 1.514355000000000007e-01 5.139119999999999777e+01 1.760889999999999986e+02 1.863090000000000146e+03
1.160000000000000059e-01 1.514794999999999892e-01 5.113490000000000180e+01 1.767679999999999723e+02 1.863505000000000109e+03
1.170000000000000068e-01 1.515159999999999840e-01 5.079110000000000014e+01 1.772655000000000030e+02 1.863849999999999909e+03
1.180000000000000077e-01 1.515454999999999997e-01 5.036480000000000246e+01 1.775905000000000200e+02 1.864130000000000109e+03
1.190000000000000085e-01 1.515674999999999939e-01 4.986225000000000307e+01 1.777529999999999859e+02 1.864345000000000027e+03
1.200000000000000094e-01 1.515834999999999821e-01 4.929025000000000034e+01 1.777680000000000007e+02 1.864494999999999891e+03
1.209999999999999964e-01 1.515930000000000055e-01 4.865659999999999741e+01 1.776485000000000127e+02 1.864590000000000146e+03
1.219999999999999973e-01 1.515969999999999818e-01 4.796930000000000405e+01 1.774100000000000250e+02 1.864634999999999991e+03
1.229999999999999982e-01 1.515950000000000075e-01 4.723704999999999643e+01 1.770699999999999932e+02 1.864630000000000109e+03
1.239999999999999991e-01 1.515890000000000015e-01 4.646819999999999595e+01 1.766435000000000173e+02 1.864579999999999927e+03
1.250000000000000000e-01 1.515790000000000193e-01 4.567114999999999725e+01 1.761465000000000032e+02 1.864494999999999891e+03
1.260000000000000009e-01 1.515655000000000197e-01 4.485394999999999754e+01 1.755944999999999823e+02 1.864380000000000109e+03
1.270000000000000018e-01 1.515495000000000037e-01 4.402394999999999925e+01 1.750010000000000048e+02 1.864230000000000018e+03
1.280000000000000027e-01 1.515305000000000124e-01 4.318800000000000239e+01 1.743774999999999977e+02 1.864070000000000164e+03
1.290000000000000036e-01 1.515099999999999780e-01 4.235184999999999889e+01 1.737340000000000089e+02 1.863880000000000109e+03
1.300000000000000044e-01 1.514880000000000115e-01 4.152030000000000598e+01 1.730785000000000196e+02 1.863684999999999945e+03
1.310000000000000053e-01 1.514650000000000163e-01 4.069735000000000014e+01 1.724164999999999850e+02 1.863474999999999909e+03
1.320000000000000062e-01 1.514415000000000067e-01 3.988569999999999993e+01 1.717510000000000048e+02 1.863259999999999991e+03
1.330000000000000071e-01 1.514169999999999960e-01 3.908724999999999739e+01 1.710840000000000032e+02 1.863034999999999854e+03
1.340000000000000080e-01 1.513919999999999988e-01 3.830275000000000318e+01 1.704150000000000205e+02 1.862800000000000182e+03
1.350000000000000089e-01 1.513660000000000005e-01 3.753215000000000146e+01 1.697409999999999854e+02 1.862570000000000164e+03
1.360000000000000098e-01 1.513400000000000023e-01 3.677450000000000330e+01 1.690595000000000141e+02 1.862329999999999927e+03
1.370000000000000107e-01 1.513134999999999897e-01 3.602830000000000155e+01 1.683650000000000091e+02 1.862079999999999927e+03
1.380000000000000115e-01 1.512860000000000038e-01 3.529140000000000299e+01 1.676510000000000105e+02 1.861835000000000036e+03
1.390000000000000124e-01 1.512574999999999892e-01 3.456119999999999948e+01 1.669130000000000109e+02 1.861569999999999936e+03
1.400000000000000133e-01 1.512284999999999879e-01 3.383504999999999541e+01 1.661440000000000055e+02 1.861304999999999836e+03
1.410000000000000142e-01 1.511974999999999847e-01 3.310999999999999943e+01 1.653374999999999773e+02 1.861019999999999982e+03
1.420000000000000151e-01 1.511655000000000082e-01 3.238329999999999842e+01 1.644890000000000043e+02 1.860724999999999909e+03
1.430000000000000160e-01 1.511315000000000019e-01 3.165225000000000222e+01 1.635925000000000011e+02 1.860414999999999964e+03
1.440000000000000169e-01 1.510960000000000081e-01 3.091454999999999842e+01 1.626449999999999818e+02 1.860090000000000146e+03
1.450000000000000178e-01 1.510584999999999845e-01 3.016835000000000022e+01 1.616424999999999841e+02 1.859750000000000000e+03
1.459999999999999909e-01 1.510189999999999866e-01 2.941230000000000189e+01 1.605840000000000032e+02 1.859389999999999873e+03
1.469999999999999918e-01 1.509774999999999867e-01 2.864574999999999960e+01 1.594710000000000036e+02 1.859009999999999991e+03
1.479999999999999927e-01 1.509329999999999838e-01 2.786860000000000070e+01 1.583029999999999973e+02 1.858605000000000018e+03
1.489999999999999936e-01 1.508869999999999933e-01 2.708164999999999978e+01 1.570844999999999914e+02 1.858184999999999945e+03
1.499999999999999944e-01 1.508390000000000009e-01 2.628630000000000067e+01 1.558209999999999980e+02 1.857755000000000109e+03
1.509999999999999953e-01 1.507890000000000064e-01 2.548465000000000202e+01 1.545174999999999841e+02 1.857300000000000182e+03
1.519999999999999962e-01 1.507374999999999965e-01 2.467954999999999899e+01 1.531825000000000045e+02 1.856829999999999927e+03
1.529999999999999971e-01 1.506844999999999990e-01 2.387444999999999951e+01 1.518249999999999886e+02 1.856349999999999909e+03
1.539999999999999980e-01 1.506305000000000005e-01 2.307325000000000159e+01 1.504549999999999841e+02 1.855865000000000009e+03
1.549999999999999989e-01 1.505759999999999876e-01 2.228025000000000233e+01 1.490824999999999818e+02 1.855365000000000009e+03
1.559999999999999998e-01 1.505215000000000025e-01 2.150000000000000000e+01 1.477194999999999823e+02 1.854865000000000009e+03
1.570000000000000007e-01 1.504665000000000030e-01 2.073720000000000141e+01 1.463759999999999764e+02 1.854369999999999891e+03
1.580000000000000016e-01 1.504119999999999902e-01 1.999650000000000105e+01 1.450629999999999882e+02 1.853880000000000109e+03
1.590000000000000024e-01 1.503590000000000204e-01 1.928229999999999933e+01 1.437914999999999850e+02 1.853394999999999982e+03
