# t [s], A [cm^2], U [cm/s], P [cPa], c [cm/s]
1.000000000000000021e-03 7.044524999999999260e-01 5.707000000000003737e-03 1.012949999999999875e+02 1.613309999999999945e+03
2.000000000000000042e-03 7.044405000000000250e-01 -1.826579999999999957e-03 1.012639999999999958e+02 1.613299999999999955e+03
3.000000000000000062e-03 7.045090000000000519e-01 1.090600999999999932e-01 1.013815000000000026e+02 1.613325000000000045e+03
4.000000000000000083e-03 7.045609999999999928e-01 2.075209000000000081e-01 1.014985000000000070e+02 1.613349999999999909e+03
5.000000000000000104e-03 7.045154999999999612e-01 1.626544999999999797e-01 1.014004999999999939e+02 1.613335000000000036e+03
6.000000000000000125e-03 7.044274999999999842e-01 4.519600000000001394e-02 1.011279999999999859e+02 1.613279999999999973e+03
7.000000000000000146e-03 7.043494999999999617e-01 -6.723599999999996246e-02 1.007909999999999968e+02 1.613210000000000036e+03
8.000000000000000167e-03 7.042185000000000805e-01 -2.797850000000000614e-01 1.002779000000000025e+02 1.613105000000000018e+03
9.000000000000001055e-03 7.040079999999999671e-01 -6.390649999999998832e-01 9.949835000000000207e+01 1.612940000000000055e+03
1.000000000000000194e-02 7.037204999999999711e-01 -1.133655000000000079e+00 9.842040000000000077e+01 1.612720000000000027e+03
1.099999999999999936e-02 7.033309999999999285e-01 -1.786434999999999995e+00 9.697319999999999141e+01 1.612414999999999964e+03
1.200000000000000025e-02 7.028280000000000083e-01 -2.596644999999999648e+00 9.510554999999999382e+01 1.612014999999999873e+03
1.300000000000000114e-02 7.022580000000000489e-01 -3.458385000000000264e+00 9.290579999999999927e+01 1.611534999999999854e+03
1.400000000000000203e-02 7.017135000000001011e-01 -4.184558000000000000e+00 9.060849999999999227e+01 1.611014999999999873e+03
1.499999999999999944e-02 7.012734999999999941e-01 -4.605445550000000665e+00 8.847960000000000491e+01 1.610505000000000109e+03
1.600000000000000033e-02 7.009650000000000603e-01 -4.645216500000000082e+00 8.669389999999999930e+01 1.610049999999999955e+03
1.700000000000000122e-02 7.007585000000000619e-01 -4.335960000000000036e+00 8.527940000000000964e+01 1.609659999999999854e+03
1.800000000000000211e-02 7.005915000000000337e-01 -3.785694999999999588e+00 8.413269999999999982e+01 1.609319999999999936e+03
1.900000000000000300e-02 7.003965000000000884e-01 -3.127620499999999915e+00 8.307769999999999300e+01 1.609005000000000109e+03
2.000000000000000042e-02 7.001264999999999850e-01 -2.470411000000000357e+00 8.193985000000000696e+01 1.608675000000000182e+03
2.100000000000000130e-02 6.997685000000000155e-01 -1.864714999999999900e+00 8.061050000000000182e+01 1.608309999999999945e+03
2.200000000000000219e-02 6.993445000000000356e-01 -1.297569999999999890e+00 7.907680000000000575e+01 1.607904999999999973e+03
2.299999999999999961e-02 6.988944999999999741e-01 -7.158750000000000391e-01 7.740800000000000125e+01 1.607469999999999800e+03
2.400000000000000050e-02 6.984574999999999534e-01 -6.478999999999990322e-02 7.570770000000000266e+01 1.607025000000000091e+03
2.500000000000000139e-02 6.980524999999999647e-01 6.782099999999999795e-01 7.406014999999999304e+01 1.606585000000000036e+03
2.600000000000000228e-02 6.976729999999999876e-01 1.486194999999999933e+00 7.249065000000000225e+01 1.606164999999999964e+03
2.700000000000000316e-02 6.972899999999999654e-01 2.284634999999999749e+00 7.095165000000000077e+01 1.605744999999999891e+03
2.800000000000000058e-02 6.968589999999998952e-01 2.968209999999999571e+00 6.933334999999999582e+01 1.605305000000000064e+03
2.900000000000000147e-02 6.963349999999999262e-01 3.426425000000000054e+00 6.749375000000000568e+01 1.604835000000000036e+03
3.000000000000000236e-02 6.956869999999999443e-01 3.571629999999999860e+00 6.529959999999999809e+01 1.604295000000000073e+03
3.099999999999999978e-02 6.949030000000000484e-01 3.362470000000000514e+00 6.266799999999999926e+01 1.603664999999999964e+03
3.200000000000000067e-02 6.940014999999999379e-01 2.815755000000000230e+00 5.959624999999999773e+01 1.602945000000000164e+03
3.300000000000000155e-02 6.930240000000000844e-01 2.002530000000000143e+00 5.617029999999999745e+01 1.602139999999999873e+03
3.400000000000000244e-02 6.920275000000000176e-01 1.031045000000000655e+00 5.255105000000000359e+01 1.601295000000000073e+03
3.500000000000000333e-02 6.910745000000000360e-01 2.334999999999975984e-02 4.894344999999999857e+01 1.600440000000000055e+03
3.600000000000000422e-02 6.902179999999999982e-01 -9.069799999999998974e-01 4.556194999999999595e+01 1.599615000000000009e+03
3.700000000000000511e-02 6.895000000000000018e-01 -1.669094999999999995e+00 4.259875000000000256e+01 1.598869999999999891e+03
3.799999999999999906e-02 6.889475000000000460e-01 -2.202205000000000190e+00 4.020335000000000036e+01 1.598244999999999891e+03
3.899999999999999994e-02 6.885719999999999619e-01 -2.474484999999999602e+00 3.847249999999999659e+01 1.597760000000000218e+03
4.000000000000000083e-02 6.883745000000000003e-01 -2.477469199999999816e+00 3.745109999999999673e+01 1.597430000000000064e+03
4.100000000000000172e-02 6.883460000000000134e-01 -2.217679999999999652e+00 3.714050000000000296e+01 1.597269999999999982e+03
4.200000000000000261e-02 6.884764999999999358e-01 -1.708153499999999880e+00 3.751219999999999999e+01 1.597275000000000091e+03
4.300000000000000350e-02 6.887539999999999774e-01 -9.618999999999999773e-01 3.852094999999999914e+01 1.597430000000000064e+03
4.400000000000000439e-02 6.891690000000000316e-01 1.138500000000020052e-02 4.011634999999999707e+01 1.597730000000000018e+03
4.499999999999999833e-02 6.897115000000000329e-01 1.205000000000000071e+00 4.224909999999999854e+01 1.598170000000000073e+03
4.599999999999999922e-02 6.903734999999999733e-01 2.612124999999999808e+00 4.487185000000000201e+01 1.598735000000000127e+03
4.700000000000000011e-02 6.911439999999999806e-01 4.221669999999999590e+00 4.793645000000000067e+01 1.599414999999999964e+03
4.800000000000000100e-02 6.920100000000000140e-01 6.014480000000000715e+00 5.139000000000000057e+01 1.600200000000000045e+03
4.900000000000000189e-02 6.929549999999999876e-01 7.961529999999999774e+00 5.517109999999999559e+01 1.601065000000000055e+03
5.000000000000000278e-02 6.939594999999999514e-01 1.002424824999999942e+01 5.920834999999999582e+01 1.602009999999999991e+03
5.100000000000000366e-02 6.950000000000000622e-01 1.215702500000000086e+01 6.342204999999999870e+01 1.603000000000000000e+03
5.200000000000000455e-02 6.960554999999999382e-01 1.431074000000000090e+01 6.772775000000000034e+01 1.604030000000000200e+03
5.300000000000000544e-02 6.971039999999999459e-01 1.643713500000000138e+01 7.204184999999999661e+01 1.605079999999999927e+03
5.399999999999999939e-02 6.981275000000000119e-01 1.849257000000000062e+01 7.628735000000000355e+01 1.606115000000000009e+03
5.500000000000000028e-02 6.991114999999999968e-01 2.044105000000000061e+01 8.039910000000000423e+01 1.607139999999999873e+03
5.600000000000000117e-02 7.000470000000000859e-01 2.225574999999999903e+01 8.432755000000000223e+01 1.608134999999999991e+03
5.700000000000000205e-02 7.009285000000000654e-01 2.391980000000000217e+01 8.804034999999998945e+01 1.609085000000000036e+03
5.800000000000000294e-02 7.017554999999999765e-01 2.542520000000000024e+01 9.152355000000000018e+01 1.609990000000000009e+03
5.900000000000000383e-02 7.025310000000000166e-01 2.677190000000000225e+01 9.477715000000000600e+01 1.610840000000000146e+03
6.000000000000000472e-02 7.032599999999999962e-01 2.796624999999999872e+01 9.781725000000000136e+01 1.611650000000000091e+03
6.099999999999999867e-02 7.039489999999999359e-01 2.901934999999999931e+01 1.006675999999999931e+02 1.612410000000000082e+03
6.199999999999999956e-02 7.046084999999999710e-01 2.994599999999999795e+01 1.033615000000000066e+02 1.613130000000000109e+03
6.300000000000000044e-02 7.052454999999999696e-01 3.076310000000000144e+01 1.059350000000000023e+02 1.613825000000000045e+03
6.400000000000000133e-02 7.058699999999999974e-01 3.148890000000000100e+01 1.084275000000000091e+02 1.614494999999999891e+03
6.500000000000000222e-02 7.064894999999999925e-01 3.214200000000000301e+01 1.108744999999999976e+02 1.615150000000000091e+03
6.600000000000000311e-02 7.071129999999999916e-01 3.273964999999999748e+01 1.133104999999999905e+02 1.615795000000000073e+03
6.700000000000000400e-02 7.077450000000000685e-01 3.329704999999999870e+01 1.157625000000000028e+02 1.616440000000000055e+03
6.800000000000000488e-02 7.083895000000000053e-01 3.382585000000000264e+01 1.182489999999999952e+02 1.617095000000000027e+03
6.900000000000000577e-02 7.090469999999999828e-01 3.433334999999999582e+01 1.207800000000000011e+02 1.617755000000000109e+03
7.000000000000000666e-02 7.097154999999999436e-01 3.482184999999999775e+01 1.233524999999999920e+02 1.618420000000000073e+03
7.100000000000000755e-02 7.103900000000000770e-01 3.528860000000000241e+01 1.259530000000000030e+02 1.619090000000000146e+03
7.200000000000000844e-02 7.110635000000000705e-01 3.572650000000000148e+01 1.285584999999999809e+02 1.619769999999999982e+03
7.300000000000000933e-02 7.117269999999999985e-01 3.612444999999999595e+01 1.311370000000000005e+02 1.620434999999999945e+03
7.399999999999999634e-02 7.123705000000000176e-01 3.646920000000000073e+01 1.336510000000000105e+02 1.621095000000000027e+03
7.499999999999999722e-02 7.129834999999999923e-01 3.674620000000000175e+01 1.360589999999999975e+02 1.621724999999999909e+03
7.599999999999999811e-02 7.135560000000000791e-01 3.694105000000000416e+01 1.383215000000000146e+02 1.622320000000000164e+03
7.699999999999999900e-02 7.140789999999999083e-01 3.704075000000000273e+01 1.403990000000000009e+02 1.622880000000000109e+03
7.799999999999999989e-02 7.145455000000000556e-01 3.703440000000000509e+01 1.422590000000000146e+02 1.623384999999999991e+03
7.900000000000000078e-02 7.149484999999999868e-01 3.691409999999999769e+01 1.438754999999999882e+02 1.623840000000000146e+03
8.000000000000000167e-02 7.152855000000000185e-01 3.667515000000000214e+01 1.452295000000000016e+02 1.624220000000000027e+03
8.100000000000000255e-02 7.155555000000000110e-01 3.631645000000000323e+01 1.463114999999999952e+02 1.624545000000000073e+03
8.200000000000000344e-02 7.157575000000000465e-01 3.584044999999999703e+01 1.471209999999999809e+02 1.624795000000000073e+03
8.300000000000000433e-02 7.158944999999999892e-01 3.525305000000000177e+01 1.476639999999999873e+02 1.624985000000000127e+03
8.400000000000000522e-02 7.159714999999999829e-01 3.456340000000000146e+01 1.479565000000000055e+02 1.625109999999999900e+03
8.500000000000000611e-02 7.159934999999999494e-01 3.378325000000000244e+01 1.480200000000000102e+02 1.625175000000000182e+03
8.600000000000000699e-02 7.159679999999999378e-01 3.292699999999999960e+01 1.478824999999999932e+02 1.625184999999999945e+03
8.700000000000000788e-02 7.159024999999999972e-01 3.201069999999999993e+01 1.475735000000000241e+02 1.625150000000000091e+03
8.800000000000000877e-02 7.158059999999999423e-01 3.105160000000000053e+01 1.471295000000000073e+02 1.625075000000000045e+03
8.899999999999999578e-02 7.156869999999999621e-01 3.006745000000000090e+01 1.465854999999999961e+02 1.624970000000000027e+03
8.999999999999999667e-02 7.155540000000000234e-01 2.907564999999999955e+01 1.459764999999999873e+02 1.624839999999999918e+03
9.099999999999999756e-02 7.154149999999999121e-01 2.809275000000000233e+01 1.453365000000000009e+02 1.624700000000000045e+03
9.199999999999999845e-02 7.152775000000000105e-01 2.713360000000000127e+01 1.446959999999999980e+02 1.624549999999999955e+03
9.299999999999999933e-02 7.151464999999999073e-01 2.621054999999999779e+01 1.440819999999999936e+02 1.624400000000000091e+03
9.400000000000000022e-02 7.150279999999999969e-01 2.533360000000000056e+01 1.435155000000000030e+02 1.624259999999999991e+03
9.500000000000000111e-02 7.149240000000000039e-01 2.450925000000000153e+01 1.430115000000000123e+02 1.624134999999999991e+03
9.600000000000000200e-02 7.148375000000000146e-01 2.374119999999999919e+01 1.425799999999999841e+02 1.624019999999999982e+03
9.700000000000000289e-02 7.147669999999999302e-01 2.302945000000000064e+01 1.422230000000000132e+02 1.623920000000000073e+03
9.800000000000000377e-02 7.147114999999999441e-01 2.237144999999999939e+01 1.419384999999999764e+02 1.623835000000000036e+03
9.900000000000000466e-02 7.146694999999999576e-01 2.176160000000000139e+01 1.417169999999999845e+02 1.623759999999999991e+03
1.000000000000000056e-01 7.146369999999999667e-01 2.119229999999999947e+01 1.415459999999999923e+02 1.623710000000000036e+03
1.010000000000000064e-01 7.146090000000000497e-01 2.065409999999999968e+01 1.414099999999999966e+02 1.623659999999999854e+03
1.020000000000000073e-01 7.145814999999999806e-01 2.013640000000000185e+01 1.412894999999999754e+02 1.623619999999999891e+03
1.030000000000000082e-01 7.145494999999999486e-01 1.962794999999999845e+01 1.411639999999999873e+02 1.623579999999999927e+03
1.040000000000000091e-01 7.145084999999999908e-01 1.911769999999999925e+01 1.410144999999999982e+02 1.623534999999999854e+03
1.050000000000000100e-01 7.144539999999999225e-01 1.859505000000000052e+01 1.408209999999999980e+02 1.623485000000000127e+03
1.059999999999999970e-01 7.143815000000000026e-01 1.805055000000000121e+01 1.405670000000000073e+02 1.623420000000000073e+03
1.069999999999999979e-01 7.142889999999999517e-01 1.747644999999999982e+01 1.402390000000000043e+02 1.623335000000000036e+03
1.079999999999999988e-01 7.141740000000000865e-01 1.686700000000000088e+01 1.398265000000000100e+02 1.623240000000000009e+03
1.089999999999999997e-01 7.140364999999999629e-01 1.621884999999999977e+01 1.393245000000000005e+02 1.623119999999999891e+03
1.100000000000000006e-01 7.138759999999999550e-01 1.553110000000000035e+01 1.387305000000000064e+02 1.622980000000000018e+03
1.110000000000000014e-01 7.136949999999999683e-01 1.480555000000000021e+01 1.380504999999999995e+02 1.622820000000000164e+03
1.120000000000000023e-01 7.134955000000000602e-01 1.404660000000000153e+01 1.372920000000000016e+02 1.622640000000000100e+03
1.130000000000000032e-01 7.132819999999999716e-01 1.326077500000000065e+01 1.364695000000000107e+02 1.622444999999999936e+03
1.140000000000000041e-01 7.130585000000000395e-01 1.245693500000000142e+01 1.355985000000000014e+02 1.622235000000000127e+03
1.150000000000000050e-01 7.128304999999999225e-01 1.164519999999999911e+01 1.346995000000000005e+02 1.622014999999999873e+03
1.160000000000000059e-01 7.126040000000000152e-01 1.083714499999999958e+01 1.337944999999999993e+02 1.621795000000000073e+03
1.170000000000000068e-01 7.123839999999999062e-01 1.004458999999999946e+01 1.329055000000000177e+02 1.621574999999999818e+03
1.180000000000000077e-01 7.121770000000000600e-01 9.279510000000000147e+00 1.320564999999999998e+02 1.621360000000000127e+03
1.190000000000000085e-01 7.119874999999999954e-01 8.553290000000000504e+00 1.312680000000000007e+02 1.621154999999999973e+03
1.200000000000000094e-01 7.118195000000000494e-01 7.876159999999999606e+00 1.305589999999999975e+02 1.620970000000000027e+03
1.209999999999999964e-01 7.116780000000000328e-01 7.256845000000000212e+00 1.299455000000000098e+02 1.620809999999999945e+03
1.219999999999999973e-01 7.115640000000000853e-01 6.702175000000000438e+00 1.294404999999999859e+02 1.620664999999999964e+03
1.229999999999999982e-01 7.114789999999999726e-01 6.216739999999999711e+00 1.290509999999999877e+02 1.620555000000000064e+03
1.239999999999999991e-01 7.114244999999999042e-01 5.802855000000000096e+00 1.287804999999999893e+02 1.620465000000000146e+03
1.250000000000000000e-01 7.113990000000000036e-01 5.460520000000000707e+00 1.286274999999999977e+02 1.620410000000000082e+03
1.260000000000000009e-01 7.114000000000000323e-01 5.187500000000000000e+00 1.285859999999999843e+02 1.620380000000000109e+03
1.270000000000000018e-01 7.114255000000000440e-01 4.979565000000000019e+00 1.286479999999999961e+02 1.620375000000000000e+03
1.280000000000000027e-01 7.114709999999999646e-01 4.830754999999999910e+00 1.287995000000000232e+02 1.620394999999999982e+03
1.290000000000000036e-01 7.115344999999999587e-01 4.733750000000000568e+00 1.290264999999999986e+02 1.620430000000000064e+03
1.300000000000000044e-01 7.116089999999999360e-01 4.680250000000000021e+00 1.293110000000000070e+02 1.620485000000000127e+03
1.310000000000000053e-01 7.116925000000000612e-01 4.661395000000000621e+00 1.296360000000000241e+02 1.620549999999999955e+03
1.320000000000000062e-01 7.117799999999999683e-01 4.668099999999999916e+00 1.299845000000000255e+02 1.620630000000000109e+03
1.330000000000000071e-01 7.118670000000000275e-01 4.691459999999999297e+00 1.303394999999999868e+02 1.620704999999999927e+03
1.340000000000000080e-01 7.119504999999999306e-01 4.723010000000000375e+00 1.306850000000000023e+02 1.620785000000000082e+03
1.350000000000000089e-01 7.120265000000000066e-01 4.755024999999999835e+00 1.310074999999999932e+02 1.620865000000000009e+03
1.360000000000000098e-01 7.120929999999999760e-01 4.780704999999999316e+00 1.312964999999999804e+02 1.620929999999999836e+03
1.370000000000000107e-01 7.121489999999999210e-01 4.794294999999999973e+00 1.315420000000000016e+02 1.620994999999999891e+03
1.380000000000000115e-01 7.121914999999999774e-01 4.791199999999999903e+00 1.317375000000000114e+02 1.621039999999999964e+03
1.390000000000000124e-01 7.122209999999999930e-01 4.768024999999999736e+00 1.318789999999999907e+02 1.621085000000000036e+03
1.400000000000000133e-01 7.122365000000000501e-01 4.722570000000000157e+00 1.319644999999999868e+02 1.621110000000000127e+03
1.410000000000000142e-01 7.122390000000000665e-01 4.653785000000000061e+00 1.319950000000000045e+02 1.621125000000000000e+03
1.420000000000000151e-01 7.122290000000000010e-01 4.561695000000000277e+00 1.319724999999999966e+02 1.621125000000000000e+03
1.430000000000000160e-01 7.122070000000000345e-01 4.447309999999999874e+00 1.319004999999999939e+02 1.621119999999999891e+03
1.440000000000000169e-01 7.121755000000000724e-01 4.312514999999999432e+00 1.317844999999999800e+02 1.621095000000000027e+03
1.450000000000000178e-01 7.121345000000000036e-01 4.159885000000000055e+00 1.316304999999999836e+02 1.621065000000000055e+03
1.459999999999999909e-01 7.120874999999999844e-01 3.992564999999999920e+00 1.314449999999999932e+02 1.621025000000000091e+03
1.469999999999999918e-01 7.120355000000000434e-01 3.814084999999999948e+00 1.312359999999999900e+02 1.620980000000000018e+03
1.479999999999999927e-01 7.119805000000000161e-01 3.628185000000000215e+00 1.310099999999999909e+02 1.620925000000000182e+03
1.489999999999999936e-01 7.119234999999999314e-01 3.438609999999999722e+00 1.307735000000000127e+02 1.620875000000000000e+03
1.499999999999999944e-01 7.118659999999999988e-01 3.248974999999999724e+00 1.305335000000000036e+02 1.620819999999999936e+03
1.509999999999999953e-01 7.118100000000000538e-01 3.062605000000000022e+00 1.302944999999999993e+02 1.620759999999999991e+03
1.519999999999999962e-01 7.117560000000000553e-01 2.882344999999999935e+00 1.300620000000000118e+02 1.620704999999999927e+03
1.529999999999999971e-01 7.117044999999999622e-01 2.710529999999999884e+00 1.298379999999999939e+02 1.620650000000000091e+03
1.539999999999999980e-01 7.116554999999999964e-01 2.548874999999999780e+00 1.296250000000000000e+02 1.620595000000000027e+03
1.549999999999999989e-01 7.116095000000000059e-01 2.398449999999999971e+00 1.294234999999999900e+02 1.620545000000000073e+03
1.559999999999999998e-01 7.115664999999999907e-01 2.259710000000000107e+00 1.292325000000000159e+02 1.620494999999999891e+03
1.570000000000000007e-01 7.115249999999999631e-01 2.132530000000000037e+00 1.290514999999999759e+02 1.620449999999999818e+03
1.580000000000000016e-01 7.114850000000000341e-01 2.016315000000000079e+00 1.288760000000000048e+02 1.620400000000000091e+03
1.590000000000000024e-01 7.114454999999999529e-01 1.910080000000000222e+00 1.287049999999999841e+02 1.620355000000000018e+03
