# t [s], A [cm^2], U [cm/s], P [cPa], c [cm/s]
1.000000000000000021e-03 1.298414999999999986e-01 3.410340000000000038e-01 1.027575999999999965e+02 1.948130000000000109e+03
2.000000000000000042e-03 1.298159999999999870e-01 1.920482500000000092e+00 9.947525000000000261e+01 1.947815000000000055e+03
3.000000000000000062e-03 1.297300000000000120e-01 3.847467999999999666e+00 9.516190000000000282e+01 1.946789999999999964e+03
4.000000000000000083e-03 1.296029999999999960e-01 5.987785999999999831e+00 9.043819999999999482e+01 1.945319999999999936e+03
5.000000000000000104e-03 1.294599999999999917e-01 8.280054999999999055e+00 8.607869999999999777e+01 1.943659999999999854e+03
6.000000000000000125e-03 1.293144999999999989e-01 1.059460499999999961e+01 8.241595000000000937e+01 1.942005000000000109e+03
7.000000000000000146e-03 1.291749999999999843e-01 1.275792999999999999e+01 7.933060000000000400e+01 1.940425000000000182e+03
8.000000000000000167e-03 1.290435000000000054e-01 1.466339499999999951e+01 7.658759999999999479e+01 1.938970000000000027e+03
9.000000000000001055e-03 1.289230000000000098e-01 1.631060000000000088e+01 7.413425000000000864e+01 1.937644999999999982e+03
1.000000000000000194e-02 1.288154999999999994e-01 1.773114999999999952e+01 7.202809999999999491e+01 1.936480000000000018e+03
1.099999999999999936e-02 1.287230000000000041e-01 1.894065000000000154e+01 7.027849999999999397e+01 1.935490000000000009e+03
1.200000000000000025e-02 1.286440000000000083e-01 1.994675000000000153e+01 6.884055000000000746e+01 1.934655000000000200e+03
1.300000000000000114e-02 1.285779999999999978e-01 2.075495000000000090e+01 6.764820000000000277e+01 1.933960000000000036e+03
1.400000000000000203e-02 1.285225000000000117e-01 2.136925000000000097e+01 6.661995000000000289e+01 1.933384999999999991e+03
1.499999999999999944e-02 1.284750000000000059e-01 2.180949999999999989e+01 6.569499999999999318e+01 1.932900000000000091e+03
1.600000000000000033e-02 1.284345000000000070e-01 2.213475000000000037e+01 6.490810000000000457e+01 1.932490000000000009e+03
1.700000000000000122e-02 1.284035000000000037e-01 2.244169999999999732e+01 6.442220000000000368e+01 1.932190000000000055e+03
1.800000000000000211e-02 1.283865000000000145e-01 2.283180000000000121e+01 6.446654999999999802e+01 1.932025000000000091e+03
1.900000000000000300e-02 1.283880000000000021e-01 2.336769999999999925e+01 6.521219999999999573e+01 1.932049999999999955e+03
2.000000000000000042e-02 1.284085000000000087e-01 2.404549999999999699e+01 6.666485000000000127e+01 1.932279999999999973e+03
2.100000000000000130e-02 1.284470000000000056e-01 2.479720000000000013e+01 6.863455000000000439e+01 1.932695000000000164e+03
2.200000000000000219e-02 1.284970000000000001e-01 2.551685000000000159e+01 7.078884999999999650e+01 1.933240000000000009e+03
2.299999999999999961e-02 1.285509999999999986e-01 2.609730000000000061e+01 7.275634999999999764e+01 1.933829999999999927e+03
2.400000000000000050e-02 1.286005000000000065e-01 2.646215000000000117e+01 7.423460000000000036e+01 1.934375000000000000e+03
2.500000000000000139e-02 1.286390000000000033e-01 2.658350000000000080e+01 7.506444999999999368e+01 1.934819999999999936e+03
2.600000000000000228e-02 1.286650000000000016e-01 2.648165000000000191e+01 7.525090000000000146e+01 1.935115000000000009e+03
2.700000000000000316e-02 1.286764999999999992e-01 2.621105000000000018e+01 7.493250000000000455e+01 1.935264999999999873e+03
2.800000000000000058e-02 1.286775000000000002e-01 2.583765000000000001e+01 7.431624999999999659e+01 1.935295000000000073e+03
2.900000000000000147e-02 1.286710000000000076e-01 2.541794999999999760e+01 7.360365000000000180e+01 1.935239999999999782e+03
3.000000000000000236e-02 1.286615000000000120e-01 2.498514999999999731e+01 7.293389999999999418e+01 1.935140000000000100e+03
3.099999999999999978e-02 1.286509999999999876e-01 2.454530000000000101e+01 7.235769999999999413e+01 1.935025000000000091e+03
3.200000000000000067e-02 1.286390000000000033e-01 2.408395000000000152e+01 7.184420000000000073e+01 1.934904999999999973e+03
3.300000000000000155e-02 1.286265000000000047e-01 2.357775000000000176e+01 7.131364999999999554e+01 1.934775000000000091e+03
3.400000000000000244e-02 1.286110000000000031e-01 2.300809999999999889e+01 7.068039999999999168e+01 1.934609999999999900e+03
3.500000000000000333e-02 1.285919999999999841e-01 2.237250000000000227e+01 6.989400000000000546e+01 1.934414999999999964e+03
3.600000000000000422e-02 1.285695000000000032e-01 2.168994999999999962e+01 6.896504999999999086e+01 1.934170000000000073e+03
3.700000000000000511e-02 1.285429999999999906e-01 2.099989999999999668e+01 6.797164999999999679e+01 1.933900000000000091e+03
3.799999999999999906e-02 1.285165000000000057e-01 2.035549999999999926e+01 6.704425000000000523e+01 1.933615000000000009e+03
3.899999999999999994e-02 1.284919999999999951e-01 1.981184999999999974e+01 6.633485000000000298e+01 1.933355000000000018e+03
4.000000000000000083e-02 1.284744999999999915e-01 1.941420000000000101e+01 6.597990000000000066e+01 1.933154999999999973e+03
4.100000000000000172e-02 1.284655000000000102e-01 1.918775000000000119e+01 6.606584999999999752e+01 1.933054999999999836e+03
4.200000000000000261e-02 1.284679999999999989e-01 1.913269999999999982e+01 6.660805000000000575e+01 1.933070000000000164e+03
4.300000000000000350e-02 1.284814999999999985e-01 1.922374999999999901e+01 6.754535000000001332e+01 1.933200000000000045e+03
4.400000000000000439e-02 1.285044999999999937e-01 1.941514999999999702e+01 6.875114999999999554e+01 1.933434999999999945e+03
4.499999999999999833e-02 1.285334999999999950e-01 1.964855000000000018e+01 7.005639999999999645e+01 1.933744999999999891e+03
4.599999999999999922e-02 1.285660000000000136e-01 1.986234999999999928e+01 7.127824999999999989e+01 1.934085000000000036e+03
4.700000000000000011e-02 1.285959999999999881e-01 1.999980000000000047e+01 7.224769999999999470e+01 1.934405000000000200e+03
4.800000000000000100e-02 1.286200000000000121e-01 2.001545000000000130e+01 7.283154999999999291e+01 1.934670000000000073e+03
4.900000000000000189e-02 1.286349999999999993e-01 1.987870000000000203e+01 7.294515000000001237e+01 1.934839999999999918e+03
5.000000000000000278e-02 1.286390000000000033e-01 1.957460000000000022e+01 7.255570000000000164e+01 1.934884999999999991e+03
5.100000000000000366e-02 1.286305000000000087e-01 1.910235000000000127e+01 7.167709999999999582e+01 1.934789999999999964e+03
5.200000000000000455e-02 1.286080000000000001e-01 1.847250000000000014e+01 7.035975000000000534e+01 1.934570000000000164e+03
5.300000000000000544e-02 1.285745000000000082e-01 1.770354999999999990e+01 6.867705000000000837e+01 1.934215000000000146e+03
5.399999999999999939e-02 1.285304999999999920e-01 1.681875000000000142e+01 6.671370000000000289e+01 1.933744999999999891e+03
5.500000000000000028e-02 1.284774999999999945e-01 1.584360000000000035e+01 6.455530000000000257e+01 1.933175000000000182e+03
5.600000000000000117e-02 1.284180000000000044e-01 1.480480000000000018e+01 6.228279999999999461e+01 1.932539999999999964e+03
5.700000000000000205e-02 1.283539999999999959e-01 1.372930000000000028e+01 5.997039999999999793e+01 1.931855000000000018e+03
5.800000000000000294e-02 1.282874999999999988e-01 1.264456500000000005e+01 5.768564999999999543e+01 1.931144999999999982e+03
5.900000000000000383e-02 1.282205000000000150e-01 1.157891500000000029e+01 5.549214999999999520e+01 1.930424999999999955e+03
6.000000000000000472e-02 1.281549999999999911e-01 1.056160500000000013e+01 5.345204999999999984e+01 1.929715000000000146e+03
6.099999999999999867e-02 1.280930000000000124e-01 9.623049999999999216e+00 5.162754999999999939e+01 1.929045000000000073e+03
6.199999999999999956e-02 1.280360000000000109e-01 8.794055000000000177e+00 5.008180000000000121e+01 1.928429999999999836e+03
6.300000000000000044e-02 1.279870000000000174e-01 8.104974999999999596e+00 4.887765000000000271e+01 1.927894999999999982e+03
6.400000000000000133e-02 1.279470000000000052e-01 7.584620000000000140e+00 4.807484999999999786e+01 1.927454999999999927e+03
6.500000000000000222e-02 1.279180000000000039e-01 7.258375000000000021e+00 4.772684999999999889e+01 1.927134999999999991e+03
6.600000000000000311e-02 1.279020000000000157e-01 7.146995000000000431e+00 4.787704999999999700e+01 1.926950000000000045e+03
6.700000000000000400e-02 1.278999999999999859e-01 7.265209999999999724e+00 4.855490000000000350e+01 1.926920000000000073e+03
6.800000000000000488e-02 1.279135000000000133e-01 7.620805000000000717e+00 4.977360000000000184e+01 1.927045000000000073e+03
6.900000000000000577e-02 1.279425000000000145e-01 8.214134999999998854e+00 5.152859999999999729e+01 1.927335000000000036e+03
7.000000000000000666e-02 1.279870000000000174e-01 9.038129999999998887e+00 5.379760000000000275e+01 1.927799999999999955e+03
7.100000000000000755e-02 1.280469999999999942e-01 1.007890499999999889e+01 5.654184999999999661e+01 1.928429999999999836e+03
7.200000000000000844e-02 1.281214999999999993e-01 1.131647500000000051e+01 5.970884999999999820e+01 1.929215000000000146e+03
7.300000000000000933e-02 1.282090000000000174e-01 1.272611999999999988e+01 6.323555000000000348e+01 1.930144999999999982e+03
7.399999999999999634e-02 1.283080000000000054e-01 1.427974999999999994e+01 6.705234999999998990e+01 1.931200000000000045e+03
7.499999999999999722e-02 1.284170000000000034e-01 1.594729999999999848e+01 7.108740000000000236e+01 1.932365000000000009e+03
7.599999999999999811e-02 1.285330000000000084e-01 1.769854999999999734e+01 7.527004999999999768e+01 1.933615000000000009e+03
7.699999999999999900e-02 1.286559999999999926e-01 1.950400000000000134e+01 7.953485000000000582e+01 1.934934999999999945e+03
7.799999999999999989e-02 1.287824999999999942e-01 2.133675000000000210e+01 8.382429999999999382e+01 1.936299999999999955e+03
7.900000000000000078e-02 1.289115000000000122e-01 2.317275000000000063e+01 8.809125000000000227e+01 1.937699999999999818e+03
8.000000000000000167e-02 1.290405000000000024e-01 2.499220000000000041e+01 9.229980000000000473e+01 1.939110000000000127e+03
8.100000000000000255e-02 1.291704999999999937e-01 2.677944999999999709e+01 9.642634999999999934e+01 1.940519999999999982e+03
8.200000000000000344e-02 1.292984999999999829e-01 2.852324999999999733e+01 1.004577500000000043e+02 1.941925000000000182e+03
8.300000000000000433e-02 1.294250000000000123e-01 3.021634999999999849e+01 1.043930500000000023e+02 1.943315000000000055e+03
8.400000000000000522e-02 1.295505000000000129e-01 3.185524999999999807e+01 1.082369999999999948e+02 1.944690000000000055e+03
8.500000000000000611e-02 1.296734999999999971e-01 3.343945000000000078e+01 1.120024999999999977e+02 1.946039999999999964e+03
8.600000000000000699e-02 1.297945000000000071e-01 3.497039999999999793e+01 1.157034999999999911e+02 1.947380000000000109e+03
8.700000000000000788e-02 1.299144999999999883e-01 3.645099999999999341e+01 1.193575000000000017e+02 1.948700000000000045e+03
8.800000000000000877e-02 1.300324999999999953e-01 3.788459999999999894e+01 1.229784999999999968e+02 1.950014999999999873e+03
8.899999999999999578e-02 1.301499999999999879e-01 3.927424999999999500e+01 1.265785000000000053e+02 1.951315000000000055e+03
8.999999999999999667e-02 1.302669999999999939e-01 4.062245000000000061e+01 1.301634999999999991e+02 1.952614999999999782e+03
9.099999999999999756e-02 1.303834999999999855e-01 4.193025000000000091e+01 1.337365000000000066e+02 1.953904999999999973e+03
9.199999999999999845e-02 1.304990000000000039e-01 4.319729999999999848e+01 1.372930000000000064e+02 1.955194999999999936e+03
9.299999999999999933e-02 1.306144999999999945e-01 4.442170000000000130e+01 1.408229999999999791e+02 1.956474999999999909e+03
9.400000000000000022e-02 1.307289999999999841e-01 4.560009999999999764e+01 1.443139999999999930e+02 1.957750000000000000e+03
9.500000000000000111e-02 1.308419999999999861e-01 4.672749999999999915e+01 1.477464999999999975e+02 1.959014999999999873e+03
9.600000000000000200e-02 1.309535000000000005e-01 4.779779999999999518e+01 1.510999999999999943e+02 1.960259999999999991e+03
9.700000000000000289e-02 1.310624999999999984e-01 4.880414999999999992e+01 1.543509999999999991e+02 1.961474999999999909e+03
9.800000000000000377e-02 1.311684999999999934e-01 4.973879999999999768e+01 1.574750000000000227e+02 1.962664999999999964e+03
9.900000000000000466e-02 1.312709999999999988e-01 5.059400000000000119e+01 1.604480000000000075e+02 1.963809999999999945e+03
1.000000000000000056e-01 1.313684999999999992e-01 5.136195000000000022e+01 1.632475000000000023e+02 1.964914999999999964e+03
1.010000000000000064e-01 1.314615000000000089e-01 5.203520000000000323e+01 1.658505000000000109e+02 1.965960000000000036e+03
1.020000000000000073e-01 1.315489999999999993e-01 5.260705000000000098e+01 1.682384999999999877e+02 1.966940000000000055e+03
1.030000000000000082e-01 1.316295000000000104e-01 5.307169999999999987e+01 1.703955000000000268e+02 1.967855000000000018e+03
1.040000000000000091e-01 1.317039999999999877e-01 5.342485000000000639e+01 1.723075000000000045e+02 1.968694999999999936e+03
1.050000000000000100e-01 1.317705000000000126e-01 5.366349999999999909e+01 1.739675000000000011e+02 1.969450000000000045e+03
1.059999999999999970e-01 1.318300000000000027e-01 5.378640000000000043e+01 1.753704999999999927e+02 1.970125000000000000e+03
1.069999999999999979e-01 1.318809999999999982e-01 5.379434999999999434e+01 1.765165000000000077e+02 1.970715000000000146e+03
1.079999999999999988e-01 1.319245000000000001e-01 5.368989999999999441e+01 1.774114999999999895e+02 1.971214999999999918e+03
1.089999999999999997e-01 1.319605000000000083e-01 5.347759999999999536e+01 1.780634999999999764e+02 1.971630000000000109e+03
1.100000000000000006e-01 1.319889999999999952e-01 5.316389999999999816e+01 1.784879999999999995e+02 1.971960000000000036e+03
1.110000000000000014e-01 1.320105000000000028e-01 5.275685000000000002e+01 1.787015000000000100e+02 1.972210000000000036e+03
1.120000000000000023e-01 1.320250000000000035e-01 5.226604999999999990e+01 1.787264999999999873e+02 1.972384999999999991e+03
1.130000000000000032e-01 1.320334999999999981e-01 5.170215000000000316e+01 1.785849999999999795e+02 1.972490000000000009e+03
1.140000000000000041e-01 1.320365000000000011e-01 5.107654999999999745e+01 1.783034999999999854e+02 1.972534999999999854e+03
1.150000000000000050e-01 1.320350000000000135e-01 5.040104999999999791e+01 1.779055000000000177e+02 1.972525000000000091e+03
1.160000000000000059e-01 1.320290000000000075e-01 4.968730000000000047e+01 1.774164999999999850e+02 1.972460000000000036e+03
1.170000000000000068e-01 1.320195000000000118e-01 4.894664999999999822e+01 1.768600000000000136e+02 1.972365000000000009e+03
1.180000000000000077e-01 1.320079999999999865e-01 4.818934999999999746e+01 1.762574999999999932e+02 1.972235000000000127e+03
1.190000000000000085e-01 1.319934999999999858e-01 4.742490000000000094e+01 1.756270000000000095e+02 1.972079999999999927e+03
1.200000000000000094e-01 1.319780000000000120e-01 4.666124999999999545e+01 1.749830000000000041e+02 1.971904999999999973e+03
1.209999999999999964e-01 1.319609999999999950e-01 4.590484999999999616e+01 1.743380000000000223e+02 1.971715000000000146e+03
1.219999999999999973e-01 1.319434999999999913e-01 4.516049999999999898e+01 1.736980000000000075e+02 1.971525000000000091e+03
1.229999999999999982e-01 1.319259999999999877e-01 4.443139999999999645e+01 1.730670000000000073e+02 1.971325000000000045e+03
1.239999999999999991e-01 1.319074999999999831e-01 4.371890000000000498e+01 1.724459999999999980e+02 1.971115000000000009e+03
1.250000000000000000e-01 1.318890000000000062e-01 4.302315000000000111e+01 1.718315000000000055e+02 1.970909999999999854e+03
1.260000000000000009e-01 1.318705000000000016e-01 4.234250000000000114e+01 1.712169999999999845e+02 1.970700000000000045e+03
1.270000000000000018e-01 1.318519999999999970e-01 4.167435000000000400e+01 1.705949999999999989e+02 1.970490000000000009e+03
1.280000000000000027e-01 1.318324999999999914e-01 4.101520000000000010e+01 1.699555000000000007e+02 1.970269999999999982e+03
1.290000000000000036e-01 1.318124999999999991e-01 4.036050000000000182e+01 1.692875000000000227e+02 1.970045000000000073e+03
1.300000000000000044e-01 1.317920000000000202e-01 3.970555000000000234e+01 1.685785000000000196e+02 1.969809999999999945e+03
1.310000000000000053e-01 1.317694999999999839e-01 3.904540000000000077e+01 1.678185000000000002e+02 1.969559999999999945e+03
1.320000000000000062e-01 1.317460000000000020e-01 3.837524999999999409e+01 1.669964999999999975e+02 1.969295000000000073e+03
1.330000000000000071e-01 1.317200000000000037e-01 3.769065000000000509e+01 1.661030000000000086e+02 1.969005000000000109e+03
1.340000000000000080e-01 1.316924999999999901e-01 3.698780000000000001e+01 1.651315000000000168e+02 1.968694999999999936e+03
1.350000000000000089e-01 1.316624999999999879e-01 3.626370000000000005e+01 1.640769999999999982e+02 1.968360000000000127e+03
1.360000000000000098e-01 1.316299999999999970e-01 3.551650000000000063e+01 1.629375000000000000e+02 1.968000000000000000e+03
1.370000000000000107e-01 1.315955000000000041e-01 3.474549999999999983e+01 1.617130000000000223e+02 1.967605000000000018e+03
1.380000000000000115e-01 1.315580000000000083e-01 3.395109999999999673e+01 1.604070000000000107e+02 1.967190000000000055e+03
1.390000000000000124e-01 1.315179999999999960e-01 3.313514999999999588e+01 1.590275000000000034e+02 1.966744999999999891e+03
1.400000000000000133e-01 1.314764999999999961e-01 3.230079999999999529e+01 1.575829999999999984e+02 1.966275000000000091e+03
1.410000000000000142e-01 1.314319999999999933e-01 3.145224999999999937e+01 1.560860000000000127e+02 1.965784999999999854e+03
1.420000000000000151e-01 1.313860000000000028e-01 3.059490000000000265e+01 1.545509999999999877e+02 1.965279999999999973e+03
1.430000000000000160e-01 1.313394999999999979e-01 2.973494999999999777e+01 1.529939999999999998e+02 1.964750000000000000e+03
1.440000000000000169e-01 1.312915000000000054e-01 2.887935000000000230e+01 1.514329999999999927e+02 1.964215000000000146e+03
1.450000000000000178e-01 1.312435000000000129e-01 2.803539999999999921e+01 1.498860000000000241e+02 1.963680000000000064e+03
1.459999999999999909e-01 1.311950000000000061e-01 2.721045000000000158e+01 1.483710000000000093e+02 1.963144999999999982e+03
1.469999999999999918e-01 1.311475000000000002e-01 2.641194999999999737e+01 1.469055000000000177e+02 1.962610000000000127e+03
1.479999999999999927e-01 1.311009999999999953e-01 2.564675000000000082e+01 1.455054999999999836e+02 1.962099999999999909e+03
1.489999999999999936e-01 1.310570000000000068e-01 2.492105000000000103e+01 1.441854999999999905e+02 1.961599999999999909e+03
1.499999999999999944e-01 1.310140000000000193e-01 2.424029999999999774e+01 1.429574999999999818e+02 1.961119999999999891e+03
1.509999999999999953e-01 1.309744999999999937e-01 2.360884999999999678e+01 1.418290000000000077e+02 1.960674999999999955e+03
1.519999999999999962e-01 1.309369999999999978e-01 2.302994999999999948e+01 1.408084999999999809e+02 1.960255000000000109e+03
1.529999999999999971e-01 1.309029999999999916e-01 2.250554999999999950e+01 1.398979999999999961e+02 1.959869999999999891e+03
1.539999999999999980e-01 1.308715000000000017e-01 2.203650000000000020e+01 1.390985000000000014e+02 1.959519999999999982e+03
1.549999999999999989e-01 1.308435000000000015e-01 2.162229999999999919e+01 1.384080000000000155e+02 1.959204999999999927e+03
1.559999999999999998e-01 1.308185000000000042e-01 2.126164999999999949e+01 1.378220000000000027e+02 1.958925000000000182e+03
1.570000000000000007e-01 1.307969999999999966e-01 2.095199999999999818e+01 1.373340000000000032e+02 1.958675000000000182e+03
1.580000000000000016e-01 1.307784999999999920e-01 2.069020000000000081e+01 1.369354999999999905e+02 1.958464999999999918e+03
1.590000000000000024e-01 1.307630000000000181e-01 2.047234999999999872e+01 1.366184999999999832e+02 1.958289999999999964e+03
