# t [s], A [cm^2], U [cm/s], P [cPa], c [cm/s]
1.000000000000000021e-03 7.821420000000000039e-01 5.796799999999997788e-03 1.009235000000000042e+02 1.696795000000000073e+03
2.000000000000000042e-03 7.821294999999999220e-01 -1.029695000000000176e-03 1.008940000000000055e+02 1.696789999999999964e+03
3.000000000000000062e-03 7.822005000000000763e-01 1.059633500000000117e-01 1.010160000000000053e+02 1.696815000000000055e+03
4.000000000000000083e-03 7.822534999999999350e-01 1.999138999999999777e-01 1.011364999999999981e+02 1.696840000000000146e+03
5.000000000000000104e-03 7.822090000000000432e-01 1.578635499999999914e-01 1.010430000000000064e+02 1.696829999999999927e+03
6.000000000000000125e-03 7.821270000000000167e-01 5.474899999999999212e-02 1.007890000000000015e+02 1.696775000000000091e+03
7.000000000000000146e-03 7.820540000000000269e-01 -4.418650000000001743e-02 1.004724999999999966e+02 1.696710000000000036e+03
8.000000000000000167e-03 7.819290000000000962e-01 -2.358500000000000041e-01 9.998584999999999923e+01 1.696610000000000127e+03
9.000000000000001055e-03 7.817259999999999209e-01 -5.661100000000000021e-01 9.923820000000000618e+01 1.696454999999999927e+03
1.000000000000000194e-02 7.814360000000000195e-01 -1.041614999999999958e+00 9.817605000000000359e+01 1.696235000000000127e+03
1.099999999999999936e-02 7.810325000000000184e-01 -1.689374999999999849e+00 9.671754999999998859e+01 1.695929999999999836e+03
1.200000000000000025e-02 7.805180000000000451e-01 -2.487370000000000303e+00 9.483655000000000257e+01 1.695525000000000091e+03
1.300000000000000114e-02 7.799549999999999539e-01 -3.309820000000000206e+00 9.266159999999999286e+01 1.695054999999999836e+03
1.400000000000000203e-02 7.794365000000000876e-01 -3.978350000000000275e+00 9.043899999999999295e+01 1.694550000000000182e+03
1.499999999999999944e-02 7.790265000000000661e-01 -4.356425600000000564e+00 8.840610000000000923e+01 1.694059999999999945e+03
1.600000000000000033e-02 7.787315000000000209e-01 -4.402771999999999686e+00 8.668969999999998777e+01 1.693625000000000000e+03
1.700000000000000122e-02 7.785139999999999283e-01 -4.166369999999999685e+00 8.527939999999999543e+01 1.693244999999999891e+03
1.800000000000000211e-02 7.783120000000000038e-01 -3.747264999999999624e+00 8.406204999999999927e+01 1.692894999999999982e+03
1.900000000000000300e-02 7.780730000000000146e-01 -3.249603000000000019e+00 8.288490000000000180e+01 1.692554999999999836e+03
2.000000000000000042e-02 7.777680000000000149e-01 -2.744078050000000157e+00 8.162030000000000030e+01 1.692200000000000045e+03
2.100000000000000130e-02 7.773974999999999635e-01 -2.250445000000000029e+00 8.020974999999999966e+01 1.691820000000000164e+03
2.200000000000000219e-02 7.769880000000000120e-01 -1.744474999999999998e+00 7.867179999999999040e+01 1.691409999999999854e+03
2.299999999999999961e-02 7.765744999999999454e-01 -1.183905000000000207e+00 7.707599999999999341e+01 1.690990000000000009e+03
2.400000000000000050e-02 7.761804999999999399e-01 -5.393849999999997813e-01 7.549854999999999450e+01 1.690570000000000164e+03
2.500000000000000139e-02 7.758114999999999872e-01 1.832599999999997564e-01 7.398050000000000637e+01 1.690154999999999973e+03
2.600000000000000228e-02 7.754475000000000673e-01 9.364899999999998226e-01 7.250419999999999732e+01 1.689755000000000109e+03
2.700000000000000316e-02 7.750555000000000083e-01 1.639435000000000198e+00 7.099309999999999832e+01 1.689340000000000146e+03
2.800000000000000058e-02 7.745940000000000047e-01 2.196914999999999729e+00 6.933099999999998886e+01 1.688904999999999973e+03
2.900000000000000147e-02 7.740290000000000781e-01 2.523140000000000605e+00 6.739515000000000100e+01 1.688414999999999964e+03
3.000000000000000236e-02 7.733440000000000314e-01 2.563865000000000283e+00 6.509380000000000166e+01 1.687849999999999909e+03
3.099999999999999978e-02 7.725440000000000085e-01 2.310594999999999732e+00 6.239669999999999561e+01 1.687204999999999927e+03
3.200000000000000067e-02 7.716589999999999838e-01 1.802415000000000322e+00 5.934969999999999857e+01 1.686490000000000009e+03
3.300000000000000155e-02 7.707355000000000178e-01 1.115325000000000344e+00 5.606929999999999836e+01 1.685715000000000146e+03
3.400000000000000244e-02 7.698264999999999691e-01 3.436750000000001748e-01 5.271959999999999980e+01 1.684914999999999964e+03
3.500000000000000333e-02 7.689805000000000668e-01 -4.187799999999999301e-01 4.948260000000000502e+01 1.684134999999999991e+03
3.600000000000000422e-02 7.682389999999998942e-01 -1.093764999999999876e+00 4.652899999999999636e+01 1.683410000000000082e+03
3.700000000000000511e-02 7.676270000000000593e-01 -1.625890000000000502e+00 4.399750000000000227e+01 1.682759999999999991e+03
3.799999999999999906e-02 7.671580000000000066e-01 -1.983445000000000125e+00 4.198430000000000462e+01 1.682224999999999909e+03
3.899999999999999994e-02 7.668365000000000320e-01 -2.154115000000000002e+00 4.054160000000000252e+01 1.681815000000000055e+03
4.000000000000000083e-02 7.666574999999999918e-01 -2.138102600000000297e+00 3.968464999999999776e+01 1.681539999999999964e+03
4.100000000000000172e-02 7.666144999999999765e-01 -1.940859999999999808e+00 3.940234999999999843e+01 1.681394999999999982e+03
4.200000000000000261e-02 7.667010000000000769e-01 -1.567384000000000110e+00 3.966904999999999859e+01 1.681384999999999991e+03
4.300000000000000350e-02 7.669099999999999806e-01 -1.019325000000000037e+00 4.045389999999999731e+01 1.681505000000000109e+03
4.400000000000000439e-02 7.672379999999999756e-01 -2.951749999999997431e-01 4.172655000000000314e+01 1.681744999999999891e+03
4.499999999999999833e-02 7.676790000000000003e-01 6.069650000000001988e-01 4.345759999999999934e+01 1.682099999999999909e+03
4.599999999999999922e-02 7.682279999999999109e-01 1.685649999999999871e+00 4.561639999999999873e+01 1.682565000000000055e+03
4.700000000000000011e-02 7.688749999999999751e-01 2.932500000000000107e+00 4.816679999999999495e+01 1.683130000000000109e+03
4.800000000000000100e-02 7.696079999999999588e-01 4.330169999999999852e+00 5.106354999999999933e+01 1.683779999999999973e+03
4.900000000000000189e-02 7.704104999999999981e-01 5.852115000000000400e+00 5.425059999999999150e+01 1.684514999999999873e+03
5.000000000000000278e-02 7.712634999999999907e-01 7.464272999999999492e+00 5.766174999999999784e+01 1.685304999999999836e+03
5.100000000000000366e-02 7.721465000000000689e-01 9.127987499999999699e+00 6.122384999999999877e+01 1.686144999999999982e+03
5.200000000000000455e-02 7.730405000000000193e-01 1.080342999999999876e+01 6.486140000000000327e+01 1.687014999999999873e+03
5.300000000000000544e-02 7.739274999999999904e-01 1.245321000000000033e+01 6.850194999999999368e+01 1.687894999999999982e+03
5.399999999999999939e-02 7.747915000000000774e-01 1.404487999999999914e+01 7.208119999999999550e+01 1.688775000000000091e+03
5.500000000000000028e-02 7.756235000000000213e-01 1.555296500000000037e+01 7.554694999999999538e+01 1.689634999999999991e+03
5.600000000000000117e-02 7.764155000000000362e-01 1.695969999999999800e+01 7.886169999999999902e+01 1.690470000000000027e+03
5.700000000000000205e-02 7.771654999999999536e-01 1.825495000000000090e+01 8.200325000000000841e+01 1.691269999999999982e+03
5.800000000000000294e-02 7.778730000000000366e-01 1.943520000000000181e+01 8.496405000000000030e+01 1.692039999999999964e+03
5.900000000000000383e-02 7.785425000000000262e-01 2.050249999999999773e+01 8.774944999999999595e+01 1.692769999999999982e+03
6.000000000000000472e-02 7.791784999999999961e-01 2.146314999999999884e+01 9.037485000000000923e+01 1.693460000000000036e+03
6.099999999999999867e-02 7.797870000000000079e-01 2.232634999999999792e+01 9.286289999999999623e+01 1.694119999999999891e+03
6.199999999999999956e-02 7.803750000000000409e-01 2.310269999999999868e+01 9.524035000000000650e+01 1.694750000000000000e+03
6.300000000000000044e-02 7.809485000000000454e-01 2.380355000000000132e+01 9.753464999999999918e+01 1.695360000000000127e+03
6.400000000000000133e-02 7.815140000000000420e-01 2.443950000000000244e+01 9.977209999999999468e+01 1.695950000000000045e+03
6.500000000000000222e-02 7.820754999999999235e-01 2.501975000000000193e+01 1.019750999999999976e+02 1.696534999999999854e+03
6.600000000000000311e-02 7.826355000000000395e-01 2.555125000000000313e+01 1.041585000000000036e+02 1.697105000000000018e+03
6.700000000000000400e-02 7.831960000000000033e-01 2.603815000000000168e+01 1.063315000000000055e+02 1.697674999999999955e+03
6.800000000000000488e-02 7.837534999999999918e-01 2.648170000000000002e+01 1.084939999999999998e+02 1.698244999999999891e+03
6.900000000000000577e-02 7.843069999999999764e-01 2.688020000000000209e+01 1.106370000000000005e+02 1.698804999999999836e+03
7.000000000000000666e-02 7.848500000000000476e-01 2.722959999999999781e+01 1.127469999999999999e+02 1.699360000000000127e+03
7.100000000000000755e-02 7.853780000000000205e-01 2.752374999999999972e+01 1.148015000000000043e+02 1.699900000000000091e+03
7.200000000000000844e-02 7.858825000000000394e-01 2.775570000000000093e+01 1.167760000000000105e+02 1.700420000000000073e+03
7.300000000000000933e-02 7.863584999999999603e-01 2.791805000000000092e+01 1.186440000000000055e+02 1.700920000000000073e+03
7.399999999999999634e-02 7.867994999999999850e-01 2.800379999999999825e+01 1.203785000000000025e+02 1.701384999999999991e+03
7.499999999999999722e-02 7.871985000000000232e-01 2.800710000000000122e+01 1.219560000000000031e+02 1.701815000000000055e+03
7.599999999999999811e-02 7.875514999999999599e-01 2.792340000000000089e+01 1.233545000000000016e+02 1.702204999999999927e+03
7.699999999999999900e-02 7.878544999999999021e-01 2.775005000000000166e+01 1.245575000000000045e+02 1.702539999999999964e+03
7.799999999999999989e-02 7.881059999999999732e-01 2.748624999999999829e+01 1.255540000000000020e+02 1.702829999999999927e+03
7.900000000000000078e-02 7.883050000000000335e-01 2.713325000000000031e+01 1.263379999999999939e+02 1.703070000000000164e+03
8.000000000000000167e-02 7.884514999999999718e-01 2.669440000000000168e+01 1.269090000000000060e+02 1.703255000000000109e+03
8.100000000000000255e-02 7.885465000000000391e-01 2.617500000000000071e+01 1.272719999999999914e+02 1.703384999999999991e+03
8.200000000000000344e-02 7.885945000000000871e-01 2.558234999999999815e+01 1.274380000000000024e+02 1.703474999999999909e+03
8.300000000000000433e-02 7.885980000000000212e-01 2.492549999999999955e+01 1.274219999999999970e+02 1.703505000000000109e+03
8.400000000000000522e-02 7.885629999999999029e-01 2.421499999999999986e+01 1.272419999999999902e+02 1.703500000000000000e+03
8.500000000000000611e-02 7.884940000000000282e-01 2.346265000000000001e+01 1.269214999999999947e+02 1.703450000000000045e+03
8.600000000000000699e-02 7.883985000000000021e-01 2.268110000000000070e+01 1.264844999999999970e+02 1.703369999999999891e+03
8.700000000000000788e-02 7.882824999999999971e-01 2.188340000000000174e+01 1.259574999999999960e+02 1.703264999999999873e+03
8.800000000000000877e-02 7.881519999999999637e-01 2.108245000000000147e+01 1.253675000000000068e+02 1.703134999999999991e+03
8.899999999999999578e-02 7.880135000000000334e-01 2.029039999999999822e+01 1.247399999999999949e+02 1.702994999999999891e+03
8.999999999999999667e-02 7.878730000000000455e-01 1.951810000000000045e+01 1.240989999999999895e+02 1.702845000000000027e+03
9.099999999999999756e-02 7.877345000000000041e-01 1.877459999999999951e+01 1.234659999999999940e+02 1.702695000000000164e+03
9.199999999999999845e-02 7.876020000000000243e-01 1.806694999999999851e+01 1.228574999999999875e+02 1.702545000000000073e+03
9.299999999999999933e-02 7.874780000000000113e-01 1.739969999999999928e+01 1.222864999999999895e+02 1.702400000000000091e+03
9.400000000000000022e-02 7.873639999999999528e-01 1.677479999999999905e+01 1.217614999999999981e+02 1.702264999999999873e+03
9.500000000000000111e-02 7.872604999999999187e-01 1.619190000000000040e+01 1.212845000000000084e+02 1.702139999999999873e+03
9.600000000000000200e-02 7.871660000000000323e-01 1.564814999999999934e+01 1.208550000000000040e+02 1.702019999999999982e+03
9.700000000000000289e-02 7.870790000000000841e-01 1.513889999999999958e+01 1.204670000000000130e+02 1.701909999999999854e+03
9.800000000000000377e-02 7.869969999999999466e-01 1.465775000000000006e+01 1.201109999999999900e+02 1.701809999999999945e+03
9.900000000000000466e-02 7.869169999999999776e-01 1.419735000000000014e+01 1.197764999999999986e+02 1.701715000000000146e+03
1.000000000000000056e-01 7.868359999999999799e-01 1.374954999999999927e+01 1.194495000000000005e+02 1.701619999999999891e+03
1.010000000000000064e-01 7.867500000000000604e-01 1.330610000000000070e+01 1.191154999999999973e+02 1.701530000000000200e+03
1.020000000000000073e-01 7.866554999999999520e-01 1.285895499999999991e+01 1.187620000000000005e+02 1.701440000000000055e+03
1.030000000000000082e-01 7.865515000000000700e-01 1.240081999999999951e+01 1.183760000000000048e+02 1.701335000000000036e+03
1.040000000000000091e-01 7.864345000000000363e-01 1.192554499999999962e+01 1.179470000000000027e+02 1.701230000000000018e+03
1.050000000000000100e-01 7.863035000000000441e-01 1.142838499999999868e+01 1.174680000000000035e+02 1.701110000000000127e+03
1.059999999999999970e-01 7.861580000000000235e-01 1.090622500000000095e+01 1.169339999999999975e+02 1.700980000000000018e+03
1.069999999999999979e-01 7.859979999999999745e-01 1.035783999999999949e+01 1.163445000000000107e+02 1.700829999999999927e+03
1.079999999999999988e-01 7.858255000000000656e-01 9.784039999999999182e+00 1.157009999999999934e+02 1.700674999999999955e+03
1.089999999999999997e-01 7.856414999999999926e-01 9.187445000000000306e+00 1.150114999999999981e+02 1.700505000000000109e+03
1.100000000000000006e-01 7.854505000000000514e-01 8.572485000000000355e+00 1.142835000000000036e+02 1.700329999999999927e+03
1.110000000000000014e-01 7.852544999999999664e-01 7.945249999999999702e+00 1.135319999999999965e+02 1.700144999999999982e+03
1.120000000000000023e-01 7.850580000000000336e-01 7.313005000000000422e+00 1.127704999999999984e+02 1.699960000000000036e+03
1.130000000000000032e-01 7.848654999999999937e-01 6.684065000000000367e+00 1.120165000000000077e+02 1.699775000000000091e+03
1.140000000000000041e-01 7.846824999999999495e-01 6.067224999999999646e+00 1.112870000000000061e+02 1.699590000000000146e+03
1.150000000000000050e-01 7.845119999999999871e-01 5.471364999999999590e+00 1.105999999999999943e+02 1.699420000000000073e+03
1.160000000000000059e-01 7.843584999999999585e-01 4.905054999999999943e+00 1.099729999999999990e+02 1.699255000000000109e+03
1.170000000000000068e-01 7.842255000000000198e-01 4.376115000000000421e+00 1.094194999999999993e+02 1.699105000000000018e+03
1.180000000000000077e-01 7.841160000000000352e-01 3.891264999999999752e+00 1.089530000000000030e+02 1.698985000000000127e+03
1.190000000000000085e-01 7.840324999999999100e-01 3.455820000000000114e+00 1.085829999999999984e+02 1.698875000000000000e+03
1.200000000000000094e-01 7.839745000000000186e-01 3.073479999999999990e+00 1.083160000000000025e+02 1.698795000000000073e+03
1.209999999999999964e-01 7.839434999999999043e-01 2.746210000000000040e+00 1.081535000000000082e+02 1.698740000000000009e+03
1.219999999999999973e-01 7.839385000000000936e-01 2.474190000000000111e+00 1.080955000000000013e+02 1.698710000000000036e+03
1.229999999999999982e-01 7.839574999999999738e-01 2.255914999999999893e+00 1.081370000000000005e+02 1.698700000000000045e+03
1.239999999999999991e-01 7.839985000000000426e-01 2.088319999999999954e+00 1.082694999999999936e+02 1.698719999999999800e+03
1.250000000000000000e-01 7.840584999999999916e-01 1.967009999999999925e+00 1.084830000000000041e+02 1.698755000000000109e+03
1.260000000000000009e-01 7.841339999999999977e-01 1.886539999999999884e+00 1.087640000000000100e+02 1.698815000000000055e+03
1.270000000000000018e-01 7.842219999999999747e-01 1.840704999999999814e+00 1.090985000000000014e+02 1.698880000000000109e+03
1.280000000000000027e-01 7.843169999999999309e-01 1.822824999999999918e+00 1.094715000000000060e+02 1.698960000000000036e+03
1.290000000000000036e-01 7.844174999999999898e-01 1.826079500000000078e+00 1.098689999999999998e+02 1.699054999999999836e+03
1.300000000000000044e-01 7.845184999999998965e-01 1.843733999999999984e+00 1.102754999999999939e+02 1.699144999999999982e+03
1.310000000000000053e-01 7.846174999999999677e-01 1.869399999999999951e+00 1.106779999999999973e+02 1.699235000000000127e+03
1.320000000000000062e-01 7.847119999999999651e-01 1.897200000000000220e+00 1.110639999999999930e+02 1.699329999999999927e+03
1.330000000000000071e-01 7.847984999999999545e-01 1.921924999999999883e+00 1.114240000000000066e+02 1.699420000000000073e+03
1.340000000000000080e-01 7.848764999999999770e-01 1.939125000000000210e+00 1.117494999999999976e+02 1.699500000000000000e+03
1.350000000000000089e-01 7.849440000000000861e-01 1.945195000000000007e+00 1.120345000000000084e+02 1.699574999999999818e+03
1.360000000000000098e-01 7.849999999999999201e-01 1.937370000000000037e+00 1.122734999999999985e+02 1.699634999999999991e+03
1.370000000000000107e-01 7.850440000000000751e-01 1.913769999999999971e+00 1.124654999999999916e+02 1.699690000000000055e+03
1.380000000000000115e-01 7.850764999999999549e-01 1.873330000000000162e+00 1.126080000000000041e+02 1.699730000000000018e+03
1.390000000000000124e-01 7.850984999999999214e-01 1.815795000000000048e+00 1.127030000000000030e+02 1.699764999999999873e+03
1.400000000000000133e-01 7.851084999999999869e-01 1.741610000000000102e+00 1.127519999999999953e+02 1.699784999999999854e+03
1.410000000000000142e-01 7.851090000000000568e-01 1.651845000000000008e+00 1.127590000000000003e+02 1.699789999999999964e+03
1.420000000000000151e-01 7.851010000000000488e-01 1.548094999999999999e+00 1.127274999999999920e+02 1.699789999999999964e+03
1.430000000000000160e-01 7.850850000000000328e-01 1.432360000000000078e+00 1.126620000000000061e+02 1.699784999999999854e+03
1.440000000000000169e-01 7.850630000000000663e-01 1.306902500000000078e+00 1.125674999999999955e+02 1.699765000000000100e+03
1.450000000000000178e-01 7.850354999999999972e-01 1.174123000000000028e+00 1.124484999999999957e+02 1.699744999999999891e+03
1.459999999999999909e-01 7.850034999999999652e-01 1.036422999999999872e+00 1.123105000000000047e+02 1.699714999999999918e+03
1.469999999999999918e-01 7.849679999999999991e-01 8.960900000000000531e-01 1.121574999999999989e+02 1.699679999999999836e+03
1.479999999999999927e-01 7.849304999999999755e-01 7.551800000000000734e-01 1.119920000000000044e+02 1.699644999999999982e+03
1.489999999999999936e-01 7.848910000000000053e-01 6.154479999999999951e-01 1.118185000000000002e+02 1.699605000000000018e+03
1.499999999999999944e-01 7.848500000000000476e-01 4.782667999999999919e-01 1.116374999999999886e+02 1.699559999999999945e+03
1.509999999999999953e-01 7.848074999999999912e-01 3.446299999999999919e-01 1.114500000000000028e+02 1.699515000000000100e+03
1.519999999999999962e-01 7.847634999999999472e-01 2.151349999999999929e-01 1.112574999999999932e+02 1.699469999999999800e+03
1.529999999999999971e-01 7.847174999999999567e-01 9.002899999999999792e-02 1.110579999999999927e+02 1.699424999999999955e+03
1.539999999999999980e-01 7.846694999999999087e-01 -3.072900000000003407e-02 1.108509999999999991e+02 1.699369999999999891e+03
1.549999999999999989e-01 7.846180000000000376e-01 -1.473899999999999932e-01 1.106345000000000027e+02 1.699315000000000055e+03
1.559999999999999998e-01 7.845640000000000391e-01 -2.603139999999999898e-01 1.104069999999999965e+02 1.699259999999999991e+03
1.570000000000000007e-01 7.845059999999999256e-01 -3.698789999999999578e-01 1.101664999999999992e+02 1.699200000000000045e+03
1.580000000000000016e-01 7.844444999999999890e-01 -4.763844999999999330e-01 1.099120000000000061e+02 1.699139999999999873e+03
1.590000000000000024e-01 7.843785000000000895e-01 -5.799665499999999696e-01 1.096419999999999959e+02 1.699069999999999936e+03
