# t [s], A [cm^2], U [cm/s], P [cPa], c [cm/s]
1.000000000000000021e-03 1.580715000000000037e-01 3.217895000000000061e-01 9.141714999999999236e+01 1.829470000000000027e+03
2.000000000000000042e-03 1.580449999999999910e-01 1.775597499999999940e+00 8.853634999999999877e+01 1.829230000000000018e+03
3.000000000000000062e-03 1.579470000000000041e-01 3.535006000000000093e+00 8.481280000000000996e+01 1.828400000000000091e+03
4.000000000000000083e-03 1.578014999999999834e-01 5.477643500000000110e+00 8.073704999999999643e+01 1.827179999999999836e+03
5.000000000000000104e-03 1.576339999999999963e-01 7.555809999999999249e+00 7.696860000000000923e+01 1.825784999999999854e+03
6.000000000000000125e-03 1.574630000000000196e-01 9.664744999999999919e+00 7.381284999999999741e+01 1.824384999999999991e+03
7.000000000000000146e-03 1.572985000000000078e-01 1.165478000000000058e+01 7.118945000000000789e+01 1.823039999999999964e+03
8.000000000000000167e-03 1.571424999999999905e-01 1.342132500000000128e+01 6.888609999999999900e+01 1.821789999999999964e+03
9.000000000000001055e-03 1.569984999999999853e-01 1.495240000000000080e+01 6.682204999999999018e+01 1.820650000000000091e+03
1.000000000000000194e-02 1.568690000000000084e-01 1.627625000000000099e+01 6.503650000000000375e+01 1.819644999999999982e+03
1.099999999999999936e-02 1.567565000000000208e-01 1.740940000000000154e+01 6.354690000000000794e+01 1.818769999999999982e+03
1.200000000000000025e-02 1.566595000000000071e-01 1.835774999999999935e+01 6.231850000000000023e+01 1.818029999999999973e+03
1.300000000000000114e-02 1.565779999999999950e-01 1.912744999999999962e+01 6.130039999999999623e+01 1.817409999999999854e+03
1.400000000000000203e-02 1.565090000000000092e-01 1.972429999999999950e+01 6.043560000000000798e+01 1.816894999999999982e+03
1.499999999999999944e-02 1.564504999999999924e-01 2.015894999999999726e+01 5.966944999999999766e+01 1.816460000000000036e+03
1.600000000000000033e-02 1.563999999999999835e-01 2.046529999999999916e+01 5.899269999999999925e+01 1.816095000000000027e+03
1.700000000000000122e-02 1.563594999999999846e-01 2.071065000000000111e+01 5.848714999999999975e+01 1.815799999999999955e+03
1.800000000000000211e-02 1.563309999999999977e-01 2.098255000000000337e+01 5.831780000000000541e+01 1.815605000000000018e+03
1.900000000000000300e-02 1.563209999999999877e-01 2.135710000000000264e+01 5.866105000000000302e+01 1.815539999999999964e+03
2.000000000000000042e-02 1.563319999999999987e-01 2.186809999999999832e+01 5.961095000000000255e+01 1.815639999999999873e+03
2.100000000000000130e-02 1.563660000000000050e-01 2.249275000000000091e+01 6.111749999999999261e+01 1.815904999999999973e+03
2.200000000000000219e-02 1.564190000000000025e-01 2.316000000000000014e+01 6.298450000000000415e+01 1.816320000000000164e+03
2.299999999999999961e-02 1.564834999999999976e-01 2.377479999999999905e+01 6.492324999999999591e+01 1.816820000000000164e+03
2.400000000000000050e-02 1.565500000000000225e-01 2.424680000000000035e+01 6.663389999999999702e+01 1.817355000000000018e+03
2.500000000000000139e-02 1.566110000000000002e-01 2.451404999999999745e+01 6.788329999999999131e+01 1.817835000000000036e+03
2.600000000000000228e-02 1.566584999999999783e-01 2.455529999999999902e+01 6.855599999999999739e+01 1.818224999999999909e+03
2.700000000000000316e-02 1.566894999999999816e-01 2.438945000000000007e+01 6.866559999999999775e+01 1.818485000000000127e+03
2.800000000000000058e-02 1.567044999999999966e-01 2.406334999999999980e+01 6.832980000000000587e+01 1.818615000000000009e+03
2.900000000000000147e-02 1.567049999999999832e-01 2.363465000000000060e+01 6.772084999999999866e+01 1.818634999999999991e+03
3.000000000000000236e-02 1.566960000000000020e-01 2.315490000000000137e+01 6.701015000000001010e+01 1.818579999999999927e+03
3.099999999999999978e-02 1.566825000000000023e-01 2.265775000000000006e+01 6.632410000000000139e+01 1.818484999999999900e+03
3.200000000000000067e-02 1.566670000000000007e-01 2.215549999999999997e+01 6.572155000000000769e+01 1.818365000000000009e+03
3.300000000000000155e-02 1.566500000000000115e-01 2.164195000000000135e+01 6.519565000000000055e+01 1.818240000000000009e+03
3.400000000000000244e-02 1.566329999999999945e-01 2.110125000000000028e+01 6.469450000000000500e+01 1.818110000000000127e+03
3.500000000000000333e-02 1.566140000000000032e-01 2.051805000000000234e+01 6.415179999999999438e+01 1.817964999999999918e+03
3.600000000000000422e-02 1.565924999999999956e-01 1.988654999999999973e+01 6.351809999999999690e+01 1.817804999999999836e+03
3.700000000000000511e-02 1.565670000000000117e-01 1.921640000000000015e+01 6.278309999999999746e+01 1.817610000000000127e+03
3.799999999999999906e-02 1.565384999999999971e-01 1.853395000000000081e+01 6.198599999999999710e+01 1.817394999999999982e+03
3.899999999999999994e-02 1.565084999999999948e-01 1.787825000000000131e+01 6.121030000000000371e+01 1.817159999999999854e+03
4.000000000000000083e-02 1.564800000000000080e-01 1.729435000000000144e+01 6.056624999999999659e+01 1.816945000000000164e+03
4.100000000000000172e-02 1.564564999999999984e-01 1.682404999999999973e+01 6.016610000000000014e+01 1.816759999999999991e+03
4.200000000000000261e-02 1.564424999999999844e-01 1.649715000000000131e+01 6.009759999999999991e+01 1.816644999999999982e+03
4.300000000000000350e-02 1.564389999999999947e-01 1.632564999999999955e+01 6.040319999999999823e+01 1.816615000000000009e+03
4.400000000000000439e-02 1.564490000000000047e-01 1.630075000000000074e+01 6.106895000000000095e+01 1.816680000000000064e+03
4.499999999999999833e-02 1.564705000000000124e-01 1.639405000000000001e+01 6.202469999999999573e+01 1.816835000000000036e+03
4.599999999999999922e-02 1.565019999999999745e-01 1.656215000000000259e+01 6.315520000000000067e+01 1.817075000000000045e+03
4.700000000000000011e-02 1.565400000000000125e-01 1.675280000000000058e+01 6.431759999999999877e+01 1.817360000000000127e+03
4.800000000000000100e-02 1.565794999999999826e-01 1.691209999999999880e+01 6.536315000000000452e+01 1.817659999999999854e+03
4.900000000000000189e-02 1.566160000000000052e-01 1.699070000000000036e+01 6.615629999999998745e+01 1.817944999999999936e+03
5.000000000000000278e-02 1.566445000000000198e-01 1.694890000000000185e+01 6.659055000000000746e+01 1.818170000000000073e+03
5.100000000000000366e-02 1.566615000000000091e-01 1.675929999999999964e+01 6.659770000000000323e+01 1.818300000000000182e+03
5.200000000000000455e-02 1.566639999999999977e-01 1.640765000000000029e+01 6.615010000000000900e+01 1.818324999999999818e+03
5.300000000000000544e-02 1.566509999999999847e-01 1.589209999999999923e+01 6.525780000000000314e+01 1.818230000000000018e+03
5.399999999999999939e-02 1.566214999999999968e-01 1.522115000000000151e+01 6.396125000000000682e+01 1.818009999999999991e+03
5.500000000000000028e-02 1.565769999999999940e-01 1.441114999999999924e+01 6.232200000000000273e+01 1.817664999999999964e+03
5.600000000000000117e-02 1.565190000000000192e-01 1.348389999999999844e+01 6.041339999999999577e+01 1.817220000000000027e+03
5.700000000000000205e-02 1.564490000000000047e-01 1.246446999999999861e+01 5.831329999999999814e+01 1.816684999999999945e+03
5.800000000000000294e-02 1.563709999999999822e-01 1.137957499999999911e+01 5.609794999999999732e+01 1.816079999999999927e+03
5.900000000000000383e-02 1.562860000000000082e-01 1.025711499999999887e+01 5.383950000000000102e+01 1.815430000000000064e+03
6.000000000000000472e-02 1.561970000000000025e-01 9.125305000000000888e+00 5.160519999999999641e+01 1.814744999999999891e+03
6.099999999999999867e-02 1.561079999999999968e-01 8.012824999999999420e+00 4.945739999999999981e+01 1.814054999999999836e+03
6.199999999999999956e-02 1.560199999999999920e-01 6.948680000000000412e+00 4.745544999999999902e+01 1.813369999999999891e+03
6.300000000000000044e-02 1.559359999999999913e-01 5.962119999999999642e+00 4.565625000000000000e+01 1.812720000000000027e+03
6.400000000000000133e-02 1.558589999999999975e-01 5.082085000000000186e+00 4.411520000000000152e+01 1.812119999999999891e+03
6.500000000000000222e-02 1.557899999999999840e-01 4.336700000000000443e+00 4.288530000000000086e+01 1.811585000000000036e+03
6.600000000000000311e-02 1.557335000000000247e-01 3.752290000000000347e+00 4.201614999999999611e+01 1.811139999999999873e+03
6.700000000000000400e-02 1.556899999999999951e-01 3.352339999999999876e+00 4.155190000000000339e+01 1.810789999999999964e+03
6.800000000000000488e-02 1.556615000000000082e-01 3.156385000000000218e+00 4.152870000000000061e+01 1.810559999999999945e+03
6.900000000000000577e-02 1.556504999999999972e-01 3.178980000000000139e+00 4.197234999999999872e+01 1.810460000000000036e+03
7.000000000000000666e-02 1.556575000000000042e-01 3.428874999999999673e+00 4.289634999999999820e+01 1.810505000000000109e+03
7.100000000000000755e-02 1.556839999999999891e-01 3.908515000000000406e+00 4.430044999999999789e+01 1.810694999999999936e+03
7.200000000000000844e-02 1.557290000000000063e-01 4.613850000000000229e+00 4.617014999999999958e+01 1.811029999999999973e+03
7.300000000000000933e-02 1.557935000000000014e-01 5.534575000000000244e+00 4.847745000000000459e+01 1.811514999999999873e+03
7.399999999999999634e-02 1.558760000000000145e-01 6.654659999999999798e+00 5.118205000000000382e+01 1.812135000000000218e+03
7.499999999999999722e-02 1.559754999999999892e-01 7.953179999999999694e+00 5.423369999999999891e+01 1.812894999999999982e+03
7.599999999999999811e-02 1.560904999999999931e-01 9.405335000000000889e+00 5.757475000000000165e+01 1.813769999999999982e+03
7.699999999999999900e-02 1.562184999999999824e-01 1.098383499999999913e+01 6.114324999999999477e+01 1.814755000000000109e+03
7.799999999999999989e-02 1.563574999999999826e-01 1.265973500000000129e+01 6.487604999999999222e+01 1.815829999999999927e+03
7.900000000000000078e-02 1.565050000000000052e-01 1.440409999999999968e+01 6.871189999999999998e+01 1.816970000000000027e+03
8.000000000000000167e-02 1.566595000000000071e-01 1.618894999999999840e+01 7.259389999999999077e+01 1.818159999999999854e+03
8.100000000000000255e-02 1.568174999999999986e-01 1.798835000000000051e+01 7.647180000000000177e+01 1.819394999999999982e+03
8.200000000000000344e-02 1.569780000000000064e-01 1.977915000000000134e+01 8.030389999999999873e+01 1.820639999999999873e+03
8.300000000000000433e-02 1.571385000000000143e-01 2.154175000000000040e+01 8.405814999999999770e+01 1.821900000000000091e+03
8.400000000000000522e-02 1.572975000000000068e-01 2.326054999999999851e+01 8.771235000000000070e+01 1.823144999999999982e+03
8.500000000000000611e-02 1.574550000000000116e-01 2.492389999999999972e+01 9.125445000000000562e+01 1.824380000000000109e+03
8.600000000000000699e-02 1.576084999999999847e-01 2.652439999999999998e+01 9.468139999999999645e+01 1.825595000000000027e+03
8.700000000000000788e-02 1.577594999999999970e-01 2.805809999999999960e+01 9.799850000000000705e+01 1.826785000000000082e+03
8.800000000000000877e-02 1.579065000000000052e-01 2.952454999999999785e+01 1.012169999999999987e+02 1.827949999999999818e+03
8.899999999999999578e-02 1.580504999999999827e-01 3.092569999999999908e+01 1.043521499999999946e+02 1.829094999999999800e+03
8.999999999999999667e-02 1.581914999999999849e-01 3.226565000000000083e+01 1.074234999999999900e+02 1.830215000000000146e+03
9.099999999999999756e-02 1.583299999999999985e-01 3.354945000000000022e+01 1.104489999999999981e+02 1.831320000000000164e+03
9.199999999999999845e-02 1.584669999999999968e-01 3.478269999999999840e+01 1.134455000000000098e+02 1.832404999999999973e+03
9.299999999999999933e-02 1.586019999999999930e-01 3.597070000000000078e+01 1.164279999999999973e+02 1.833485000000000127e+03
9.400000000000000022e-02 1.587370000000000170e-01 3.711814999999999998e+01 1.194070000000000107e+02 1.834559999999999945e+03
9.500000000000000111e-02 1.588714999999999988e-01 3.822814999999999941e+01 1.223870000000000005e+02 1.835634999999999991e+03
9.600000000000000200e-02 1.590055000000000218e-01 3.930254999999999654e+01 1.253689999999999998e+02 1.836710000000000036e+03
9.700000000000000289e-02 1.591390000000000027e-01 4.034135000000000559e+01 1.283485000000000014e+02 1.837780000000000200e+03
9.800000000000000377e-02 1.592729999999999979e-01 4.134275000000000233e+01 1.313140000000000214e+02 1.838849999999999909e+03
9.900000000000000466e-02 1.594054999999999778e-01 4.230344999999999800e+01 1.342520000000000095e+02 1.839914999999999964e+03
1.000000000000000056e-01 1.595370000000000121e-01 4.321845000000000425e+01 1.371444999999999936e+02 1.840965000000000146e+03
1.010000000000000064e-01 1.596670000000000034e-01 4.408155000000000001e+01 1.399699999999999989e+02 1.842009999999999991e+03
1.020000000000000073e-01 1.597945000000000060e-01 4.488580000000000325e+01 1.427080000000000268e+02 1.843025000000000091e+03
1.030000000000000082e-01 1.599174999999999902e-01 4.562354999999999450e+01 1.453349999999999795e+02 1.844025000000000091e+03
1.040000000000000091e-01 1.600374999999999992e-01 4.628705000000000069e+01 1.478279999999999745e+02 1.844985000000000127e+03
1.050000000000000100e-01 1.601515000000000022e-01 4.686860000000000070e+01 1.501659999999999968e+02 1.845905000000000200e+03
1.059999999999999970e-01 1.602594999999999992e-01 4.736110000000000042e+01 1.523299999999999841e+02 1.846779999999999973e+03
1.069999999999999979e-01 1.603605000000000169e-01 4.775825000000000387e+01 1.543034999999999854e+02 1.847595000000000027e+03
1.079999999999999988e-01 1.604534999999999989e-01 4.805480000000000018e+01 1.560724999999999909e+02 1.848360000000000127e+03
1.089999999999999997e-01 1.605389999999999873e-01 4.824699999999999989e+01 1.576270000000000095e+02 1.849050000000000182e+03
1.100000000000000006e-01 1.606160000000000088e-01 4.833249999999999602e+01 1.589615000000000009e+02 1.849680000000000064e+03
1.110000000000000014e-01 1.606835000000000069e-01 4.831069999999999709e+01 1.600735000000000241e+02 1.850230000000000018e+03
1.120000000000000023e-01 1.607419999999999960e-01 4.818269999999999698e+01 1.609639999999999986e+02 1.850710000000000036e+03
1.130000000000000032e-01 1.607914999999999761e-01 4.795145000000000124e+01 1.616405000000000030e+02 1.851115000000000009e+03
1.140000000000000041e-01 1.608314999999999884e-01 4.762165000000000248e+01 1.621115000000000066e+02 1.851454999999999927e+03
1.150000000000000050e-01 1.608630000000000060e-01 4.719965000000000543e+01 1.623899999999999864e+02 1.851714999999999918e+03
1.160000000000000059e-01 1.608864999999999879e-01 4.669315000000000282e+01 1.624929999999999950e+02 1.851910000000000082e+03
1.170000000000000068e-01 1.609019999999999895e-01 4.611110000000000042e+01 1.624379999999999882e+02 1.852045000000000073e+03
1.180000000000000077e-01 1.609094999999999831e-01 4.546359999999999957e+01 1.622454999999999927e+02 1.852115000000000009e+03
1.190000000000000085e-01 1.609114999999999851e-01 4.476120000000000232e+01 1.619370000000000118e+02 1.852139999999999873e+03
1.200000000000000094e-01 1.609074999999999811e-01 4.401484999999999559e+01 1.615345000000000084e+02 1.852115000000000009e+03
1.209999999999999964e-01 1.608990000000000142e-01 4.323545000000000016e+01 1.610584999999999809e+02 1.852054999999999836e+03
1.219999999999999973e-01 1.608864999999999879e-01 4.243359999999999843e+01 1.605289999999999964e+02 1.851954999999999927e+03
1.229999999999999982e-01 1.608709999999999862e-01 4.161910000000000309e+01 1.599655000000000200e+02 1.851835000000000036e+03
1.239999999999999991e-01 1.608525000000000094e-01 4.080110000000000525e+01 1.593824999999999932e+02 1.851694999999999936e+03
1.250000000000000000e-01 1.608330000000000037e-01 3.998734999999999928e+01 1.587944999999999993e+02 1.851535000000000082e+03
1.260000000000000009e-01 1.608120000000000105e-01 3.918439999999999657e+01 1.582115000000000009e+02 1.851365000000000009e+03
1.270000000000000018e-01 1.607905000000000029e-01 3.839740000000000464e+01 1.576409999999999911e+02 1.851194999999999936e+03
1.280000000000000027e-01 1.607684999999999809e-01 3.762999999999999545e+01 1.570880000000000223e+02 1.851019999999999982e+03
1.290000000000000036e-01 1.607465000000000144e-01 3.688429999999999609e+01 1.565529999999999973e+02 1.850840000000000146e+03
1.300000000000000044e-01 1.607250000000000068e-01 3.616109999999999758e+01 1.560345000000000084e+02 1.850664999999999964e+03
1.310000000000000053e-01 1.607034999999999991e-01 3.545974999999999966e+01 1.555289999999999964e+02 1.850489999999999782e+03
1.320000000000000062e-01 1.606819999999999915e-01 3.477854999999999563e+01 1.550305000000000177e+02 1.850315000000000055e+03
1.330000000000000071e-01 1.606609999999999983e-01 3.411475000000000080e+01 1.545305000000000177e+02 1.850144999999999982e+03
1.340000000000000080e-01 1.606394999999999906e-01 3.346484999999999843e+01 1.540210000000000150e+02 1.849970000000000027e+03
1.350000000000000089e-01 1.606174999999999964e-01 3.282469999999999999e+01 1.534915000000000020e+02 1.849789999999999964e+03
1.360000000000000098e-01 1.605940000000000145e-01 3.218984999999999985e+01 1.529329999999999927e+02 1.849599999999999909e+03
1.370000000000000107e-01 1.605699999999999905e-01 3.155579999999999785e+01 1.523355000000000246e+02 1.849404999999999973e+03
1.380000000000000115e-01 1.605440000000000200e-01 3.091805000000000092e+01 1.516904999999999859e+02 1.849195000000000164e+03
1.390000000000000124e-01 1.605165000000000064e-01 3.027259999999999707e+01 1.509890000000000043e+02 1.848970000000000027e+03
1.400000000000000133e-01 1.604865000000000042e-01 2.961575000000000202e+01 1.502264999999999873e+02 1.848730000000000018e+03
1.410000000000000142e-01 1.604544999999999999e-01 2.894474999999999909e+01 1.493979999999999961e+02 1.848469999999999800e+03
1.420000000000000151e-01 1.604194999999999927e-01 2.825744999999999862e+01 1.485010000000000048e+02 1.848184999999999945e+03
1.430000000000000160e-01 1.603815000000000102e-01 2.755270000000000152e+01 1.475355000000000132e+02 1.847884999999999991e+03
1.440000000000000169e-01 1.603414999999999979e-01 2.683055000000000234e+01 1.465029999999999859e+02 1.847565000000000055e+03
1.450000000000000178e-01 1.602985000000000104e-01 2.609179999999999922e+01 1.454085000000000036e+02 1.847214999999999918e+03
1.459999999999999909e-01 1.602525000000000199e-01 2.533849999999999980e+01 1.442584999999999980e+02 1.846849999999999909e+03
1.469999999999999918e-01 1.602044999999999997e-01 2.457359999999999900e+01 1.430610000000000070e+02 1.846464999999999918e+03
1.479999999999999927e-01 1.601540000000000186e-01 2.380095000000000027e+01 1.418265000000000100e+02 1.846065000000000055e+03
1.489999999999999936e-01 1.601025000000000087e-01 2.302530000000000143e+01 1.405674999999999955e+02 1.845644999999999982e+03
1.499999999999999944e-01 1.600489999999999968e-01 2.225185000000000102e+01 1.392959999999999923e+02 1.845220000000000027e+03
1.509999999999999953e-01 1.599949999999999983e-01 2.148639999999999972e+01 1.380264999999999986e+02 1.844789999999999964e+03
1.519999999999999962e-01 1.599409999999999998e-01 2.073499999999999943e+01 1.367729999999999961e+02 1.844355000000000018e+03
1.529999999999999971e-01 1.598870000000000013e-01 2.000365000000000038e+01 1.355484999999999900e+02 1.843924999999999955e+03
1.539999999999999980e-01 1.598340000000000038e-01 1.929840000000000089e+01 1.343659999999999854e+02 1.843494999999999891e+03
1.549999999999999989e-01 1.597824999999999940e-01 1.862469999999999715e+01 1.332390000000000043e+02 1.843085000000000036e+03
1.559999999999999998e-01 1.597324999999999995e-01 1.798764999999999858e+01 1.321765000000000043e+02 1.842684999999999945e+03
1.570000000000000007e-01 1.596850000000000214e-01 1.739164999999999850e+01 1.311875000000000000e+02 1.842299999999999955e+03
1.580000000000000016e-01 1.596405000000000185e-01 1.684025000000000105e+01 1.302800000000000011e+02 1.841940000000000055e+03
1.590000000000000024e-01 1.595985000000000043e-01 1.633610000000000184e+01 1.294585000000000150e+02 1.841599999999999909e+03
