# t [s], A [cm^2], U [cm/s], P [cPa], c [cm/s]
1.000000000000000021e-03 5.133610000000000673e-01 4.332250000000002765e-03 1.012429999999999950e+02 1.555920000000000073e+03
2.000000000000000042e-03 5.133529999999999482e-01 -5.787900000000000336e-04 1.012199999999999989e+02 1.555909999999999854e+03
3.000000000000000062e-03 5.133959999999999635e-01 8.818755000000000344e-02 1.013105000000000047e+02 1.555934999999999945e+03
4.000000000000000083e-03 5.134379999999999500e-01 1.811757500000000243e-01 1.014244999999999948e+02 1.555965000000000146e+03
5.000000000000000104e-03 5.134225000000000039e-01 1.647246500000000002e-01 1.013889999999999958e+02 1.555960000000000036e+03
6.000000000000000125e-03 5.133720000000000505e-01 7.181099999999998595e-02 1.011980000000000075e+02 1.555920000000000073e+03
7.000000000000000146e-03 5.133250000000000313e-01 -2.124349999999997074e-02 1.009399999999999977e+02 1.555855000000000018e+03
8.000000000000000167e-03 5.132575000000000331e-01 -1.669164999999999677e-01 1.005695000000000050e+02 1.555769999999999982e+03
9.000000000000001055e-03 5.131430000000000158e-01 -4.247700000000000919e-01 9.999925000000000352e+01 1.555630000000000109e+03
1.000000000000000194e-02 5.129770000000000163e-01 -7.988249999999998963e-01 9.918744999999999834e+01 1.555440000000000055e+03
1.099999999999999936e-02 5.127504999999999979e-01 -1.300470000000000237e+00 9.808514999999999873e+01 1.555170000000000073e+03
1.200000000000000025e-02 5.124495000000000022e-01 -1.941259999999999764e+00 9.663875000000000171e+01 1.554804999999999836e+03
1.300000000000000114e-02 5.120865000000000000e-01 -2.674674999999999692e+00 9.486424999999999841e+01 1.554349999999999909e+03
1.400000000000000203e-02 5.117039999999999367e-01 -3.382214999999999527e+00 9.288649999999999807e+01 1.553835000000000036e+03
1.499999999999999944e-02 5.113535000000000164e-01 -3.922795999999999950e+00 9.089520000000000266e+01 1.553284999999999854e+03
1.600000000000000033e-02 5.110679999999999668e-01 -4.195257000000000680e+00 8.906475000000000364e+01 1.552759999999999991e+03
1.700000000000000122e-02 5.108515000000000139e-01 -4.170541500000000568e+00 8.749094999999999800e+01 1.552279999999999973e+03
1.800000000000000211e-02 5.106844999999999857e-01 -3.887514499999999984e+00 8.617400000000000659e+01 1.551845000000000027e+03
1.900000000000000300e-02 5.105340000000000433e-01 -3.426755499999999621e+00 8.503700000000000614e+01 1.551450000000000045e+03
2.000000000000000042e-02 5.103659999999999863e-01 -2.877538749999999812e+00 8.396519999999999584e+01 1.551070000000000164e+03
2.100000000000000130e-02 5.101610000000000866e-01 -2.308850000000000069e+00 8.284980000000000189e+01 1.550690000000000055e+03
2.200000000000000219e-02 5.099124999999999908e-01 -1.752364999999999950e+00 8.162290000000000134e+01 1.550280000000000200e+03
2.299999999999999961e-02 5.096304999999999863e-01 -1.201865000000000183e+00 8.027254999999999541e+01 1.549845000000000027e+03
2.400000000000000050e-02 5.093334999999999946e-01 -6.277300000000001212e-01 7.883400000000000318e+01 1.549384999999999991e+03
2.500000000000000139e-02 5.090384999999999494e-01 1.084999999999780584e-03 7.736480000000000246e+01 1.548914999999999964e+03
2.600000000000000228e-02 5.087544999999999984e-01 6.972999999999998089e-01 7.591460000000000719e+01 1.548445000000000164e+03
2.700000000000000316e-02 5.084809999999999608e-01 1.444390000000000063e+00 7.450215000000000032e+01 1.547985000000000127e+03
2.800000000000000058e-02 5.082050000000000178e-01 2.196359999999999868e+00 7.310540000000000305e+01 1.547525000000000091e+03
2.900000000000000147e-02 5.079074999999999562e-01 2.886415000000000397e+00 7.166470000000001050e+01 1.547054999999999836e+03
3.000000000000000236e-02 5.075665000000000315e-01 3.441380000000000106e+00 7.009754999999999825e+01 1.546555000000000064e+03
3.099999999999999978e-02 5.071655000000000468e-01 3.798055000000000625e+00 6.832049999999999557e+01 1.546009999999999991e+03
3.200000000000000067e-02 5.066960000000000353e-01 3.917989999999999640e+00 6.627275000000000205e+01 1.545405000000000200e+03
3.300000000000000155e-02 5.061609999999999721e-01 3.796400000000000219e+00 6.393545000000000300e+01 1.544730000000000018e+03
3.400000000000000244e-02 5.055769999999999431e-01 3.463955000000000339e+00 6.134174999999999756e+01 1.543990000000000009e+03
3.500000000000000333e-02 5.049694999999999601e-01 2.980164999999999953e+00 5.857505000000000450e+01 1.543204999999999927e+03
3.600000000000000422e-02 5.043684999999999974e-01 2.421579999999999622e+00 5.575650000000000261e+01 1.542394999999999982e+03
3.700000000000000511e-02 5.038055000000000172e-01 1.868590000000000195e+00 5.302705000000000268e+01 1.541599999999999909e+03
3.799999999999999906e-02 5.033069999999999489e-01 1.394000000000000572e+00 5.052790000000000248e+01 1.540855000000000018e+03
3.899999999999999994e-02 5.028939999999999522e-01 1.055604999999999460e+00 4.838434999999999775e+01 1.540200000000000045e+03
4.000000000000000083e-02 5.025804999999999856e-01 8.932850000000001067e-01 4.669514999999999816e+01 1.539650000000000091e+03
4.100000000000000172e-02 5.023739999999999872e-01 9.298250000000001236e-01 4.552755000000000507e+01 1.539240000000000009e+03
4.200000000000000261e-02 5.022759999999999447e-01 1.174325000000000063e+00 4.491765000000000185e+01 1.538974999999999909e+03
4.300000000000000350e-02 5.022865000000000801e-01 1.626885000000000137e+00 4.487565000000000026e+01 1.538865000000000009e+03
4.400000000000000439e-02 5.024009999999999865e-01 2.283180000000000209e+00 4.539189999999999969e+01 1.538920000000000073e+03
4.499999999999999833e-02 5.026144999999999641e-01 3.137869999999999937e+00 4.644469999999999743e+01 1.539125000000000000e+03
4.599999999999999922e-02 5.029230000000000089e-01 4.186267499999999586e+00 4.800600000000000023e+01 1.539485000000000127e+03
4.700000000000000011e-02 5.033225000000000060e-01 5.424119999999999386e+00 5.004464999999999719e+01 1.539990000000000009e+03
4.800000000000000100e-02 5.038065000000000460e-01 6.846088400000000185e+00 5.252779999999999916e+01 1.540625000000000000e+03
4.900000000000000189e-02 5.043689999999999563e-01 8.443464000000000524e+00 5.541995000000000005e+01 1.541389999999999873e+03
5.000000000000000278e-02 5.050034999999999386e-01 1.020227000000000039e+01 5.868110000000000070e+01 1.542269999999999982e+03
5.100000000000000366e-02 5.056994999999999685e-01 1.210212999999999894e+01 6.226525000000000176e+01 1.543250000000000000e+03
5.200000000000000455e-02 5.064465000000000217e-01 1.411628500000000130e+01 6.611984999999999957e+01 1.544320000000000164e+03
5.300000000000000544e-02 5.072309999999999874e-01 1.621271499999999932e+01 7.018619999999999948e+01 1.545464999999999918e+03
5.399999999999999939e-02 5.080409999999999648e-01 1.835627999999999815e+01 7.440174999999999272e+01 1.546670000000000073e+03
5.500000000000000028e-02 5.088639999999999830e-01 2.051085000000000136e+01 7.870275000000000887e+01 1.547909999999999854e+03
5.600000000000000117e-02 5.096870000000000012e-01 2.264185000000000159e+01 8.302804999999999325e+01 1.549170000000000073e+03
5.700000000000000205e-02 5.105014999999999414e-01 2.471855000000000047e+01 8.732165000000000532e+01 1.550440000000000055e+03
5.800000000000000294e-02 5.112974999999999604e-01 2.671524999999999750e+01 9.153679999999999950e+01 1.551710000000000036e+03
5.900000000000000383e-02 5.120715000000000128e-01 2.861214999999999975e+01 9.563704999999998790e+01 1.552944999999999936e+03
6.000000000000000472e-02 5.128185000000000660e-01 3.039574999999999960e+01 9.959725000000000250e+01 1.554164999999999964e+03
6.099999999999999867e-02 5.135380000000000500e-01 3.205830000000000268e+01 1.034034000000000049e+02 1.555340000000000146e+03
6.199999999999999956e-02 5.142299999999999649e-01 3.359725000000000250e+01 1.070520500000000084e+02 1.556480000000000018e+03
6.300000000000000044e-02 5.148970000000000491e-01 3.501420000000000243e+01 1.105484999999999900e+02 1.557585000000000036e+03
6.400000000000000133e-02 5.155404999999999571e-01 3.631404999999999461e+01 1.139055000000000035e+02 1.558644999999999982e+03
6.500000000000000222e-02 5.161655000000000548e-01 3.750410000000000110e+01 1.171400000000000006e+02 1.559680000000000064e+03
6.600000000000000311e-02 5.167755000000000543e-01 3.859309999999999974e+01 1.202729999999999961e+02 1.560679999999999836e+03
6.700000000000000400e-02 5.173740000000000006e-01 3.959035000000000082e+01 1.233250000000000028e+02 1.561659999999999854e+03
6.800000000000000488e-02 5.179639999999999800e-01 4.050515000000000043e+01 1.263149999999999977e+02 1.562615000000000009e+03
6.900000000000000577e-02 5.185490000000000377e-01 4.134579999999999700e+01 1.292615000000000123e+02 1.563559999999999945e+03
7.000000000000000666e-02 5.191304999999999392e-01 4.211925000000000097e+01 1.321760000000000161e+02 1.564490000000000009e+03
7.100000000000000755e-02 5.197085000000000177e-01 4.283039999999999736e+01 1.350670000000000073e+02 1.565414999999999964e+03
7.200000000000000844e-02 5.202835000000000099e-01 4.348174999999999812e+01 1.379345000000000141e+02 1.566329999999999927e+03
7.300000000000000933e-02 5.208534999999999693e-01 4.407349999999999568e+01 1.407749999999999773e+02 1.567235000000000127e+03
7.399999999999999634e-02 5.214155000000000317e-01 4.460320000000000107e+01 1.435759999999999934e+02 1.568130000000000109e+03
7.499999999999999722e-02 5.219659999999999300e-01 4.506660000000000110e+01 1.463220000000000027e+02 1.569009999999999991e+03
7.599999999999999811e-02 5.225009999999999932e-01 4.545779999999999887e+01 1.489920000000000186e+02 1.569865000000000009e+03
7.699999999999999900e-02 5.230144999999999378e-01 4.576984999999999815e+01 1.515620000000000118e+02 1.570695000000000164e+03
7.799999999999999989e-02 5.235029999999999406e-01 4.599569999999999936e+01 1.540074999999999932e+02 1.571485000000000127e+03
7.900000000000000078e-02 5.239610000000000101e-01 4.612860000000000582e+01 1.563045000000000186e+02 1.572239999999999782e+03
8.000000000000000167e-02 5.243839999999999613e-01 4.616270000000000095e+01 1.584304999999999950e+02 1.572940000000000055e+03
8.100000000000000255e-02 5.247699999999999587e-01 4.609354999999999336e+01 1.603644999999999925e+02 1.573595000000000027e+03
8.200000000000000344e-02 5.251149999999999984e-01 4.591839999999999833e+01 1.620925000000000011e+02 1.574184999999999945e+03
8.300000000000000433e-02 5.254174999999999818e-01 4.563639999999999475e+01 1.636030000000000086e+02 1.574704999999999927e+03
8.400000000000000522e-02 5.256769999999999499e-01 4.524899999999999523e+01 1.648899999999999864e+02 1.575170000000000073e+03
8.500000000000000611e-02 5.258939999999999726e-01 4.475939999999999941e+01 1.659534999999999911e+02 1.575554999999999836e+03
8.600000000000000699e-02 5.260679999999999801e-01 4.417315000000000680e+01 1.667969999999999970e+02 1.575884999999999991e+03
8.700000000000000788e-02 5.262029999999999763e-01 4.349730000000000274e+01 1.674300000000000068e+02 1.576139999999999873e+03
8.800000000000000877e-02 5.263005000000000599e-01 4.274105000000000132e+01 1.678659999999999854e+02 1.576340000000000146e+03
8.899999999999999578e-02 5.263634999999999842e-01 4.191469999999999629e+01 1.681220000000000141e+02 1.576480000000000018e+03
8.999999999999999667e-02 5.263970000000000038e-01 4.102989999999999782e+01 1.682179999999999893e+02 1.576565000000000055e+03
9.099999999999999756e-02 5.264045000000000529e-01 4.009890000000000043e+01 1.681754999999999995e+02 1.576605000000000018e+03
9.199999999999999845e-02 5.263899999999999135e-01 3.913464999999999350e+01 1.680185000000000173e+02 1.576605000000000018e+03
9.299999999999999933e-02 5.263590000000000213e-01 3.814994999999999692e+01 1.677704999999999984e+02 1.576565000000000055e+03
9.400000000000000022e-02 5.263160000000000061e-01 3.715740000000000265e+01 1.674555000000000007e+02 1.576505000000000109e+03
9.500000000000000111e-02 5.262640000000000651e-01 3.616870000000000118e+01 1.670960000000000036e+02 1.576425000000000182e+03
9.600000000000000200e-02 5.262080000000000091e-01 3.519429999999999836e+01 1.667125000000000057e+02 1.576335000000000036e+03
9.700000000000000289e-02 5.261504999999999654e-01 3.424334999999999951e+01 1.663234999999999957e+02 1.576230000000000018e+03
9.800000000000000377e-02 5.260940000000000616e-01 3.332285000000000252e+01 1.659435000000000002e+02 1.576125000000000000e+03
9.900000000000000466e-02 5.260409999999999808e-01 3.243784999999999741e+01 1.655835000000000150e+02 1.576019999999999982e+03
1.000000000000000056e-01 5.259915000000000562e-01 3.159134999999999849e+01 1.652524999999999977e+02 1.575914999999999964e+03
1.010000000000000064e-01 5.259475000000000122e-01 3.078394999999999726e+01 1.649515000000000100e+02 1.575824999999999818e+03
1.020000000000000073e-01 5.259074999999999722e-01 3.001440000000000197e+01 1.646820000000000164e+02 1.575735000000000127e+03
1.030000000000000082e-01 5.258709999999999773e-01 2.927929999999999922e+01 1.644389999999999930e+02 1.575654999999999973e+03
1.040000000000000091e-01 5.258359999999999701e-01 2.857379999999999853e+01 1.642160000000000082e+02 1.575579999999999927e+03
1.050000000000000100e-01 5.258005000000000040e-01 2.789180000000000348e+01 1.640029999999999859e+02 1.575505000000000109e+03
1.059999999999999970e-01 5.257629999999999804e-01 2.722619999999999862e+01 1.637889999999999873e+02 1.575429999999999836e+03
1.069999999999999979e-01 5.257209999999999939e-01 2.656929999999999836e+01 1.635610000000000070e+02 1.575355000000000018e+03
1.079999999999999988e-01 5.256715000000000693e-01 2.591355000000000075e+01 1.633059999999999832e+02 1.575275000000000091e+03
1.089999999999999997e-01 5.256129999999999969e-01 2.525144999999999840e+01 1.630124999999999886e+02 1.575179999999999836e+03
1.100000000000000006e-01 5.255425000000000235e-01 2.457620000000000005e+01 1.626684999999999945e+02 1.575075000000000045e+03
1.110000000000000014e-01 5.254594999999999683e-01 2.388190000000000168e+01 1.622635000000000218e+02 1.574954999999999927e+03
1.120000000000000023e-01 5.253624999999999545e-01 2.316394999999999982e+01 1.617920000000000016e+02 1.574815000000000055e+03
1.130000000000000032e-01 5.252510000000000234e-01 2.241910000000000025e+01 1.612470000000000141e+02 1.574655000000000200e+03
1.140000000000000041e-01 5.251244999999999941e-01 2.164569999999999794e+01 1.606279999999999859e+02 1.574480000000000018e+03
1.150000000000000050e-01 5.249835000000000473e-01 2.084375000000000000e+01 1.599350000000000023e+02 1.574275000000000091e+03
1.160000000000000059e-01 5.248295000000000599e-01 2.001500000000000057e+01 1.591719999999999970e+02 1.574054999999999836e+03
1.170000000000000068e-01 5.246634999999999494e-01 1.916274999999999906e+01 1.583470000000000084e+02 1.573815000000000055e+03
1.180000000000000077e-01 5.244889999999999830e-01 1.829200000000000159e+01 1.574679999999999893e+02 1.573559999999999945e+03
1.190000000000000085e-01 5.243069999999999675e-01 1.740890000000000271e+01 1.565480000000000018e+02 1.573284999999999854e+03
1.200000000000000094e-01 5.241199999999999193e-01 1.652069999999999794e+01 1.555999999999999943e+02 1.573005000000000109e+03
1.209999999999999964e-01 5.239329999999999821e-01 1.563555000000000028e+01 1.546399999999999864e+02 1.572724999999999909e+03
1.219999999999999973e-01 5.237479999999999913e-01 1.476210999999999984e+01 1.536834999999999809e+02 1.572434999999999945e+03
1.229999999999999982e-01 5.235674999999999635e-01 1.390905000000000058e+01 1.527470000000000141e+02 1.572150000000000091e+03
1.239999999999999991e-01 5.233955000000000135e-01 1.308491500000000052e+01 1.518450000000000273e+02 1.571875000000000000e+03
1.250000000000000000e-01 5.232345000000000468e-01 1.229777499999999968e+01 1.509925000000000068e+02 1.571610000000000127e+03
1.260000000000000009e-01 5.230859999999999399e-01 1.155473500000000087e+01 1.502019999999999982e+02 1.571360000000000127e+03
1.270000000000000018e-01 5.229519999999999724e-01 1.086185500000000026e+01 1.494839999999999804e+02 1.571130000000000109e+03
1.280000000000000027e-01 5.228344999999999798e-01 1.022372999999999976e+01 1.488464999999999918e+02 1.570920000000000073e+03
1.290000000000000036e-01 5.227340000000000320e-01 9.643539999999999779e+00 1.482944999999999993e+02 1.570735000000000127e+03
1.300000000000000044e-01 5.226499999999999480e-01 9.122930000000000206e+00 1.478294999999999959e+02 1.570570000000000164e+03
1.310000000000000053e-01 5.225830000000000197e-01 8.661749999999999616e+00 1.474515000000000100e+02 1.570434999999999945e+03
1.320000000000000062e-01 5.225309999999999677e-01 8.258535000000000181e+00 1.471555000000000177e+02 1.570320000000000164e+03
1.330000000000000071e-01 5.224934999999999441e-01 7.910300000000000331e+00 1.469360000000000070e+02 1.570230000000000018e+03
1.340000000000000080e-01 5.224680000000000435e-01 7.612880000000000535e+00 1.467845000000000084e+02 1.570159999999999854e+03
1.350000000000000089e-01 5.224530000000000562e-01 7.361150000000000304e+00 1.466904999999999859e+02 1.570110000000000127e+03
1.360000000000000098e-01 5.224455000000000071e-01 7.149274999999999380e+00 1.466424999999999841e+02 1.570074999999999818e+03
1.370000000000000107e-01 5.224435000000000606e-01 6.970959999999999823e+00 1.466279999999999859e+02 1.570049999999999955e+03
1.380000000000000115e-01 5.224444999999999784e-01 6.819760000000000488e+00 1.466365000000000123e+02 1.570035000000000082e+03
1.390000000000000124e-01 5.224469999999999947e-01 6.689320000000000377e+00 1.466544999999999845e+02 1.570029999999999973e+03
1.400000000000000133e-01 5.224484999999999824e-01 6.573570000000000135e+00 1.466730000000000018e+02 1.570025000000000091e+03
1.410000000000000142e-01 5.224474999999999536e-01 6.466944999999999943e+00 1.466809999999999832e+02 1.570014999999999873e+03
1.420000000000000151e-01 5.224424999999999208e-01 6.364535000000000053e+00 1.466709999999999923e+02 1.570005000000000109e+03
1.430000000000000160e-01 5.224320000000000075e-01 6.262134999999999785e+00 1.466380000000000052e+02 1.569990000000000009e+03
1.440000000000000169e-01 5.224165000000000614e-01 6.156369999999999898e+00 1.465755000000000052e+02 1.569970000000000027e+03
1.450000000000000178e-01 5.223944999999999839e-01 6.044654999999999667e+00 1.464819999999999993e+02 1.569934999999999945e+03
1.459999999999999909e-01 5.223664999999999559e-01 5.925235000000000696e+00 1.463555000000000064e+02 1.569900000000000091e+03
1.469999999999999918e-01 5.223320000000000185e-01 5.797094999999999665e+00 1.461974999999999909e+02 1.569855000000000018e+03
1.479999999999999927e-01 5.222930000000000073e-01 5.659914999999999807e+00 1.460085000000000264e+02 1.569800000000000182e+03
1.489999999999999936e-01 5.222480000000000455e-01 5.514000000000000234e+00 1.457914999999999850e+02 1.569740000000000009e+03
1.499999999999999944e-01 5.221989999999999688e-01 5.360154999999999781e+00 1.455504999999999995e+02 1.569670000000000073e+03
1.509999999999999953e-01 5.221464999999999579e-01 5.199609999999999843e+00 1.452889999999999873e+02 1.569595000000000027e+03
1.519999999999999962e-01 5.220915000000000417e-01 5.033915000000000362e+00 1.450115000000000123e+02 1.569514999999999873e+03
1.529999999999999971e-01 5.220344999999999569e-01 4.864830000000000432e+00 1.447224999999999966e+02 1.569430000000000064e+03
1.539999999999999980e-01 5.219764999999999544e-01 4.694250000000000256e+00 1.444259999999999877e+02 1.569340000000000146e+03
1.549999999999999989e-01 5.219184999999999519e-01 4.524090000000000167e+00 1.441260000000000048e+02 1.569250000000000000e+03
1.559999999999999998e-01 5.218610000000000193e-01 4.356230000000000047e+00 1.438274999999999864e+02 1.569159999999999854e+03
1.570000000000000007e-01 5.218045000000000044e-01 4.192425000000000068e+00 1.435320000000000107e+02 1.569069999999999936e+03
1.580000000000000016e-01 5.217490000000000183e-01 4.034275000000000055e+00 1.432434999999999832e+02 1.568985000000000127e+03
1.590000000000000024e-01 5.216960000000000486e-01 3.883160000000000167e+00 1.429629999999999939e+02 1.568894999999999982e+03
