# t [s], A [cm^2], U [cm/s], P [cPa], c [cm/s]
1.000000000000000021e-03 2.029269999999999963e-01 4.158046499999999979e-01 1.011319000000000017e+02 2.054719999999999800e+03
2.000000000000000042e-03 2.028504999999999892e-01 2.221037499999999998e+00 9.725000000000000000e+01 2.054164999999999964e+03
3.000000000000000062e-03 2.026609999999999800e-01 4.427861499999999673e+00 9.186695000000000277e+01 2.052849999999999909e+03
4.000000000000000083e-03 2.024139999999999828e-01 6.909205500000000555e+00 8.623339999999998895e+01 2.051170000000000073e+03
5.000000000000000104e-03 2.021600000000000064e-01 9.548144999999999882e+00 8.143080000000000496e+01 2.049449999999999818e+03
6.000000000000000125e-03 2.019239999999999924e-01 1.206874499999999983e+01 7.760630000000000450e+01 2.047875000000000000e+03
7.000000000000000146e-03 2.017065000000000108e-01 1.420742000000000083e+01 7.430455000000000609e+01 2.046454999999999927e+03
8.000000000000000167e-03 2.015124999999999833e-01 1.593880000000000052e+01 7.135314999999999941e+01 2.045210000000000036e+03
9.000000000000001055e-03 2.013490000000000002e-01 1.734104999999999919e+01 6.890954999999999586e+01 2.044179999999999836e+03
1.000000000000000194e-02 2.012165000000000203e-01 1.844904999999999973e+01 6.700854999999999961e+01 2.043349999999999909e+03
1.099999999999999936e-02 2.011129999999999862e-01 1.929564999999999841e+01 6.559290000000000020e+01 2.042714999999999918e+03
1.200000000000000025e-02 2.010365000000000069e-01 1.991685000000000016e+01 6.460734999999999673e+01 2.042255000000000109e+03
1.300000000000000114e-02 2.009805000000000064e-01 2.031895000000000095e+01 6.391634999999999422e+01 2.041924999999999955e+03
1.400000000000000203e-02 2.009380000000000055e-01 2.052714999999999890e+01 6.337489999999999668e+01 2.041680000000000064e+03
1.499999999999999944e-02 2.009094999999999909e-01 2.066704999999999970e+01 6.308450000000000557e+01 2.041524999999999864e+03
1.600000000000000033e-02 2.009064999999999879e-01 2.094969999999999999e+01 6.347150000000000603e+01 2.041529999999999973e+03
1.700000000000000122e-02 2.009449999999999847e-01 2.154935000000000045e+01 6.501425000000000409e+01 2.041775000000000091e+03
1.800000000000000211e-02 2.010325000000000029e-01 2.248094999999999999e+01 6.784210000000000207e+01 2.042329999999999927e+03
1.900000000000000300e-02 2.011605000000000198e-01 2.356990000000000052e+01 7.152969999999999118e+01 2.043139999999999873e+03
2.000000000000000042e-02 2.013044999999999973e-01 2.452495000000000047e+01 7.521384999999999366e+01 2.044059999999999945e+03
2.100000000000000130e-02 2.014319999999999999e-01 2.506305000000000049e+01 7.793885000000000218e+01 2.044889999999999873e+03
2.200000000000000219e-02 2.015149999999999997e-01 2.502305000000000135e+01 7.903940000000000055e+01 2.045454999999999927e+03
2.299999999999999961e-02 2.015394999999999825e-01 2.442034999999999911e+01 7.838550000000000750e+01 2.045639999999999873e+03
2.400000000000000050e-02 2.015089999999999937e-01 2.342585000000000051e+01 7.639414999999999623e+01 2.045480000000000018e+03
2.500000000000000139e-02 2.014420000000000099e-01 2.228425000000000011e+01 7.381895000000000095e+01 2.045079999999999927e+03
2.600000000000000228e-02 2.013630000000000142e-01 2.121495000000000175e+01 7.143129999999999313e+01 2.044579999999999927e+03
2.700000000000000316e-02 2.012935000000000141e-01 2.033974999999999866e+01 6.974174999999999613e+01 2.044129999999999882e+03
2.800000000000000058e-02 2.012440000000000062e-01 1.966024999999999778e+01 6.886700000000000443e+01 2.043805000000000064e+03
2.900000000000000147e-02 2.012154999999999916e-01 1.908474999999999966e+01 6.856674999999999898e+01 2.043610000000000127e+03
3.000000000000000236e-02 2.011965000000000003e-01 1.848349999999999937e+01 6.840285000000000082e+01 2.043485000000000127e+03
3.099999999999999978e-02 2.011745000000000061e-01 1.775070000000000192e+01 6.794480000000000075e+01 2.043349999999999909e+03
3.200000000000000067e-02 2.011384999999999978e-01 1.685064999999999813e+01 6.694740000000000180e+01 2.043125000000000000e+03
3.300000000000000155e-02 2.010859999999999870e-01 1.583770000000000167e+01 6.544899999999999807e+01 2.042800000000000182e+03
3.400000000000000244e-02 2.010224999999999929e-01 1.484280000000000044e+01 6.376300000000000523e+01 2.042400000000000091e+03
3.500000000000000333e-02 2.009615000000000151e-01 1.403204999999999991e+01 6.237064999999999770e+01 2.042009999999999991e+03
3.600000000000000422e-02 2.009210000000000163e-01 1.355365000000000109e+01 6.175554999999999950e+01 2.041734999999999900e+03
3.700000000000000511e-02 2.009139999999999815e-01 1.349030000000000129e+01 6.224014999999999986e+01 2.041670000000000073e+03
3.799999999999999906e-02 2.009485000000000021e-01 1.383354999999999890e+01 6.387890000000000157e+01 2.041865000000000009e+03
3.899999999999999994e-02 2.010220000000000062e-01 1.448450000000000060e+01 6.643610000000001037e+01 2.042309999999999945e+03
4.000000000000000083e-02 2.011229999999999962e-01 1.527775000000000105e+01 6.944554999999999723e+01 2.042940000000000055e+03
4.100000000000000172e-02 2.012339999999999962e-01 1.601794999999999902e+01 7.232239999999998759e+01 2.043640000000000100e+03
4.200000000000000261e-02 2.013324999999999976e-01 1.651825000000000188e+01 7.449074999999999136e+01 2.044274999999999864e+03
4.300000000000000350e-02 2.014009999999999967e-01 1.663085000000000235e+01 7.549344999999999573e+01 2.044719999999999800e+03
4.400000000000000439e-02 2.014225000000000043e-01 1.626650000000000063e+01 7.506139999999999191e+01 2.044880000000000109e+03
4.499999999999999833e-02 2.013894999999999991e-01 1.539900000000000091e+01 7.313560000000001082e+01 2.044690000000000055e+03
4.599999999999999922e-02 2.013004999999999933e-01 1.405874999999999986e+01 6.984539999999999793e+01 2.044144999999999982e+03
4.700000000000000011e-02 2.011609999999999787e-01 1.231779000000000046e+01 6.545574999999999477e+01 2.043275000000000091e+03
4.800000000000000100e-02 2.009805000000000064e-01 1.027310999999999908e+01 6.030304999999999893e+01 2.042140000000000100e+03
4.900000000000000189e-02 2.007704999999999906e-01 8.030504999999999782e+00 5.473499999999999943e+01 2.040809999999999945e+03
5.000000000000000278e-02 2.005434999999999857e-01 5.693770999999999916e+00 4.906810000000000116e+01 2.039365000000000009e+03
5.100000000000000366e-02 2.003110000000000168e-01 3.359070000000000444e+00 4.356669999999999732e+01 2.037884999999999991e+03
5.200000000000000455e-02 2.000835000000000252e-01 1.113629999999999898e+00 3.844124999999999659e+01 2.036429999999999836e+03
5.300000000000000544e-02 1.998695000000000055e-01 -9.625499999999997947e-01 3.385954999999999870e+01 2.035059999999999945e+03
5.399999999999999939e-02 1.996764999999999790e-01 -2.794694999999999929e+00 2.996189999999999998e+01 2.033815000000000055e+03
5.500000000000000028e-02 1.995109999999999939e-01 -4.312235000000000262e+00 2.687399999999999878e+01 2.032744999999999891e+03
5.600000000000000117e-02 1.993794999999999873e-01 -5.449880000000000280e+00 2.471260000000000190e+01 2.031889999999999873e+03
5.700000000000000205e-02 1.992869999999999919e-01 -6.150745000000000573e+00 2.358245000000000147e+01 2.031275000000000091e+03
5.800000000000000294e-02 1.992375000000000118e-01 -6.371005000000000251e+00 2.356664999999999921e+01 2.030934999999999945e+03
5.900000000000000383e-02 1.992360000000000242e-01 -6.084789999999999921e+00 2.471280000000000143e+01 2.030889999999999873e+03
6.000000000000000472e-02 1.992829999999999879e-01 -5.288154999999999717e+00 2.702089999999999748e+01 2.031154999999999973e+03
6.099999999999999867e-02 1.993779999999999997e-01 -4.000919999999999810e+00 3.043534999999999968e+01 2.031730000000000018e+03
6.199999999999999956e-02 1.995190000000000019e-01 -2.265940000000000065e+00 3.484449999999999648e+01 2.032599999999999909e+03
6.300000000000000044e-02 1.997015000000000040e-01 -1.458750000000001990e-01 4.008814999999999884e+01 2.033735000000000127e+03
6.400000000000000133e-02 1.999190000000000134e-01 2.281925000000000203e+00 4.597090000000000032e+01 2.035090000000000146e+03
6.500000000000000222e-02 2.001624999999999932e-01 4.931303999999999910e+00 5.227915000000000134e+01 2.036630000000000109e+03
6.600000000000000311e-02 2.004250000000000198e-01 7.713245000000000573e+00 5.879770000000000607e+01 2.038295000000000073e+03
6.700000000000000400e-02 2.006970000000000143e-01 1.054061500000000073e+01 6.532415000000000305e+01 2.040029999999999973e+03
6.800000000000000488e-02 2.009715000000000251e-01 1.333224500000000035e+01 7.167879999999999541e+01 2.041789999999999964e+03
6.900000000000000577e-02 2.012404999999999888e-01 1.601570000000000249e+01 7.771125000000000682e+01 2.043519999999999982e+03
7.000000000000000666e-02 2.014980000000000104e-01 1.852949999999999875e+01 8.330320000000000391e+01 2.045184999999999945e+03
7.100000000000000755e-02 2.017384999999999873e-01 2.082464999999999833e+01 8.837045000000000528e+01 2.046744999999999891e+03
7.200000000000000844e-02 2.019595000000000140e-01 2.286635000000000062e+01 9.286349999999998772e+01 2.048184999999999945e+03
7.300000000000000933e-02 2.021574999999999900e-01 2.463514999999999944e+01 9.676875000000001137e+01 2.049485000000000127e+03
7.399999999999999634e-02 2.023334999999999995e-01 2.612734999999999985e+01 1.001073499999999967e+02 2.050639999999999873e+03
7.499999999999999722e-02 2.024870000000000003e-01 2.735490000000000066e+01 1.029345500000000015e+02 2.051654999999999745e+03
7.599999999999999811e-02 2.026199999999999946e-01 2.834445000000000192e+01 1.053354999999999961e+02 2.052539999999999964e+03
7.699999999999999900e-02 2.027364999999999862e-01 2.913414999999999822e+01 1.074184999999999945e+02 2.053320000000000164e+03
7.799999999999999989e-02 2.028409999999999935e-01 2.977110000000000056e+01 1.093085000000000093e+02 2.054014999999999873e+03
7.900000000000000078e-02 2.029374999999999929e-01 3.030699999999999861e+01 1.111330000000000098e+02 2.054659999999999854e+03
8.000000000000000167e-02 2.030315000000000036e-01 3.079364999999999952e+01 1.130165000000000077e+02 2.055284999999999854e+03
8.100000000000000255e-02 2.031280000000000030e-01 3.127935000000000088e+01 1.150665000000000049e+02 2.055925000000000182e+03
8.200000000000000344e-02 2.032304999999999806e-01 3.180469999999999686e+01 1.173659999999999997e+02 2.056599999999999909e+03
8.300000000000000433e-02 2.033429999999999960e-01 3.239985000000000070e+01 1.199689999999999941e+02 2.057335000000000036e+03
8.400000000000000522e-02 2.034670000000000090e-01 3.308299999999999841e+01 1.228944999999999936e+02 2.058140000000000327e+03
8.500000000000000611e-02 2.036025000000000196e-01 3.385930000000000462e+01 1.261295000000000073e+02 2.059024999999999636e+03
8.600000000000000699e-02 2.037495000000000001e-01 3.472135000000000105e+01 1.296290000000000191e+02 2.059980000000000018e+03
8.700000000000000788e-02 2.039060000000000039e-01 3.565024999999999977e+01 1.333210000000000264e+02 2.061000000000000000e+03
8.800000000000000877e-02 2.040695000000000148e-01 3.661794999999999334e+01 1.371140000000000043e+02 2.062065000000000055e+03
8.899999999999999578e-02 2.042360000000000009e-01 3.758924999999999983e+01 1.409035000000000082e+02 2.063150000000000091e+03
8.999999999999999667e-02 2.044015000000000137e-01 3.852505000000000024e+01 1.445794999999999959e+02 2.064230000000000018e+03
9.099999999999999756e-02 2.045615000000000072e-01 3.938469999999999516e+01 1.480360000000000014e+02 2.065279999999999745e+03
9.199999999999999845e-02 2.047114999999999907e-01 4.012905000000000655e+01 1.511734999999999900e+02 2.066270000000000437e+03
9.299999999999999933e-02 2.048479999999999746e-01 4.072270000000000323e+01 1.539075000000000273e+02 2.067170000000000073e+03
9.400000000000000022e-02 2.049684999999999979e-01 4.113595000000000113e+01 1.561709999999999923e+02 2.067970000000000255e+03
9.500000000000000111e-02 2.050690000000000013e-01 4.134650000000000603e+01 1.579194999999999993e+02 2.068640000000000327e+03
9.600000000000000200e-02 2.051469999999999960e-01 4.134040000000000248e+01 1.591285000000000025e+02 2.069164999999999964e+03
9.700000000000000289e-02 2.052034999999999831e-01 4.111254999999999882e+01 1.597980000000000018e+02 2.069550000000000182e+03
9.800000000000000377e-02 2.052380000000000038e-01 4.066689999999999827e+01 1.599474999999999909e+02 2.069795000000000073e+03
9.900000000000000466e-02 2.052499999999999880e-01 4.001555000000000462e+01 1.596159999999999854e+02 2.069885000000000218e+03
1.000000000000000056e-01 2.052424999999999944e-01 3.917825000000000557e+01 1.588584999999999923e+02 2.069855000000000018e+03
1.010000000000000064e-01 2.052170000000000105e-01 3.818090000000000117e+01 1.577415000000000020e+02 2.069699999999999818e+03
1.020000000000000073e-01 2.051759999999999973e-01 3.705389999999999873e+01 1.563405000000000200e+02 2.069445000000000164e+03
1.030000000000000082e-01 2.051224999999999854e-01 3.583089999999999975e+01 1.547339999999999804e+02 2.069110000000000127e+03
1.040000000000000091e-01 2.050599999999999923e-01 3.454680000000000462e+01 1.530020000000000095e+02 2.068704999999999927e+03
1.050000000000000100e-01 2.049920000000000075e-01 3.323635000000000161e+01 1.512214999999999918e+02 2.068265000000000327e+03
1.059999999999999970e-01 2.049209999999999920e-01 3.193274999999999864e+01 1.494630000000000223e+02 2.067800000000000182e+03
1.069999999999999979e-01 2.048499999999999766e-01 3.066624999999999801e+01 1.477880000000000109e+02 2.067340000000000146e+03
1.079999999999999988e-01 2.047815000000000052e-01 2.946294999999999931e+01 1.462490000000000236e+02 2.066894999999999982e+03
1.089999999999999997e-01 2.047180000000000111e-01 2.834425000000000239e+01 1.448865000000000123e+02 2.066475000000000364e+03
1.100000000000000006e-01 2.046609999999999818e-01 2.732574999999999932e+01 1.437270000000000039e+02 2.066095000000000255e+03
1.110000000000000014e-01 2.046120000000000161e-01 2.641694999999999993e+01 1.427830000000000155e+02 2.065769999999999982e+03
1.120000000000000023e-01 2.045710000000000028e-01 2.562134999999999962e+01 1.420550000000000068e+02 2.065489999999999782e+03
1.130000000000000032e-01 2.045385000000000120e-01 2.493615000000000137e+01 1.415294999999999845e+02 2.065264999999999873e+03
1.140000000000000041e-01 2.045135000000000147e-01 2.435300000000000153e+01 1.411804999999999950e+02 2.065095000000000255e+03
1.150000000000000050e-01 2.044954999999999967e-01 2.385815000000000197e+01 1.409705000000000155e+02 2.064970000000000255e+03
1.160000000000000059e-01 2.044825000000000115e-01 2.343395000000000294e+01 1.408564999999999827e+02 2.064880000000000109e+03
1.170000000000000068e-01 2.044739999999999891e-01 2.305949999999999989e+01 1.407860000000000014e+02 2.064809999999999945e+03
1.180000000000000077e-01 2.044660000000000089e-01 2.271195000000000164e+01 1.407060000000000173e+02 2.064755000000000109e+03
1.190000000000000085e-01 2.044584999999999875e-01 2.236789999999999878e+01 1.405635000000000048e+02 2.064699999999999818e+03
1.200000000000000094e-01 2.044469999999999898e-01 2.200450000000000017e+01 1.403064999999999998e+02 2.064625000000000000e+03
1.209999999999999964e-01 2.044320000000000026e-01 2.160105000000000075e+01 1.398915000000000077e+02 2.064519999999999982e+03
1.219999999999999973e-01 2.044099999999999806e-01 2.113969999999999771e+01 1.392814999999999941e+02 2.064380000000000109e+03
1.229999999999999982e-01 2.043800000000000061e-01 2.060685000000000144e+01 1.384509999999999934e+02 2.064184999999999945e+03
1.239999999999999991e-01 2.043409999999999949e-01 1.999360000000000070e+01 1.373860000000000241e+02 2.063929999999999836e+03
1.250000000000000000e-01 2.042924999999999880e-01 1.929639999999999844e+01 1.360869999999999891e+02 2.063619999999999891e+03
1.260000000000000009e-01 2.042349999999999999e-01 1.851735000000000042e+01 1.345649999999999977e+02 2.063244999999999891e+03
1.270000000000000018e-01 2.041680000000000161e-01 1.766380000000000194e+01 1.328460000000000036e+02 2.062819999999999709e+03
1.280000000000000027e-01 2.040934999999999833e-01 1.674814999999999898e+01 1.309654999999999916e+02 2.062335000000000036e+03
1.290000000000000036e-01 2.040124999999999855e-01 1.578709999999999880e+01 1.289694999999999823e+02 2.061805000000000291e+03
1.300000000000000044e-01 2.039265000000000105e-01 1.480064999999999920e+01 1.269094999999999942e+02 2.061250000000000000e+03
1.310000000000000053e-01 2.038375000000000048e-01 1.381105000000000160e+01 1.248409999999999940e+02 2.060675000000000182e+03
1.320000000000000062e-01 2.037490000000000134e-01 1.284159999999999968e+01 1.228209999999999980e+02 2.060099999999999909e+03
1.330000000000000071e-01 2.036625000000000241e-01 1.191557500000000047e+01 1.209055000000000035e+02 2.059529999999999745e+03
1.340000000000000080e-01 2.035799999999999832e-01 1.105478499999999897e+01 1.191435000000000031e+02 2.058994999999999891e+03
1.350000000000000089e-01 2.035040000000000182e-01 1.027875500000000031e+01 1.175790000000000077e+02 2.058489999999999782e+03
1.360000000000000098e-01 2.034360000000000057e-01 9.603759999999999408e+00 1.162469999999999999e+02 2.058045000000000073e+03
1.370000000000000107e-01 2.033774999999999888e-01 9.042085000000000150e+00 1.151715000000000089e+02 2.057655000000000200e+03
1.380000000000000115e-01 2.033294999999999964e-01 8.601655000000000939e+00 1.143670000000000044e+02 2.057340000000000146e+03
1.390000000000000124e-01 2.032930000000000015e-01 8.285930000000000462e+00 1.138354999999999961e+02 2.057090000000000146e+03
1.400000000000000133e-01 2.032674999999999899e-01 8.093584999999999141e+00 1.135699999999999932e+02 2.056914999999999964e+03
1.410000000000000142e-01 2.032530000000000170e-01 8.019069999999999254e+00 1.135529999999999973e+02 2.056809999999999945e+03
1.420000000000000151e-01 2.032490000000000130e-01 8.052889999999999660e+00 1.137590000000000003e+02 2.056774999999999636e+03
1.430000000000000160e-01 2.032539999999999902e-01 8.182209999999999539e+00 1.141550000000000011e+02 2.056800000000000182e+03
1.440000000000000169e-01 2.032674999999999899e-01 8.391564999999999941e+00 1.147040000000000077e+02 2.056875000000000000e+03
1.450000000000000178e-01 2.032875000000000099e-01 8.663630000000001274e+00 1.153654999999999973e+02 2.057000000000000000e+03
1.459999999999999909e-01 2.033115000000000061e-01 8.980010000000000048e+00 1.160969999999999942e+02 2.057154999999999745e+03
1.469999999999999918e-01 2.033400000000000207e-01 9.322029999999999816e+00 1.168584999999999923e+02 2.057329999999999927e+03
1.479999999999999927e-01 2.033694999999999808e-01 9.671489999999998588e+00 1.176094999999999970e+02 2.057519999999999982e+03
1.489999999999999936e-01 2.033984999999999821e-01 1.001136999999999944e+01 1.183164999999999907e+02 2.057710000000000036e+03
1.499999999999999944e-01 2.034265000000000101e-01 1.032639999999999958e+01 1.189474999999999909e+02 2.057890000000000327e+03
1.509999999999999953e-01 2.034520000000000217e-01 1.060360000000000014e+01 1.194779999999999944e+02 2.058055000000000291e+03
1.519999999999999962e-01 2.034735000000000016e-01 1.083249999999999957e+01 1.198900000000000006e+02 2.058194999999999709e+03
1.529999999999999971e-01 2.034900000000000042e-01 1.100584999999999880e+01 1.201709999999999923e+02 2.058304999999999836e+03
1.539999999999999980e-01 2.035015000000000018e-01 1.111904999999999966e+01 1.203169999999999931e+02 2.058385000000000218e+03
1.549999999999999989e-01 2.035084999999999811e-01 1.117084999999999972e+01 1.203284999999999911e+02 2.058434999999999945e+03
1.559999999999999998e-01 2.035089999999999955e-01 1.116274999999999906e+01 1.202139999999999986e+02 2.058440000000000055e+03
1.570000000000000007e-01 2.035049999999999915e-01 1.109905000000000008e+01 1.199869999999999948e+02 2.058420000000000073e+03
1.580000000000000016e-01 2.034960000000000102e-01 1.098620000000000019e+01 1.196650000000000063e+02 2.058369999999999891e+03
1.590000000000000024e-01 2.034835000000000116e-01 1.083256000000000085e+01 1.192690000000000055e+02 2.058289999999999964e+03
