# t [s], A [cm^2], U [cm/s], P [cPa], c [cm/s]
1.000000000000000021e-03 7.192689999999999362e-01 5.749699999999996480e-03 9.539265000000000327e+01 1.694865000000000009e+03
2.000000000000000042e-03 7.192560000000000064e-01 -4.840334999999999430e-03 9.536404999999999177e+01 1.694859999999999900e+03
3.000000000000000062e-03 7.192979999999999929e-01 6.088924999999999893e-02 9.543780000000000996e+01 1.694880000000000109e+03
4.000000000000000083e-03 7.193545000000000078e-01 1.583651500000000101e-01 9.556684999999998809e+01 1.694904999999999973e+03
5.000000000000000104e-03 7.193479999999999874e-01 1.678614999999999968e-01 9.556659999999999400e+01 1.694905000000000200e+03
6.000000000000000125e-03 7.192875000000000796e-01 9.048800000000001287e-02 9.540024999999999977e+01 1.694875000000000000e+03
7.000000000000000146e-03 7.192370000000000152e-01 2.433950000000001390e-02 9.518954999999999700e+01 1.694829999999999927e+03
8.000000000000000167e-03 7.191794999999999716e-01 -6.102449999999998154e-02 9.492019999999999413e+01 1.694779999999999973e+03
9.000000000000001055e-03 7.190754999999999786e-01 -2.360940000000000261e-01 9.449934999999999263e+01 1.694694999999999936e+03
1.000000000000000194e-02 7.189155000000000406e-01 -5.188749999999999751e-01 9.387715000000000032e+01 1.694574999999999818e+03
1.099999999999999936e-02 7.186859999999999360e-01 -9.289149999999999352e-01 9.299665000000000248e+01 1.694404999999999973e+03
1.200000000000000025e-02 7.183705000000000229e-01 -1.482769999999999921e+00 9.179730000000000700e+01 1.694170000000000073e+03
1.300000000000000114e-02 7.179870000000000418e-01 -2.136829999999999785e+00 9.029524999999999579e+01 1.693865000000000009e+03
1.400000000000000203e-02 7.175890000000000324e-01 -2.780115000000000336e+00 8.861404999999999177e+01 1.693519999999999982e+03
1.499999999999999944e-02 7.172330000000000094e-01 -3.288962999999999859e+00 8.692615000000000691e+01 1.693154999999999973e+03
1.600000000000000033e-02 7.169484999999999886e-01 -3.584584999999999688e+00 8.536965000000000714e+01 1.692805000000000064e+03
1.700000000000000122e-02 7.167299999999999782e-01 -3.653736499999999943e+00 8.400005000000000166e+01 1.692485000000000127e+03
1.800000000000000211e-02 7.165485000000000326e-01 -3.535235000000000127e+00 8.279165000000000418e+01 1.692180000000000064e+03
1.900000000000000300e-02 7.163654999999999884e-01 -3.291474500000000081e+00 8.166774999999999807e+01 1.691894999999999982e+03
2.000000000000000042e-02 7.161534999999999984e-01 -2.980817999999999746e+00 8.054085000000000605e+01 1.691599999999999909e+03
2.100000000000000130e-02 7.158994999999999109e-01 -2.639041499999999818e+00 7.934594999999998777e+01 1.691295000000000073e+03
2.200000000000000219e-02 7.156069999999999931e-01 -2.272942499999999644e+00 7.805975000000000819e+01 1.690970000000000027e+03
2.299999999999999961e-02 7.152920000000000389e-01 -1.865944999999999743e+00 7.670144999999999413e+01 1.690634999999999991e+03
2.400000000000000050e-02 7.149760000000000559e-01 -1.392560000000000020e+00 7.531674999999999898e+01 1.690289999999999964e+03
2.500000000000000139e-02 7.146725000000000438e-01 -8.353500000000000369e-01 7.395430000000000348e+01 1.689945000000000164e+03
2.600000000000000228e-02 7.143859999999999655e-01 -1.978750000000000231e-01 7.264170000000000016e+01 1.689609999999999900e+03
2.700000000000000316e-02 7.141060000000000185e-01 4.904749999999999943e-01 7.137190000000001078e+01 1.689279999999999973e+03
2.800000000000000058e-02 7.138134999999999897e-01 1.178170000000000162e+00 7.010160000000000480e+01 1.688949999999999818e+03
2.900000000000000147e-02 7.134834999999999372e-01 1.801819999999999977e+00 6.876075000000000159e+01 1.688610000000000127e+03
3.000000000000000236e-02 7.130944999999999645e-01 2.299960000000000004e+00 6.727094999999999914e+01 1.688244999999999891e+03
3.099999999999999978e-02 7.126330000000000719e-01 2.626775000000000304e+00 6.556695000000000562e+01 1.687835000000000036e+03
3.200000000000000067e-02 7.120980000000000087e-01 2.762309999999999821e+00 6.361560000000000059e+01 1.687389999999999873e+03
3.300000000000000155e-02 7.115025000000000377e-01 2.716124999999999456e+00 6.142780000000000484e+01 1.686889999999999873e+03
3.400000000000000244e-02 7.108715000000001005e-01 2.523559999999999803e+00 5.905845000000000056e+01 1.686349999999999909e+03
3.500000000000000333e-02 7.102340000000000320e-01 2.236070000000000224e+00 5.659645000000000437e+01 1.685795000000000073e+03
3.600000000000000422e-02 7.096219999999999750e-01 1.909515000000000295e+00 5.414829999999999899e+01 1.685240000000000009e+03
3.700000000000000511e-02 7.090589999999999948e-01 1.594034999999999869e+00 5.182014999999999816e+01 1.684695000000000164e+03
3.799999999999999906e-02 7.085635000000000128e-01 1.327674999999999716e+00 4.970414999999999850e+01 1.684195000000000164e+03
3.899999999999999994e-02 7.081465000000000121e-01 1.134544999999999693e+00 4.787010000000000076e+01 1.683755000000000109e+03
4.000000000000000083e-02 7.078119999999999967e-01 1.026574999999999793e+00 4.636339999999999861e+01 1.683375000000000000e+03
4.100000000000000172e-02 7.075599999999999667e-01 1.007589999999999986e+00 4.520810000000000173e+01 1.683075000000000045e+03
4.200000000000000261e-02 7.073890000000000455e-01 1.078070000000000084e+00 4.441244999999999976e+01 1.682849999999999909e+03
4.300000000000000350e-02 7.072974999999999124e-01 1.239325500000000080e+00 4.397610000000000241e+01 1.682704999999999927e+03
4.400000000000000439e-02 7.072849999999999415e-01 1.496129999999999960e+00 4.389629999999999654e+01 1.682644999999999982e+03
4.499999999999999833e-02 7.073534999999999684e-01 1.857349999999999834e+00 4.417130000000000223e+01 1.682664999999999964e+03
4.599999999999999922e-02 7.075050000000000505e-01 2.334624499999999880e+00 4.480180000000000007e+01 1.682769999999999982e+03
4.700000000000000011e-02 7.077425000000000521e-01 2.939790999999999599e+00 4.578924999999999557e+01 1.682954999999999927e+03
4.800000000000000100e-02 7.080649999999999444e-01 3.681827600000000089e+00 4.713275000000000148e+01 1.683220000000000027e+03
4.900000000000000189e-02 7.084710000000000729e-01 4.564190700000000156e+00 4.882540000000000191e+01 1.683569999999999936e+03
5.000000000000000278e-02 7.089554999999999607e-01 5.583165499999999781e+00 5.085125000000000028e+01 1.683990000000000009e+03
5.100000000000000366e-02 7.095104999999999329e-01 6.727501999999999427e+00 5.318399999999999750e+01 1.684490000000000009e+03
5.200000000000000455e-02 7.101250000000000062e-01 7.979179999999999495e+00 5.578700000000000614e+01 1.685055000000000064e+03
5.300000000000000544e-02 7.107864999999999878e-01 9.315054999999999197e+00 5.861495000000000744e+01 1.685674999999999955e+03
5.399999999999999939e-02 7.114819999999999478e-01 1.070929000000000109e+01 6.161674999999999613e+01 1.686340000000000146e+03
5.500000000000000028e-02 7.121984999999999566e-01 1.213539499999999904e+01 6.473945000000000505e+01 1.687045000000000073e+03
5.600000000000000117e-02 7.129240000000000022e-01 1.356852500000000106e+01 6.793149999999999977e+01 1.687764999999999873e+03
5.700000000000000205e-02 7.136495000000000477e-01 1.498691499999999976e+01 7.114650000000000318e+01 1.688505000000000109e+03
5.800000000000000294e-02 7.143665000000000154e-01 1.637277999999999878e+01 7.434494999999999720e+01 1.689244999999999891e+03
5.900000000000000383e-02 7.150700000000000944e-01 1.771280000000000143e+01 7.749619999999998754e+01 1.689984999999999900e+03
6.000000000000000472e-02 7.157580000000000053e-01 1.899759999999999849e+01 8.057835000000000036e+01 1.690715000000000146e+03
6.099999999999999867e-02 7.164270000000000360e-01 2.022145000000000081e+01 8.357820000000000960e+01 1.691430000000000064e+03
6.199999999999999956e-02 7.170790000000000219e-01 2.138134999999999764e+01 8.648959999999999582e+01 1.692130000000000109e+03
6.300000000000000044e-02 7.177135000000000042e-01 2.247619999999999862e+01 8.931215000000000259e+01 1.692815000000000055e+03
6.400000000000000133e-02 7.183315000000000117e-01 2.350625000000000142e+01 9.204964999999999975e+01 1.693474999999999909e+03
6.500000000000000222e-02 7.189360000000000195e-01 2.447234999999999872e+01 9.470740000000000691e+01 1.694125000000000000e+03
6.600000000000000311e-02 7.195264999999999578e-01 2.537514999999999787e+01 9.729234999999999900e+01 1.694755000000000109e+03
6.700000000000000400e-02 7.201044999999999252e-01 2.621499999999999986e+01 9.980984999999999729e+01 1.695369999999999891e+03
6.800000000000000488e-02 7.206700000000000328e-01 2.699164999999999992e+01 1.022637000000000000e+02 1.695974999999999909e+03
6.900000000000000577e-02 7.212229999999999475e-01 2.770370000000000132e+01 1.046542499999999905e+02 1.696565000000000055e+03
7.000000000000000666e-02 7.217620000000000147e-01 2.834924999999999784e+01 1.069789999999999992e+02 1.697139999999999873e+03
7.100000000000000755e-02 7.222844999999999960e-01 2.892555000000000121e+01 1.092340000000000089e+02 1.697694999999999936e+03
7.200000000000000844e-02 7.227890000000000148e-01 2.942954999999999899e+01 1.114099999999999966e+02 1.698235000000000127e+03
7.300000000000000933e-02 7.232720000000000260e-01 2.985815000000000197e+01 1.134985000000000070e+02 1.698759999999999991e+03
7.399999999999999634e-02 7.237325000000000008e-01 3.020880000000000010e+01 1.154879999999999995e+02 1.699255000000000109e+03
7.499999999999999722e-02 7.241670000000000051e-01 3.047944999999999993e+01 1.173689999999999998e+02 1.699735000000000127e+03
7.599999999999999811e-02 7.245740000000000514e-01 3.066929999999999978e+01 1.191320000000000050e+02 1.700180000000000064e+03
7.699999999999999900e-02 7.249514999999999709e-01 3.077819999999999823e+01 1.207680000000000007e+02 1.700595000000000027e+03
7.799999999999999989e-02 7.252990000000000270e-01 3.080715000000000003e+01 1.222719999999999914e+02 1.700985000000000127e+03
7.900000000000000078e-02 7.256154999999999688e-01 3.075789999999999935e+01 1.236384999999999934e+02 1.701344999999999800e+03
8.000000000000000167e-02 7.258999999999999897e-01 3.063289999999999935e+01 1.248649999999999949e+02 1.701664999999999964e+03
8.100000000000000255e-02 7.261535000000000073e-01 3.043495000000000061e+01 1.259505000000000052e+02 1.701960000000000036e+03
8.200000000000000344e-02 7.263749999999999929e-01 3.016729999999999734e+01 1.268944999999999936e+02 1.702220000000000027e+03
8.300000000000000433e-02 7.265649999999999054e-01 2.983364999999999867e+01 1.276989999999999981e+02 1.702440000000000055e+03
8.400000000000000522e-02 7.267244999999999955e-01 2.943775000000000119e+01 1.283665000000000020e+02 1.702630000000000109e+03
8.500000000000000611e-02 7.268540000000000001e-01 2.898420000000000130e+01 1.289010000000000105e+02 1.702784999999999854e+03
8.600000000000000699e-02 7.269544999999999479e-01 2.847789999999999822e+01 1.293069999999999879e+02 1.702914999999999964e+03
8.700000000000000788e-02 7.270274999999999377e-01 2.792470000000000141e+01 1.295925000000000011e+02 1.703014999999999873e+03
8.800000000000000877e-02 7.270760000000000556e-01 2.733109999999999928e+01 1.297649999999999864e+02 1.703079999999999927e+03
8.899999999999999578e-02 7.271015000000000672e-01 2.670420000000000016e+01 1.298344999999999914e+02 1.703119999999999891e+03
8.999999999999999667e-02 7.271069999999999478e-01 2.605174999999999841e+01 1.298139999999999930e+02 1.703139999999999873e+03
9.099999999999999756e-02 7.270954999999998947e-01 2.538175000000000026e+01 1.297145000000000152e+02 1.703134999999999991e+03
9.199999999999999845e-02 7.270704999999999529e-01 2.470224999999999937e+01 1.295504999999999995e+02 1.703115000000000009e+03
9.299999999999999933e-02 7.270345000000000280e-01 2.402074999999999960e+01 1.293344999999999914e+02 1.703079999999999927e+03
9.400000000000000022e-02 7.269909999999999428e-01 2.334420000000000073e+01 1.290805000000000007e+02 1.703029999999999973e+03
9.500000000000000111e-02 7.269410000000000593e-01 2.267844999999999800e+01 1.287989999999999782e+02 1.702974999999999909e+03
9.600000000000000200e-02 7.268875000000000197e-01 2.202819999999999823e+01 1.284995000000000118e+02 1.702909999999999854e+03
9.700000000000000289e-02 7.268314999999999637e-01 2.139679999999999893e+01 1.281920000000000073e+02 1.702840000000000146e+03
9.800000000000000377e-02 7.267744999999999900e-01 2.078604999999999947e+01 1.278795000000000073e+02 1.702775000000000091e+03
9.900000000000000466e-02 7.267160000000000286e-01 2.019650000000000034e+01 1.275669999999999931e+02 1.702700000000000045e+03
1.000000000000000056e-01 7.266565000000000385e-01 1.962754999999999939e+01 1.272545000000000073e+02 1.702625000000000000e+03
1.010000000000000064e-01 7.265945000000000320e-01 1.907744999999999891e+01 1.269410000000000025e+02 1.702550000000000182e+03
1.020000000000000073e-01 7.265304999999999680e-01 1.854359999999999786e+01 1.266244999999999976e+02 1.702474999999999909e+03
1.030000000000000082e-01 7.264619999999999411e-01 1.802285000000000181e+01 1.263010000000000019e+02 1.702390000000000100e+03
1.040000000000000091e-01 7.263895000000000213e-01 1.751164999999999949e+01 1.259655000000000058e+02 1.702309999999999945e+03
1.050000000000000100e-01 7.263105000000000810e-01 1.700619999999999976e+01 1.256129999999999995e+02 1.702224999999999909e+03
1.059999999999999970e-01 7.262250000000000094e-01 1.650280000000000058e+01 1.252379999999999995e+02 1.702134999999999991e+03
1.069999999999999979e-01 7.261314999999999298e-01 1.599784999999999968e+01 1.248370000000000033e+02 1.702039999999999964e+03
1.079999999999999988e-01 7.260290000000000354e-01 1.548809999999999931e+01 1.244054999999999893e+02 1.701934999999999945e+03
1.089999999999999997e-01 7.259180000000000632e-01 1.497094999999999843e+01 1.239399999999999977e+02 1.701825000000000045e+03
1.100000000000000006e-01 7.257974999999999843e-01 1.444430000000000014e+01 1.234385000000000048e+02 1.701710000000000036e+03
1.110000000000000014e-01 7.256679999999999797e-01 1.390684999999999860e+01 1.229020000000000010e+02 1.701585000000000036e+03
1.120000000000000023e-01 7.255300000000000082e-01 1.335817000000000121e+01 1.223305000000000007e+02 1.701450000000000045e+03
1.130000000000000032e-01 7.253845000000000987e-01 1.279873999999999867e+01 1.217275000000000063e+02 1.701309999999999945e+03
1.140000000000000041e-01 7.252334999999999754e-01 1.222996000000000016e+01 1.210965000000000060e+02 1.701159999999999854e+03
1.150000000000000050e-01 7.250775000000000414e-01 1.165413999999999994e+01 1.204445000000000050e+02 1.701009999999999991e+03
1.160000000000000059e-01 7.249190000000000911e-01 1.107442499999999974e+01 1.197789999999999964e+02 1.700855000000000018e+03
1.170000000000000068e-01 7.247605000000000297e-01 1.049455500000000008e+01 1.191080000000000041e+02 1.700694999999999936e+03
1.180000000000000077e-01 7.246040000000000258e-01 9.918905000000000527e+00 1.184410000000000025e+02 1.700539999999999964e+03
1.190000000000000085e-01 7.244519999999999849e-01 9.352249999999999730e+00 1.177890000000000015e+02 1.700380000000000109e+03
1.200000000000000094e-01 7.243074999999999930e-01 8.799500000000000099e+00 1.171610000000000014e+02 1.700230000000000018e+03
1.209999999999999964e-01 7.241714999999999680e-01 8.265565000000000495e+00 1.165674999999999955e+02 1.700090000000000146e+03
1.219999999999999973e-01 7.240470000000001072e-01 7.755084999999999340e+00 1.160169999999999959e+02 1.699954999999999927e+03
1.229999999999999982e-01 7.239359999999999129e-01 7.272269999999999790e+00 1.155184999999999889e+02 1.699829999999999927e+03
1.239999999999999991e-01 7.238394999999999690e-01 6.820674999999999599e+00 1.150790000000000077e+02 1.699719999999999800e+03
1.250000000000000000e-01 7.237580000000000124e-01 6.403124999999999289e+00 1.147034999999999911e+02 1.699625000000000000e+03
1.260000000000000009e-01 7.236930000000000307e-01 6.021560000000000024e+00 1.143944999999999936e+02 1.699539999999999964e+03
1.270000000000000018e-01 7.236439999999999539e-01 5.676980000000000359e+00 1.141539999999999964e+02 1.699469999999999800e+03
1.280000000000000027e-01 7.236104999999999343e-01 5.369460000000000122e+00 1.139819999999999993e+02 1.699420000000000073e+03
1.290000000000000036e-01 7.235914999999999431e-01 5.098169999999999646e+00 1.138739999999999952e+02 1.699384999999999991e+03
1.300000000000000044e-01 7.235860000000000625e-01 4.861475000000000435e+00 1.138280000000000030e+02 1.699360000000000127e+03
1.310000000000000053e-01 7.235935000000000006e-01 4.657080000000000553e+00 1.138365000000000009e+02 1.699349999999999909e+03
1.320000000000000062e-01 7.236104999999999343e-01 4.482120000000000104e+00 1.138935000000000031e+02 1.699355000000000018e+03
1.330000000000000071e-01 7.236359999999999459e-01 4.333370000000000388e+00 1.139915000000000020e+02 1.699365000000000009e+03
1.340000000000000080e-01 7.236690000000000067e-01 4.207380000000000564e+00 1.141225000000000023e+02 1.699389999999999873e+03
1.350000000000000089e-01 7.237059999999999604e-01 4.100614999999999455e+00 1.142775000000000034e+02 1.699414999999999964e+03
1.360000000000000098e-01 7.237460000000000004e-01 4.009579999999999700e+00 1.144495000000000005e+02 1.699450000000000045e+03
1.370000000000000107e-01 7.237884999999999458e-01 3.930914999999999715e+00 1.146310000000000002e+02 1.699490000000000009e+03
1.380000000000000115e-01 7.238299999999999734e-01 3.861489999999999867e+00 1.148160000000000025e+02 1.699525000000000091e+03
1.390000000000000124e-01 7.238709999999999312e-01 3.798449999999999882e+00 1.149975000000000023e+02 1.699565000000000055e+03
1.400000000000000133e-01 7.239094999999999835e-01 3.739239999999999675e+00 1.151715000000000089e+02 1.699610000000000127e+03
1.410000000000000142e-01 7.239455000000000195e-01 3.681655000000000122e+00 1.153329999999999984e+02 1.699644999999999982e+03
1.420000000000000151e-01 7.239774999999999405e-01 3.623825000000000074e+00 1.154799999999999898e+02 1.699680000000000064e+03
1.430000000000000160e-01 7.240060000000000384e-01 3.564259999999999984e+00 1.156094999999999970e+02 1.699704999999999927e+03
1.440000000000000169e-01 7.240294999999999925e-01 3.501800000000000246e+00 1.157194999999999965e+02 1.699735000000000127e+03
1.450000000000000178e-01 7.240489999999999426e-01 3.435665000000000191e+00 1.158105000000000047e+02 1.699755000000000109e+03
1.459999999999999909e-01 7.240644999999999998e-01 3.365369999999999973e+00 1.158810000000000002e+02 1.699779999999999973e+03
1.469999999999999918e-01 7.240754999999999830e-01 3.290775000000000006e+00 1.159325000000000045e+02 1.699789999999999964e+03
1.479999999999999927e-01 7.240824999999999623e-01 3.211994999999999933e+00 1.159659999999999940e+02 1.699799999999999955e+03
1.489999999999999936e-01 7.240860000000000074e-01 3.129375000000000018e+00 1.159819999999999993e+02 1.699805000000000064e+03
1.499999999999999944e-01 7.240865000000000773e-01 3.043440000000000367e+00 1.159824999999999875e+02 1.699809999999999945e+03
1.509999999999999953e-01 7.240839999999999499e-01 2.954825000000000035e+00 1.159695000000000107e+02 1.699809999999999945e+03
1.519999999999999962e-01 7.240789999999999171e-01 2.864230000000000054e+00 1.159445000000000050e+02 1.699805000000000064e+03
1.529999999999999971e-01 7.240720000000000489e-01 2.772349999999999870e+00 1.159085000000000036e+02 1.699800000000000182e+03
1.539999999999999980e-01 7.240634999999999710e-01 2.679829999999999934e+00 1.158640000000000043e+02 1.699795000000000073e+03
1.549999999999999989e-01 7.240524999999999878e-01 2.587215000000000042e+00 1.158104999999999905e+02 1.699780000000000200e+03
1.559999999999999998e-01 7.240404999999999758e-01 2.494940000000000158e+00 1.157500000000000000e+02 1.699765000000000100e+03
1.570000000000000007e-01 7.240269999999999762e-01 2.403280000000000083e+00 1.156825000000000045e+02 1.699755000000000109e+03
1.580000000000000016e-01 7.240115000000000300e-01 2.312405000000000044e+00 1.156080000000000041e+02 1.699740000000000009e+03
1.590000000000000024e-01 7.239944999999999853e-01 2.222329999999999917e+00 1.155264999999999986e+02 1.699719999999999800e+03
