# t [s], A [cm^2], U [cm/s], P [cPa], c [cm/s]
1.000000000000000021e-03 1.910475000000000090e-01 1.308090000000000086e-01 9.186475000000000080e+01 2.133664999999999964e+03
2.000000000000000042e-03 1.910160000000000191e-01 1.298715499999999912e+00 8.932155000000000200e+01 2.133425000000000182e+03
3.000000000000000062e-03 1.909140000000000004e-01 2.817335000000000367e+00 8.569024999999999181e+01 2.132684999999999945e+03
4.000000000000000083e-03 1.907650000000000179e-01 4.552616500000000066e+00 8.143545000000000300e+01 2.131614999999999782e+03
5.000000000000000104e-03 1.905955000000000010e-01 6.454195000000000348e+00 7.729785000000001105e+01 2.130420000000000073e+03
6.000000000000000125e-03 1.904270000000000129e-01 8.418335000000000790e+00 7.371885000000000332e+01 2.129244999999999891e+03
7.000000000000000146e-03 1.902679999999999927e-01 1.027046499999999973e+01 7.068270000000001119e+01 2.128139999999999873e+03
8.000000000000000167e-03 1.901180000000000092e-01 1.187828500000000176e+01 6.797039999999999793e+01 2.127130000000000109e+03
9.000000000000001055e-03 1.899830000000000130e-01 1.322836500000000015e+01 6.553145000000000664e+01 2.126234999999999673e+03
1.000000000000000194e-02 1.898650000000000060e-01 1.435379999999999967e+01 6.344969999999999288e+01 2.125460000000000036e+03
1.099999999999999936e-02 1.897665000000000046e-01 1.527565000000000062e+01 6.176640000000000441e+01 2.124819999999999709e+03
1.200000000000000025e-02 1.896869999999999945e-01 1.600529999999999831e+01 6.045660000000000167e+01 2.124309999999999945e+03
1.300000000000000114e-02 1.896235000000000004e-01 1.654545000000000243e+01 5.944714999999999350e+01 2.123909999999999854e+03
1.400000000000000203e-02 1.895720000000000183e-01 1.689235000000000042e+01 5.862175000000000580e+01 2.123590000000000146e+03
1.499999999999999944e-02 1.895299999999999763e-01 1.706465000000000032e+01 5.788899999999999579e+01 2.123335000000000036e+03
1.600000000000000033e-02 1.894959999999999978e-01 1.713425000000000153e+01 5.729355000000000331e+01 2.123135000000000218e+03
1.700000000000000122e-02 1.894750000000000045e-01 1.721869999999999834e+01 5.704864999999999498e+01 2.123015000000000327e+03
1.800000000000000211e-02 1.894755000000000189e-01 1.743260000000000076e+01 5.743455000000000155e+01 2.123029999999999745e+03
1.900000000000000300e-02 1.895025000000000182e-01 1.783314999999999984e+01 5.863015000000000043e+01 2.123204999999999927e+03
2.000000000000000042e-02 1.895560000000000023e-01 1.839484999999999815e+01 6.059189999999999543e+01 2.123560000000000400e+03
2.100000000000000130e-02 1.896304999999999796e-01 1.902315000000000111e+01 6.304449999999999932e+01 2.124045000000000073e+03
2.200000000000000219e-02 1.897145000000000081e-01 1.959404999999999930e+01 6.557429999999999382e+01 2.124609999999999673e+03
2.299999999999999961e-02 1.897965000000000069e-01 1.999929999999999808e+01 6.776845000000000141e+01 2.125154999999999745e+03
2.400000000000000050e-02 1.898650000000000060e-01 2.017839999999999989e+01 6.933859999999999957e+01 2.125630000000000109e+03
2.500000000000000139e-02 1.899139999999999995e-01 2.012890000000000157e+01 7.018559999999999377e+01 2.125975000000000364e+03
2.600000000000000228e-02 1.899430000000000007e-01 1.989600000000000080e+01 7.039369999999999550e+01 2.126184999999999945e+03
2.700000000000000316e-02 1.899554999999999993e-01 1.954764999999999731e+01 7.016644999999999754e+01 2.126284999999999854e+03
2.800000000000000058e-02 1.899575000000000014e-01 1.914685000000000059e+01 6.973550000000000182e+01 2.126309999999999945e+03
2.900000000000000147e-02 1.899529999999999830e-01 1.873065000000000069e+01 6.927715000000000600e+01 2.126279999999999745e+03
3.000000000000000236e-02 1.899454999999999893e-01 1.830245000000000033e+01 6.886375000000001023e+01 2.126235000000000127e+03
3.099999999999999978e-02 1.899359999999999937e-01 1.783765000000000001e+01 6.846059999999999945e+01 2.126175000000000182e+03
3.200000000000000067e-02 1.899224999999999941e-01 1.729909999999999926e+01 6.796189999999999998e+01 2.126085000000000036e+03
3.300000000000000155e-02 1.899020000000000152e-01 1.665640000000000143e+01 6.724934999999999263e+01 2.125954999999999927e+03
3.400000000000000244e-02 1.898719999999999852e-01 1.590244999999999820e+01 6.625239999999999441e+01 2.125764999999999873e+03
3.500000000000000333e-02 1.898325000000000151e-01 1.506234999999999857e+01 6.499020000000000152e+01 2.125510000000000218e+03
3.600000000000000422e-02 1.897864999999999969e-01 1.419224999999999959e+01 6.358315000000000339e+01 2.125215000000000146e+03
3.700000000000000511e-02 1.897389999999999910e-01 1.336765000000000114e+01 6.223054999999999382e+01 2.124899999999999636e+03
3.799999999999999906e-02 1.896970000000000045e-01 1.266600000000000037e+01 6.116169999999999618e+01 2.124619999999999891e+03
3.899999999999999994e-02 1.896670000000000023e-01 1.214839999999999876e+01 6.057694999999999652e+01 2.124409999999999854e+03
4.000000000000000083e-02 1.896545000000000036e-01 1.184564999999999912e+01 6.059680000000000177e+01 2.124315000000000055e+03
4.100000000000000172e-02 1.896609999999999963e-01 1.175284999999999869e+01 6.123279999999999745e+01 2.124345000000000255e+03
4.200000000000000261e-02 1.896864999999999801e-01 1.183190000000000097e+01 6.238629999999999853e+01 2.124500000000000000e+03
4.300000000000000350e-02 1.897265000000000201e-01 1.202120000000000033e+01 6.387279999999999802e+01 2.124755000000000109e+03
4.400000000000000439e-02 1.897749999999999992e-01 1.224845000000000006e+01 6.546125000000000682e+01 2.125065000000000055e+03
4.499999999999999833e-02 1.898250000000000215e-01 1.244350000000000023e+01 6.691884999999999195e+01 2.125394999999999982e+03
4.599999999999999922e-02 1.898694999999999966e-01 1.254879999999999995e+01 6.804890000000000327e+01 2.125690000000000055e+03
4.700000000000000011e-02 1.899025000000000019e-01 1.252464999999999939e+01 6.871604999999999563e+01 2.125914999999999964e+03
4.800000000000000100e-02 1.899204999999999921e-01 1.235115000000000052e+01 6.885550000000000637e+01 2.126039999999999964e+03
4.900000000000000189e-02 1.899220000000000075e-01 1.202519999999999989e+01 6.846715000000000373e+01 2.126059999999999945e+03
5.000000000000000278e-02 1.899059999999999915e-01 1.155610000000000070e+01 6.759985000000000355e+01 2.125965000000000146e+03
5.100000000000000366e-02 1.898750000000000160e-01 1.095972000000000079e+01 6.633050000000000068e+01 2.125765000000000327e+03
5.200000000000000455e-02 1.898299999999999987e-01 1.025431999999999988e+01 6.474475000000001046e+01 2.125470000000000255e+03
5.300000000000000544e-02 1.897734999999999839e-01 9.457245000000000346e+00 6.292199999999999704e+01 2.125099999999999909e+03
5.399999999999999939e-02 1.897079999999999878e-01 8.584229999999999805e+00 6.092844999999999800e+01 2.124670000000000073e+03
5.500000000000000028e-02 1.896360000000000268e-01 7.649795000000001011e+00 5.881654999999999944e+01 2.124199999999999818e+03
5.600000000000000117e-02 1.895585000000000186e-01 6.669229999999999769e+00 5.662930000000000064e+01 2.123685000000000400e+03
5.700000000000000205e-02 1.894775000000000209e-01 5.660415000000000418e+00 5.440834999999999866e+01 2.123149999999999636e+03
5.800000000000000294e-02 1.893949999999999800e-01 4.645484999999999864e+00 5.220059999999999434e+01 2.122600000000000364e+03
5.900000000000000383e-02 1.893130000000000090e-01 3.651559999999999917e+00 5.006364999999999554e+01 2.122054999999999836e+03
6.000000000000000472e-02 1.892340000000000133e-01 2.710460000000000313e+00 4.806759999999999877e+01 2.121529999999999745e+03
6.099999999999999867e-02 1.891599999999999948e-01 1.857295000000000140e+00 4.629344999999999999e+01 2.121029999999999745e+03
6.199999999999999956e-02 1.890950000000000131e-01 1.128389000000000086e+00 4.482784999999999798e+01 2.120595000000000255e+03
6.300000000000000044e-02 1.890419999999999878e-01 5.586660000000001070e-01 4.375660000000000593e+01 2.120235000000000127e+03
6.400000000000000133e-02 1.890040000000000053e-01 1.790815000000000046e-01 4.315664999999999907e+01 2.119970000000000255e+03
6.500000000000000222e-02 1.889824999999999977e-01 1.435500000000000664e-02 4.308939999999999770e+01 2.119815000000000055e+03
6.600000000000000311e-02 1.889804999999999957e-01 8.129249999999998977e-02 4.359544999999999959e+01 2.119784999999999854e+03
6.700000000000000400e-02 1.890000000000000013e-01 3.878405000000000324e-01 4.469105000000000416e+01 2.119894999999999982e+03
6.800000000000000488e-02 1.890405000000000002e-01 9.328734999999999111e-01 4.636780000000000257e+01 2.120149999999999636e+03
6.900000000000000577e-02 1.891014999999999779e-01 1.706658500000000078e+00 4.859394999999999953e+01 2.120539999999999964e+03
7.000000000000000666e-02 1.891829999999999901e-01 2.691864999999999952e+00 5.131759999999999877e+01 2.121065000000000055e+03
7.100000000000000755e-02 1.892825000000000202e-01 3.865019999999999900e+00 5.447160000000000224e+01 2.121704999999999927e+03
7.200000000000000844e-02 1.893974999999999964e-01 5.198220000000000063e+00 5.797854999999999848e+01 2.122454999999999927e+03
7.300000000000000933e-02 1.895255000000000134e-01 6.660955000000000403e+00 6.175690000000000168e+01 2.123304999999999836e+03
7.399999999999999634e-02 1.896639999999999993e-01 8.222010000000000929e+00 6.572615000000000407e+01 2.124215000000000146e+03
7.499999999999999722e-02 1.898104999999999931e-01 9.851119999999999877e+00 6.981184999999999263e+01 2.125184999999999945e+03
7.599999999999999811e-02 1.899620000000000197e-01 1.152037499999999959e+01 7.394955000000000211e+01 2.126190000000000055e+03
7.699999999999999900e-02 1.901164999999999938e-01 1.320541000000000054e+01 7.808750000000000568e+01 2.127220000000000255e+03
7.799999999999999989e-02 1.902719999999999967e-01 1.488569999999999993e+01 8.218770000000000664e+01 2.128260000000000218e+03
7.900000000000000078e-02 1.904270000000000129e-01 1.654504999999999981e+01 8.622560000000000002e+01 2.129300000000000182e+03
8.000000000000000167e-02 1.905810000000000004e-01 1.817115000000000080e+01 9.018850000000000477e+01 2.130335000000000036e+03
8.100000000000000255e-02 1.907340000000000146e-01 1.975475000000000136e+01 9.407290000000000418e+01 2.131360000000000127e+03
8.200000000000000344e-02 1.908835000000000115e-01 2.128944999999999865e+01 9.788065000000000282e+01 2.132375000000000000e+03
8.300000000000000433e-02 1.910319999999999796e-01 2.277009999999999934e+01 1.016171500000000094e+02 2.133375000000000000e+03
8.400000000000000522e-02 1.911780000000000146e-01 2.419284999999999997e+01 1.052872000000000128e+02 2.134364999999999782e+03
8.500000000000000611e-02 1.913219999999999921e-01 2.555405000000000015e+01 1.088930000000000007e+02 2.135340000000000146e+03
8.600000000000000699e-02 1.914635000000000087e-01 2.685014999999999930e+01 1.124334999999999951e+02 2.136305000000000291e+03
8.700000000000000788e-02 1.916029999999999955e-01 2.807755000000000223e+01 1.159039999999999964e+02 2.137250000000000000e+03
8.800000000000000877e-02 1.917400000000000215e-01 2.923259999999999792e+01 1.192959999999999923e+02 2.138179999999999836e+03
8.899999999999999578e-02 1.918739999999999890e-01 3.031165000000000020e+01 1.225995000000000061e+02 2.139095000000000255e+03
8.999999999999999667e-02 1.920044999999999946e-01 3.131159999999999854e+01 1.258029999999999973e+02 2.139984999999999673e+03
9.099999999999999756e-02 1.921315000000000106e-01 3.222929999999999495e+01 1.288935000000000173e+02 2.140845000000000255e+03
9.199999999999999845e-02 1.922540000000000082e-01 3.306219999999999715e+01 1.318594999999999970e+02 2.141685000000000400e+03
9.299999999999999933e-02 1.923719999999999875e-01 3.380790000000000362e+01 1.346895000000000095e+02 2.142494999999999891e+03
9.400000000000000022e-02 1.924845000000000028e-01 3.446430000000000149e+01 1.373714999999999975e+02 2.143264999999999873e+03
9.500000000000000111e-02 1.925914999999999988e-01 3.502924999999999756e+01 1.398954999999999984e+02 2.144000000000000000e+03
9.600000000000000200e-02 1.926930000000000032e-01 3.550069999999999482e+01 1.422495000000000118e+02 2.144695000000000164e+03
9.700000000000000289e-02 1.927875000000000005e-01 3.587630000000000052e+01 1.444234999999999900e+02 2.145350000000000364e+03
9.800000000000000377e-02 1.928754999999999775e-01 3.615399999999999636e+01 1.464054999999999893e+02 2.145949999999999818e+03
9.900000000000000466e-02 1.929560000000000164e-01 3.633180000000000121e+01 1.481845000000000141e+02 2.146505000000000109e+03
1.000000000000000056e-01 1.930280000000000051e-01 3.640805000000000291e+01 1.497510000000000048e+02 2.147010000000000218e+03
1.010000000000000064e-01 1.930925000000000002e-01 3.638200000000000500e+01 1.510964999999999918e+02 2.147460000000000036e+03
1.020000000000000073e-01 1.931485000000000007e-01 3.625400000000000489e+01 1.522160000000000082e+02 2.147845000000000255e+03
1.030000000000000082e-01 1.931960000000000066e-01 3.602564999999999884e+01 1.531080000000000041e+02 2.148175000000000182e+03
1.040000000000000091e-01 1.932345000000000035e-01 3.570035000000000025e+01 1.537755000000000223e+02 2.148444999999999709e+03
1.050000000000000100e-01 1.932645000000000057e-01 3.528294999999999959e+01 1.542255000000000109e+02 2.148659999999999854e+03
1.059999999999999970e-01 1.932860000000000134e-01 3.478005000000000280e+01 1.544714999999999918e+02 2.148820000000000164e+03
1.069999999999999979e-01 1.932999999999999996e-01 3.419979999999999620e+01 1.545294999999999845e+02 2.148920000000000073e+03
1.079999999999999988e-01 1.933070000000000066e-01 3.355145000000000266e+01 1.544200000000000159e+02 2.148974999999999909e+03
1.089999999999999997e-01 1.933070000000000066e-01 3.284519999999999840e+01 1.541639999999999873e+02 2.148985000000000127e+03
1.100000000000000006e-01 1.933015000000000150e-01 3.209179999999999922e+01 1.537869999999999777e+02 2.148954999999999927e+03
1.110000000000000014e-01 1.932919999999999916e-01 3.130225000000000080e+01 1.533120000000000118e+02 2.148889999999999873e+03
1.120000000000000023e-01 1.932774999999999910e-01 3.048710000000000164e+01 1.527629999999999768e+02 2.148800000000000182e+03
1.130000000000000032e-01 1.932599999999999874e-01 2.965664999999999907e+01 1.521610000000000014e+02 2.148684999999999945e+03
1.140000000000000041e-01 1.932404999999999817e-01 2.882005000000000194e+01 1.515254999999999939e+02 2.148554999999999836e+03
1.150000000000000050e-01 1.932190000000000019e-01 2.798564999999999969e+01 1.508735000000000070e+02 2.148405000000000200e+03
1.160000000000000059e-01 1.931964999999999932e-01 2.716035000000000110e+01 1.502175000000000011e+02 2.148255000000000109e+03
1.170000000000000068e-01 1.931734999999999980e-01 2.634975000000000023e+01 1.495670000000000073e+02 2.148099999999999909e+03
1.180000000000000077e-01 1.931505000000000027e-01 2.555815000000000126e+01 1.489284999999999854e+02 2.147940000000000055e+03
1.190000000000000085e-01 1.931269999999999931e-01 2.478804999999999836e+01 1.483045000000000186e+02 2.147784999999999854e+03
1.200000000000000094e-01 1.931034999999999835e-01 2.404064999999999941e+01 1.476945000000000050e+02 2.147625000000000000e+03
1.209999999999999964e-01 1.930810000000000026e-01 2.331579999999999941e+01 1.470949999999999989e+02 2.147470000000000255e+03
1.219999999999999973e-01 1.930580000000000074e-01 2.261200000000000188e+01 1.464984999999999786e+02 2.147310000000000400e+03
1.229999999999999982e-01 1.930350000000000121e-01 2.192669999999999675e+01 1.458985000000000127e+02 2.147150000000000091e+03
1.239999999999999991e-01 1.930115000000000025e-01 2.125645000000000095e+01 1.452830000000000155e+02 2.146985000000000127e+03
1.250000000000000000e-01 1.929870000000000196e-01 2.059710000000000107e+01 1.446419999999999959e+02 2.146819999999999709e+03
1.260000000000000009e-01 1.929619999999999946e-01 1.994425000000000026e+01 1.439639999999999986e+02 2.146644999999999982e+03
1.270000000000000018e-01 1.929350000000000231e-01 1.929330000000000211e+01 1.432375000000000114e+02 2.146465000000000146e+03
1.280000000000000027e-01 1.929060000000000219e-01 1.863994999999999891e+01 1.424524999999999864e+02 2.146264999999999873e+03
1.290000000000000036e-01 1.928750000000000187e-01 1.798019999999999996e+01 1.416009999999999991e+02 2.146050000000000182e+03
1.300000000000000044e-01 1.928414999999999990e-01 1.731085000000000207e+01 1.406759999999999877e+02 2.145824999999999818e+03
1.310000000000000053e-01 1.928050000000000042e-01 1.662975000000000136e+01 1.396740000000000066e+02 2.145579999999999927e+03
1.320000000000000062e-01 1.927659999999999929e-01 1.593570000000000064e+01 1.385944999999999823e+02 2.145309999999999945e+03
1.330000000000000071e-01 1.927240000000000064e-01 1.522889999999999944e+01 1.374414999999999907e+02 2.145025000000000091e+03
1.340000000000000080e-01 1.926795000000000035e-01 1.451085000000000136e+01 1.362199999999999989e+02 2.144724999999999909e+03
1.350000000000000089e-01 1.926319999999999977e-01 1.378434999999999988e+01 1.349395000000000095e+02 2.144404999999999745e+03
1.360000000000000098e-01 1.925830000000000042e-01 1.305344999999999978e+01 1.336144999999999925e+02 2.144069999999999709e+03
1.370000000000000107e-01 1.925319999999999809e-01 1.232315000000000005e+01 1.322584999999999980e+02 2.143725000000000364e+03
1.380000000000000115e-01 1.924799999999999844e-01 1.159954499999999911e+01 1.308899999999999864e+02 2.143375000000000000e+03
1.390000000000000124e-01 1.924275000000000013e-01 1.088897000000000048e+01 1.295260000000000105e+02 2.143014999999999873e+03
1.400000000000000133e-01 1.923754999999999771e-01 1.019821499999999936e+01 1.281860000000000070e+02 2.142659999999999854e+03
1.410000000000000142e-01 1.923239999999999950e-01 9.533970000000000056e+00 1.268864999999999839e+02 2.142309999999999945e+03
1.420000000000000151e-01 1.922740000000000005e-01 8.902509999999999479e+00 1.256460000000000008e+02 2.141974999999999909e+03
1.430000000000000160e-01 1.922265000000000224e-01 8.309450000000000003e+00 1.244770000000000039e+02 2.141649999999999636e+03
1.440000000000000169e-01 1.921809999999999907e-01 7.759629999999999583e+00 1.233919999999999959e+02 2.141340000000000146e+03
1.450000000000000178e-01 1.921384999999999899e-01 7.256755000000000067e+00 1.223995000000000033e+02 2.141045000000000073e+03
1.459999999999999909e-01 1.920995000000000064e-01 6.803490000000000038e+00 1.215049999999999955e+02 2.140779999999999745e+03
1.469999999999999918e-01 1.920640000000000125e-01 6.401304999999999801e+00 1.207115000000000009e+02 2.140534999999999854e+03
1.479999999999999927e-01 1.920324999999999949e-01 6.050554999999999239e+00 1.200184999999999889e+02 2.140319999999999709e+03
1.489999999999999936e-01 1.920045000000000224e-01 5.750490000000000101e+00 1.194230000000000018e+02 2.140119999999999891e+03
1.499999999999999944e-01 1.919799999999999840e-01 5.499414999999999942e+00 1.189205000000000041e+02 2.139949999999999818e+03
1.509999999999999953e-01 1.919585000000000041e-01 5.294745000000000701e+00 1.185030000000000001e+02 2.139800000000000182e+03
1.519999999999999962e-01 1.919405000000000139e-01 5.133189999999999920e+00 1.181634999999999991e+02 2.139675000000000182e+03
1.529999999999999971e-01 1.919255000000000266e-01 5.010869999999999713e+00 1.178919999999999959e+02 2.139569999999999709e+03
1.539999999999999980e-01 1.919135000000000146e-01 4.923479999999999634e+00 1.176785000000000139e+02 2.139485000000000127e+03
1.549999999999999989e-01 1.919035000000000046e-01 4.866419999999999746e+00 1.175134999999999934e+02 2.139409999999999854e+03
1.559999999999999998e-01 1.918944999999999956e-01 4.834939999999999571e+00 1.173864999999999981e+02 2.139350000000000364e+03
1.570000000000000007e-01 1.918885000000000174e-01 4.824270000000000280e+00 1.172874999999999943e+02 2.139305000000000291e+03
1.580000000000000016e-01 1.918819999999999970e-01 4.829769999999999897e+00 1.172075000000000102e+02 2.139260000000000218e+03
1.590000000000000024e-01 1.918774999999999786e-01 4.847020000000000550e+00 1.171384999999999934e+02 2.139224999999999909e+03
