# t [s], A [cm^2], U [cm/s], P [cPa], c [cm/s]
1.000000000000000021e-03 6.597325000000000550e-01 5.114049999999994989e-03 9.255700000000000216e+01 1.657440000000000055e+03
2.000000000000000042e-03 6.597214999999999607e-01 -3.584444999999999906e-03 9.252864999999999895e+01 1.657429999999999836e+03
3.000000000000000062e-03 6.597699999999999676e-01 8.078860000000000208e-02 9.261979999999999791e+01 1.657454999999999927e+03
4.000000000000000083e-03 6.598209999999999908e-01 1.791090499999999919e-01 9.274455000000000382e+01 1.657485000000000127e+03
5.000000000000000104e-03 6.598019999999999996e-01 1.684289499999999939e-01 9.271065000000000111e+01 1.657480000000000018e+03
6.000000000000000125e-03 6.597389999999999644e-01 7.834699999999997222e-02 9.251304999999999268e+01 1.657434999999999945e+03
7.000000000000000146e-03 6.596859999999999946e-01 -2.093000000000011518e-03 9.226484999999999559e+01 1.657375000000000000e+03
8.000000000000000167e-03 6.596115000000000173e-01 -1.304020000000000179e-01 9.191589999999999350e+01 1.657289999999999964e+03
9.000000000000001055e-03 6.594820000000000126e-01 -3.694399999999999906e-01 9.137309999999999377e+01 1.657164999999999964e+03
1.000000000000000194e-02 6.592934999999999768e-01 -7.281199999999999894e-01 9.059145000000000891e+01 1.656974999999999909e+03
1.099999999999999936e-02 6.590279999999999472e-01 -1.228120000000000100e+00 8.950800000000000978e+01 1.656715000000000146e+03
1.200000000000000025e-02 6.586720000000000352e-01 -1.880159999999999831e+00 8.806624999999999659e+01 1.656365000000000009e+03
1.300000000000000114e-02 6.582535000000000469e-01 -2.619439999999999991e+00 8.630850000000000932e+01 1.655920000000000073e+03
1.400000000000000203e-02 6.578325000000000422e-01 -3.309465000000000323e+00 8.439740000000000464e+01 1.655429999999999836e+03
1.499999999999999944e-02 6.574705000000000688e-01 -3.810637000000000274e+00 8.253969999999999629e+01 1.654934999999999945e+03
1.600000000000000033e-02 6.571944999999999037e-01 -4.043430999999999997e+00 8.089090000000000202e+01 1.654465000000000146e+03
1.700000000000000122e-02 6.569939999999999669e-01 -4.007421499999999526e+00 7.950459999999999638e+01 1.654045000000000073e+03
1.800000000000000211e-02 6.568334999999999591e-01 -3.762674999999999770e+00 7.833574999999999022e+01 1.653674999999999955e+03
1.900000000000000300e-02 6.566695000000000171e-01 -3.394645000000000135e+00 7.727870000000000061e+01 1.653320000000000164e+03
2.000000000000000042e-02 6.564689999999999692e-01 -2.979789999999999939e+00 7.621659999999999968e+01 1.652970000000000027e+03
2.100000000000000130e-02 6.562185000000000379e-01 -2.562096499999999999e+00 7.506475000000000364e+01 1.652599999999999909e+03
2.200000000000000219e-02 6.559249999999999803e-01 -2.145856499999999834e+00 7.379489999999999839e+01 1.652204999999999927e+03
2.299999999999999961e-02 6.556089999999999973e-01 -1.705235000000000056e+00 7.243410000000000082e+01 1.651784999999999854e+03
2.400000000000000050e-02 6.552945000000000020e-01 -1.204904999999999893e+00 7.104194999999999993e+01 1.651360000000000127e+03
2.500000000000000139e-02 6.549970000000000514e-01 -6.221849999999997660e-01 6.967844999999999800e+01 1.650934999999999945e+03
2.600000000000000228e-02 6.547199999999999687e-01 3.780499999999964444e-02 6.837569999999999482e+01 1.650519999999999982e+03
2.700000000000000316e-02 6.544505000000000461e-01 7.379249999999999421e-01 6.712170000000000414e+01 1.650119999999999891e+03
2.800000000000000058e-02 6.541649999999999965e-01 1.415245000000000086e+00 6.586064999999999259e+01 1.649720000000000027e+03
2.900000000000000147e-02 6.538370000000000015e-01 1.994705000000000172e+00 6.450600000000000023e+01 1.649295000000000073e+03
3.000000000000000236e-02 6.534420000000000783e-01 2.406414999999999971e+00 6.296389999999999532e+01 1.648835000000000036e+03
3.099999999999999978e-02 6.529654999999999765e-01 2.602325000000000443e+00 6.115949999999999420e+01 1.648309999999999945e+03
3.200000000000000067e-02 6.524094999999999756e-01 2.567819999999999769e+00 5.906015000000000015e+01 1.647724999999999909e+03
3.300000000000000155e-02 6.517915000000000791e-01 2.324899999999999967e+00 5.668855000000000643e+01 1.647070000000000164e+03
3.400000000000000244e-02 6.511405000000000109e-01 1.926085000000000047e+00 5.412125000000000341e+01 1.646365000000000009e+03
3.500000000000000333e-02 6.504909999999999304e-01 1.441784999999999872e+00 5.147509999999999764e+01 1.645630000000000109e+03
3.600000000000000422e-02 6.498794999999999433e-01 9.459699999999995335e-01 4.888654999999999973e+01 1.644904999999999973e+03
3.700000000000000511e-02 6.493349999999999955e-01 5.040300000000002001e-01 4.649020000000000152e+01 1.644220000000000027e+03
3.799999999999999906e-02 6.488785000000000247e-01 1.655850000000000932e-01 4.440229999999999677e+01 1.643605000000000018e+03
3.899999999999999994e-02 6.485229999999999606e-01 -3.763499999999986301e-02 4.271049999999999613e+01 1.643090000000000146e+03
4.000000000000000083e-02 6.482745000000000868e-01 -8.983000000000007645e-02 4.147109999999999985e+01 1.642679999999999836e+03
4.100000000000000172e-02 6.481319999999999304e-01 1.344000000000011852e-02 4.071119999999999806e+01 1.642400000000000091e+03
4.200000000000000261e-02 6.480934999999999890e-01 2.706574999999999953e-01 4.043594999999999828e+01 1.642255000000000109e+03
4.300000000000000350e-02 6.481554999999999955e-01 6.792600000000000859e-01 4.063625000000000398e+01 1.642240000000000009e+03
4.400000000000000439e-02 6.483145000000000158e-01 1.238790000000000058e+00 4.129619999999999891e+01 1.642349999999999909e+03
4.499999999999999833e-02 6.485674999999999635e-01 1.951869999999999994e+00 4.239884999999999593e+01 1.642594999999999800e+03
4.599999999999999922e-02 6.489145000000000607e-01 2.822940000000000005e+00 4.392770000000000152e+01 1.642960000000000036e+03
4.700000000000000011e-02 6.493519999999999293e-01 3.855679999999999552e+00 4.586619999999999919e+01 1.643440000000000055e+03
4.800000000000000100e-02 6.498770000000000380e-01 5.049890000000000434e+00 4.819464999999999577e+01 1.644034999999999854e+03
4.900000000000000189e-02 6.504834999999999923e-01 6.398983000000000310e+00 5.088719999999999999e+01 1.644740000000000009e+03
5.000000000000000278e-02 6.511625000000000885e-01 7.888636049999999678e+00 5.390940000000000509e+01 1.645539999999999964e+03
5.100000000000000366e-02 6.519019999999999815e-01 9.497100000000001430e+00 5.721690000000000254e+01 1.646429999999999836e+03
5.200000000000000455e-02 6.526885000000000048e-01 1.119631000000000043e+01 6.075659999999999883e+01 1.647389999999999873e+03
5.300000000000000544e-02 6.535079999999999778e-01 1.295437999999999867e+01 6.446904999999999575e+01 1.648409999999999854e+03
5.399999999999999939e-02 6.543449999999999545e-01 1.473827999999999960e+01 6.829224999999999568e+01 1.649470000000000027e+03
5.500000000000000028e-02 6.551865000000000050e-01 1.651622499999999860e+01 7.216550000000000864e+01 1.650565000000000055e+03
5.600000000000000117e-02 6.560219999999999940e-01 1.826017999999999830e+01 7.603360000000000696e+01 1.651664999999999964e+03
5.700000000000000205e-02 6.568415000000000781e-01 1.994695000000000107e+01 7.984960000000000946e+01 1.652759999999999991e+03
5.800000000000000294e-02 6.576394999999999325e-01 2.155904999999999916e+01 8.357730000000000814e+01 1.653849999999999909e+03
5.900000000000000383e-02 6.584119999999999973e-01 2.308474999999999966e+01 8.719145000000000323e+01 1.654909999999999854e+03
6.000000000000000472e-02 6.591580000000000217e-01 2.451739999999999853e+01 9.067875000000000796e+01 1.655945000000000164e+03
6.099999999999999867e-02 6.598785000000000345e-01 2.585480000000000089e+01 9.403479999999998995e+01 1.656944999999999936e+03
6.199999999999999956e-02 6.605745000000000644e-01 2.709805000000000064e+01 9.726439999999999486e+01 1.657924999999999955e+03
6.300000000000000044e-02 6.612500000000000044e-01 2.825065000000000026e+01 1.003769499999999937e+02 1.658865000000000009e+03
6.400000000000000133e-02 6.619075000000000930e-01 2.931745000000000090e+01 1.033868500000000097e+02 1.659779999999999973e+03
6.500000000000000222e-02 6.625505000000000422e-01 3.030395000000000039e+01 1.063092000000000041e+02 1.660670000000000073e+03
6.600000000000000311e-02 6.631819999999999382e-01 3.121555000000000035e+01 1.091599999999999966e+02 1.661539999999999964e+03
6.700000000000000400e-02 6.638034999999999908e-01 3.205639999999999645e+01 1.119509999999999934e+02 1.662389999999999873e+03
6.800000000000000488e-02 6.644170000000000353e-01 3.282995000000000374e+01 1.146920000000000073e+02 1.663235000000000127e+03
6.900000000000000577e-02 6.650215000000000432e-01 3.353744999999999976e+01 1.173864999999999981e+02 1.664054999999999836e+03
7.000000000000000666e-02 6.656169999999999032e-01 3.417874999999999375e+01 1.200330000000000013e+02 1.664865000000000009e+03
7.100000000000000755e-02 6.662004999999999733e-01 3.475195000000000078e+01 1.226250000000000000e+02 1.665660000000000082e+03
7.200000000000000844e-02 6.667689999999999451e-01 3.525384999999999991e+01 1.251525000000000034e+02 1.666440000000000055e+03
7.300000000000000933e-02 6.673184999999999256e-01 3.568030000000000257e+01 1.275990000000000038e+02 1.667190000000000055e+03
7.399999999999999634e-02 6.678455000000000918e-01 3.602680000000000149e+01 1.299480000000000075e+02 1.667914999999999964e+03
7.499999999999999722e-02 6.683455000000000368e-01 3.628900000000000148e+01 1.321810000000000116e+02 1.668610000000000127e+03
7.599999999999999811e-02 6.688145000000000895e-01 3.646304999999999552e+01 1.342789999999999964e+02 1.669275000000000091e+03
7.699999999999999900e-02 6.692495000000000527e-01 3.654630000000000223e+01 1.362274999999999920e+02 1.669890000000000100e+03
7.799999999999999989e-02 6.696480000000000210e-01 3.653679999999999950e+01 1.380099999999999909e+02 1.670460000000000036e+03
7.900000000000000078e-02 6.700064999999999493e-01 3.643444999999999823e+01 1.396154999999999973e+02 1.670980000000000018e+03
8.000000000000000167e-02 6.703250000000000597e-01 3.624014999999999986e+01 1.410375000000000227e+02 1.671450000000000045e+03
8.100000000000000255e-02 6.706019999999999204e-01 3.595619999999999550e+01 1.422700000000000102e+02 1.671860000000000127e+03
8.200000000000000344e-02 6.708380000000000454e-01 3.558629999999999427e+01 1.433145000000000095e+02 1.672220000000000027e+03
8.300000000000000433e-02 6.710344999999999782e-01 3.513535000000000252e+01 1.441725000000000136e+02 1.672525000000000091e+03
8.400000000000000522e-02 6.711920000000000108e-01 3.460954999999999870e+01 1.448509999999999991e+02 1.672775000000000091e+03
8.500000000000000611e-02 6.713135000000000074e-01 3.401619999999999777e+01 1.453594999999999970e+02 1.672970000000000027e+03
8.600000000000000699e-02 6.714014999999999844e-01 3.336375000000000313e+01 1.457105000000000246e+02 1.673119999999999891e+03
8.700000000000000788e-02 6.714590000000000281e-01 3.266140000000000043e+01 1.459184999999999945e+02 1.673224999999999909e+03
8.800000000000000877e-02 6.714900000000000313e-01 3.191935000000000144e+01 1.460010000000000048e+02 1.673295000000000073e+03
8.899999999999999578e-02 6.714990000000000681e-01 3.114809999999999945e+01 1.459759999999999991e+02 1.673319999999999936e+03
8.999999999999999667e-02 6.714895000000000724e-01 3.035834999999999795e+01 1.458629999999999995e+02 1.673319999999999936e+03
9.099999999999999756e-02 6.714660000000000073e-01 2.956060000000000088e+01 1.456814999999999998e+02 1.673289999999999964e+03
9.199999999999999845e-02 6.714320000000000288e-01 2.876470000000000127e+01 1.454509999999999934e+02 1.673244999999999891e+03
9.299999999999999933e-02 6.713919999999999888e-01 2.797950000000000159e+01 1.451884999999999764e+02 1.673190000000000055e+03
9.400000000000000022e-02 6.713495000000000434e-01 2.721255000000000024e+01 1.449105000000000132e+02 1.673119999999999891e+03
9.500000000000000111e-02 6.713054999999999994e-01 2.646965000000000146e+01 1.446304999999999836e+02 1.673050000000000182e+03
9.600000000000000200e-02 6.712625000000000952e-01 2.575475000000000136e+01 1.443575000000000159e+02 1.672970000000000027e+03
9.700000000000000289e-02 6.712219999999999853e-01 2.507000000000000028e+01 1.440989999999999895e+02 1.672894999999999982e+03
9.800000000000000377e-02 6.711840000000000028e-01 2.441539999999999822e+01 1.438580000000000041e+02 1.672824999999999818e+03
9.900000000000000466e-02 6.711475000000000080e-01 2.378949999999999676e+01 1.436345000000000027e+02 1.672755000000000109e+03
1.000000000000000056e-01 6.711125000000000007e-01 2.318905000000000172e+01 1.434259999999999877e+02 1.672690000000000055e+03
1.010000000000000064e-01 6.710769999999999236e-01 2.260979999999999990e+01 1.432259999999999991e+02 1.672625000000000000e+03
1.020000000000000073e-01 6.710395000000000110e-01 2.204635000000000034e+01 1.430285000000000082e+02 1.672559999999999945e+03
1.030000000000000082e-01 6.709975000000000245e-01 2.149285000000000068e+01 1.428245000000000005e+02 1.672494999999999891e+03
1.040000000000000091e-01 6.709505000000000052e-01 2.094324999999999903e+01 1.426034999999999968e+02 1.672429999999999836e+03
1.050000000000000100e-01 6.708950000000000191e-01 2.039160000000000039e+01 1.423575000000000159e+02 1.672349999999999909e+03
1.059999999999999970e-01 6.708304999999999962e-01 1.983214999999999861e+01 1.420780000000000030e+02 1.672264999999999873e+03
1.069999999999999979e-01 6.707549999999999901e-01 1.926004999999999967e+01 1.417564999999999884e+02 1.672170000000000073e+03
1.079999999999999988e-01 6.706680000000000419e-01 1.867109999999999914e+01 1.413885000000000218e+02 1.672070000000000164e+03
1.089999999999999997e-01 6.705685000000000118e-01 1.806240000000000023e+01 1.409700000000000273e+02 1.671945000000000164e+03
1.100000000000000006e-01 6.704570000000000807e-01 1.743209999999999837e+01 1.404984999999999786e+02 1.671809999999999945e+03
1.110000000000000014e-01 6.703334999999999155e-01 1.677974999999999994e+01 1.399749999999999943e+02 1.671670000000000073e+03
1.120000000000000023e-01 6.702000000000000179e-01 1.610620000000000118e+01 1.394035000000000082e+02 1.671505000000000109e+03
1.130000000000000032e-01 6.700574999999999726e-01 1.541380000000000017e+01 1.387884999999999991e+02 1.671329999999999927e+03
1.140000000000000041e-01 6.699079999999999480e-01 1.470595000000000141e+01 1.381384999999999934e+02 1.671144999999999982e+03
1.150000000000000050e-01 6.697535000000000016e-01 1.398723000000000027e+01 1.374629999999999939e+02 1.670954999999999927e+03
1.160000000000000059e-01 6.695969999999999978e-01 1.326327500000000015e+01 1.367735000000000127e+02 1.670760000000000218e+03
1.170000000000000068e-01 6.694420000000000925e-01 1.254028999999999883e+01 1.360815000000000055e+02 1.670559999999999945e+03
1.180000000000000077e-01 6.692915000000000392e-01 1.182504499999999936e+01 1.354010000000000105e+02 1.670360000000000127e+03
1.190000000000000085e-01 6.691475000000000062e-01 1.112434499999999993e+01 1.347445000000000164e+02 1.670170000000000073e+03
1.200000000000000094e-01 6.690134999999999277e-01 1.044501499999999972e+01 1.341254999999999882e+02 1.669990000000000009e+03
1.209999999999999964e-01 6.688909999999999023e-01 9.793400000000000105e+00 1.335550000000000068e+02 1.669809999999999945e+03
1.219999999999999973e-01 6.687834999999999752e-01 9.175219999999999487e+00 1.330434999999999945e+02 1.669654999999999973e+03
1.229999999999999982e-01 6.686914999999999942e-01 8.595295000000000130e+00 1.325995000000000061e+02 1.669519999999999982e+03
1.239999999999999991e-01 6.686170000000000169e-01 8.057324999999998738e+00 1.322284999999999968e+02 1.669394999999999982e+03
1.250000000000000000e-01 6.685594999999999732e-01 7.563900000000000290e+00 1.319350000000000023e+02 1.669295000000000073e+03
1.260000000000000009e-01 6.685195000000000443e-01 7.116215000000000401e+00 1.317189999999999941e+02 1.669220000000000027e+03
1.270000000000000018e-01 6.684959999999999791e-01 6.714275000000000659e+00 1.315799999999999841e+02 1.669164999999999964e+03
1.280000000000000027e-01 6.684879999999999711e-01 6.356835000000000235e+00 1.315129999999999768e+02 1.669125000000000000e+03
1.290000000000000036e-01 6.684944999999999915e-01 6.041554999999999787e+00 1.315124999999999886e+02 1.669110000000000127e+03
1.300000000000000044e-01 6.685125000000000650e-01 5.765155000000000030e+00 1.315699999999999932e+02 1.669115000000000009e+03
1.310000000000000053e-01 6.685410000000000519e-01 5.523614999999999498e+00 1.316759999999999877e+02 1.669130000000000109e+03
1.320000000000000062e-01 6.685764999999999070e-01 5.312390000000000612e+00 1.318209999999999980e+02 1.669160000000000082e+03
1.330000000000000071e-01 6.686170000000000169e-01 5.126604999999999634e+00 1.319929999999999950e+02 1.669195000000000164e+03
1.340000000000000080e-01 6.686600000000000321e-01 4.961294999999999789e+00 1.321825000000000045e+02 1.669240000000000009e+03
1.350000000000000089e-01 6.687039999999999651e-01 4.811544999999999739e+00 1.323779999999999859e+02 1.669289999999999964e+03
1.360000000000000098e-01 6.687464999999999105e-01 4.672705000000000553e+00 1.325704999999999814e+02 1.669340000000000146e+03
1.370000000000000107e-01 6.687849999999999628e-01 4.540460000000000385e+00 1.327509999999999764e+02 1.669384999999999991e+03
1.380000000000000115e-01 6.688195000000000112e-01 4.410965000000000025e+00 1.329124999999999943e+02 1.669430000000000064e+03
1.390000000000000124e-01 6.688484999999999570e-01 4.280915000000000248e+00 1.330490000000000066e+02 1.669470000000000027e+03
1.400000000000000133e-01 6.688700000000000756e-01 4.147560000000000358e+00 1.331560000000000059e+02 1.669500000000000000e+03
1.410000000000000142e-01 6.688840000000000341e-01 4.008750000000000036e+00 1.332300000000000182e+02 1.669525000000000091e+03
1.420000000000000151e-01 6.688910000000000133e-01 3.862944999999999851e+00 1.332690000000000055e+02 1.669539999999999964e+03
1.430000000000000160e-01 6.688899999999999846e-01 3.709164999999999601e+00 1.332725000000000080e+02 1.669545000000000073e+03
1.440000000000000169e-01 6.688815000000000177e-01 3.546990000000000087e+00 1.332409999999999854e+02 1.669545000000000073e+03
1.450000000000000178e-01 6.688665000000000305e-01 3.376509999999999678e+00 1.331759999999999877e+02 1.669525000000000091e+03
1.459999999999999909e-01 6.688445000000000640e-01 3.198255000000000070e+00 1.330799999999999841e+02 1.669505000000000109e+03
1.469999999999999918e-01 6.688164999999999250e-01 3.013155000000000250e+00 1.329544999999999959e+02 1.669474999999999909e+03
1.479999999999999927e-01 6.687840000000000451e-01 2.822435000000000027e+00 1.328040000000000020e+02 1.669434999999999945e+03
1.489999999999999936e-01 6.687465000000000215e-01 2.627539999999999765e+00 1.326310000000000002e+02 1.669389999999999873e+03
1.499999999999999944e-01 6.687054999999999527e-01 2.430074999999999985e+00 1.324404999999999859e+02 1.669335000000000036e+03
1.509999999999999953e-01 6.686625000000000485e-01 2.231675000000000075e+00 1.322350000000000136e+02 1.669279999999999973e+03
1.519999999999999962e-01 6.686164999999999470e-01 2.033940000000000303e+00 1.320180000000000007e+02 1.669220000000000027e+03
1.529999999999999971e-01 6.685689999999999689e-01 1.838376999999999928e+00 1.317925000000000182e+02 1.669154999999999973e+03
1.539999999999999980e-01 6.685200000000000031e-01 1.646335000000000104e+00 1.315600000000000023e+02 1.669095000000000027e+03
1.549999999999999989e-01 6.684704999999999675e-01 1.458949999999999969e+00 1.313235000000000241e+02 1.669029999999999973e+03
1.559999999999999998e-01 6.684210000000000429e-01 1.277143000000000139e+00 1.310840000000000032e+02 1.668954999999999927e+03
1.570000000000000007e-01 6.683704999999999785e-01 1.101588500000000082e+00 1.308419999999999845e+02 1.668884999999999991e+03
1.580000000000000016e-01 6.683189999999999964e-01 9.327734999999999221e-01 1.305985000000000014e+02 1.668819999999999936e+03
1.590000000000000024e-01 6.682675000000000143e-01 7.709842500000000376e-01 1.303519999999999754e+02 1.668744999999999891e+03
