# t [s], A [cm^2], U [cm/s], P [cPa], c [cm/s]
1.000000000000000021e-03 5.443895000000000817e-01 3.725749999999999895e-03 1.073125000000000000e+02 1.439945000000000164e+03
2.000000000000000042e-03 5.443814999999999626e-01 1.140510000000000178e-03 1.072914999999999992e+02 1.439940000000000055e+03
3.000000000000000062e-03 5.444345000000000434e-01 9.661459999999999493e-02 1.073795000000000073e+02 1.439965000000000146e+03
4.000000000000000083e-03 5.444820000000000215e-01 1.884080350000000015e-01 1.074849999999999994e+02 1.439994999999999891e+03
5.000000000000000104e-03 5.444630000000000303e-01 1.646963999999999928e-01 1.074410000000000025e+02 1.439990000000000009e+03
6.000000000000000125e-03 5.444014999999999826e-01 6.146299999999998986e-02 1.072419999999999902e+02 1.439944999999999936e+03
7.000000000000000146e-03 5.443405000000000049e-01 -4.902149999999999563e-02 1.069629999999999939e+02 1.439880000000000109e+03
8.000000000000000167e-03 5.442510000000000403e-01 -2.197649999999999881e-01 1.065584999999999951e+02 1.439784999999999854e+03
9.000000000000001055e-03 5.441009999999999458e-01 -5.122750000000000359e-01 1.059410000000000025e+02 1.439640000000000100e+03
1.000000000000000194e-02 5.438894999999999147e-01 -9.220699999999999452e-01 1.050755000000000052e+02 1.439440000000000055e+03
1.099999999999999936e-02 5.436100000000000376e-01 -1.446059999999999901e+00 1.039294999999999902e+02 1.439164999999999964e+03
1.200000000000000025e-02 5.432449999999999779e-01 -2.095699999999999896e+00 1.024540499999999952e+02 1.438795000000000073e+03
1.300000000000000114e-02 5.427984999999999616e-01 -2.843350000000000044e+00 1.006432999999999964e+02 1.438335000000000036e+03
1.400000000000000203e-02 5.423075000000000534e-01 -3.588040000000000340e+00 9.858580000000000609e+01 1.437800000000000182e+03
1.499999999999999944e-02 5.418339999999999268e-01 -4.184015000000000484e+00 9.645560000000000400e+01 1.437219999999999800e+03
1.600000000000000033e-02 5.414299999999999669e-01 -4.502962000000000131e+00 9.444544999999999391e+01 1.436650000000000091e+03
1.700000000000000122e-02 5.411170000000000702e-01 -4.481279500000000304e+00 9.269409999999999172e+01 1.436125000000000000e+03
1.800000000000000211e-02 5.408850000000000602e-01 -4.132391000000000147e+00 9.124915000000000020e+01 1.435650000000000091e+03
1.900000000000000300e-02 5.406990000000000407e-01 -3.530873500000000220e+00 9.006550000000000011e+01 1.435240000000000009e+03
2.000000000000000042e-02 5.405159999999999965e-01 -2.781822000000000017e+00 8.903255000000000052e+01 1.434855000000000018e+03
2.100000000000000130e-02 5.402964999999999574e-01 -1.986860000000000070e+00 8.801630000000000109e+01 1.434484999999999900e+03
2.200000000000000219e-02 5.400184999999999569e-01 -1.216099999999999737e+00 8.690285000000000082e+01 1.434099999999999909e+03
2.299999999999999961e-02 5.396805000000000074e-01 -4.945900000000000851e-01 8.563030000000000541e+01 1.433674999999999955e+03
2.400000000000000050e-02 5.392970000000000264e-01 1.926549999999997986e-01 8.419720000000000937e+01 1.433220000000000027e+03
2.500000000000000139e-02 5.388924999999999965e-01 8.809100000000000819e-01 8.264789999999999281e+01 1.432730000000000018e+03
2.600000000000000228e-02 5.384864999999999791e-01 1.601280000000000037e+00 8.104404999999999859e+01 1.432224999999999909e+03
2.700000000000000316e-02 5.380894999999999984e-01 2.361625000000000085e+00 7.943430000000000746e+01 1.431720000000000027e+03
2.800000000000000058e-02 5.376969999999999805e-01 3.137889999999999624e+00 7.783389999999999986e+01 1.431204999999999927e+03
2.900000000000000147e-02 5.372934999999999794e-01 3.876385000000000414e+00 7.621705000000000041e+01 1.430684999999999945e+03
3.000000000000000236e-02 5.368540000000000534e-01 4.504394999999999705e+00 7.452185000000000059e+01 1.430150000000000091e+03
3.099999999999999978e-02 5.363554999999999851e-01 4.945254999999999512e+00 7.266564999999999941e+01 1.429574999999999818e+03
3.200000000000000067e-02 5.357760000000000300e-01 5.135355000000000558e+00 7.056645000000000323e+01 1.428950000000000045e+03
3.300000000000000155e-02 5.351074999999999582e-01 5.038209999999999411e+00 6.816554999999999609e+01 1.428244999999999891e+03
3.400000000000000244e-02 5.343539999999999957e-01 4.653285000000000338e+00 6.544575000000000387e+01 1.427470000000000027e+03
3.500000000000000333e-02 5.335354999999999404e-01 4.017599999999999838e+00 6.244169999999999732e+01 1.426625000000000000e+03
3.600000000000000422e-02 5.326815000000000300e-01 3.199069999999999858e+00 5.923855000000000359e+01 1.425715000000000146e+03
3.700000000000000511e-02 5.318309999999999427e-01 2.285425000000000040e+00 5.596139999999999759e+01 1.424789999999999964e+03
3.799999999999999906e-02 5.310219999999999940e-01 1.370495000000000019e+00 5.275854999999999961e+01 1.423869999999999891e+03
3.899999999999999994e-02 5.302919999999999856e-01 5.422200000000003683e-01 4.978275000000000006e+01 1.422994999999999891e+03
4.000000000000000083e-02 5.296699999999999742e-01 -1.257250000000000867e-01 4.717445000000000022e+01 1.422199999999999818e+03
4.100000000000000172e-02 5.291789999999999550e-01 -5.786449999999998539e-01 4.504935000000000400e+01 1.421529999999999973e+03
4.200000000000000261e-02 5.288309999999999400e-01 -7.814999999999998614e-01 4.349080000000000013e+01 1.420994999999999891e+03
4.300000000000000350e-02 5.286330000000000195e-01 -7.167600000000000637e-01 4.254840000000000089e+01 1.420625000000000000e+03
4.400000000000000439e-02 5.285840000000000538e-01 -3.804599999999999649e-01 4.224004999999999654e+01 1.420420000000000073e+03
4.499999999999999833e-02 5.286790000000000100e-01 2.221629999999999994e-01 4.255769999999999698e+01 1.420394999999999982e+03
4.599999999999999922e-02 5.289114999999999789e-01 1.080650000000000110e+00 4.347400000000000375e+01 1.420545000000000073e+03
4.700000000000000011e-02 5.292709999999999360e-01 2.181969999999999743e+00 4.494924999999999926e+01 1.420855000000000018e+03
4.800000000000000100e-02 5.297479999999999967e-01 3.511630000000000251e+00 4.693649999999999523e+01 1.421320000000000164e+03
4.900000000000000189e-02 5.303314999999999557e-01 5.053359999999999630e+00 4.938455000000000439e+01 1.421924999999999955e+03
5.000000000000000278e-02 5.310095000000000232e-01 6.787900000000000489e+00 5.223964999999999748e+01 1.422659999999999854e+03
5.100000000000000366e-02 5.317695000000000061e-01 8.691621500000000111e+00 5.544485000000000241e+01 1.423505000000000109e+03
5.200000000000000455e-02 5.325969999999999871e-01 1.073559600000000103e+01 5.893990000000000151e+01 1.424440000000000055e+03
5.300000000000000544e-02 5.334754999999999914e-01 1.288550500000000021e+01 6.266069999999999851e+01 1.425460000000000036e+03
5.399999999999999939e-02 5.343890000000000029e-01 1.510248999999999953e+01 6.654005000000000791e+01 1.426545000000000073e+03
5.500000000000000028e-02 5.353200000000000180e-01 1.734506999999999977e+01 7.050894999999999868e+01 1.427664999999999964e+03
5.600000000000000117e-02 5.362525000000000208e-01 1.957142999999999944e+01 7.449949999999999761e+01 1.428809999999999945e+03
5.700000000000000205e-02 5.371709999999999541e-01 2.174190000000000111e+01 7.844755000000000678e+01 1.429960000000000036e+03
5.800000000000000294e-02 5.380635000000000279e-01 2.382110000000000127e+01 8.229605000000000814e+01 1.431095000000000027e+03
5.900000000000000383e-02 5.389194999999999958e-01 2.577994999999999948e+01 8.599779999999999802e+01 1.432210000000000036e+03
6.000000000000000472e-02 5.397309999999999608e-01 2.759660000000000224e+01 8.951749999999999829e+01 1.433279999999999973e+03
6.099999999999999867e-02 5.404959999999999765e-01 2.925694999999999979e+01 9.283240000000000691e+01 1.434305000000000064e+03
6.199999999999999956e-02 5.412130000000000551e-01 3.075440000000000040e+01 9.593295000000000528e+01 1.435280000000000200e+03
6.300000000000000044e-02 5.418844999999999912e-01 3.208924999999999983e+01 9.882155000000000200e+01 1.436199999999999818e+03
6.400000000000000133e-02 5.425139999999999407e-01 3.326744999999999663e+01 1.015116999999999905e+02 1.437070000000000164e+03
6.500000000000000222e-02 5.431070000000000064e-01 3.429964999999999975e+01 1.040252999999999872e+02 1.437884999999999991e+03
6.600000000000000311e-02 5.436715000000000853e-01 3.520009999999999906e+01 1.063900000000000006e+02 1.438659999999999854e+03
6.700000000000000400e-02 5.442144999999999344e-01 3.598555000000000348e+01 1.086380000000000052e+02 1.439400000000000091e+03
6.800000000000000488e-02 5.447429999999999772e-01 3.667419999999999902e+01 1.108024999999999949e+02 1.440119999999999891e+03
6.900000000000000577e-02 5.452649999999999997e-01 3.728504999999999825e+01 1.129190000000000111e+02 1.440809999999999945e+03
7.000000000000000666e-02 5.457879999999999399e-01 3.783709999999999951e+01 1.150194999999999936e+02 1.441490000000000009e+03
7.100000000000000755e-02 5.463184999999999292e-01 3.834839999999999804e+01 1.171334999999999980e+02 1.442174999999999955e+03
7.200000000000000844e-02 5.468610000000000415e-01 3.883520000000000039e+01 1.192854999999999990e+02 1.442865000000000009e+03
7.300000000000000933e-02 5.474200000000000177e-01 3.931114999999999782e+01 1.214950000000000045e+02 1.443565000000000055e+03
7.399999999999999634e-02 5.479974999999999152e-01 3.978669999999999618e+01 1.237735000000000127e+02 1.444285000000000082e+03
7.499999999999999722e-02 5.485934999999999562e-01 4.026789999999999736e+01 1.261254999999999882e+02 1.445014999999999873e+03
7.599999999999999811e-02 5.492055000000000131e-01 4.075660000000000593e+01 1.285475000000000136e+02 1.445764999999999873e+03
7.699999999999999900e-02 5.498304999999999998e-01 4.125024999999999409e+01 1.310250000000000057e+02 1.446534999999999854e+03
7.799999999999999989e-02 5.504625000000000767e-01 4.174155000000000371e+01 1.335389999999999873e+02 1.447315000000000055e+03
7.900000000000000078e-02 5.510945000000000427e-01 4.221980000000000643e+01 1.360614999999999952e+02 1.448095000000000027e+03
8.000000000000000167e-02 5.517174999999999718e-01 4.267114999999999725e+01 1.385604999999999905e+02 1.448869999999999891e+03
8.100000000000000255e-02 5.523234999999999673e-01 4.307979999999999876e+01 1.409979999999999905e+02 1.449634999999999991e+03
8.200000000000000344e-02 5.529020000000000046e-01 4.342909999999999826e+01 1.433375000000000057e+02 1.450369999999999891e+03
8.300000000000000433e-02 5.534459999999999935e-01 4.370234999999999559e+01 1.455414999999999850e+02 1.451069999999999936e+03
8.400000000000000522e-02 5.539454999999999796e-01 4.388419999999999987e+01 1.475749999999999886e+02 1.451730000000000018e+03
8.500000000000000611e-02 5.543945000000000123e-01 4.396120000000000516e+01 1.494060000000000059e+02 1.452329999999999927e+03
8.600000000000000699e-02 5.547885000000000177e-01 4.392265000000000441e+01 1.510099999999999909e+02 1.452869999999999891e+03
8.700000000000000788e-02 5.551220000000000043e-01 4.376100000000000279e+01 1.523695000000000164e+02 1.453344999999999800e+03
8.800000000000000877e-02 5.553940000000000543e-01 4.347220000000000084e+01 1.534720000000000084e+02 1.453744999999999891e+03
8.899999999999999578e-02 5.556034999999999169e-01 4.305584999999999951e+01 1.543139999999999930e+02 1.454070000000000164e+03
8.999999999999999667e-02 5.557524999999999826e-01 4.251525000000000176e+01 1.548999999999999773e+02 1.454315000000000055e+03
9.099999999999999756e-02 5.558440000000000047e-01 4.185689999999999600e+01 1.552409999999999854e+02 1.454490000000000009e+03
9.199999999999999845e-02 5.558814999999999173e-01 4.109074999999999989e+01 1.553525000000000205e+02 1.454589999999999918e+03
9.299999999999999933e-02 5.558720000000000327e-01 4.022899999999999920e+01 1.552584999999999980e+02 1.454630000000000109e+03
9.400000000000000022e-02 5.558205000000000506e-01 3.928640000000000043e+01 1.549850000000000136e+02 1.454610000000000127e+03
9.500000000000000111e-02 5.557345000000000201e-01 3.827925000000000466e+01 1.545614999999999952e+02 1.454545000000000073e+03
9.600000000000000200e-02 5.556220000000000603e-01 3.722475000000000023e+01 1.540199999999999818e+02 1.454429999999999836e+03
9.700000000000000289e-02 5.554900000000000393e-01 3.614074999999999704e+01 1.533930000000000007e+02 1.454285000000000082e+03
9.800000000000000377e-02 5.553460000000000063e-01 3.504455000000000098e+01 1.527119999999999891e+02 1.454115000000000009e+03
9.900000000000000466e-02 5.551969999999999406e-01 3.395309999999999917e+01 1.520070000000000050e+02 1.453934999999999945e+03
1.000000000000000056e-01 5.550494999999999735e-01 3.288139999999999930e+01 1.513054999999999950e+02 1.453740000000000009e+03
1.010000000000000064e-01 5.549079999999999568e-01 3.184294999999999831e+01 1.506320000000000050e+02 1.453550000000000182e+03
1.020000000000000073e-01 5.547775000000000345e-01 3.084880000000000067e+01 1.500045000000000073e+02 1.453364999999999782e+03
1.030000000000000082e-01 5.546609999999999596e-01 2.990735000000000099e+01 1.494385000000000048e+02 1.453194999999999936e+03
1.040000000000000091e-01 5.545605000000000118e-01 2.902420000000000044e+01 1.489445000000000050e+02 1.453039999999999964e+03
1.050000000000000100e-01 5.544769999999999976e-01 2.820204999999999984e+01 1.485255000000000223e+02 1.452904999999999973e+03
1.059999999999999970e-01 5.544094999999999995e-01 2.744089999999999918e+01 1.481820000000000164e+02 1.452785000000000082e+03
1.069999999999999979e-01 5.543564999999999188e-01 2.673789999999999978e+01 1.479089999999999918e+02 1.452690000000000055e+03
1.079999999999999988e-01 5.543160000000000309e-01 2.608794999999999931e+01 1.476970000000000027e+02 1.452610000000000127e+03
1.089999999999999997e-01 5.542844999999999578e-01 2.548404999999999987e+01 1.475335000000000036e+02 1.452534999999999854e+03
1.100000000000000006e-01 5.542584999999999873e-01 2.491740000000000066e+01 1.474019999999999868e+02 1.452480000000000018e+03
1.110000000000000014e-01 5.542340000000000044e-01 2.437814999999999799e+01 1.472869999999999777e+02 1.452429999999999836e+03
1.120000000000000023e-01 5.542065000000000463e-01 2.385585000000000022e+01 1.471694999999999993e+02 1.452380000000000109e+03
1.130000000000000032e-01 5.541719999999999979e-01 2.333990000000000009e+01 1.470314999999999941e+02 1.452329999999999927e+03
1.140000000000000041e-01 5.541260000000000074e-01 2.282000000000000028e+01 1.468549999999999898e+02 1.452269999999999982e+03
1.150000000000000050e-01 5.540654999999999886e-01 2.228654999999999831e+01 1.466250000000000000e+02 1.452200000000000045e+03
1.160000000000000059e-01 5.539875000000000771e-01 2.173124999999999929e+01 1.463269999999999982e+02 1.452105000000000018e+03
1.170000000000000068e-01 5.538894999999999236e-01 2.114705000000000013e+01 1.459509999999999934e+02 1.451994999999999891e+03
1.180000000000000077e-01 5.537704999999999433e-01 2.052909999999999968e+01 1.454884999999999877e+02 1.451864999999999782e+03
1.190000000000000085e-01 5.536294999999999966e-01 1.987409999999999854e+01 1.449354999999999905e+02 1.451704999999999927e+03
1.200000000000000094e-01 5.534665000000000834e-01 1.918110000000000070e+01 1.442925000000000182e+02 1.451525000000000091e+03
1.209999999999999964e-01 5.532839999999999980e-01 1.845110000000000028e+01 1.435615000000000236e+02 1.451319999999999936e+03
1.219999999999999973e-01 5.530815000000000037e-01 1.768740000000000023e+01 1.427500000000000000e+02 1.451085000000000036e+03
1.229999999999999982e-01 5.528640000000000221e-01 1.689499999999999957e+01 1.418670000000000186e+02 1.450835000000000036e+03
1.239999999999999991e-01 5.526334999999999997e-01 1.608085000000000164e+01 1.409264999999999759e+02 1.450565000000000055e+03
1.250000000000000000e-01 5.523940000000000516e-01 1.525326499999999896e+01 1.399440000000000168e+02 1.450280000000000200e+03
1.260000000000000009e-01 5.521504999999999885e-01 1.442169000000000167e+01 1.389354999999999905e+02 1.449985000000000127e+03
1.270000000000000018e-01 5.519065000000000776e-01 1.359655000000000058e+01 1.379205000000000041e+02 1.449684999999999945e+03
1.280000000000000027e-01 5.516669999999999074e-01 1.278844500000000117e+01 1.369164999999999850e+02 1.449384999999999991e+03
1.290000000000000036e-01 5.514364999999999961e-01 1.200816999999999979e+01 1.359424999999999955e+02 1.449090000000000146e+03
1.300000000000000044e-01 5.512179999999999858e-01 1.126604999999999990e+01 1.350165000000000077e+02 1.448804999999999836e+03
1.310000000000000053e-01 5.510165000000000202e-01 1.057156499999999966e+01 1.341539999999999964e+02 1.448534999999999854e+03
1.320000000000000062e-01 5.508340000000000458e-01 9.933059999999999334e+00 1.333695000000000164e+02 1.448284999999999854e+03
1.330000000000000071e-01 5.506739999999999968e-01 9.357585000000000264e+00 1.326734999999999900e+02 1.448059999999999945e+03
1.340000000000000080e-01 5.505379999999999718e-01 8.850315000000000154e+00 1.320755000000000052e+02 1.447860000000000127e+03
1.350000000000000089e-01 5.504260000000000819e-01 8.414754999999999541e+00 1.315805000000000007e+02 1.447690000000000055e+03
1.360000000000000098e-01 5.503390000000000226e-01 8.052289999999999281e+00 1.311899999999999977e+02 1.447539999999999964e+03
1.370000000000000107e-01 5.502764999999999462e-01 7.762499999999999289e+00 1.309030000000000200e+02 1.447430000000000064e+03
1.380000000000000115e-01 5.502365000000000173e-01 7.543129999999999669e+00 1.307139999999999986e+02 1.447345000000000027e+03
1.390000000000000124e-01 5.502179999999999849e-01 7.390164999999999651e+00 1.306170000000000186e+02 1.447285000000000082e+03
1.400000000000000133e-01 5.502179999999999849e-01 7.298099999999999810e+00 1.306020000000000039e+02 1.447255000000000109e+03
1.410000000000000142e-01 5.502325000000000133e-01 7.260194999999999510e+00 1.306564999999999941e+02 1.447244999999999891e+03
1.420000000000000151e-01 5.502599999999999714e-01 7.268745000000000012e+00 1.307685000000000173e+02 1.447250000000000000e+03
1.430000000000000160e-01 5.502964999999999662e-01 7.315414999999999779e+00 1.309234999999999900e+02 1.447275000000000091e+03
1.440000000000000169e-01 5.503379999999999939e-01 7.391510000000000247e+00 1.311069999999999993e+02 1.447304999999999836e+03
1.450000000000000178e-01 5.503824999999999967e-01 7.488315000000000055e+00 1.313054999999999950e+02 1.447349999999999909e+03
1.459999999999999909e-01 5.504259999999999708e-01 7.597369999999999735e+00 1.315065000000000168e+02 1.447394999999999982e+03
1.469999999999999918e-01 5.504660000000000108e-01 7.710715000000000430e+00 1.316960000000000264e+02 1.447440000000000055e+03
1.479999999999999927e-01 5.505004999999999482e-01 7.821114999999999817e+00 1.318654999999999973e+02 1.447484999999999900e+03
1.489999999999999936e-01 5.505274999999999475e-01 7.922254999999999825e+00 1.320054999999999836e+02 1.447519999999999982e+03
1.499999999999999944e-01 5.505450000000000621e-01 8.008839999999999293e+00 1.321080000000000041e+02 1.447550000000000182e+03
1.509999999999999953e-01 5.505529999999999591e-01 8.076724999999999710e+00 1.321700000000000159e+02 1.447569999999999936e+03
1.519999999999999962e-01 5.505505000000000537e-01 8.122925000000000395e+00 1.321879999999999882e+02 1.447579999999999927e+03
1.529999999999999971e-01 5.505375000000000130e-01 8.145624999999999005e+00 1.321605000000000132e+02 1.447575000000000045e+03
1.539999999999999980e-01 5.505145000000000177e-01 8.144159999999999400e+00 1.320905000000000200e+02 1.447559999999999945e+03
1.549999999999999989e-01 5.504824999999999857e-01 8.118895000000000195e+00 1.319789999999999850e+02 1.447534999999999854e+03
1.559999999999999998e-01 5.504424999999999457e-01 8.071159999999999002e+00 1.318305000000000007e+02 1.447494999999999891e+03
1.570000000000000007e-01 5.503959999999999964e-01 8.003109999999999502e+00 1.316505000000000223e+02 1.447449999999999818e+03
1.580000000000000016e-01 5.503439999999999444e-01 7.917550000000000310e+00 1.314454999999999814e+02 1.447394999999999982e+03
1.590000000000000024e-01 5.502879999999999994e-01 7.817804999999999893e+00 1.312214999999999918e+02 1.447335000000000036e+03
