# t [s], A [cm^2], U [cm/s], P [cPa], c [cm/s]
1.000000000000000021e-03 4.662824999999999331e-01 1.418349999999998778e-03 9.628974999999999795e+01 1.482190000000000055e+03
2.000000000000000042e-03 4.662789999999999990e-01 6.484994999999999475e-03 9.627420000000000755e+01 1.482184999999999945e+03
3.000000000000000062e-03 4.663269999999999915e-01 1.142211500000000213e-01 9.637669999999999959e+01 1.482220000000000027e+03
4.000000000000000083e-03 4.663605000000000111e-01 1.927952499999999736e-01 9.647214999999999918e+01 1.482250000000000000e+03
5.000000000000000104e-03 4.663399999999999768e-01 1.523731500000000127e-01 9.640749999999999886e+01 1.482235000000000127e+03
6.000000000000000125e-03 4.662945000000000562e-01 5.167349999999998333e-02 9.620234999999999559e+01 1.482190000000000055e+03
7.000000000000000146e-03 4.662450000000000205e-01 -6.515999999999999570e-02 9.590640000000000498e+01 1.482115000000000009e+03
8.000000000000000167e-03 4.661635000000000084e-01 -2.626400000000000956e-01 9.545224999999999227e+01 1.482000000000000000e+03
9.000000000000001055e-03 4.660289999999999710e-01 -5.859999999999999654e-01 9.475900000000000034e+01 1.481825000000000045e+03
1.000000000000000194e-02 4.658390000000000031e-01 -1.033470000000000111e+00 9.378794999999999504e+01 1.481569999999999936e+03
1.099999999999999936e-02 4.655835000000000390e-01 -1.611979999999999968e+00 9.249625000000000341e+01 1.481220000000000027e+03
1.200000000000000025e-02 4.652545000000000153e-01 -2.321775000000000144e+00 9.084780000000000655e+01 1.480764999999999873e+03
1.300000000000000114e-02 4.648660000000000014e-01 -3.105239999999999778e+00 8.887735000000000696e+01 1.480210000000000036e+03
1.400000000000000203e-02 4.644614999999999716e-01 -3.839465000000000128e+00 8.672140000000000271e+01 1.479585000000000036e+03
1.499999999999999944e-02 4.640894999999999881e-01 -4.383553499999999659e+00 8.457784999999999798e+01 1.478934999999999945e+03
1.600000000000000033e-02 4.637824999999999864e-01 -4.636878000000000277e+00 8.263040000000000873e+01 1.478309999999999945e+03
1.700000000000000122e-02 4.635500000000000176e-01 -4.570480500000000390e+00 8.098824999999999363e+01 1.477740000000000009e+03
1.800000000000000211e-02 4.633745000000000225e-01 -4.225068499999999894e+00 7.966304999999999836e+01 1.477244999999999891e+03
1.900000000000000300e-02 4.632269999999999444e-01 -3.686722000000000055e+00 7.858249999999999602e+01 1.476809999999999945e+03
2.000000000000000042e-02 4.630739999999999856e-01 -3.054133999999999904e+00 7.762569999999999482e+01 1.476409999999999854e+03
2.100000000000000130e-02 4.628920000000000257e-01 -2.408320999999999934e+00 7.666720000000000823e+01 1.476014999999999873e+03
2.200000000000000219e-02 4.626704999999999846e-01 -1.793754999999999988e+00 7.561449999999999250e+01 1.475605000000000018e+03
2.299999999999999961e-02 4.624135000000000328e-01 -1.215834999999999999e+00 7.442820000000000391e+01 1.475170000000000073e+03
2.400000000000000050e-02 4.621325000000000016e-01 -6.536800000000000388e-01 7.311775000000000091e+01 1.474695000000000164e+03
2.500000000000000139e-02 4.618419999999999748e-01 -8.075499999999991019e-02 7.172155000000000769e+01 1.474204999999999927e+03
2.600000000000000228e-02 4.615489999999999871e-01 5.159500000000001307e-01 7.027924999999999045e+01 1.473700000000000045e+03
2.700000000000000316e-02 4.612545000000000117e-01 1.124535000000000284e+00 6.880965000000000487e+01 1.473174999999999955e+03
2.800000000000000058e-02 4.609489999999999421e-01 1.706739999999999924e+00 6.729879999999999995e+01 1.472634999999999991e+03
2.900000000000000147e-02 4.606179999999999719e-01 2.205010000000000137e+00 6.570019999999999527e+01 1.472079999999999927e+03
3.000000000000000236e-02 4.602430000000000132e-01 2.554929999999999701e+00 6.394620000000000459e+01 1.471474999999999909e+03
3.099999999999999978e-02 4.598099999999999410e-01 2.699639999999999596e+00 6.196529999999999916e+01 1.470809999999999945e+03
3.200000000000000067e-02 4.593099999999999961e-01 2.602870000000000239e+00 5.970234999999999559e+01 1.470075000000000045e+03
3.300000000000000155e-02 4.587444999999999995e-01 2.257695000000000007e+00 5.713609999999999900e+01 1.469259999999999991e+03
3.400000000000000244e-02 4.581244999999999901e-01 1.689144999999999897e+00 5.428974999999999795e+01 1.468360000000000127e+03
3.500000000000000333e-02 4.574700000000000433e-01 9.505899999999991579e-01 5.123284999999999911e+01 1.467400000000000091e+03
3.600000000000000422e-02 4.568090000000000206e-01 1.150999999999999801e-01 4.807404999999999973e+01 1.466409999999999854e+03
3.700000000000000511e-02 4.561695000000000055e-01 -7.357199999999997075e-01 4.494749999999999801e+01 1.465410000000000082e+03
3.799999999999999906e-02 4.555794999999999706e-01 -1.522194999999999965e+00 4.199649999999999750e+01 1.464449999999999818e+03
3.899999999999999994e-02 4.550634999999999541e-01 -2.175119999999999720e+00 3.935739999999999839e+01 1.463559999999999945e+03
4.000000000000000083e-02 4.546400000000000441e-01 -2.640700000000000269e+00 3.714705000000000013e+01 1.462789999999999964e+03
4.100000000000000172e-02 4.543224999999999625e-01 -2.882319999999999549e+00 3.545439999999999969e+01 1.462154999999999973e+03
4.200000000000000261e-02 4.541180000000000216e-01 -2.879523000000000277e+00 3.433684999999999832e+01 1.461684999999999945e+03
4.300000000000000350e-02 4.540279999999999871e-01 -2.625090000000000146e+00 3.382144999999999868e+01 1.461394999999999982e+03
4.400000000000000439e-02 4.540509999999999824e-01 -2.121430000000000149e+00 3.390864999999999441e+01 1.461285000000000082e+03
4.499999999999999833e-02 4.541815000000000158e-01 -1.377170500000000075e+00 3.457805000000000462e+01 1.461355000000000018e+03
4.599999999999999922e-02 4.544135000000000257e-01 -4.046649999999998304e-01 3.579455000000000098e+01 1.461615000000000009e+03
4.700000000000000011e-02 4.547384999999999899e-01 7.812749999999999417e-01 3.751350000000000051e+01 1.462029999999999973e+03
4.800000000000000100e-02 4.551485000000000114e-01 2.163510000000000044e+00 3.968390000000000128e+01 1.462599999999999909e+03
4.900000000000000189e-02 4.556320000000000370e-01 3.722025000000000361e+00 4.225075000000000358e+01 1.463309999999999945e+03
5.000000000000000278e-02 4.561804999999999888e-01 5.432959999999999567e+00 4.515565000000000140e+01 1.464139999999999873e+03
5.100000000000000366e-02 4.567805000000000337e-01 7.268430000000000391e+00 4.833700000000000330e+01 1.465074999999999818e+03
5.200000000000000455e-02 4.574199999999999933e-01 9.196375500000000258e+00 5.173080000000000211e+01 1.466094999999999800e+03
5.300000000000000544e-02 4.580865000000000076e-01 1.118154499999999985e+01 5.527105000000000246e+01 1.467175000000000182e+03
5.399999999999999939e-02 4.587669999999999804e-01 1.318710500000000074e+01 5.889189999999999969e+01 1.468300000000000182e+03
5.500000000000000028e-02 4.594489999999999963e-01 1.517635999999999896e+01 6.252944999999999709e+01 1.469454999999999927e+03
5.600000000000000117e-02 4.601219999999999755e-01 1.711495000000000033e+01 6.612479999999999336e+01 1.470610000000000127e+03
5.700000000000000205e-02 4.607755000000000045e-01 1.897269999999999968e+01 6.962640000000000384e+01 1.471759999999999991e+03
5.800000000000000294e-02 4.614030000000000076e-01 2.072480000000000189e+01 7.299240000000000350e+01 1.472880000000000109e+03
5.900000000000000383e-02 4.619999999999999662e-01 2.235314999999999941e+01 7.619239999999999213e+01 1.473960000000000036e+03
6.000000000000000472e-02 4.625635000000000163e-01 2.384629999999999939e+01 7.920810000000000173e+01 1.474994999999999891e+03
6.099999999999999867e-02 4.630930000000000324e-01 2.519950000000000045e+01 8.203345000000000198e+01 1.475985000000000127e+03
6.199999999999999956e-02 4.635915000000000452e-01 2.641409999999999769e+01 8.467379999999999995e+01 1.476920000000000073e+03
6.300000000000000044e-02 4.640615000000000157e-01 2.749649999999999750e+01 8.714404999999999291e+01 1.477809999999999945e+03
6.400000000000000133e-02 4.645079999999999765e-01 2.845739999999999981e+01 8.946710000000000207e+01 1.478650000000000091e+03
6.500000000000000222e-02 4.649360000000000159e-01 2.931034999999999968e+01 9.167125000000000057e+01 1.479450000000000045e+03
6.600000000000000311e-02 4.653515000000000290e-01 3.007085000000000008e+01 9.378815000000000168e+01 1.480224999999999909e+03
6.700000000000000400e-02 4.657609999999999806e-01 3.075549999999999784e+01 9.585060000000000002e+01 1.480980000000000018e+03
6.800000000000000488e-02 4.661694999999999589e-01 3.138080000000000069e+01 9.788994999999999891e+01 1.481724999999999909e+03
6.900000000000000577e-02 4.665825000000000111e-01 3.196240000000000236e+01 9.993534999999999968e+01 1.482460000000000036e+03
7.000000000000000666e-02 4.670035000000000158e-01 3.251440000000000197e+01 1.020113000000000056e+02 1.483204999999999927e+03
7.100000000000000755e-02 4.674360000000000182e-01 3.304854999999999876e+01 1.041355000000000075e+02 1.483954999999999927e+03
7.200000000000000844e-02 4.678809999999999913e-01 3.357359999999999900e+01 1.063199999999999932e+02 1.484724999999999909e+03
7.300000000000000933e-02 4.683395000000000197e-01 3.409489999999999554e+01 1.085695000000000050e+02 1.485509999999999991e+03
7.399999999999999634e-02 4.688090000000000312e-01 3.461404999999999887e+01 1.108799999999999955e+02 1.486309999999999945e+03
7.499999999999999722e-02 4.692884999999999973e-01 3.512899999999999778e+01 1.132394999999999925e+02 1.487130000000000109e+03
7.599999999999999811e-02 4.697724999999999818e-01 3.563400000000000034e+01 1.156299999999999955e+02 1.487954999999999927e+03
7.699999999999999900e-02 4.702564999999999662e-01 3.612035000000000196e+01 1.180254999999999939e+02 1.488784999999999854e+03
7.799999999999999989e-02 4.707339999999999858e-01 3.657675000000000409e+01 1.203979999999999961e+02 1.489610000000000127e+03
7.900000000000000078e-02 4.711984999999999646e-01 3.699014999999999986e+01 1.227125000000000057e+02 1.490420000000000073e+03
8.000000000000000167e-02 4.716444999999999665e-01 3.734664999999999679e+01 1.249355000000000047e+02 1.491204999999999927e+03
8.100000000000000255e-02 4.720639999999999836e-01 3.763250000000000028e+01 1.270320000000000107e+02 1.491954999999999927e+03
8.200000000000000344e-02 4.724515000000000242e-01 3.783464999999999634e+01 1.289705000000000155e+02 1.492654999999999973e+03
8.300000000000000433e-02 4.728014999999999857e-01 3.794180000000000064e+01 1.307230000000000132e+02 1.493305000000000064e+03
8.400000000000000522e-02 4.731110000000000593e-01 3.794494999999999862e+01 1.322649999999999864e+02 1.493889999999999873e+03
8.500000000000000611e-02 4.733755000000000601e-01 3.783769999999999811e+01 1.335800000000000125e+02 1.494400000000000091e+03
8.600000000000000699e-02 4.735945000000000293e-01 3.761669999999999447e+01 1.346564999999999941e+02 1.494835000000000036e+03
8.700000000000000788e-02 4.737675000000000081e-01 3.728180000000000405e+01 1.354925000000000068e+02 1.495195000000000164e+03
8.800000000000000877e-02 4.738949999999999552e-01 3.683594999999999686e+01 1.360894999999999868e+02 1.495480000000000018e+03
8.899999999999999578e-02 4.739784999999999693e-01 3.628509999999999991e+01 1.364574999999999818e+02 1.495684999999999945e+03
8.999999999999999667e-02 4.740225000000000133e-01 3.563795000000000357e+01 1.366125000000000114e+02 1.495815000000000055e+03
9.099999999999999756e-02 4.740294999999999925e-01 3.490545000000000186e+01 1.365749999999999886e+02 1.495884999999999991e+03
9.199999999999999845e-02 4.740050000000000097e-01 3.410060000000000002e+01 1.363684999999999832e+02 1.495884999999999991e+03
9.299999999999999933e-02 4.739539999999999864e-01 3.323769999999999669e+01 1.360215000000000032e+02 1.495835000000000036e+03
9.400000000000000022e-02 4.738824999999999843e-01 3.233194999999999908e+01 1.355629999999999882e+02 1.495744999999999891e+03
9.500000000000000111e-02 4.737950000000000217e-01 3.139889999999999759e+01 1.350215000000000032e+02 1.495610000000000127e+03
9.600000000000000200e-02 4.736974999999999936e-01 3.045389999999999731e+01 1.344275000000000091e+02 1.495460000000000036e+03
9.700000000000000289e-02 4.735949999999999882e-01 2.951154999999999973e+01 1.338079999999999927e+02 1.495284999999999854e+03
9.800000000000000377e-02 4.734924999999999828e-01 2.858520000000000039e+01 1.331875000000000000e+02 1.495099999999999909e+03
9.900000000000000466e-02 4.733935000000000226e-01 2.768645000000000067e+01 1.325894999999999868e+02 1.494920000000000073e+03
1.000000000000000056e-01 4.733010000000000272e-01 2.682495000000000118e+01 1.320300000000000011e+02 1.494740000000000009e+03
1.010000000000000064e-01 4.732180000000000275e-01 2.600795000000000101e+01 1.315240000000000009e+02 1.494575000000000045e+03
1.020000000000000073e-01 4.731454999999999966e-01 2.524024999999999963e+01 1.310790000000000077e+02 1.494420000000000073e+03
1.030000000000000082e-01 4.730845000000000189e-01 2.452400000000000091e+01 1.307005000000000052e+02 1.494285000000000082e+03
1.040000000000000091e-01 4.730345000000000244e-01 2.385895000000000010e+01 1.303874999999999886e+02 1.494164999999999964e+03
1.050000000000000100e-01 4.729940000000000255e-01 2.324235000000000184e+01 1.301340000000000146e+02 1.494059999999999945e+03
1.059999999999999970e-01 4.729619999999999935e-01 2.266944999999999766e+01 1.299325000000000045e+02 1.493974999999999909e+03
1.069999999999999979e-01 4.729355000000000642e-01 2.213374999999999915e+01 1.297710000000000150e+02 1.493905000000000200e+03
1.079999999999999988e-01 4.729130000000000278e-01 2.162734999999999985e+01 1.296345000000000027e+02 1.493840000000000146e+03
1.089999999999999997e-01 4.728895000000000182e-01 2.114135000000000275e+01 1.295084999999999980e+02 1.493784999999999854e+03
1.100000000000000006e-01 4.728634999999999922e-01 2.066649999999999920e+01 1.293745000000000118e+02 1.493724999999999909e+03
1.110000000000000014e-01 4.728310000000000013e-01 2.019350000000000023e+01 1.292179999999999893e+02 1.493659999999999854e+03
1.120000000000000023e-01 4.727900000000000436e-01 1.971354999999999791e+01 1.290225000000000080e+02 1.493590000000000146e+03
1.130000000000000032e-01 4.727384999999999504e-01 1.921855000000000047e+01 1.287734999999999843e+02 1.493505000000000109e+03
1.140000000000000041e-01 4.726730000000000098e-01 1.870179999999999865e+01 1.284610000000000127e+02 1.493400000000000091e+03
1.150000000000000050e-01 4.725929999999999853e-01 1.815794999999999959e+01 1.280755000000000052e+02 1.493275000000000091e+03
1.160000000000000059e-01 4.724975000000000147e-01 1.758340000000000103e+01 1.276119999999999948e+02 1.493125000000000000e+03
1.170000000000000068e-01 4.723870000000000013e-01 1.697644999999999982e+01 1.270679999999999978e+02 1.492954999999999927e+03
1.180000000000000077e-01 4.722615000000000007e-01 1.633724999999999739e+01 1.264459999999999980e+02 1.492759999999999991e+03
1.190000000000000085e-01 4.721219999999999861e-01 1.566795000000000115e+01 1.257510000000000048e+02 1.492539999999999964e+03
1.200000000000000094e-01 4.719710000000000294e-01 1.497240000000000038e+01 1.249900000000000091e+02 1.492299999999999955e+03
1.209999999999999964e-01 4.718100000000000072e-01 1.425610500000000158e+01 1.241760000000000019e+02 1.492039999999999964e+03
1.219999999999999973e-01 4.716424999999999645e-01 1.352605499999999950e+01 1.233209999999999980e+02 1.491764999999999873e+03
1.229999999999999982e-01 4.714705000000000146e-01 1.279030000000000022e+01 1.224414999999999907e+02 1.491480000000000018e+03
1.239999999999999991e-01 4.712985000000000091e-01 1.205776999999999965e+01 1.215534999999999997e+02 1.491195000000000164e+03
1.250000000000000000e-01 4.711290000000000200e-01 1.133775999999999939e+01 1.206744999999999948e+02 1.490900000000000091e+03
1.260000000000000009e-01 4.709654999999999814e-01 1.063969499999999968e+01 1.198215000000000003e+02 1.490615000000000009e+03
1.270000000000000018e-01 4.708105000000000206e-01 9.972625000000000739e+00 1.190105000000000075e+02 1.490340000000000146e+03
1.280000000000000027e-01 4.706679999999999753e-01 9.344960000000000377e+00 1.182574999999999932e+02 1.490075000000000045e+03
1.290000000000000036e-01 4.705390000000000406e-01 8.764115000000000322e+00 1.175749999999999886e+02 1.489835000000000036e+03
1.300000000000000044e-01 4.704260000000000108e-01 8.236235000000000639e+00 1.169729999999999990e+02 1.489615000000000009e+03
1.310000000000000053e-01 4.703300000000000258e-01 7.765990000000000393e+00 1.164594999999999914e+02 1.489420000000000073e+03
1.320000000000000062e-01 4.702524999999999622e-01 7.356310000000000571e+00 1.160395000000000039e+02 1.489255000000000109e+03
1.330000000000000071e-01 4.701929999999999721e-01 7.008555000000000312e+00 1.157139999999999986e+02 1.489119999999999891e+03
1.340000000000000080e-01 4.701509999999999856e-01 6.722319999999999851e+00 1.154819999999999993e+02 1.489014999999999873e+03
1.350000000000000089e-01 4.701250000000000151e-01 6.495589999999999975e+00 1.153379999999999939e+02 1.488934999999999945e+03
1.360000000000000098e-01 4.701150000000000051e-01 6.324899999999999523e+00 1.152759999999999962e+02 1.488880000000000109e+03
1.370000000000000107e-01 4.701174999999999660e-01 6.205494999999999983e+00 1.152864999999999895e+02 1.488855000000000018e+03
1.380000000000000115e-01 4.701315000000000355e-01 6.131605000000000416e+00 1.153580000000000041e+02 1.488849999999999909e+03
1.390000000000000124e-01 4.701539999999999608e-01 6.096700000000000230e+00 1.154799999999999898e+02 1.488865000000000009e+03
1.400000000000000133e-01 4.701825000000000587e-01 6.093750000000000000e+00 1.156374999999999886e+02 1.488889999999999873e+03
1.410000000000000142e-01 4.702155000000000085e-01 6.115524999999999878e+00 1.158195000000000050e+02 1.488934999999999945e+03
1.420000000000000151e-01 4.702500000000000568e-01 6.154819999999999958e+00 1.160124999999999886e+02 1.488980000000000018e+03
1.430000000000000160e-01 4.702834999999999654e-01 6.204734999999999445e+00 1.162055000000000007e+02 1.489030000000000200e+03
1.440000000000000169e-01 4.703150000000000386e-01 6.258844999999999992e+00 1.163874999999999886e+02 1.489079999999999927e+03
1.450000000000000178e-01 4.703420000000000378e-01 6.311374999999999957e+00 1.165499999999999972e+02 1.489125000000000000e+03
1.459999999999999909e-01 4.703644999999999632e-01 6.357364999999999711e+00 1.166864999999999952e+02 1.489164999999999964e+03
1.469999999999999918e-01 4.703800000000000203e-01 6.392694999999999794e+00 1.167895000000000039e+02 1.489194999999999936e+03
1.479999999999999927e-01 4.703895000000000159e-01 6.414200000000000124e+00 1.168575000000000017e+02 1.489219999999999800e+03
1.489999999999999936e-01 4.703910000000000036e-01 6.419645000000000046e+00 1.168870000000000005e+02 1.489235000000000127e+03
1.499999999999999944e-01 4.703864999999999852e-01 6.407700000000000173e+00 1.168785000000000025e+02 1.489235000000000127e+03
1.509999999999999953e-01 4.703744999999999732e-01 6.377919999999999590e+00 1.168325000000000102e+02 1.489230000000000018e+03
1.519999999999999962e-01 4.703565000000000107e-01 6.330624999999999503e+00 1.167530000000000001e+02 1.489204999999999927e+03
1.529999999999999971e-01 4.703330000000000011e-01 6.266849999999999810e+00 1.166419999999999959e+02 1.489179999999999836e+03
1.539999999999999980e-01 4.703050000000000286e-01 6.188209999999999766e+00 1.165049999999999955e+02 1.489139999999999873e+03
1.549999999999999989e-01 4.702735000000000110e-01 6.096764999999999546e+00 1.163455000000000013e+02 1.489094999999999800e+03
1.559999999999999998e-01 4.702389999999999626e-01 5.994930000000000092e+00 1.161694999999999993e+02 1.489045000000000073e+03
1.570000000000000007e-01 4.702030000000000376e-01 5.885324999999999918e+00 1.159825000000000017e+02 1.488985000000000127e+03
1.580000000000000016e-01 4.701659999999999728e-01 5.770645000000000024e+00 1.157884999999999991e+02 1.488924999999999955e+03
1.590000000000000024e-01 4.701285000000000602e-01 5.653584999999999638e+00 1.155929999999999893e+02 1.488869999999999891e+03
