# t [s], A [cm^2], U [cm/s], P [cPa], c [cm/s]
1.000000000000000021e-03 1.934309999999999918e-01 2.858789999999999942e-01 9.445924999999999727e+01 2.089140000000000327e+03
2.000000000000000042e-03 1.933844999999999870e-01 1.733139500000000055e+00 9.130074999999999363e+01 2.088795000000000073e+03
3.000000000000000062e-03 1.932530000000000081e-01 3.529620500000000050e+00 8.692404999999999404e+01 2.087860000000000127e+03
4.000000000000000083e-03 1.930709999999999926e-01 5.555086500000000704e+00 8.212879999999999825e+01 2.086574999999999818e+03
5.000000000000000104e-03 1.928739999999999899e-01 7.742309999999999803e+00 7.779744999999999777e+01 2.085199999999999818e+03
6.000000000000000125e-03 1.926829999999999932e-01 9.921440000000000481e+00 7.423609999999999332e+01 2.083880000000000109e+03
7.000000000000000146e-03 1.925044999999999951e-01 1.187870500000000007e+01 7.120355000000000700e+01 2.082664999999999964e+03
8.000000000000000167e-03 1.923384999999999956e-01 1.352808500000000080e+01 6.846250000000000568e+01 2.081565000000000055e+03
9.000000000000001055e-03 1.921924999999999883e-01 1.490579999999999927e+01 6.606449999999999534e+01 2.080605000000000018e+03
1.000000000000000194e-02 1.920685000000000031e-01 1.604769999999999897e+01 6.409409999999999741e+01 2.079795000000000073e+03
1.099999999999999936e-02 1.919664999999999844e-01 1.696835000000000093e+01 6.253294999999999959e+01 2.079139999999999873e+03
1.200000000000000025e-02 1.918845000000000134e-01 1.767900000000000205e+01 6.131539999999999679e+01 2.078619999999999891e+03
1.300000000000000114e-02 1.918189999999999895e-01 1.818200000000000216e+01 6.033700000000000330e+01 2.078210000000000036e+03
1.400000000000000203e-02 1.917639999999999900e-01 1.848744999999999905e+01 5.948085000000000377e+01 2.077875000000000000e+03
1.499999999999999944e-02 1.917190000000000005e-01 1.865874999999999773e+01 5.874699999999999989e+01 2.077610000000000127e+03
1.600000000000000033e-02 1.916879999999999973e-01 1.882620000000000005e+01 5.835129999999999484e+01 2.077425000000000182e+03
1.700000000000000122e-02 1.916805000000000037e-01 1.913735000000000142e+01 5.864589999999999748e+01 2.077385000000000218e+03
1.800000000000000211e-02 1.917044999999999999e-01 1.967950000000000088e+01 5.989809999999999945e+01 2.077550000000000182e+03
1.900000000000000300e-02 1.917629999999999890e-01 2.043039999999999878e+01 6.209210000000000207e+01 2.077925000000000182e+03
2.000000000000000042e-02 1.918479999999999908e-01 2.126559999999999917e+01 6.488124999999999432e+01 2.078484999999999673e+03
2.100000000000000130e-02 1.919460000000000055e-01 2.201100000000000279e+01 6.770404999999999518e+01 2.079130000000000109e+03
2.200000000000000219e-02 1.920385000000000009e-01 2.251024999999999920e+01 6.998724999999998886e+01 2.079750000000000000e+03
2.299999999999999961e-02 1.921100000000000030e-01 2.267614999999999981e+01 7.133830000000000382e+01 2.080239999999999782e+03
2.400000000000000050e-02 1.921519999999999895e-01 2.251085000000000136e+01 7.165205000000000268e+01 2.080539999999999964e+03
2.500000000000000139e-02 1.921644999999999881e-01 2.209065000000000012e+01 7.110245000000000459e+01 2.080640000000000327e+03
2.600000000000000228e-02 1.921535000000000049e-01 2.152700000000000102e+01 7.003790000000000759e+01 2.080585000000000036e+03
2.700000000000000316e-02 1.921289999999999942e-01 2.092195000000000249e+01 6.883244999999999436e+01 2.080440000000000055e+03
2.800000000000000058e-02 1.920999999999999930e-01 2.033579999999999899e+01 6.775520000000000209e+01 2.080250000000000000e+03
2.900000000000000147e-02 1.920715000000000061e-01 1.977595000000000169e+01 6.690170000000000528e+01 2.080065000000000055e+03
3.000000000000000236e-02 1.920455000000000079e-01 1.920785000000000053e+01 6.620074999999999932e+01 2.079889999999999873e+03
3.099999999999999978e-02 1.920179999999999942e-01 1.857954999999999757e+01 6.548080000000000211e+01 2.079715000000000146e+03
3.200000000000000067e-02 1.919859999999999900e-01 1.785040000000000049e+01 6.456380000000000052e+01 2.079505000000000109e+03
3.300000000000000155e-02 1.919445000000000179e-01 1.701395000000000124e+01 6.335289999999999822e+01 2.079239999999999782e+03
3.400000000000000244e-02 1.918945000000000234e-01 1.610855000000000103e+01 6.188615000000000066e+01 2.078920000000000073e+03
3.500000000000000333e-02 1.918384999999999951e-01 1.521180000000000021e+01 6.034024999999999750e+01 2.078555000000000291e+03
3.600000000000000422e-02 1.917844999999999966e-01 1.442229999999999990e+01 5.898649999999999949e+01 2.078204999999999927e+03
3.700000000000000511e-02 1.917409999999999948e-01 1.383330000000000126e+01 5.811254999999999882e+01 2.077909999999999854e+03
3.799999999999999906e-02 1.917169999999999985e-01 1.350795000000000101e+01 5.793874999999999886e+01 2.077739999999999782e+03
3.899999999999999994e-02 1.917174999999999851e-01 1.346304999999999907e+01 5.855445000000000277e+01 2.077730000000000018e+03
4.000000000000000083e-02 1.917439999999999978e-01 1.366515000000000057e+01 5.989100000000000534e+01 2.077890000000000327e+03
4.100000000000000172e-02 1.917929999999999913e-01 1.403824999999999967e+01 6.173664999999999736e+01 2.078189999999999600e+03
4.200000000000000261e-02 1.918555000000000121e-01 1.448045000000000115e+01 6.378324999999999534e+01 2.078595000000000255e+03
4.300000000000000350e-02 1.919230000000000103e-01 1.488295000000000101e+01 6.568965000000000032e+01 2.079029999999999745e+03
4.400000000000000439e-02 1.919835000000000014e-01 1.514840000000000053e+01 6.714414999999999623e+01 2.079425000000000182e+03
4.499999999999999833e-02 1.920275000000000176e-01 1.520359999999999978e+01 6.791290000000000759e+01 2.079724999999999909e+03
4.599999999999999922e-02 1.920485000000000109e-01 1.500544999999999973e+01 6.786580000000000723e+01 2.079864999999999782e+03
4.700000000000000011e-02 1.920415000000000039e-01 1.454169999999999874e+01 6.697935000000001082e+01 2.079829999999999927e+03
4.800000000000000100e-02 1.920054999999999956e-01 1.382520000000000060e+01 6.532009999999999650e+01 2.079614999999999782e+03
4.900000000000000189e-02 1.919440000000000035e-01 1.288690000000000069e+01 6.301650000000000063e+01 2.079215000000000146e+03
5.000000000000000278e-02 1.918590000000000018e-01 1.176754500000000014e+01 6.022750000000000625e+01 2.078670000000000073e+03
5.100000000000000366e-02 1.917564999999999964e-01 1.051154999999999973e+01 5.711584999999999468e+01 2.078005000000000109e+03
5.200000000000000455e-02 1.916410000000000058e-01 9.162770000000000081e+00 5.383039999999999736e+01 2.077250000000000000e+03
5.300000000000000544e-02 1.915180000000000216e-01 7.763090000000000046e+00 5.049810000000000088e+01 2.076445000000000164e+03
5.399999999999999939e-02 1.913914999999999922e-01 6.352735000000000021e+00 4.722530000000000427e+01 2.075609999999999673e+03
5.500000000000000028e-02 1.912654999999999772e-01 4.971534999999999371e+00 4.410384999999999422e+01 2.074784999999999854e+03
5.600000000000000117e-02 1.911439999999999806e-01 3.660229999999999873e+00 4.121909999999999741e+01 2.073985000000000127e+03
5.700000000000000205e-02 1.910310000000000064e-01 2.461094999999999811e+00 3.865630000000000166e+01 2.073239999999999782e+03
5.800000000000000294e-02 1.909295000000000020e-01 1.417464999999999975e+00 3.650359999999999872e+01 2.072569999999999709e+03
5.900000000000000383e-02 1.908440000000000136e-01 5.721650000000000347e-01 3.485040000000000049e+01 2.071994999999999891e+03
6.000000000000000472e-02 1.907780000000000031e-01 -3.495000000000003659e-02 3.378284999999999627e+01 2.071550000000000182e+03
6.099999999999999867e-02 1.907340000000000146e-01 -3.698200000000000376e-01 3.337619999999999720e+01 2.071244999999999891e+03
6.199999999999999956e-02 1.907154999999999823e-01 -4.069315000000000015e-01 3.368704999999999927e+01 2.071105000000000018e+03
6.300000000000000044e-02 1.907244999999999913e-01 -1.314699999999999758e-01 3.474654999999999916e+01 2.071144999999999982e+03
6.400000000000000133e-02 1.907619999999999871e-01 4.593875000000000597e-01 3.655610000000000070e+01 2.071369999999999891e+03
6.500000000000000222e-02 1.908285000000000120e-01 1.356212999999999891e+00 3.908590000000000231e+01 2.071789999999999964e+03
6.600000000000000311e-02 1.909224999999999950e-01 2.538027899999999892e+00 4.227665000000000362e+01 2.072385000000000218e+03
6.700000000000000400e-02 1.910415000000000030e-01 3.973825500000000233e+00 4.604425000000000523e+01 2.073150000000000091e+03
6.800000000000000488e-02 1.911829999999999918e-01 5.624660000000000437e+00 5.028525000000000489e+01 2.074065000000000055e+03
6.900000000000000577e-02 1.913440000000000141e-01 7.446105000000000196e+00 5.488495000000000346e+01 2.075110000000000127e+03
7.000000000000000666e-02 1.915189999999999948e-01 9.390945000000000320e+00 5.972404999999999831e+01 2.076255000000000109e+03
7.100000000000000755e-02 1.917044999999999999e-01 1.141164500000000004e+01 6.468675000000000352e+01 2.077470000000000255e+03
7.200000000000000844e-02 1.918969999999999843e-01 1.346302999999999983e+01 6.966689999999999827e+01 2.078730000000000018e+03
7.300000000000000933e-02 1.920910000000000117e-01 1.550430000000000064e+01 7.457370000000000232e+01 2.080010000000000218e+03
7.399999999999999634e-02 1.922844999999999971e-01 1.750104999999999933e+01 7.933625000000000682e+01 2.081295000000000073e+03
7.499999999999999722e-02 1.924735000000000196e-01 1.942650000000000077e+01 8.390585000000000093e+01 2.082550000000000182e+03
7.599999999999999811e-02 1.926574999999999815e-01 2.126200000000000045e+01 8.825709999999999411e+01 2.083774999999999636e+03
7.699999999999999900e-02 1.928344999999999920e-01 2.299725000000000108e+01 9.238649999999999807e+01 2.084954999999999927e+03
7.799999999999999989e-02 1.930044999999999955e-01 2.462969999999999970e+01 9.631069999999999709e+01 2.086095000000000255e+03
7.900000000000000078e-02 1.931680000000000064e-01 2.616300000000000026e+01 1.000598500000000115e+02 2.087190000000000055e+03
8.000000000000000167e-02 1.933254999999999835e-01 2.760589999999999833e+01 1.036753500000000088e+02 2.088250000000000000e+03
8.100000000000000255e-02 1.934784999999999977e-01 2.897005000000000052e+01 1.072015000000000100e+02 2.089284999999999854e+03
8.200000000000000344e-02 1.936289999999999956e-01 3.026854999999999762e+01 1.106825000000000045e+02 2.090289999999999964e+03
8.300000000000000433e-02 1.937770000000000048e-01 3.151424999999999699e+01 1.141560000000000059e+02 2.091295000000000073e+03
8.400000000000000522e-02 1.939255000000000007e-01 3.271815000000000140e+01 1.176514999999999986e+02 2.092295000000000073e+03
8.500000000000000611e-02 1.940739999999999965e-01 3.388875000000000171e+01 1.211864999999999952e+02 2.093295000000000073e+03
8.600000000000000699e-02 1.942240000000000077e-01 3.503130000000000166e+01 1.247665000000000077e+02 2.094300000000000182e+03
8.700000000000000788e-02 1.943749999999999922e-01 3.614744999999999919e+01 1.283865000000000123e+02 2.095319999999999709e+03
8.800000000000000877e-02 1.945270000000000055e-01 3.723525000000000063e+01 1.320279999999999916e+02 2.096345000000000255e+03
8.899999999999999578e-02 1.946789999999999909e-01 3.828960000000000008e+01 1.356655000000000086e+02 2.097369999999999891e+03
8.999999999999999667e-02 1.948305000000000176e-01 3.930249999999999488e+01 1.392669999999999959e+02 2.098390000000000327e+03
9.099999999999999756e-02 1.949805000000000010e-01 4.026364999999999839e+01 1.427939999999999827e+02 2.099409999999999854e+03
9.199999999999999845e-02 1.951275000000000093e-01 4.116125000000000256e+01 1.462060000000000173e+02 2.100394999999999982e+03
9.299999999999999933e-02 1.952694999999999848e-01 4.198255000000000337e+01 1.494624999999999773e+02 2.101355000000000018e+03
9.400000000000000022e-02 1.954055000000000097e-01 4.271455000000000268e+01 1.525244999999999891e+02 2.102284999999999854e+03
9.500000000000000111e-02 1.955334999999999990e-01 4.334475000000000477e+01 1.553545000000000016e+02 2.103149999999999636e+03
9.600000000000000200e-02 1.956525000000000070e-01 4.386195000000000022e+01 1.579214999999999804e+02 2.103960000000000036e+03
9.700000000000000289e-02 1.957610000000000183e-01 4.425659999999999883e+01 1.601995000000000005e+02 2.104699999999999818e+03
9.800000000000000377e-02 1.958584999999999909e-01 4.452174999999999727e+01 1.621694999999999993e+02 2.105369999999999891e+03
9.900000000000000466e-02 1.959440000000000071e-01 4.465319999999999823e+01 1.638204999999999814e+02 2.105954999999999927e+03
1.000000000000000056e-01 1.960169999999999968e-01 4.465005000000000024e+01 1.651510000000000105e+02 2.106460000000000036e+03
1.010000000000000064e-01 1.960775000000000157e-01 4.451474999999999937e+01 1.661664999999999850e+02 2.106875000000000000e+03
1.020000000000000073e-01 1.961255000000000082e-01 4.425314999999999799e+01 1.668824999999999932e+02 2.107210000000000036e+03
1.030000000000000082e-01 1.961614999999999887e-01 4.387440000000000140e+01 1.673220000000000027e+02 2.107465000000000146e+03
1.040000000000000091e-01 1.961864999999999859e-01 4.339029999999999632e+01 1.675140000000000100e+02 2.107644999999999982e+03
1.050000000000000100e-01 1.962015000000000009e-01 4.281499999999999773e+01 1.674934999999999832e+02 2.107760000000000218e+03
1.059999999999999970e-01 1.962079999999999935e-01 4.216429999999999723e+01 1.672975000000000136e+02 2.107810000000000400e+03
1.069999999999999979e-01 1.962075000000000069e-01 4.145485000000000042e+01 1.669654999999999916e+02 2.107815000000000055e+03
1.079999999999999988e-01 1.962004999999999999e-01 4.070345000000000368e+01 1.665360000000000014e+02 2.107775000000000091e+03
1.089999999999999997e-01 1.961900000000000033e-01 3.992640000000000100e+01 1.660455000000000041e+02 2.107704999999999927e+03
1.100000000000000006e-01 1.961755000000000027e-01 3.913894999999999413e+01 1.655264999999999986e+02 2.107609999999999673e+03
1.110000000000000014e-01 1.961594999999999867e-01 3.835429999999999495e+01 1.650070000000000050e+02 2.107505000000000109e+03
1.120000000000000023e-01 1.961424999999999974e-01 3.758384999999999820e+01 1.645084999999999980e+02 2.107394999999999982e+03
1.130000000000000032e-01 1.961259999999999948e-01 3.683624999999999972e+01 1.640464999999999804e+02 2.107279999999999745e+03
1.140000000000000041e-01 1.961094999999999922e-01 3.611749999999999972e+01 1.636305000000000121e+02 2.107170000000000073e+03
1.150000000000000050e-01 1.960949999999999915e-01 3.543094999999999573e+01 1.632624999999999886e+02 2.107069999999999709e+03
1.160000000000000059e-01 1.960810000000000053e-01 3.477705000000000268e+01 1.629384999999999764e+02 2.106975000000000364e+03
1.170000000000000068e-01 1.960684999999999789e-01 3.415395000000000181e+01 1.626494999999999891e+02 2.106885000000000218e+03
1.180000000000000077e-01 1.960569999999999813e-01 3.355729999999999791e+01 1.623804999999999836e+02 2.106805000000000291e+03
1.190000000000000085e-01 1.960450000000000248e-01 3.298100000000000165e+01 1.621134999999999877e+02 2.106730000000000018e+03
1.200000000000000094e-01 1.960334999999999994e-01 3.241750000000000398e+01 1.618284999999999911e+02 2.106644999999999982e+03
1.209999999999999964e-01 1.960210000000000008e-01 3.185829999999999984e+01 1.615035000000000025e+02 2.106555000000000291e+03
1.219999999999999973e-01 1.960069999999999868e-01 3.129460000000000264e+01 1.611159999999999854e+02 2.106465000000000146e+03
1.229999999999999982e-01 1.959899999999999975e-01 3.071764999999999901e+01 1.606460000000000150e+02 2.106344999999999800e+03
1.239999999999999991e-01 1.959700000000000053e-01 3.011950000000000216e+01 1.600749999999999886e+02 2.106210000000000036e+03
1.250000000000000000e-01 1.959460000000000091e-01 2.949334999999999951e+01 1.593885000000000218e+02 2.106050000000000182e+03
1.260000000000000009e-01 1.959174999999999944e-01 2.883399999999999963e+01 1.585765000000000100e+02 2.105859999999999673e+03
1.270000000000000018e-01 1.958845000000000169e-01 2.813814999999999955e+01 1.576349999999999909e+02 2.105635000000000218e+03
1.280000000000000027e-01 1.958464999999999789e-01 2.740474999999999994e+01 1.565645000000000095e+02 2.105375000000000000e+03
1.290000000000000036e-01 1.958035000000000192e-01 2.663504999999999967e+01 1.553714999999999975e+02 2.105090000000000146e+03
1.300000000000000044e-01 1.957554999999999990e-01 2.583265000000000100e+01 1.540690000000000168e+02 2.104769999999999982e+03
1.310000000000000053e-01 1.957035000000000025e-01 2.500309999999999988e+01 1.526744999999999948e+02 2.104420000000000073e+03
1.320000000000000062e-01 1.956479999999999886e-01 2.415424999999999756e+01 1.512094999999999914e+02 2.104050000000000182e+03
1.330000000000000071e-01 1.955899999999999861e-01 2.329534999999999911e+01 1.497015000000000100e+02 2.103654999999999745e+03
1.340000000000000080e-01 1.955299999999999816e-01 2.243684999999999974e+01 1.481759999999999877e+02 2.103255000000000109e+03
1.350000000000000089e-01 1.954695000000000182e-01 2.158995000000000175e+01 1.466639999999999873e+02 2.102850000000000364e+03
1.360000000000000098e-01 1.954089999999999994e-01 2.076599999999999824e+01 1.451935000000000002e+02 2.102439999999999600e+03
1.370000000000000107e-01 1.953504999999999825e-01 1.997595000000000098e+01 1.437925000000000182e+02 2.102045000000000073e+03
1.380000000000000115e-01 1.952939999999999954e-01 1.922994999999999877e+01 1.424844999999999970e+02 2.101659999999999854e+03
1.390000000000000124e-01 1.952409999999999979e-01 1.853689999999999927e+01 1.412905000000000086e+02 2.101305000000000291e+03
1.400000000000000133e-01 1.951915000000000178e-01 1.790394999999999825e+01 1.402269999999999754e+02 2.100970000000000255e+03
1.410000000000000142e-01 1.951479999999999881e-01 1.733660000000000068e+01 1.393045000000000186e+02 2.100670000000000073e+03
1.420000000000000151e-01 1.951089999999999769e-01 1.683820000000000050e+01 1.385294999999999845e+02 2.100404999999999745e+03
1.430000000000000160e-01 1.950759999999999994e-01 1.640994999999999848e+01 1.379039999999999964e+02 2.100175000000000182e+03
1.440000000000000169e-01 1.950479999999999992e-01 1.605144999999999911e+01 1.374225000000000136e+02 2.099985000000000127e+03
1.450000000000000178e-01 1.950259999999999772e-01 1.576004999999999967e+01 1.370780000000000030e+02 2.099829999999999927e+03
1.459999999999999909e-01 1.950089999999999879e-01 1.553180000000000049e+01 1.368594999999999970e+02 2.099710000000000036e+03
1.469999999999999918e-01 1.949974999999999903e-01 1.536134999999999984e+01 1.367535000000000025e+02 2.099630000000000109e+03
1.479999999999999927e-01 1.949899999999999967e-01 1.524230000000000018e+01 1.367429999999999950e+02 2.099569999999999709e+03
1.489999999999999936e-01 1.949865000000000070e-01 1.516764999999999830e+01 1.368120000000000118e+02 2.099539999999999964e+03
1.499999999999999944e-01 1.949859999999999927e-01 1.512985000000000113e+01 1.369429999999999836e+02 2.099534999999999854e+03
1.509999999999999953e-01 1.949885000000000090e-01 1.512134999999999962e+01 1.371200000000000045e+02 2.099545000000000073e+03
1.519999999999999962e-01 1.949929999999999997e-01 1.513475000000000037e+01 1.373269999999999982e+02 2.099570000000000164e+03
1.529999999999999971e-01 1.949990000000000057e-01 1.516305000000000014e+01 1.375494999999999948e+02 2.099614999999999782e+03
1.539999999999999980e-01 1.950054999999999983e-01 1.519979999999999976e+01 1.377754999999999939e+02 2.099655000000000200e+03
1.549999999999999989e-01 1.950129999999999919e-01 1.523924999999999841e+01 1.379935000000000116e+02 2.099704999999999927e+03
1.559999999999999998e-01 1.950199999999999989e-01 1.527665000000000006e+01 1.381959999999999980e+02 2.099750000000000000e+03
1.570000000000000007e-01 1.950270000000000059e-01 1.530809999999999960e+01 1.383765000000000214e+02 2.099795000000000073e+03
1.580000000000000016e-01 1.950334999999999985e-01 1.533054999999999879e+01 1.385314999999999941e+02 2.099840000000000146e+03
1.590000000000000024e-01 1.950390000000000179e-01 1.534220000000000006e+01 1.386585000000000036e+02 2.099869999999999891e+03
