# t [s], A [cm^2], U [cm/s], P [cPa], c [cm/s]
1.000000000000000021e-03 1.350485000000000158e-01 4.094154999999999878e-01 9.036375000000001023e+01 1.851575000000000045e+03
2.000000000000000042e-03 1.350139999999999951e-01 2.014498499999999748e+00 8.715444999999999709e+01 1.851204999999999927e+03
3.000000000000000062e-03 1.349124999999999908e-01 3.926949000000000023e+00 8.296455000000000268e+01 1.850150000000000091e+03
4.000000000000000083e-03 1.347705000000000153e-01 6.034627500000000033e+00 7.855474999999999852e+01 1.848690000000000055e+03
5.000000000000000104e-03 1.346144999999999980e-01 8.274815000000000254e+00 7.469620000000000459e+01 1.847110000000000127e+03
6.000000000000000125e-03 1.344624999999999848e-01 1.049083000000000077e+01 7.161050000000000182e+01 1.845575000000000045e+03
7.000000000000000146e-03 1.343190000000000217e-01 1.249235499999999988e+01 6.905545000000000755e+01 1.844154999999999973e+03
8.000000000000000167e-03 1.341864999999999863e-01 1.419557000000000002e+01 6.677760000000000673e+01 1.842855000000000018e+03
9.000000000000001055e-03 1.340664999999999774e-01 1.563210000000000122e+01 6.477864999999999895e+01 1.841710000000000036e+03
1.000000000000000194e-02 1.339639999999999997e-01 1.684069999999999823e+01 6.312765000000000271e+01 1.840730000000000018e+03
1.099999999999999936e-02 1.338769999999999960e-01 1.783409999999999940e+01 6.180489999999999640e+01 1.839914999999999964e+03
1.200000000000000025e-02 1.338055000000000216e-01 1.862584999999999980e+01 6.075650000000000261e+01 1.839250000000000000e+03
1.300000000000000114e-02 1.337479999999999780e-01 1.923100000000000165e+01 5.993164999999999765e+01 1.838714999999999918e+03
1.400000000000000203e-02 1.337010000000000143e-01 1.965834999999999866e+01 5.926099999999999568e+01 1.838299999999999955e+03
1.499999999999999944e-02 1.336629999999999763e-01 1.993209999999999837e+01 5.869055000000000177e+01 1.837960000000000036e+03
1.600000000000000033e-02 1.336324999999999874e-01 2.012389999999999901e+01 5.827720000000000056e+01 1.837695000000000164e+03
1.700000000000000122e-02 1.336140000000000105e-01 2.035020000000000095e+01 5.822700000000000387e+01 1.837545000000000073e+03
1.800000000000000211e-02 1.336130000000000095e-01 2.072525000000000261e+01 5.880570000000000164e+01 1.837545000000000073e+03
1.900000000000000300e-02 1.336350000000000038e-01 2.130299999999999727e+01 6.017470000000000141e+01 1.837764999999999873e+03
2.000000000000000042e-02 1.336809999999999943e-01 2.204540000000000077e+01 6.226415000000000077e+01 1.838204999999999927e+03
2.100000000000000130e-02 1.337464999999999904e-01 2.283270000000000266e+01 6.475764999999999816e+01 1.838829999999999927e+03
2.200000000000000219e-02 1.338205000000000089e-01 2.350675000000000026e+01 6.718665000000000020e+01 1.839539999999999964e+03
2.299999999999999961e-02 1.338909999999999823e-01 2.392454999999999998e+01 6.908250000000001023e+01 1.840224999999999909e+03
2.400000000000000050e-02 1.339460000000000095e-01 2.400169999999999959e+01 7.012059999999999604e+01 1.840769999999999982e+03
2.500000000000000139e-02 1.339795000000000014e-01 2.373235000000000028e+01 7.020564999999999145e+01 1.841115000000000009e+03
2.600000000000000228e-02 1.339885000000000104e-01 2.318144999999999811e+01 6.947589999999999577e+01 1.841224999999999909e+03
2.700000000000000316e-02 1.339774999999999994e-01 2.245674999999999955e+01 6.823314999999999486e+01 1.841139999999999873e+03
2.800000000000000058e-02 1.339529999999999887e-01 2.167079999999999984e+01 6.683115000000000805e+01 1.840929999999999836e+03
2.900000000000000147e-02 1.339230000000000143e-01 2.090910000000000224e+01 6.556595000000000084e+01 1.840650000000000091e+03
3.000000000000000236e-02 1.338944999999999996e-01 2.021274999999999977e+01 6.460314999999999941e+01 1.840380000000000109e+03
3.099999999999999978e-02 1.338705000000000034e-01 1.957789999999999964e+01 6.395874999999999488e+01 1.840150000000000091e+03
3.200000000000000067e-02 1.338515000000000121e-01 1.896940000000000026e+01 6.352904999999999802e+01 1.839964999999999918e+03
3.300000000000000155e-02 1.338349999999999818e-01 1.834159999999999968e+01 6.315149999999999864e+01 1.839809999999999945e+03
3.400000000000000244e-02 1.338179999999999925e-01 1.765954999999999941e+01 6.267310000000000514e+01 1.839654999999999973e+03
3.500000000000000333e-02 1.337980000000000003e-01 1.691440000000000055e+01 6.200724999999999909e+01 1.839470000000000027e+03
3.600000000000000422e-02 1.337734999999999896e-01 1.613005000000000067e+01 6.116504999999999370e+01 1.839235000000000127e+03
3.700000000000000511e-02 1.337455000000000171e-01 1.535979999999999990e+01 6.025509999999999877e+01 1.838969999999999800e+03
3.799999999999999906e-02 1.337174999999999891e-01 1.467389999999999972e+01 5.945439999999999969e+01 1.838704999999999927e+03
3.899999999999999994e-02 1.336940000000000073e-01 1.414259999999999984e+01 5.895974999999999966e+01 1.838485000000000127e+03
4.000000000000000083e-02 1.336809999999999943e-01 1.381784999999999997e+01 5.893309999999999604e+01 1.838349999999999909e+03
4.100000000000000172e-02 1.336815000000000087e-01 1.372074999999999889e+01 5.945700000000000074e+01 1.838345000000000027e+03
4.200000000000000261e-02 1.336979999999999835e-01 1.383490000000000109e+01 6.051014999999999588e+01 1.838490000000000009e+03
4.300000000000000350e-02 1.337289999999999868e-01 1.410859999999999914e+01 6.196720000000000539e+01 1.838775000000000091e+03
4.400000000000000439e-02 1.337714999999999876e-01 1.446395000000000053e+01 6.362170000000000414e+01 1.839159999999999854e+03
4.499999999999999833e-02 1.338189999999999935e-01 1.480940000000000012e+01 6.522290000000000987e+01 1.839610000000000127e+03
4.599999999999999922e-02 1.338644999999999974e-01 1.505359999999999943e+01 6.651789999999999736e+01 1.840039999999999964e+03
4.700000000000000011e-02 1.339019999999999933e-01 1.511769999999999925e+01 6.728995000000000459e+01 1.840394999999999982e+03
4.800000000000000100e-02 1.339245000000000019e-01 1.494395000000000095e+01 6.738599999999999568e+01 1.840615000000000009e+03
4.900000000000000189e-02 1.339275000000000049e-01 1.449970000000000070e+01 6.673064999999999714e+01 1.840650000000000091e+03
5.000000000000000278e-02 1.339084999999999859e-01 1.377789999999999893e+01 6.532600000000000762e+01 1.840480000000000018e+03
5.100000000000000366e-02 1.338670000000000138e-01 1.279395000000000060e+01 6.324034999999999229e+01 1.840095000000000027e+03
5.200000000000000455e-02 1.338040000000000063e-01 1.158066499999999976e+01 6.059024999999999750e+01 1.839505000000000109e+03
5.300000000000000544e-02 1.337230000000000085e-01 1.018238999999999983e+01 5.751995000000000147e+01 1.838740000000000009e+03
5.399999999999999939e-02 1.336269999999999958e-01 8.650150000000000006e+00 5.418290000000000362e+01 1.837840000000000146e+03
5.500000000000000028e-02 1.335210000000000008e-01 7.037390000000000256e+00 5.072794999999999987e+01 1.836829999999999927e+03
5.600000000000000117e-02 1.334084999999999854e-01 5.397410000000000707e+00 4.729075000000000273e+01 1.835764999999999873e+03
5.700000000000000205e-02 1.332939999999999958e-01 3.782010499999999720e+00 4.399115000000000464e+01 1.834679999999999836e+03
5.800000000000000294e-02 1.331825000000000092e-01 2.241054999999999797e+00 4.093370000000000175e+01 1.833615000000000009e+03
5.900000000000000383e-02 1.330759999999999998e-01 8.223400000000000709e-01 3.821059999999999945e+01 1.832605000000000018e+03
6.000000000000000472e-02 1.329795000000000005e-01 -4.285650000000000848e-01 3.590449999999999875e+01 1.831675000000000182e+03
6.099999999999999867e-02 1.328949999999999854e-01 -1.468815000000000204e+00 3.409060000000000201e+01 1.830865000000000009e+03
6.199999999999999956e-02 1.328254999999999852e-01 -2.259335000000000093e+00 3.283639999999999759e+01 1.830200000000000045e+03
6.300000000000000044e-02 1.327740000000000031e-01 -2.766269999999999563e+00 3.220000000000000284e+01 1.829699999999999818e+03
6.400000000000000133e-02 1.327429999999999999e-01 -2.962765000000000093e+00 3.222670000000000101e+01 1.829380000000000109e+03
6.500000000000000222e-02 1.327335000000000043e-01 -2.830674999999999830e+00 3.294480000000000075e+01 1.829275000000000091e+03
6.600000000000000311e-02 1.327464999999999895e-01 -2.362054999999999794e+00 3.436220000000000141e+01 1.829380000000000109e+03
6.700000000000000400e-02 1.327834999999999988e-01 -1.560008999999999979e+00 3.646365000000000123e+01 1.829710000000000036e+03
6.800000000000000488e-02 1.328440000000000176e-01 -4.388300000000000534e-01 3.921000000000000085e+01 1.830255000000000109e+03
6.900000000000000577e-02 1.329265000000000030e-01 9.766200000000000436e-01 4.253950000000000387e+01 1.831019999999999982e+03
7.000000000000000666e-02 1.330295000000000227e-01 2.652285000000000004e+00 4.637120000000000175e+01 1.831980000000000018e+03
7.100000000000000755e-02 1.331510000000000193e-01 4.546814999999999607e+00 5.060960000000000036e+01 1.833115000000000009e+03
7.200000000000000844e-02 1.332869999999999888e-01 6.613764999999999894e+00 5.515024999999999977e+01 1.834394999999999982e+03
7.300000000000000933e-02 1.334359999999999991e-01 8.803834999999999411e+00 5.988575000000000159e+01 1.835799999999999955e+03
7.399999999999999634e-02 1.335930000000000173e-01 1.106733000000000011e+01 6.471115000000000350e+01 1.837289999999999964e+03
7.499999999999999722e-02 1.337550000000000128e-01 1.335587500000000105e+01 6.952870000000000061e+01 1.838840000000000146e+03
7.599999999999999811e-02 1.339199999999999835e-01 1.562424999999999997e+01 7.425159999999999627e+01 1.840410000000000082e+03
7.699999999999999900e-02 1.340839999999999810e-01 1.783210000000000051e+01 7.880664999999999054e+01 1.841980000000000018e+03
7.799999999999999989e-02 1.342440000000000022e-01 1.994474999999999909e+01 8.313630000000000564e+01 1.843525000000000091e+03
7.900000000000000078e-02 1.343985000000000041e-01 2.193430000000000035e+01 8.719960000000000377e+01 1.845019999999999982e+03
8.000000000000000167e-02 1.345465000000000133e-01 2.378040000000000020e+01 9.097259999999999991e+01 1.846450000000000045e+03
8.100000000000000255e-02 1.346855000000000135e-01 2.547025000000000006e+01 9.444859999999999900e+01 1.847809999999999945e+03
8.200000000000000344e-02 1.348159999999999914e-01 2.699895000000000067e+01 9.763634999999999309e+01 1.849079999999999927e+03
8.300000000000000433e-02 1.349374999999999880e-01 2.836870000000000047e+01 1.005586999999999875e+02 1.850269999999999982e+03
8.400000000000000522e-02 1.350510000000000044e-01 2.958854999999999791e+01 1.032520000000000095e+02 1.851385000000000218e+03
8.500000000000000611e-02 1.351569999999999994e-01 3.067265000000000086e+01 1.057599999999999909e+02 1.852424999999999955e+03
8.600000000000000699e-02 1.352565000000000017e-01 3.163949999999999818e+01 1.081320000000000050e+02 1.853409999999999854e+03
8.700000000000000788e-02 1.353515000000000135e-01 3.251004999999999967e+01 1.104205000000000041e+02 1.854344999999999800e+03
8.800000000000000877e-02 1.354429999999999801e-01 3.330620000000000402e+01 1.126754999999999995e+02 1.855255000000000109e+03
8.899999999999999578e-02 1.355325000000000002e-01 3.404925000000000068e+01 1.149410000000000025e+02 1.856139999999999873e+03
8.999999999999999667e-02 1.356219999999999926e-01 3.475829999999999842e+01 1.172549999999999955e+02 1.857025000000000091e+03
9.099999999999999756e-02 1.357125000000000137e-01 3.544924999999999926e+01 1.196430000000000007e+02 1.857909999999999854e+03
9.199999999999999845e-02 1.358039999999999803e-01 3.613380000000000081e+01 1.221185000000000116e+02 1.858820000000000164e+03
9.299999999999999933e-02 1.358975000000000044e-01 3.681879999999999598e+01 1.246844999999999999e+02 1.859744999999999891e+03
9.400000000000000022e-02 1.359940000000000038e-01 3.750629999999999598e+01 1.273315000000000055e+02 1.860690000000000055e+03
9.500000000000000111e-02 1.360925000000000051e-01 3.819325000000000614e+01 1.300360000000000014e+02 1.861659999999999854e+03
9.600000000000000200e-02 1.361924999999999941e-01 3.887239999999999895e+01 1.327685000000000173e+02 1.862644999999999982e+03
9.700000000000000289e-02 1.362929999999999975e-01 3.953255000000000052e+01 1.354904999999999973e+02 1.863634999999999991e+03
9.800000000000000377e-02 1.363929999999999865e-01 4.015954999999999586e+01 1.381585000000000036e+02 1.864619999999999891e+03
9.900000000000000466e-02 1.364914999999999878e-01 4.073744999999999550e+01 1.407270000000000039e+02 1.865589999999999918e+03
1.000000000000000056e-01 1.365864999999999996e-01 4.124915000000000020e+01 1.431505000000000223e+02 1.866529999999999973e+03
1.010000000000000064e-01 1.366769999999999929e-01 4.167764999999999986e+01 1.453854999999999791e+02 1.867424999999999955e+03
1.020000000000000073e-01 1.367610000000000214e-01 4.200700000000000500e+01 1.473935000000000173e+02 1.868259999999999991e+03
1.030000000000000082e-01 1.368380000000000152e-01 4.222294999999999732e+01 1.491410000000000196e+02 1.869029999999999973e+03
1.040000000000000091e-01 1.369064999999999865e-01 4.231365000000000265e+01 1.506030000000000086e+02 1.869710000000000036e+03
1.050000000000000100e-01 1.369655000000000178e-01 4.227044999999999675e+01 1.517615000000000123e+02 1.870299999999999955e+03
1.059999999999999970e-01 1.370144999999999835e-01 4.208804999999999552e+01 1.526080000000000041e+02 1.870789999999999964e+03
1.069999999999999979e-01 1.370529999999999804e-01 4.176475000000000648e+01 1.531415000000000077e+02 1.871180000000000064e+03
1.079999999999999988e-01 1.370804999999999940e-01 4.130275000000000318e+01 1.533700000000000045e+02 1.871469999999999800e+03
1.089999999999999997e-01 1.370975000000000110e-01 4.070770000000000266e+01 1.533084999999999809e+02 1.871650000000000091e+03
1.100000000000000006e-01 1.371045000000000180e-01 3.998869999999999436e+01 1.529795000000000016e+02 1.871735000000000127e+03
1.110000000000000014e-01 1.371024999999999883e-01 3.915789999999999793e+01 1.524110000000000014e+02 1.871715000000000146e+03
1.120000000000000023e-01 1.370909999999999906e-01 3.822990000000000066e+01 1.516359999999999957e+02 1.871619999999999891e+03
1.130000000000000032e-01 1.370724999999999860e-01 3.722129999999999939e+01 1.506904999999999859e+02 1.871444999999999936e+03
1.140000000000000041e-01 1.370474999999999888e-01 3.615014999999999645e+01 1.496115000000000066e+02 1.871200000000000045e+03
1.150000000000000050e-01 1.370160000000000267e-01 3.503499999999999659e+01 1.484379999999999882e+02 1.870904999999999973e+03
1.160000000000000059e-01 1.369814999999999783e-01 3.389454999999999529e+01 1.472065000000000055e+02 1.870565000000000055e+03
1.170000000000000068e-01 1.369434999999999958e-01 3.274689999999999657e+01 1.459530000000000030e+02 1.870200000000000045e+03
1.180000000000000077e-01 1.369040000000000257e-01 3.160885000000000034e+01 1.447090000000000032e+02 1.869804999999999836e+03
1.190000000000000085e-01 1.368634999999999990e-01 3.049569999999999936e+01 1.435020000000000095e+02 1.869410000000000082e+03
1.200000000000000094e-01 1.368234999999999868e-01 2.942049999999999699e+01 1.423545000000000016e+02 1.869019999999999982e+03
1.209999999999999964e-01 1.367844999999999756e-01 2.839390000000000214e+01 1.412835000000000036e+02 1.868635000000000218e+03
1.219999999999999973e-01 1.367475000000000218e-01 2.742374999999999829e+01 1.403019999999999925e+02 1.868264999999999873e+03
1.229999999999999982e-01 1.367125000000000146e-01 2.651520000000000010e+01 1.394145000000000039e+02 1.867920000000000073e+03
1.239999999999999991e-01 1.366804999999999826e-01 2.567045000000000243e+01 1.386209999999999809e+02 1.867595000000000027e+03
1.250000000000000000e-01 1.366505000000000081e-01 2.488889999999999958e+01 1.379159999999999968e+02 1.867299999999999955e+03
1.260000000000000009e-01 1.366235000000000088e-01 2.416754999999999853e+01 1.372889999999999873e+02 1.867029999999999973e+03
1.270000000000000018e-01 1.365989999999999982e-01 2.350099999999999767e+01 1.367259999999999991e+02 1.866779999999999973e+03
1.280000000000000027e-01 1.365760000000000030e-01 2.288179999999999836e+01 1.362085000000000150e+02 1.866550000000000182e+03
1.290000000000000036e-01 1.365554999999999963e-01 2.230114999999999981e+01 1.357160000000000082e+02 1.866335000000000036e+03
1.300000000000000044e-01 1.365350000000000175e-01 2.174899999999999878e+01 1.352269999999999754e+02 1.866134999999999991e+03
1.310000000000000053e-01 1.365149999999999975e-01 2.121490000000000009e+01 1.347194999999999823e+02 1.865929999999999836e+03
1.320000000000000062e-01 1.364949999999999775e-01 2.068809999999999860e+01 1.341714999999999804e+02 1.865724999999999909e+03
1.330000000000000071e-01 1.364730000000000110e-01 2.015829999999999700e+01 1.335625000000000000e+02 1.865509999999999991e+03
1.340000000000000080e-01 1.364500000000000157e-01 1.961589999999999989e+01 1.328754999999999882e+02 1.865275000000000091e+03
1.350000000000000089e-01 1.364239999999999897e-01 1.905259999999999820e+01 1.320955000000000155e+02 1.865019999999999982e+03
1.360000000000000098e-01 1.363955000000000028e-01 1.846174999999999855e+01 1.312119999999999891e+02 1.864740000000000009e+03
1.370000000000000107e-01 1.363634999999999986e-01 1.783849999999999980e+01 1.302189999999999941e+02 1.864430000000000064e+03
1.380000000000000115e-01 1.363280000000000047e-01 1.718005000000000138e+01 1.291140000000000043e+02 1.864079999999999927e+03
1.390000000000000124e-01 1.362889999999999935e-01 1.648584999999999923e+01 1.279014999999999986e+02 1.863700000000000045e+03
1.400000000000000133e-01 1.362464999999999926e-01 1.575764999999999993e+01 1.265884999999999962e+02 1.863284999999999854e+03
1.410000000000000142e-01 1.362009999999999887e-01 1.499924999999999997e+01 1.251885000000000048e+02 1.862835000000000036e+03
1.420000000000000151e-01 1.361519999999999953e-01 1.421659999999999968e+01 1.237169999999999987e+02 1.862355000000000018e+03
1.430000000000000160e-01 1.361005000000000131e-01 1.341744999999999877e+01 1.221940000000000026e+02 1.861855000000000018e+03
1.440000000000000169e-01 1.360470000000000013e-01 1.261074999999999946e+01 1.206419999999999959e+02 1.861329999999999927e+03
1.450000000000000178e-01 1.359925000000000161e-01 1.180689500000000081e+01 1.190854999999999961e+02 1.860800000000000182e+03
1.459999999999999909e-01 1.359374999999999889e-01 1.101666499999999971e+01 1.175490000000000066e+02 1.860259999999999991e+03
1.469999999999999918e-01 1.358825000000000172e-01 1.025102500000000028e+01 1.160575000000000045e+02 1.859724999999999909e+03
1.479999999999999927e-01 1.358294999999999919e-01 9.520884999999999820e+00 1.146340000000000003e+02 1.859199999999999818e+03
1.489999999999999936e-01 1.357774999999999954e-01 8.836240000000000094e+00 1.132994999999999948e+02 1.858690000000000055e+03
1.499999999999999944e-01 1.357285000000000019e-01 8.206165000000000376e+00 1.120730000000000075e+02 1.858215000000000146e+03
1.509999999999999953e-01 1.356829999999999981e-01 7.638275000000000148e+00 1.109680000000000035e+02 1.857759999999999991e+03
1.519999999999999962e-01 1.356410000000000116e-01 7.138490000000000002e+00 1.099969999999999999e+02 1.857349999999999909e+03
1.529999999999999971e-01 1.356034999999999879e-01 6.710879999999999512e+00 1.091654999999999944e+02 1.856974999999999909e+03
1.539999999999999980e-01 1.355704999999999827e-01 6.357520000000000060e+00 1.084755000000000109e+02 1.856644999999999982e+03
1.549999999999999989e-01 1.355419999999999958e-01 6.078490000000000393e+00 1.079250000000000114e+02 1.856365000000000009e+03
1.559999999999999998e-01 1.355184999999999862e-01 5.871914999999999552e+00 1.075084999999999980e+02 1.856125000000000000e+03
1.570000000000000007e-01 1.354989999999999806e-01 5.734120000000000772e+00 1.072154999999999916e+02 1.855929999999999836e+03
1.580000000000000016e-01 1.354845000000000077e-01 5.659810000000000230e+00 1.070330000000000013e+02 1.855779999999999973e+03
1.590000000000000024e-01 1.354734999999999967e-01 5.642324999999999591e+00 1.069465000000000003e+02 1.855670000000000073e+03
