# t [s], A [cm^2], U [cm/s], P [cPa], c [cm/s]
1.000000000000000021e-03 1.709999999999999853e-01 3.255970999999999727e-01 8.888665000000000305e+01 2.129630000000000109e+03
2.000000000000000042e-03 1.709485000000000032e-01 1.804845999999999950e+00 8.554255000000000564e+01 2.129155000000000200e+03
3.000000000000000062e-03 1.708195000000000130e-01 3.629277000000000086e+00 8.087309999999999377e+01 2.128020000000000437e+03
4.000000000000000083e-03 1.706509999999999971e-01 5.694536000000000264e+00 7.594490000000000407e+01 2.126554999999999836e+03
5.000000000000000104e-03 1.704780000000000184e-01 7.912749999999999950e+00 7.172639999999999816e+01 2.125059999999999945e+03
6.000000000000000125e-03 1.703165000000000096e-01 1.004946999999999946e+01 6.837534999999999741e+01 2.123684999999999945e+03
7.000000000000000146e-03 1.701670000000000127e-01 1.186380999999999908e+01 6.546750000000000114e+01 2.122440000000000055e+03
8.000000000000000167e-03 1.700325000000000031e-01 1.332946000000000097e+01 6.283709999999999951e+01 2.121345000000000255e+03
9.000000000000001055e-03 1.699189999999999867e-01 1.451684999999999803e+01 6.064110000000000156e+01 2.120430000000000291e+03
1.000000000000000194e-02 1.698264999999999914e-01 1.545509999999999984e+01 5.892369999999999663e+01 2.119690000000000055e+03
1.099999999999999936e-02 1.697540000000000160e-01 1.616730000000000089e+01 5.763244999999999862e+01 2.119119999999999891e+03
1.200000000000000025e-02 1.696995000000000031e-01 1.667459999999999809e+01 5.669825000000000159e+01 2.118694999999999709e+03
1.300000000000000114e-02 1.696574999999999889e-01 1.697489999999999810e+01 5.597449999999999903e+01 2.118380000000000109e+03
1.400000000000000203e-02 1.696234999999999826e-01 1.709830000000000183e+01 5.534069999999999823e+01 2.118135000000000218e+03
1.499999999999999944e-02 1.695995000000000141e-01 1.717810000000000059e+01 5.495035000000000025e+01 2.117960000000000036e+03
1.600000000000000033e-02 1.695955000000000101e-01 1.742054999999999865e+01 5.526500000000000057e+01 2.117944999999999709e+03
1.700000000000000122e-02 1.696245000000000114e-01 1.798179999999999978e+01 5.675294999999999845e+01 2.118179999999999836e+03
1.800000000000000211e-02 1.696909999999999807e-01 1.885820000000000007e+01 5.950239999999999441e+01 2.118715000000000146e+03
1.900000000000000300e-02 1.697874999999999801e-01 1.987100000000000222e+01 6.305505000000000138e+01 2.119489999999999782e+03
2.000000000000000042e-02 1.698950000000000182e-01 2.074494999999999933e+01 6.655564999999999998e+01 2.120369999999999891e+03
2.100000000000000130e-02 1.699884999999999868e-01 2.122775000000000034e+01 6.910320000000000107e+01 2.121144999999999982e+03
2.200000000000000219e-02 1.700484999999999913e-01 2.118934999999999746e+01 7.011074999999999591e+01 2.121670000000000073e+03
2.299999999999999961e-02 1.700659999999999950e-01 2.066154999999999831e+01 6.950995000000000346e+01 2.121845000000000255e+03
2.400000000000000050e-02 1.700450000000000017e-01 1.980675000000000097e+01 6.772624999999999318e+01 2.121699999999999818e+03
2.500000000000000139e-02 1.699990000000000112e-01 1.883885000000000076e+01 6.545820000000000505e+01 2.121344999999999800e+03
2.600000000000000228e-02 1.699450000000000127e-01 1.793590000000000018e+01 6.337824999999999420e+01 2.120920000000000073e+03
2.700000000000000316e-02 1.698974999999999791e-01 1.718209999999999837e+01 6.189180000000000348e+01 2.120525000000000091e+03
2.800000000000000058e-02 1.698624999999999996e-01 1.655699999999999861e+01 6.104050000000000153e+01 2.120230000000000018e+03
2.900000000000000147e-02 1.698379999999999890e-01 1.596689999999999898e+01 6.055984999999999729e+01 2.120024999999999636e+03
3.000000000000000236e-02 1.698160000000000225e-01 1.529800000000000182e+01 6.004265000000000185e+01 2.119840000000000146e+03
3.099999999999999978e-02 1.697869999999999935e-01 1.447255000000000003e+01 5.913219999999999743e+01 2.119614999999999782e+03
3.200000000000000067e-02 1.697460000000000080e-01 1.348704999999999998e+01 5.768104999999999905e+01 2.119284999999999854e+03
3.300000000000000155e-02 1.696920000000000095e-01 1.242280000000000051e+01 5.582264999999999588e+01 2.118855000000000018e+03
3.400000000000000244e-02 1.696329999999999782e-01 1.142460499999999968e+01 5.393649999999999523e+01 2.118380000000000109e+03
3.500000000000000333e-02 1.695809999999999818e-01 1.065585500000000074e+01 5.252210000000000178e+01 2.117949999999999818e+03
3.600000000000000422e-02 1.695494999999999919e-01 1.024683999999999884e+01 5.202994999999999948e+01 2.117675000000000182e+03
3.700000000000000511e-02 1.695474999999999899e-01 1.025412000000000035e+01 5.271044999999999447e+01 2.117639999999999873e+03
3.799999999999999906e-02 1.695800000000000085e-01 1.064405000000000001e+01 5.453255000000000052e+01 2.117869999999999891e+03
3.899999999999999994e-02 1.696409999999999862e-01 1.130144999999999911e+01 5.718789999999999907e+01 2.118355000000000018e+03
4.000000000000000083e-02 1.697214999999999974e-01 1.205784999999999840e+01 6.017090000000000316e+01 2.118989999999999782e+03
4.100000000000000172e-02 1.698060000000000125e-01 1.272884999999999955e+01 6.289879999999999427e+01 2.119670000000000073e+03
4.200000000000000261e-02 1.698779999999999735e-01 1.314935000000000009e+01 6.483644999999999925e+01 2.120260000000000218e+03
4.300000000000000350e-02 1.699239999999999917e-01 1.319914999999999949e+01 6.559324999999999761e+01 2.120644999999999982e+03
4.400000000000000439e-02 1.699340000000000017e-01 1.281615000000000038e+01 6.497630000000000905e+01 2.120750000000000000e+03
4.499999999999999833e-02 1.699039999999999995e-01 1.199555000000000149e+01 6.299389999999999645e+01 2.120525000000000091e+03
4.599999999999999922e-02 1.698340000000000127e-01 1.077956499999999984e+01 5.981990000000000407e+01 2.119979999999999563e+03
4.700000000000000011e-02 1.697299999999999920e-01 9.241284999999999528e+00 5.573340000000000316e+01 2.119144999999999982e+03
4.800000000000000100e-02 1.695980000000000265e-01 7.468295000000000350e+00 5.105434999999999945e+01 2.118090000000000146e+03
4.900000000000000189e-02 1.694489999999999885e-01 5.549624999999999808e+00 4.609024999999999750e+01 2.116885000000000218e+03
5.000000000000000278e-02 1.692899999999999960e-01 3.568245000000000111e+00 4.110389999999999588e+01 2.115595000000000255e+03
5.100000000000000366e-02 1.691290000000000016e-01 1.598779999999999868e+00 3.630330000000000013e+01 2.114284999999999854e+03
5.200000000000000455e-02 1.689725000000000255e-01 -2.913049999999999251e-01 3.184860000000000113e+01 2.113010000000000218e+03
5.300000000000000544e-02 1.688259999999999761e-01 -2.038759999999999906e+00 2.786824999999999974e+01 2.111810000000000400e+03
5.399999999999999939e-02 1.686944999999999972e-01 -3.582168499999999867e+00 2.447550000000000026e+01 2.110724999999999909e+03
5.500000000000000028e-02 1.685809999999999809e-01 -4.861320000000000086e+00 2.177984999999999971e+01 2.109795000000000073e+03
5.600000000000000117e-02 1.684910000000000019e-01 -5.818855000000000111e+00 1.988935000000000031e+01 2.109045000000000073e+03
5.700000000000000205e-02 1.684279999999999944e-01 -6.403824999999999434e+00 1.890509999999999735e+01 2.108515000000000327e+03
5.800000000000000294e-02 1.683955000000000035e-01 -6.576329999999999565e+00 1.890954999999999941e+01 2.108220000000000255e+03
5.900000000000000383e-02 1.683954999999999758e-01 -6.312030000000000030e+00 1.995279999999999987e+01 2.108194999999999709e+03
6.000000000000000472e-02 1.684299999999999964e-01 -5.605344999999999800e+00 2.204149999999999920e+01 2.108445000000000164e+03
6.099999999999999867e-02 1.684990000000000099e-01 -4.470799999999999663e+00 2.513289999999999935e+01 2.108970000000000255e+03
6.199999999999999956e-02 1.685995000000000132e-01 -2.942157499999999981e+00 2.913514999999999944e+01 2.109765000000000327e+03
6.300000000000000044e-02 1.687305000000000055e-01 -1.069695000000000062e+00 3.391434999999999889e+01 2.110800000000000182e+03
6.400000000000000133e-02 1.688870000000000093e-01 1.083760000000000057e+00 3.930610000000000070e+01 2.112055000000000291e+03
6.500000000000000222e-02 1.690634999999999777e-01 3.447230000000000238e+00 4.512829999999999586e+01 2.113465000000000146e+03
6.600000000000000311e-02 1.692540000000000155e-01 5.946009000000000100e+00 5.119450000000000500e+01 2.115014999999999873e+03
6.700000000000000400e-02 1.694539999999999935e-01 8.505410000000001247e+00 5.732500000000000284e+01 2.116639999999999873e+03
6.800000000000000488e-02 1.696564999999999879e-01 1.105460000000000065e+01 6.335585000000000377e+01 2.118289999999999964e+03
6.900000000000000577e-02 1.698569999999999802e-01 1.352918000000000021e+01 6.914615000000000578e+01 2.119934999999999945e+03
7.000000000000000666e-02 1.700504999999999933e-01 1.587429999999999986e+01 7.458344999999999914e+01 2.121530000000000200e+03
7.100000000000000755e-02 1.702339999999999964e-01 1.804670000000000130e+01 7.958799999999999386e+01 2.123050000000000182e+03
7.200000000000000844e-02 1.704050000000000009e-01 2.001675000000000182e+01 8.411605000000000132e+01 2.124465000000000146e+03
7.300000000000000933e-02 1.705615000000000048e-01 2.176934999999999931e+01 8.816059999999998809e+01 2.125774999999999636e+03
7.399999999999999634e-02 1.707035000000000080e-01 2.330385000000000062e+01 9.174994999999999834e+01 2.126965000000000146e+03
7.499999999999999722e-02 1.708319999999999839e-01 2.463315000000000055e+01 9.494395000000000095e+01 2.128039999999999964e+03
7.599999999999999811e-02 1.709485000000000032e-01 2.578099999999999881e+01 9.782535000000000025e+01 2.129030000000000200e+03
7.699999999999999900e-02 1.710559999999999858e-01 2.677935000000000088e+01 1.004942499999999939e+02 2.129929999999999836e+03
7.799999999999999989e-02 1.711564999999999892e-01 2.766460000000000008e+01 1.030531000000000006e+02 2.130784999999999854e+03
7.900000000000000078e-02 1.712540000000000173e-01 2.847375000000000256e+01 1.056004999999999967e+02 2.131605000000000018e+03
8.000000000000000167e-02 1.713514999999999899e-01 2.924125000000000085e+01 1.082205000000000013e+02 2.132425000000000182e+03
8.100000000000000255e-02 1.714505000000000057e-01 2.999564999999999770e+01 1.109745000000000061e+02 2.133255000000000109e+03
8.200000000000000344e-02 1.715534999999999977e-01 3.075815000000000055e+01 1.139004999999999939e+02 2.134119999999999891e+03
8.300000000000000433e-02 1.716615000000000224e-01 3.154079999999999728e+01 1.170084999999999980e+02 2.135019999999999982e+03
8.400000000000000522e-02 1.717740000000000100e-01 3.234655000000000058e+01 1.202800000000000011e+02 2.135954999999999927e+03
8.500000000000000611e-02 1.718910000000000160e-01 3.316935000000000144e+01 1.236754999999999995e+02 2.136934999999999945e+03
8.600000000000000699e-02 1.720110000000000250e-01 3.399544999999999817e+01 1.271355000000000075e+02 2.137934999999999945e+03
8.700000000000000788e-02 1.721325000000000216e-01 3.480495000000000516e+01 1.305879999999999939e+02 2.138949999999999818e+03
8.800000000000000877e-02 1.722524999999999751e-01 3.557339999999999947e+01 1.339519999999999982e+02 2.139954999999999927e+03
8.899999999999999578e-02 1.723695000000000088e-01 3.627405000000000257e+01 1.371450000000000102e+02 2.140934999999999945e+03
8.999999999999999667e-02 1.724799999999999944e-01 3.687950000000000017e+01 1.400889999999999986e+02 2.141864999999999782e+03
9.099999999999999756e-02 1.725820000000000132e-01 3.736404999999999887e+01 1.427125000000000057e+02 2.142719999999999800e+03
9.199999999999999845e-02 1.726729999999999932e-01 3.770485000000000042e+01 1.449565000000000055e+02 2.143489999999999782e+03
9.299999999999999933e-02 1.727515000000000023e-01 3.788344999999999629e+01 1.467769999999999868e+02 2.144154999999999745e+03
9.400000000000000022e-02 1.728155000000000108e-01 3.788710000000000377e+01 1.481450000000000102e+02 2.144704999999999927e+03
9.500000000000000111e-02 1.728649999999999909e-01 3.770915000000000106e+01 1.490509999999999877e+02 2.145135000000000218e+03
9.600000000000000200e-02 1.728994999999999838e-01 3.734955000000000069e+01 1.494995000000000118e+02 2.145434999999999945e+03
9.700000000000000289e-02 1.729189999999999894e-01 3.681475000000000364e+01 1.495144999999999982e+02 2.145604999999999563e+03
9.800000000000000377e-02 1.729235000000000078e-01 3.611735000000000184e+01 1.491314999999999884e+02 2.145659999999999854e+03
9.900000000000000466e-02 1.729154999999999998e-01 3.527505000000000024e+01 1.484005000000000223e+02 2.145605000000000018e+03
1.000000000000000056e-01 1.728949999999999931e-01 3.431015000000000015e+01 1.473774999999999977e+02 2.145449999999999818e+03
1.010000000000000064e-01 1.728655000000000053e-01 3.324779999999999802e+01 1.461264999999999930e+02 2.145215000000000146e+03
1.020000000000000073e-01 1.728279999999999816e-01 3.211529999999999774e+01 1.447125000000000057e+02 2.144909999999999854e+03
1.030000000000000082e-01 1.727845000000000075e-01 3.094040000000000390e+01 1.432010000000000218e+02 2.144555000000000291e+03
1.040000000000000091e-01 1.727374999999999883e-01 2.975045000000000073e+01 1.416535000000000082e+02 2.144164999999999964e+03
1.050000000000000100e-01 1.726884999999999948e-01 2.857090000000000174e+01 1.401265000000000214e+02 2.143760000000000218e+03
1.059999999999999970e-01 1.726405000000000023e-01 2.742484999999999928e+01 1.386680000000000064e+02 2.143355000000000018e+03
1.069999999999999979e-01 1.725935000000000108e-01 2.633180000000000121e+01 1.373185000000000002e+02 2.142965000000000146e+03
1.079999999999999988e-01 1.725495000000000223e-01 2.530709999999999837e+01 1.361064999999999827e+02 2.142595000000000255e+03
1.089999999999999997e-01 1.725094999999999823e-01 2.436165000000000092e+01 1.350504999999999995e+02 2.142260000000000218e+03
1.100000000000000006e-01 1.724740000000000162e-01 2.350135000000000218e+01 1.341574999999999989e+02 2.141954999999999927e+03
1.110000000000000014e-01 1.724439999999999862e-01 2.272720000000000340e+01 1.334225000000000136e+02 2.141694999999999709e+03
1.120000000000000023e-01 1.724175000000000013e-01 2.203519999999999968e+01 1.328305000000000007e+02 2.141470000000000255e+03
1.130000000000000032e-01 1.723959999999999937e-01 2.141720000000000113e+01 1.323555000000000064e+02 2.141284999999999854e+03
1.140000000000000041e-01 1.723780000000000034e-01 2.086110000000000042e+01 1.319650000000000034e+02 2.141119999999999891e+03
1.150000000000000050e-01 1.723619999999999874e-01 2.035159999999999769e+01 1.316195000000000164e+02 2.140985000000000127e+03
1.160000000000000059e-01 1.723470000000000002e-01 1.987174999999999869e+01 1.312749999999999773e+02 2.140855000000000018e+03
1.170000000000000068e-01 1.723324999999999996e-01 1.940324999999999989e+01 1.308880000000000052e+02 2.140730000000000018e+03
1.180000000000000077e-01 1.723165000000000113e-01 1.892814999999999870e+01 1.304155000000000086e+02 2.140590000000000146e+03
1.190000000000000085e-01 1.722969999999999779e-01 1.842964999999999876e+01 1.298199999999999932e+02 2.140425000000000182e+03
1.200000000000000094e-01 1.722739999999999827e-01 1.789320000000000022e+01 1.290695000000000050e+02 2.140230000000000018e+03
1.209999999999999964e-01 1.722454999999999958e-01 1.730740000000000123e+01 1.281409999999999911e+02 2.139994999999999891e+03
1.219999999999999973e-01 1.722120000000000040e-01 1.666465000000000174e+01 1.270229999999999961e+02 2.139715000000000146e+03
1.229999999999999982e-01 1.721714999999999773e-01 1.596154999999999902e+01 1.257134999999999962e+02 2.139385000000000218e+03
1.239999999999999991e-01 1.721254999999999868e-01 1.519945000000000057e+01 1.242224999999999966e+02 2.139005000000000109e+03
1.250000000000000000e-01 1.720740000000000047e-01 1.438369999999999926e+01 1.225704999999999956e+02 2.138579999999999927e+03
1.260000000000000009e-01 1.720170000000000032e-01 1.352404999999999902e+01 1.207879999999999967e+02 2.138105000000000018e+03
1.270000000000000018e-01 1.719565000000000121e-01 1.263364999999999938e+01 1.189140000000000015e+02 2.137599999999999909e+03
1.280000000000000027e-01 1.718925000000000036e-01 1.172833500000000129e+01 1.169909999999999997e+02 2.137069999999999709e+03
1.290000000000000036e-01 1.718270000000000075e-01 1.082559499999999986e+01 1.150664999999999907e+02 2.136529999999999745e+03
1.300000000000000044e-01 1.717619999999999980e-01 9.943944999999999368e+00 1.131875000000000000e+02 2.135994999999999891e+03
1.310000000000000053e-01 1.716985000000000039e-01 9.101465000000001027e+00 1.114000000000000057e+02 2.135465000000000146e+03
1.320000000000000062e-01 1.716380000000000128e-01 8.315150000000000929e+00 1.097439999999999998e+02 2.134954999999999927e+03
1.330000000000000071e-01 1.715814999999999979e-01 7.599955000000000460e+00 1.082555000000000121e+02 2.134484999999999673e+03
1.340000000000000080e-01 1.715305000000000024e-01 6.968154999999999433e+00 1.069604999999999961e+02 2.134055000000000291e+03
1.350000000000000089e-01 1.714859999999999995e-01 6.428784999999999528e+00 1.058769999999999953e+02 2.133675000000000182e+03
1.360000000000000098e-01 1.714475000000000027e-01 5.987409999999999677e+00 1.050155000000000030e+02 2.133355000000000018e+03
1.370000000000000107e-01 1.714169999999999860e-01 5.645990000000000286e+00 1.043754999999999882e+02 2.133090000000000146e+03
1.380000000000000115e-01 1.713935000000000042e-01 5.402960000000000207e+00 1.039499999999999886e+02 2.132885000000000218e+03
1.390000000000000124e-01 1.713764999999999872e-01 5.253504999999999647e+00 1.037224999999999966e+02 2.132739999999999782e+03
1.400000000000000133e-01 1.713665000000000049e-01 5.189925000000000566e+00 1.036719999999999970e+02 2.132650000000000091e+03
1.410000000000000142e-01 1.713624999999999732e-01 5.202125000000000554e+00 1.037719999999999914e+02 2.132605000000000018e+03
1.420000000000000151e-01 1.713625000000000009e-01 5.278159999999999741e+00 1.039925000000000068e+02 2.132605000000000018e+03
1.430000000000000160e-01 1.713675000000000059e-01 5.404815000000000147e+00 1.043019999999999925e+02 2.132635000000000218e+03
1.440000000000000169e-01 1.713749999999999996e-01 5.568189999999999529e+00 1.046684999999999945e+02 2.132695000000000164e+03
1.450000000000000178e-01 1.713850000000000096e-01 5.754260000000000375e+00 1.050594999999999999e+02 2.132769999999999982e+03
1.459999999999999909e-01 1.713959999999999928e-01 5.949419999999999931e+00 1.054459999999999980e+02 2.132859999999999673e+03
1.469999999999999918e-01 1.714065000000000172e-01 6.140975000000000072e+00 1.058019999999999925e+02 2.132949999999999818e+03
1.479999999999999927e-01 1.714169999999999860e-01 6.317550000000000665e+00 1.061030000000000086e+02 2.133024999999999636e+03
1.489999999999999936e-01 1.714255000000000084e-01 6.469450000000000145e+00 1.063315000000000055e+02 2.133099999999999909e+03
1.499999999999999944e-01 1.714320000000000010e-01 6.588960000000000150e+00 1.064729999999999990e+02 2.133154999999999745e+03
1.509999999999999953e-01 1.714360000000000051e-01 6.670505000000000351e+00 1.065194999999999936e+02 2.133184999999999945e+03
1.519999999999999962e-01 1.714364999999999917e-01 6.710779999999999745e+00 1.064669999999999987e+02 2.133194999999999709e+03
1.529999999999999971e-01 1.714344999999999897e-01 6.708714999999999762e+00 1.063170000000000073e+02 2.133179999999999836e+03
1.539999999999999980e-01 1.714289999999999980e-01 6.665409999999999613e+00 1.060759999999999934e+02 2.133144999999999982e+03
1.549999999999999989e-01 1.714209999999999900e-01 6.583885000000000431e+00 1.057539999999999907e+02 2.133074999999999818e+03
1.559999999999999998e-01 1.714105000000000212e-01 6.468795000000000073e+00 1.053645000000000067e+02 2.132994999999999891e+03
1.570000000000000007e-01 1.713979999999999948e-01 6.326084999999999958e+00 1.049235000000000042e+02 2.132889999999999873e+03
1.580000000000000016e-01 1.713834999999999942e-01 6.162525000000000475e+00 1.044480000000000075e+02 2.132775000000000091e+03
1.590000000000000024e-01 1.713680000000000203e-01 5.985314999999999941e+00 1.039559999999999889e+02 2.132644999999999982e+03
