# t [s], A [cm^2], U [cm/s], P [cPa], c [cm/s]
1.000000000000000021e-03 7.146820000000000395e-01 5.986699999999997579e-03 1.017164999999999964e+02 1.607644999999999982e+03
2.000000000000000042e-03 7.146680000000000810e-01 -4.936639999999999952e-03 1.016864999999999952e+02 1.607639999999999873e+03
3.000000000000000062e-03 7.147209999999999397e-01 7.579624999999999557e-02 1.017720000000000056e+02 1.607659999999999854e+03
4.000000000000000083e-03 7.147814999999999586e-01 1.789336499999999996e-01 1.018979999999999961e+02 1.607695000000000164e+03
5.000000000000000104e-03 7.147624999999999673e-01 1.736929999999999863e-01 1.018685000000000116e+02 1.607690000000000055e+03
6.000000000000000125e-03 7.146840000000000970e-01 7.634699999999999820e-02 1.016604999999999990e+02 1.607640000000000100e+03
7.000000000000000146e-03 7.146189999999998932e-01 -7.955500000000004235e-03 1.014029999999999916e+02 1.607575000000000045e+03
8.000000000000000167e-03 7.145329999999999737e-01 -1.367800000000000127e-01 1.010525000000000091e+02 1.607494999999999891e+03
9.000000000000001055e-03 7.143825000000000314e-01 -3.827949999999999964e-01 1.005081500000000005e+02 1.607365000000000009e+03
1.000000000000000194e-02 7.141684999999999839e-01 -7.448749999999999538e-01 9.973619999999999663e+01 1.607179999999999836e+03
1.099999999999999936e-02 7.138765000000000249e-01 -1.236089999999999911e+00 9.868524999999999636e+01 1.606925000000000182e+03
1.200000000000000025e-02 7.134825000000000195e-01 -1.878725000000000200e+00 9.728505000000001246e+01 1.606585000000000036e+03
1.300000000000000114e-02 7.130030000000000534e-01 -2.626520000000000188e+00 9.554609999999999559e+01 1.606150000000000091e+03
1.400000000000000203e-02 7.125055000000000138e-01 -3.344935000000000436e+00 9.361079999999999757e+01 1.605654999999999973e+03
1.499999999999999944e-02 7.120670000000000055e-01 -3.875046499999999838e+00 9.169389999999999930e+01 1.605144999999999982e+03
1.600000000000000033e-02 7.117324999999999902e-01 -4.110854599999999692e+00 8.997585000000000832e+01 1.604659999999999854e+03
1.700000000000000122e-02 7.114979999999999638e-01 -4.033585000000000420e+00 8.853524999999999068e+01 1.604230000000000018e+03
1.800000000000000211e-02 7.113209999999999811e-01 -3.700460000000000083e+00 8.733820000000000050e+01 1.603849999999999909e+03
1.900000000000000300e-02 7.111454999999999860e-01 -3.209188499999999777e+00 8.627145000000000152e+01 1.603494999999999891e+03
2.000000000000000042e-02 7.109225000000000128e-01 -2.657692500000000013e+00 8.519575000000000387e+01 1.603134999999999991e+03
2.100000000000000130e-02 7.106250000000000622e-01 -2.111834500000000059e+00 8.399864999999999782e+01 1.602755000000000109e+03
2.200000000000000219e-02 7.102565000000000683e-01 -1.589809999999999945e+00 8.263020000000000209e+01 1.602335000000000036e+03
2.299999999999999961e-02 7.098415000000000141e-01 -1.067064999999999930e+00 8.111124999999999829e+01 1.601869999999999891e+03
2.400000000000000050e-02 7.094160000000000466e-01 -4.979350000000000165e-01 7.951319999999999766e+01 1.601389999999999873e+03
2.500000000000000139e-02 7.090095000000000702e-01 1.567599999999997884e-01 7.792099999999999227e+01 1.600904999999999973e+03
2.600000000000000228e-02 7.086345000000000560e-01 9.077000000000001734e-01 7.639635000000001241e+01 1.600434999999999945e+03
2.700000000000000316e-02 7.082829999999999959e-01 1.727229999999999821e+00 7.495314999999999372e+01 1.599980000000000018e+03
2.800000000000000058e-02 7.079294999999999893e-01 2.552220000000000155e+00 7.355025000000000546e+01 1.599529999999999973e+03
2.900000000000000147e-02 7.075389999999999180e-01 3.296835000000000182e+00 7.210089999999999577e+01 1.599079999999999927e+03
3.000000000000000236e-02 7.070749999999998980e-01 3.871384999999999632e+00 7.049479999999999791e+01 1.598595000000000027e+03
3.099999999999999978e-02 7.065105000000000413e-01 4.202970000000000539e+00 6.862780000000000769e+01 1.598054999999999836e+03
3.200000000000000067e-02 7.058364999999999778e-01 4.252959999999999852e+00 6.643210000000000548e+01 1.597434999999999945e+03
3.300000000000000155e-02 7.050650000000000528e-01 4.026485000000000980e+00 6.389829999999999899e+01 1.596735000000000127e+03
3.400000000000000244e-02 7.042275000000000063e-01 3.570435000000000247e+00 6.108245000000000147e+01 1.595970000000000027e+03
3.500000000000000333e-02 7.033684999999999521e-01 2.961559999999999970e+00 5.809649999999999892e+01 1.595154999999999973e+03
3.600000000000000422e-02 7.025349999999999095e-01 2.289250000000000007e+00 5.508760000000000190e+01 1.594325000000000045e+03
3.700000000000000511e-02 7.017704999999999638e-01 1.639035000000000242e+00 5.221215000000000117e+01 1.593519999999999982e+03
3.799999999999999906e-02 7.011074999999999946e-01 1.080684999999999896e+00 4.961360000000000525e+01 1.592779999999999973e+03
3.899999999999999994e-02 7.005685000000000384e-01 6.625250000000000306e-01 4.740640000000000498e+01 1.592125000000000000e+03
4.000000000000000083e-02 7.001619999999999511e-01 4.111050000000000537e-01 4.566809999999999548e+01 1.591585000000000036e+03
4.100000000000000172e-02 6.998900000000000121e-01 3.349899999999996769e-01 4.443894999999999840e+01 1.591179999999999836e+03
4.200000000000000261e-02 6.997459999999999791e-01 4.308349999999999680e-01 4.372745000000000459e+01 1.590910000000000082e+03
4.300000000000000350e-02 6.997240000000000126e-01 6.899826499999999196e-01 4.351885000000000048e+01 1.590779999999999973e+03
4.400000000000000439e-02 6.998134999999999772e-01 1.104077999999999893e+00 4.378594999999999970e+01 1.590779999999999973e+03
4.499999999999999833e-02 7.000100000000000211e-01 1.668563999999999936e+00 4.449745000000000061e+01 1.590905000000000200e+03
4.599999999999999922e-02 7.003064999999999429e-01 2.383409499999999959e+00 4.562420000000000186e+01 1.591154999999999973e+03
4.700000000000000011e-02 7.007010000000000183e-01 3.251370000000000093e+00 4.714064999999999372e+01 1.591519999999999982e+03
4.800000000000000100e-02 7.011899999999999800e-01 4.274660000000000792e+00 4.902370000000000516e+01 1.591990000000000009e+03
4.900000000000000189e-02 7.017674999999999885e-01 5.451350999999999836e+00 5.124899999999999523e+01 1.592559999999999945e+03
5.000000000000000278e-02 7.024254999999999249e-01 6.772496499999999919e+00 5.378685000000000116e+01 1.593220000000000027e+03
5.100000000000000366e-02 7.031530000000000280e-01 8.220905000000000129e+00 5.659980000000000189e+01 1.593965000000000146e+03
5.200000000000000455e-02 7.039360000000000062e-01 9.771630000000000038e+00 5.964135000000000275e+01 1.594789999999999964e+03
5.300000000000000544e-02 7.047575000000000367e-01 1.139354499999999959e+01 6.285685000000000144e+01 1.595660000000000082e+03
5.399999999999999939e-02 7.056010000000000337e-01 1.305241499999999988e+01 6.618690000000000850e+01 1.596575000000000045e+03
5.500000000000000028e-02 7.064500000000000224e-01 1.471368499999999990e+01 6.957104999999999961e+01 1.597514999999999873e+03
5.600000000000000117e-02 7.072910000000000030e-01 1.634563500000000147e+01 7.295199999999999818e+01 1.598469999999999800e+03
5.700000000000000205e-02 7.081115000000000048e-01 1.792139999999999844e+01 7.627989999999999782e+01 1.599414999999999964e+03
5.800000000000000294e-02 7.089045000000000485e-01 1.942020000000000124e+01 7.951490000000001146e+01 1.600349999999999909e+03
5.900000000000000383e-02 7.096655000000000602e-01 2.082825000000000060e+01 8.262930000000000064e+01 1.601259999999999991e+03
6.000000000000000472e-02 7.103915000000000646e-01 2.213795000000000002e+01 8.560739999999999839e+01 1.602139999999999873e+03
6.099999999999999867e-02 7.110849999999999671e-01 2.334734999999999872e+01 8.844489999999998986e+01 1.602985000000000127e+03
6.199999999999999956e-02 7.117485000000000062e-01 2.445895000000000152e+01 9.114740000000000464e+01 1.603800000000000182e+03
6.300000000000000044e-02 7.123869999999999925e-01 2.547834999999999894e+01 9.372835000000000605e+01 1.604574999999999818e+03
6.400000000000000133e-02 7.130049999999999999e-01 2.641355000000000075e+01 9.620570000000000732e+01 1.605329999999999927e+03
6.500000000000000222e-02 7.136084999999999789e-01 2.727364999999999995e+01 9.860099999999999909e+01 1.606054999999999836e+03
6.600000000000000311e-02 7.142020000000000035e-01 2.806824999999999903e+01 1.009375500000000017e+02 1.606769999999999982e+03
6.700000000000000400e-02 7.147919999999999829e-01 2.880649999999999977e+01 1.032355499999999893e+02 1.607465000000000146e+03
6.800000000000000488e-02 7.153810000000000446e-01 2.949660000000000082e+01 1.055150000000000006e+02 1.608154999999999973e+03
6.900000000000000577e-02 7.159725000000000117e-01 3.014495000000000147e+01 1.077890000000000015e+02 1.608839999999999918e+03
7.000000000000000666e-02 7.165669999999999540e-01 3.075570000000000093e+01 1.100660000000000025e+02 1.609529999999999973e+03
7.100000000000000755e-02 7.171635000000000648e-01 3.133039999999999736e+01 1.123485000000000014e+02 1.610214999999999918e+03
7.200000000000000844e-02 7.177605000000000235e-01 3.186789999999999878e+01 1.146304999999999978e+02 1.610900000000000091e+03
7.300000000000000933e-02 7.183539999999999370e-01 3.236445000000000505e+01 1.169020000000000010e+02 1.611579999999999927e+03
7.399999999999999634e-02 7.189379999999999660e-01 3.281414999999999793e+01 1.191444999999999936e+02 1.612259999999999991e+03
7.499999999999999722e-02 7.195070000000000077e-01 3.320960000000000178e+01 1.213375000000000057e+02 1.612914999999999964e+03
7.599999999999999811e-02 7.200545000000000417e-01 3.354250000000000398e+01 1.234560000000000031e+02 1.613559999999999945e+03
7.699999999999999900e-02 7.205740000000000478e-01 3.380469999999999686e+01 1.254759999999999991e+02 1.614180000000000064e+03
7.799999999999999989e-02 7.210594999999999644e-01 3.398839999999999861e+01 1.273714999999999975e+02 1.614759999999999991e+03
7.900000000000000078e-02 7.215055000000000218e-01 3.408719999999999573e+01 1.291210000000000093e+02 1.615304999999999836e+03
8.000000000000000167e-02 7.219079999999999941e-01 3.409619999999999607e+01 1.307044999999999959e+02 1.615800000000000182e+03
8.100000000000000255e-02 7.222640000000000171e-01 3.401234999999999786e+01 1.321084999999999923e+02 1.616255000000000109e+03
8.200000000000000344e-02 7.225715000000000332e-01 3.383469999999999800e+01 1.333220000000000027e+02 1.616650000000000091e+03
8.300000000000000433e-02 7.228289999999999438e-01 3.356435000000000457e+01 1.343400000000000034e+02 1.616990000000000009e+03
8.400000000000000522e-02 7.230385000000000284e-01 3.320429999999999637e+01 1.351630000000000109e+02 1.617279999999999973e+03
8.500000000000000611e-02 7.232000000000000650e-01 3.275965000000000060e+01 1.357959999999999923e+02 1.617509999999999991e+03
8.600000000000000699e-02 7.233180000000000165e-01 3.223709999999999809e+01 1.362470000000000141e+02 1.617679999999999836e+03
8.700000000000000788e-02 7.233945000000000514e-01 3.164505000000000123e+01 1.365300000000000011e+02 1.617809999999999945e+03
8.800000000000000877e-02 7.234350000000000502e-01 3.099320000000000164e+01 1.366614999999999895e+02 1.617890000000000100e+03
8.899999999999999578e-02 7.234430000000000582e-01 3.029224999999999568e+01 1.366585000000000036e+02 1.617924999999999955e+03
8.999999999999999667e-02 7.234245000000000259e-01 2.955369999999999919e+01 1.365430000000000064e+02 1.617930000000000064e+03
9.099999999999999756e-02 7.233855000000000146e-01 2.878950000000000031e+01 1.363365000000000009e+02 1.617894999999999982e+03
9.199999999999999845e-02 7.233300000000000285e-01 2.801129999999999853e+01 1.360609999999999786e+02 1.617845000000000027e+03
9.299999999999999933e-02 7.232650000000000468e-01 2.723064999999999714e+01 1.357369999999999948e+02 1.617775000000000091e+03
9.400000000000000022e-02 7.231935000000000446e-01 2.645779999999999887e+01 1.353855000000000075e+02 1.617690000000000055e+03
9.500000000000000111e-02 7.231205000000000549e-01 2.570199999999999818e+01 1.350240000000000009e+02 1.617595000000000027e+03
9.600000000000000200e-02 7.230495000000000116e-01 2.497064999999999912e+01 1.346680000000000064e+02 1.617500000000000000e+03
9.700000000000000289e-02 7.229820000000000135e-01 2.426930000000000121e+01 1.343290000000000077e+02 1.617400000000000091e+03
9.800000000000000377e-02 7.229210000000000358e-01 2.360139999999999816e+01 1.340144999999999982e+02 1.617309999999999945e+03
9.900000000000000466e-02 7.228660000000000085e-01 2.296829999999999927e+01 1.337295000000000016e+02 1.617224999999999909e+03
1.000000000000000056e-01 7.228170000000000428e-01 2.236925000000000097e+01 1.334739999999999895e+02 1.617144999999999982e+03
1.010000000000000064e-01 7.227719999999999700e-01 2.180185000000000173e+01 1.332450000000000045e+02 1.617075000000000045e+03
1.020000000000000073e-01 7.227304999999999424e-01 2.126169999999999760e+01 1.330375000000000227e+02 1.617005000000000109e+03
1.030000000000000082e-01 7.226889999999999148e-01 2.074349999999999739e+01 1.328414999999999964e+02 1.616945000000000164e+03
1.040000000000000091e-01 7.226455000000000517e-01 2.024089999999999989e+01 1.326469999999999914e+02 1.616875000000000000e+03
1.050000000000000100e-01 7.225964999999999749e-01 1.974699999999999989e+01 1.324435000000000002e+02 1.616815000000000055e+03
1.059999999999999970e-01 7.225395000000000012e-01 1.925479999999999947e+01 1.322185000000000059e+02 1.616744999999999891e+03
1.069999999999999979e-01 7.224720000000000031e-01 1.875740000000000052e+01 1.319600000000000080e+02 1.616664999999999964e+03
1.079999999999999988e-01 7.223904999999999355e-01 1.824849999999999994e+01 1.316580000000000155e+02 1.616575000000000045e+03
1.089999999999999997e-01 7.222939999999999916e-01 1.772275000000000134e+01 1.313040000000000020e+02 1.616474999999999909e+03
1.100000000000000006e-01 7.221805000000000030e-01 1.717579999999999885e+01 1.308894999999999982e+02 1.616360000000000127e+03
1.110000000000000014e-01 7.220504999999999285e-01 1.660470000000000113e+01 1.304114999999999895e+02 1.616224999999999909e+03
1.120000000000000023e-01 7.219029999999999614e-01 1.600809999999999889e+01 1.298679999999999950e+02 1.616075000000000045e+03
1.130000000000000032e-01 7.217390000000000194e-01 1.538635000000000019e+01 1.292599999999999909e+02 1.615904999999999973e+03
1.140000000000000041e-01 7.215605000000000491e-01 1.474135000000000062e+01 1.285930000000000177e+02 1.615720000000000027e+03
1.150000000000000050e-01 7.213694999999999968e-01 1.407680500000000023e+01 1.278739999999999952e+02 1.615514999999999873e+03
1.160000000000000059e-01 7.211695000000000189e-01 1.339786499999999947e+01 1.271134999999999877e+02 1.615305000000000064e+03
1.170000000000000068e-01 7.209639999999999382e-01 1.271106999999999942e+01 1.263234999999999957e+02 1.615079999999999927e+03
1.180000000000000077e-01 7.207565000000000222e-01 1.202383000000000024e+01 1.255194999999999936e+02 1.614855000000000018e+03
1.190000000000000085e-01 7.205520000000000813e-01 1.134445999999999977e+01 1.247175000000000011e+02 1.614619999999999891e+03
1.200000000000000094e-01 7.203539999999999388e-01 1.068161500000000075e+01 1.239335000000000093e+02 1.614400000000000091e+03
1.209999999999999964e-01 7.201664999999999317e-01 1.004379499999999936e+01 1.231839999999999975e+02 1.614179999999999836e+03
1.219999999999999973e-01 7.199949999999999406e-01 9.439244999999999663e+00 1.224844999999999970e+02 1.613970000000000027e+03
1.229999999999999982e-01 7.198415000000000230e-01 8.875444999999999141e+00 1.218495000000000061e+02 1.613775000000000091e+03
1.239999999999999991e-01 7.197080000000000144e-01 8.358810000000000073e+00 1.212909999999999968e+02 1.613605000000000018e+03
1.250000000000000000e-01 7.195985000000000298e-01 7.894429999999999836e+00 1.208185000000000002e+02 1.613450000000000045e+03
1.260000000000000009e-01 7.195124999999999993e-01 7.486010000000000275e+00 1.204385000000000048e+02 1.613329999999999927e+03
1.270000000000000018e-01 7.194519999999999804e-01 7.135485000000000078e+00 1.201545000000000130e+02 1.613224999999999909e+03
1.280000000000000027e-01 7.194149999999999157e-01 6.843230000000000146e+00 1.199675000000000011e+02 1.613155000000000200e+03
1.290000000000000036e-01 7.194019999999999859e-01 6.608005000000000351e+00 1.198730000000000047e+02 1.613110000000000127e+03
1.300000000000000044e-01 7.194095000000000351e-01 6.427094999999999558e+00 1.198670000000000044e+02 1.613085000000000036e+03
1.310000000000000053e-01 7.194359999999999644e-01 6.296464999999999534e+00 1.199405000000000001e+02 1.613090000000000146e+03
1.320000000000000062e-01 7.194789999999999797e-01 6.211030000000000051e+00 1.200829999999999984e+02 1.613110000000000127e+03
1.330000000000000071e-01 7.195350000000000357e-01 6.164889999999999759e+00 1.202829999999999870e+02 1.613150000000000091e+03
1.340000000000000080e-01 7.196009999999999351e-01 6.151614999999999611e+00 1.205285000000000082e+02 1.613204999999999927e+03
1.350000000000000089e-01 7.196730000000000071e-01 6.164519999999999555e+00 1.208060000000000116e+02 1.613275000000000091e+03
1.360000000000000098e-01 7.197485000000000133e-01 6.196930000000000049e+00 1.211034999999999968e+02 1.613349999999999909e+03
1.370000000000000107e-01 7.198245000000000893e-01 6.242390000000000327e+00 1.214085000000000036e+02 1.613425000000000182e+03
1.380000000000000115e-01 7.198990000000000666e-01 6.294874999999999332e+00 1.217100000000000080e+02 1.613509999999999991e+03
1.390000000000000124e-01 7.199685000000000112e-01 6.348950000000000315e+00 1.219994999999999976e+02 1.613589999999999918e+03
1.400000000000000133e-01 7.200325000000000752e-01 6.399865000000000137e+00 1.222674999999999983e+02 1.613664999999999964e+03
1.410000000000000142e-01 7.200884999999999092e-01 6.443649999999999878e+00 1.225090000000000003e+02 1.613735000000000127e+03
1.420000000000000151e-01 7.201370000000000271e-01 6.477154999999999774e+00 1.227199999999999989e+02 1.613795000000000073e+03
1.430000000000000160e-01 7.201769999999999561e-01 6.498034999999999783e+00 1.228965000000000032e+02 1.613845000000000027e+03
1.440000000000000169e-01 7.202079999999999593e-01 6.504785000000000039e+00 1.230370000000000061e+02 1.613889999999999873e+03
1.450000000000000178e-01 7.202304999999999957e-01 6.496660000000000323e+00 1.231440000000000055e+02 1.613930000000000064e+03
1.459999999999999909e-01 7.202454999999999830e-01 6.473634999999999806e+00 1.232169999999999987e+02 1.613954999999999927e+03
1.469999999999999918e-01 7.202524999999999622e-01 6.436334999999999695e+00 1.232590000000000003e+02 1.613969999999999800e+03
1.479999999999999927e-01 7.202539999999999498e-01 6.385950000000000237e+00 1.232734999999999985e+02 1.613985000000000127e+03
1.489999999999999936e-01 7.202500000000000568e-01 6.324114999999999931e+00 1.232650000000000006e+02 1.613985000000000127e+03
1.499999999999999944e-01 7.202420000000000488e-01 6.252830000000000332e+00 1.232385000000000019e+02 1.613980000000000018e+03
1.509999999999999953e-01 7.202315000000000245e-01 6.174340000000000828e+00 1.231970000000000027e+02 1.613974999999999909e+03
1.519999999999999962e-01 7.202189999999999426e-01 6.091000000000000192e+00 1.231469999999999914e+02 1.613965000000000146e+03
1.529999999999999971e-01 7.202064999999999717e-01 6.005160000000000053e+00 1.230914999999999964e+02 1.613954999999999927e+03
1.539999999999999980e-01 7.201940000000000008e-01 5.919079999999999231e+00 1.230354999999999990e+02 1.613940000000000055e+03
1.549999999999999989e-01 7.201834999999999765e-01 5.834785000000000110e+00 1.229815000000000111e+02 1.613930000000000064e+03
1.559999999999999998e-01 7.201739999999999808e-01 5.754025000000000389e+00 1.229329999999999927e+02 1.613914999999999964e+03
1.570000000000000007e-01 7.201664999999999317e-01 5.678179999999999339e+00 1.228905000000000030e+02 1.613905000000000200e+03
1.580000000000000016e-01 7.201610000000000511e-01 5.608225000000000016e+00 1.228564999999999969e+02 1.613894999999999982e+03
1.590000000000000024e-01 7.201584999999999237e-01 5.544710000000000250e+00 1.228305000000000007e+02 1.613884999999999991e+03
