# t [s], A [cm^2], U [cm/s], P [cPa], c [cm/s]
1.000000000000000021e-03 7.393529999999999269e-01 7.495849999999998348e-03 1.093354999999999961e+02 1.813440000000000055e+03
2.000000000000000042e-03 7.393425000000000136e-01 4.243750000000002728e-04 1.093024999999999949e+02 1.813434999999999945e+03
3.000000000000000062e-03 7.394119999999999582e-01 1.198149999999999910e-01 1.094524999999999864e+02 1.813465000000000146e+03
4.000000000000000083e-03 7.394540000000000557e-01 2.088088499999999903e-01 1.095720000000000027e+02 1.813485000000000127e+03
5.000000000000000104e-03 7.393974999999999298e-01 1.430124999999999869e-01 1.094234999999999900e+02 1.813464999999999918e+03
6.000000000000000125e-03 7.393235000000000223e-01 3.879849999999995802e-02 1.091250000000000000e+02 1.813405000000000200e+03
7.000000000000000146e-03 7.392525000000000901e-01 -7.079450000000003795e-02 1.087519999999999953e+02 1.813339999999999918e+03
8.000000000000000167e-03 7.391194999999999293e-01 -3.043549999999999311e-01 1.081504999999999939e+02 1.813230000000000018e+03
9.000000000000001055e-03 7.389094999999999969e-01 -6.921450000000000102e-01 1.072324999999999875e+02 1.813065000000000055e+03
1.000000000000000194e-02 7.386064999999999436e-01 -1.254795000000000105e+00 1.059164999999999992e+02 1.812829999999999927e+03
1.099999999999999936e-02 7.381865000000000787e-01 -2.014745000000000008e+00 1.041072499999999934e+02 1.812494999999999891e+03
1.200000000000000025e-02 7.376819999999999489e-01 -2.889990000000000059e+00 1.018552999999999997e+02 1.812075000000000045e+03
1.300000000000000114e-02 7.371825000000000738e-01 -3.689540000000000486e+00 9.940745000000001141e+01 1.811605000000000018e+03
1.400000000000000203e-02 7.367684999999999373e-01 -4.225230999999999959e+00 9.707160000000000366e+01 1.811130000000000109e+03
1.499999999999999944e-02 7.364669999999999828e-01 -4.408807499999999990e+00 9.504970000000000141e+01 1.810695000000000164e+03
1.600000000000000033e-02 7.362480000000000135e-01 -4.268175000000000274e+00 9.336945000000000050e+01 1.810315000000000055e+03
1.700000000000000122e-02 7.360520000000000396e-01 -3.904830000000000023e+00 9.191544999999999277e+01 1.809964999999999918e+03
1.800000000000000211e-02 7.358240000000000336e-01 -3.434088000000000029e+00 9.051160000000000139e+01 1.809619999999999891e+03
1.900000000000000300e-02 7.355319999999999636e-01 -2.936214200000000218e+00 8.900679999999999836e+01 1.809259999999999991e+03
2.000000000000000042e-02 7.351790000000000269e-01 -2.432935999999999765e+00 8.733395000000000152e+01 1.808869999999999891e+03
2.100000000000000130e-02 7.347894999999999843e-01 -1.894885000000000153e+00 8.552155000000000484e+01 1.808460000000000036e+03
2.200000000000000219e-02 7.344005000000000116e-01 -1.273345000000000171e+00 8.365840000000000032e+01 1.808029999999999973e+03
2.299999999999999961e-02 7.340339999999999643e-01 -5.383599999999999497e-01 8.183449999999999136e+01 1.807610000000000127e+03
2.400000000000000050e-02 7.336899999999999533e-01 2.949999999999999289e-01 8.008774999999999977e+01 1.807200000000000045e+03
2.500000000000000139e-02 7.333450000000000246e-01 1.161159999999999970e+00 7.837744999999999607e+01 1.806789999999999964e+03
2.600000000000000228e-02 7.329590000000000272e-01 1.957934999999999981e+00 7.659004999999999086e+01 1.806375000000000000e+03
2.700000000000000316e-02 7.324910000000000032e-01 2.573185000000000056e+00 7.457274999999999920e+01 1.805920000000000073e+03
2.800000000000000058e-02 7.319100000000000605e-01 2.915739999999999554e+00 7.218139999999999645e+01 1.805400000000000091e+03
2.900000000000000147e-02 7.312089999999999979e-01 2.941234999999999822e+00 6.933044999999999902e+01 1.804799999999999955e+03
3.000000000000000236e-02 7.304049999999999709e-01 2.664230000000000320e+00 6.602609999999999957e+01 1.804125000000000000e+03
3.099999999999999978e-02 7.295409999999999950e-01 2.152269999999999683e+00 6.237270000000000181e+01 1.803375000000000000e+03
3.200000000000000067e-02 7.286690000000000111e-01 1.505255000000000010e+00 5.854959999999999809e+01 1.802585000000000036e+03
3.300000000000000155e-02 7.278409999999999602e-01 8.299000000000003041e-01 5.477235000000000298e+01 1.801800000000000182e+03
3.400000000000000244e-02 7.270995000000000097e-01 2.182250000000003354e-01 5.125074999999999648e+01 1.801045000000000073e+03
3.500000000000000333e-02 7.264734999999999943e-01 -2.646850000000000591e-01 4.815779999999999461e+01 1.800369999999999891e+03
3.600000000000000422e-02 7.259755000000001068e-01 -5.825350000000000250e-01 4.561329999999999529e+01 1.799795000000000073e+03
3.700000000000000511e-02 7.256089999999999485e-01 -7.225150000000000183e-01 4.368184999999999718e+01 1.799335000000000036e+03
3.799999999999999906e-02 7.253700000000000703e-01 -6.859699999999999687e-01 4.238264999999999816e+01 1.798994999999999891e+03
3.899999999999999994e-02 7.252529999999999255e-01 -4.785499999999999199e-01 4.170470000000000255e+01 1.798789999999999964e+03
4.000000000000000083e-02 7.252509999999999790e-01 -1.028122000000000064e-01 4.162309999999999377e+01 1.798710000000000036e+03
4.100000000000000172e-02 7.253625000000000211e-01 4.450890000000000124e-01 4.211129999999999995e+01 1.798744999999999891e+03
4.200000000000000261e-02 7.255854999999999944e-01 1.174220000000000041e+00 4.314690000000000225e+01 1.798904999999999973e+03
4.300000000000000350e-02 7.259185000000000221e-01 2.094344999999999679e+00 4.471020000000000039e+01 1.799174999999999955e+03
4.400000000000000439e-02 7.263584999999999070e-01 3.210160000000000124e+00 4.677904999999999802e+01 1.799559999999999945e+03
4.499999999999999833e-02 7.268989999999999618e-01 4.516434999999999533e+00 4.932144999999999868e+01 1.800039999999999964e+03
4.599999999999999922e-02 7.275264999999999649e-01 5.995578999999999326e+00 5.229040000000000532e+01 1.800615000000000009e+03
4.700000000000000011e-02 7.282264999999999988e-01 7.617810999999999666e+00 5.562199999999999989e+01 1.801275000000000091e+03
4.800000000000000100e-02 7.289790000000000436e-01 9.344079999999999941e+00 5.923734999999999928e+01 1.802000000000000000e+03
4.900000000000000189e-02 7.297625000000000917e-01 1.113022499999999937e+01 6.304810000000000514e+01 1.802775000000000091e+03
5.000000000000000278e-02 7.305589999999999584e-01 1.293179499999999926e+01 6.696354999999999791e+01 1.803585000000000036e+03
5.100000000000000366e-02 7.313509999999999733e-01 1.470838499999999982e+01 7.089889999999999759e+01 1.804410000000000082e+03
5.200000000000000455e-02 7.321254999999999846e-01 1.642674500000000037e+01 7.478164999999999907e+01 1.805234999999999900e+03
5.300000000000000544e-02 7.328729999999999967e-01 1.806244999999999834e+01 7.855639999999999645e+01 1.806045000000000073e+03
5.399999999999999939e-02 7.335905000000000342e-01 1.960030000000000072e+01 8.218729999999999336e+01 1.806840000000000146e+03
5.500000000000000028e-02 7.342764999999999986e-01 2.103340000000000032e+01 8.565749999999999886e+01 1.807605000000000018e+03
5.600000000000000117e-02 7.349335000000000173e-01 2.236169999999999902e+01 8.896725000000000705e+01 1.808340000000000146e+03
5.700000000000000205e-02 7.355659999999999421e-01 2.359025000000000105e+01 9.213079999999999359e+01 1.809049999999999955e+03
5.800000000000000294e-02 7.361794999999999867e-01 2.472739999999999938e+01 9.517125000000000057e+01 1.809735000000000127e+03
5.900000000000000383e-02 7.367809999999999082e-01 2.578330000000000055e+01 9.811799999999999500e+01 1.810405000000000200e+03
6.000000000000000472e-02 7.373750000000000027e-01 2.676814999999999856e+01 1.010010000000000048e+02 1.811049999999999955e+03
6.099999999999999867e-02 7.379670000000000396e-01 2.769140000000000157e+01 1.038478000000000065e+02 1.811694999999999936e+03
6.199999999999999956e-02 7.385610000000000230e-01 2.856015000000000015e+01 1.066800000000000068e+02 1.812329999999999927e+03
6.300000000000000044e-02 7.391575000000000228e-01 2.937870000000000203e+01 1.095115000000000123e+02 1.812970000000000027e+03
6.400000000000000133e-02 7.397559999999999691e-01 3.014809999999999945e+01 1.123460000000000036e+02 1.813599999999999909e+03
6.500000000000000222e-02 7.403539999999999566e-01 3.086614999999999753e+01 1.151765000000000043e+02 1.814235000000000127e+03
6.600000000000000311e-02 7.409470000000000223e-01 3.152790000000000248e+01 1.179895000000000067e+02 1.814869999999999891e+03
6.700000000000000400e-02 7.415305000000000923e-01 3.212614999999999554e+01 1.207599999999999909e+02 1.815485000000000127e+03
6.800000000000000488e-02 7.420965000000000478e-01 3.265285000000000082e+01 1.234620000000000033e+02 1.816095000000000027e+03
6.900000000000000577e-02 7.426405000000000367e-01 3.309969999999999857e+01 1.260644999999999953e+02 1.816684999999999945e+03
7.000000000000000666e-02 7.431550000000000100e-01 3.345900000000000318e+01 1.285370000000000061e+02 1.817250000000000000e+03
7.100000000000000755e-02 7.436354999999998938e-01 3.372440000000000282e+01 1.308514999999999873e+02 1.817784999999999854e+03
7.200000000000000844e-02 7.440769999999999884e-01 3.389115000000000322e+01 1.329845000000000255e+02 1.818279999999999973e+03
7.300000000000000933e-02 7.444764999999999855e-01 3.395619999999999550e+01 1.349170000000000016e+02 1.818735000000000127e+03
7.399999999999999634e-02 7.448325000000000085e-01 3.391850000000000165e+01 1.366345000000000027e+02 1.819144999999999982e+03
7.499999999999999722e-02 7.451419999999999710e-01 3.377870000000000061e+01 1.381290000000000191e+02 1.819505000000000109e+03
7.599999999999999811e-02 7.454054999999999431e-01 3.353940000000000055e+01 1.393985000000000127e+02 1.819820000000000164e+03
7.699999999999999900e-02 7.456245000000000234e-01 3.320514999999999617e+01 1.404449999999999932e+02 1.820090000000000146e+03
7.799999999999999989e-02 7.458005000000000884e-01 3.278249999999999886e+01 1.412769999999999868e+02 1.820304999999999836e+03
7.900000000000000078e-02 7.459355000000000846e-01 3.228000000000000114e+01 1.419069999999999823e+02 1.820480000000000018e+03
8.000000000000000167e-02 7.460350000000000037e-01 3.170799999999999841e+01 1.423530000000000086e+02 1.820615000000000009e+03
8.100000000000000255e-02 7.461025000000000018e-01 3.107874999999999943e+01 1.426370000000000005e+02 1.820710000000000036e+03
8.200000000000000344e-02 7.461435000000000706e-01 3.040530000000000044e+01 1.427839999999999918e+02 1.820775000000000091e+03
8.300000000000000433e-02 7.461640000000000494e-01 2.970175000000000054e+01 1.428189999999999884e+02 1.820809999999999945e+03
8.400000000000000522e-02 7.461689999999999712e-01 2.898185000000000144e+01 1.427710000000000150e+02 1.820820000000000164e+03
8.500000000000000611e-02 7.461640000000000494e-01 2.825860000000000127e+01 1.426655000000000086e+02 1.820820000000000164e+03
8.600000000000000699e-02 7.461535000000000251e-01 2.754364999999999952e+01 1.425260000000000105e+02 1.820805000000000064e+03
8.700000000000000788e-02 7.461409999999999432e-01 2.684629999999999939e+01 1.423740000000000236e+02 1.820780000000000200e+03
8.800000000000000877e-02 7.461295000000000011e-01 2.617334999999999923e+01 1.422239999999999895e+02 1.820755000000000109e+03
8.899999999999999578e-02 7.461195000000000466e-01 2.552884999999999849e+01 1.420855000000000246e+02 1.820724999999999909e+03
8.999999999999999667e-02 7.461115000000000386e-01 2.491394999999999982e+01 1.419629999999999939e+02 1.820699999999999818e+03
9.099999999999999756e-02 7.461044999999999483e-01 2.432734999999999914e+01 1.418545000000000016e+02 1.820675000000000182e+03
9.199999999999999845e-02 7.460970000000000102e-01 2.376520000000000010e+01 1.417549999999999955e+02 1.820654999999999973e+03
9.299999999999999933e-02 7.460864999999999858e-01 2.322214999999999918e+01 1.416514999999999986e+02 1.820630000000000109e+03
9.400000000000000022e-02 7.460694999999999411e-01 2.269129999999999825e+01 1.415335000000000036e+02 1.820605000000000018e+03
9.500000000000000111e-02 7.460435000000000816e-01 2.216525000000000034e+01 1.413835000000000264e+02 1.820575000000000045e+03
9.600000000000000200e-02 7.460050000000000292e-01 2.163609999999999900e+01 1.411875000000000000e+02 1.820529999999999973e+03
9.700000000000000289e-02 7.459514999999999896e-01 2.109660000000000224e+01 1.409294999999999902e+02 1.820474999999999909e+03
9.800000000000000377e-02 7.458804999999999463e-01 2.054005000000000081e+01 1.405980000000000132e+02 1.820404999999999973e+03
9.900000000000000466e-02 7.457894999999999941e-01 1.996099999999999852e+01 1.401800000000000068e+02 1.820320000000000164e+03
1.000000000000000056e-01 7.456784999999999108e-01 1.935559999999999903e+01 1.396705000000000041e+02 1.820215000000000146e+03
1.010000000000000064e-01 7.455465000000000009e-01 1.872190000000000154e+01 1.390649999999999977e+02 1.820094999999999800e+03
1.020000000000000073e-01 7.453954999999999886e-01 1.806005000000000038e+01 1.383659999999999854e+02 1.819950000000000045e+03
1.030000000000000082e-01 7.452254999999999852e-01 1.737229999999999919e+01 1.375790000000000077e+02 1.819785000000000082e+03
1.040000000000000091e-01 7.450410000000000643e-01 1.666304999999999836e+01 1.367150000000000034e+02 1.819610000000000127e+03
1.050000000000000100e-01 7.448455000000000492e-01 1.593864999999999910e+01 1.357880000000000109e+02 1.819414999999999964e+03
1.059999999999999970e-01 7.446414999999999562e-01 1.520730000000000004e+01 1.348164999999999907e+02 1.819210000000000036e+03
1.069999999999999979e-01 7.444344999999999990e-01 1.447821499999999872e+01 1.338220000000000027e+02 1.818994999999999891e+03
1.079999999999999988e-01 7.442294999999999883e-01 1.376160000000000139e+01 1.328265000000000100e+02 1.818784999999999854e+03
1.089999999999999997e-01 7.440314999999999568e-01 1.306791499999999928e+01 1.318534999999999968e+02 1.818574999999999818e+03
1.100000000000000006e-01 7.438455000000000483e-01 1.240742999999999796e+01 1.309254999999999995e+02 1.818369999999999891e+03
1.110000000000000014e-01 7.436739999999999462e-01 1.178951499999999974e+01 1.300645000000000095e+02 1.818174999999999955e+03
1.120000000000000023e-01 7.435225000000000861e-01 1.122254000000000040e+01 1.292870000000000061e+02 1.818000000000000000e+03
1.130000000000000032e-01 7.433920000000000528e-01 1.071294999999999931e+01 1.286094999999999970e+02 1.817845000000000027e+03
1.140000000000000041e-01 7.432855000000000434e-01 1.026556500000000050e+01 1.280424999999999898e+02 1.817704999999999927e+03
1.150000000000000050e-01 7.432024999999999881e-01 9.882925000000000182e+00 1.275905000000000058e+02 1.817595000000000027e+03
1.160000000000000059e-01 7.431429999999999980e-01 9.565429999999999211e+00 1.272560000000000002e+02 1.817505000000000109e+03
1.170000000000000068e-01 7.431069999999999620e-01 9.311560000000000059e+00 1.270345000000000084e+02 1.817440000000000055e+03
1.180000000000000077e-01 7.430915000000000159e-01 9.117789999999999395e+00 1.269194999999999993e+02 1.817400000000000091e+03
1.190000000000000085e-01 7.430944999999999911e-01 8.979160000000000252e+00 1.269000000000000057e+02 1.817375000000000000e+03
1.200000000000000094e-01 7.431125000000000647e-01 8.889405000000000001e+00 1.269635000000000105e+02 1.817375000000000000e+03
1.209999999999999964e-01 7.431425000000000392e-01 8.841549999999999798e+00 1.270939999999999941e+02 1.817384999999999991e+03
1.219999999999999973e-01 7.431820000000000093e-01 8.828170000000000073e+00 1.272759999999999962e+02 1.817414999999999964e+03
1.229999999999999982e-01 7.432270000000000820e-01 8.841819999999998458e+00 1.274939999999999998e+02 1.817450000000000045e+03
1.239999999999999991e-01 7.432754999999999779e-01 8.875315000000000509e+00 1.277339999999999947e+02 1.817490000000000009e+03
1.250000000000000000e-01 7.433240000000000958e-01 8.922019999999999840e+00 1.279834999999999923e+02 1.817534999999999854e+03
1.260000000000000009e-01 7.433714999999999629e-01 8.976010000000000488e+00 1.282299999999999898e+02 1.817585000000000036e+03
1.270000000000000018e-01 7.434160000000000768e-01 9.032209999999999184e+00 1.284660000000000082e+02 1.817630000000000109e+03
1.280000000000000027e-01 7.434564999999999646e-01 9.086439999999999628e+00 1.286845000000000141e+02 1.817674999999999955e+03
1.290000000000000036e-01 7.434929999999999595e-01 9.135564999999999714e+00 1.288820000000000050e+02 1.817715000000000146e+03
1.300000000000000044e-01 7.435239999999999627e-01 9.177179999999999893e+00 1.290550000000000068e+02 1.817755000000000109e+03
1.310000000000000053e-01 7.435505000000000031e-01 9.209979999999999833e+00 1.292040000000000077e+02 1.817789999999999964e+03
1.320000000000000062e-01 7.435724999999999696e-01 9.233354999999999535e+00 1.293309999999999889e+02 1.817819999999999936e+03
1.330000000000000071e-01 7.435914999999999608e-01 9.247440000000000992e+00 1.294379999999999882e+02 1.817840000000000146e+03
1.340000000000000080e-01 7.436080000000000467e-01 9.253074999999999051e+00 1.295294999999999845e+02 1.817865000000000009e+03
1.350000000000000089e-01 7.436230000000000340e-01 9.251519999999999300e+00 1.296100000000000136e+02 1.817880000000000109e+03
1.360000000000000098e-01 7.436365000000000336e-01 9.244399999999998840e+00 1.296839999999999975e+02 1.817900000000000091e+03
1.370000000000000107e-01 7.436514999999999098e-01 9.233634999999999593e+00 1.297565000000000168e+02 1.817920000000000073e+03
1.380000000000000115e-01 7.436674999999999258e-01 9.221080000000000609e+00 1.298330000000000268e+02 1.817940000000000055e+03
1.390000000000000124e-01 7.436849999999999294e-01 9.208600000000000563e+00 1.299164999999999850e+02 1.817954999999999927e+03
1.400000000000000133e-01 7.437065000000000481e-01 9.197805000000000675e+00 1.300109999999999957e+02 1.817974999999999909e+03
1.410000000000000142e-01 7.437300000000000022e-01 9.189845000000000041e+00 1.301189999999999998e+02 1.818000000000000000e+03
1.420000000000000151e-01 7.437570000000000014e-01 9.185615000000000308e+00 1.302404999999999973e+02 1.818029999999999973e+03
1.430000000000000160e-01 7.437875000000000458e-01 9.185465000000000657e+00 1.303765000000000214e+02 1.818059999999999945e+03
1.440000000000000169e-01 7.438199999999999257e-01 9.189239999999999853e+00 1.305250000000000057e+02 1.818090000000000146e+03
1.450000000000000178e-01 7.438555000000000028e-01 9.196419999999999817e+00 1.306850000000000023e+02 1.818125000000000000e+03
1.459999999999999909e-01 7.438914999999999278e-01 9.206210000000000448e+00 1.308520000000000039e+02 1.818164999999999964e+03
1.469999999999999918e-01 7.439284999999999926e-01 9.217449999999999477e+00 1.310235000000000127e+02 1.818199999999999818e+03
1.479999999999999927e-01 7.439644999999999175e-01 9.228919999999998680e+00 1.311945000000000050e+02 1.818234999999999900e+03
1.489999999999999936e-01 7.439994999999999248e-01 9.239454999999999529e+00 1.313619999999999948e+02 1.818269999999999982e+03
1.499999999999999944e-01 7.440329999999999444e-01 9.247904999999999376e+00 1.315224999999999795e+02 1.818305000000000064e+03
1.509999999999999953e-01 7.440640000000000587e-01 9.253555000000000419e+00 1.316725000000000136e+02 1.818340000000000146e+03
1.519999999999999962e-01 7.440925000000000455e-01 9.255905000000000271e+00 1.318110000000000070e+02 1.818369999999999891e+03
1.529999999999999971e-01 7.441184999999999050e-01 9.254739999999999966e+00 1.319359999999999786e+02 1.818400000000000091e+03
1.539999999999999980e-01 7.441415000000000113e-01 9.250439999999999330e+00 1.320484999999999900e+02 1.818424999999999955e+03
1.549999999999999989e-01 7.441625000000000600e-01 9.243520000000000181e+00 1.321490000000000009e+02 1.818449999999999818e+03
1.559999999999999998e-01 7.441820000000000102e-01 9.235050000000001091e+00 1.322404999999999973e+02 1.818470000000000027e+03
1.570000000000000007e-01 7.441999999999999726e-01 9.226240000000000663e+00 1.323255000000000052e+02 1.818494999999999891e+03
1.580000000000000016e-01 7.442180000000000462e-01 9.218440000000001078e+00 1.324069999999999823e+02 1.818509999999999991e+03
1.590000000000000024e-01 7.442360000000000086e-01 9.213274999999999437e+00 1.324904999999999973e+02 1.818529999999999973e+03
