# t [s], A [cm^2], U [cm/s], P [cPa], c [cm/s]
1.000000000000000021e-03 1.590580000000000049e-01 1.879305000000000003e-01 9.945640000000000214e+01 1.812690000000000055e+03
2.000000000000000042e-03 1.590384999999999993e-01 1.555404999999999927e+00 9.685685000000000855e+01 1.812500000000000000e+03
3.000000000000000062e-03 1.589470000000000049e-01 3.279576000000000047e+00 9.345009999999999195e+01 1.811690000000000055e+03
4.000000000000000083e-03 1.588040000000000007e-01 5.201714499999999575e+00 8.947964999999999236e+01 1.810440000000000055e+03
5.000000000000000104e-03 1.586319999999999952e-01 7.272804999999999964e+00 8.554175000000000750e+01 1.808950000000000045e+03
6.000000000000000125e-03 1.584514999999999951e-01 9.418305000000000149e+00 8.204200000000000159e+01 1.807404999999999973e+03
7.000000000000000146e-03 1.582749999999999990e-01 1.151452999999999882e+01 7.907509999999999195e+01 1.805904999999999973e+03
8.000000000000000167e-03 1.581069999999999975e-01 1.343582499999999946e+01 7.651590000000000202e+01 1.804494999999999891e+03
9.000000000000001055e-03 1.579490000000000061e-01 1.512096999999999980e+01 7.423439999999999372e+01 1.803194999999999936e+03
1.000000000000000194e-02 1.578060000000000018e-01 1.657515000000000072e+01 7.221590000000000487e+01 1.802035000000000082e+03
1.099999999999999936e-02 1.576795000000000002e-01 1.782104999999999961e+01 7.049745000000000061e+01 1.801009999999999991e+03
1.200000000000000025e-02 1.575705000000000022e-01 1.887299999999999756e+01 6.908700000000000330e+01 1.800144999999999982e+03
1.300000000000000114e-02 1.574790000000000079e-01 1.974054999999999893e+01 6.795920000000000982e+01 1.799420000000000073e+03
1.400000000000000203e-02 1.574035000000000017e-01 2.043100000000000094e+01 6.707054999999999723e+01 1.798835000000000036e+03
1.499999999999999944e-02 1.573414999999999953e-01 2.094845000000000113e+01 6.636239999999999384e+01 1.798365000000000009e+03
1.600000000000000033e-02 1.572910000000000141e-01 2.130255000000000010e+01 6.577539999999999054e+01 1.797980000000000018e+03
1.700000000000000122e-02 1.572494999999999865e-01 2.152404999999999902e+01 6.529025000000000034e+01 1.797674999999999955e+03
1.800000000000000211e-02 1.572175000000000100e-01 2.167159999999999798e+01 6.496299999999999386e+01 1.797450000000000045e+03
1.900000000000000300e-02 1.571980000000000044e-01 2.182150000000000034e+01 6.491880000000000450e+01 1.797319999999999936e+03
2.000000000000000042e-02 1.571954999999999880e-01 2.204250000000000043e+01 6.529940000000000566e+01 1.797309999999999945e+03
2.100000000000000130e-02 1.572119999999999906e-01 2.237164999999999893e+01 6.619419999999999504e+01 1.797460000000000036e+03
2.200000000000000219e-02 1.572489999999999999e-01 2.280250000000000199e+01 6.758990000000000009e+01 1.797764999999999873e+03
2.299999999999999961e-02 1.573039999999999994e-01 2.328855000000000075e+01 6.936055000000000348e+01 1.798210000000000036e+03
2.400000000000000050e-02 1.573720000000000119e-01 2.375935000000000130e+01 7.129800000000000182e+01 1.798764999999999873e+03
2.500000000000000139e-02 1.574450000000000016e-01 2.414209999999999923e+01 7.316589999999999350e+01 1.799360000000000127e+03
2.600000000000000228e-02 1.575155000000000027e-01 2.438020000000000209e+01 7.475780000000000314e+01 1.799940000000000055e+03
2.700000000000000316e-02 1.575779999999999959e-01 2.444510000000000005e+01 7.594065000000000509e+01 1.800460000000000036e+03
2.800000000000000058e-02 1.576275000000000037e-01 2.433924999999999983e+01 7.667425000000000068e+01 1.800884999999999991e+03
2.900000000000000147e-02 1.576635000000000120e-01 2.408995000000000175e+01 7.700515000000000043e+01 1.801195000000000164e+03
3.000000000000000236e-02 1.576879999999999948e-01 2.373829999999999885e+01 7.703900000000000148e+01 1.801404999999999973e+03
3.099999999999999978e-02 1.577020000000000088e-01 2.332625000000000171e+01 7.690319999999999823e+01 1.801535000000000082e+03
3.200000000000000067e-02 1.577100000000000168e-01 2.288589999999999947e+01 7.671049999999999613e+01 1.801605000000000018e+03
3.300000000000000155e-02 1.577145000000000075e-01 2.243339999999999890e+01 7.653334999999999866e+01 1.801650000000000091e+03
3.400000000000000244e-02 1.577164999999999817e-01 2.196859999999999857e+01 7.639374999999999716e+01 1.801674999999999955e+03
3.500000000000000333e-02 1.577175000000000105e-01 2.147930000000000206e+01 7.626895000000000380e+01 1.801684999999999945e+03
3.600000000000000422e-02 1.577164999999999817e-01 2.094825000000000159e+01 7.610859999999999559e+01 1.801680000000000064e+03
3.700000000000000511e-02 1.577115000000000045e-01 2.036135000000000161e+01 7.585765000000000668e+01 1.801650000000000091e+03
3.799999999999999906e-02 1.577025000000000232e-01 1.971440000000000126e+01 7.547865000000000180e+01 1.801579999999999927e+03
3.899999999999999994e-02 1.576879999999999948e-01 1.901675000000000182e+01 7.496800000000000352e+01 1.801470000000000027e+03
4.000000000000000083e-02 1.576690000000000036e-01 1.829244999999999877e+01 7.436230000000000473e+01 1.801324999999999818e+03
4.100000000000000172e-02 1.576480000000000103e-01 1.757655000000000101e+01 7.373480000000000700e+01 1.801154999999999973e+03
4.200000000000000261e-02 1.576265000000000027e-01 1.690950000000000131e+01 7.318195000000000050e+01 1.800985000000000127e+03
4.300000000000000350e-02 1.576079999999999981e-01 1.632995000000000019e+01 7.280419999999999447e+01 1.800835000000000036e+03
4.400000000000000439e-02 1.575960000000000139e-01 1.586769999999999925e+01 7.268585000000000207e+01 1.800740000000000009e+03
4.499999999999999833e-02 1.575944999999999985e-01 1.553860000000000063e+01 7.287770000000000437e+01 1.800715000000000146e+03
4.599999999999999922e-02 1.576029999999999931e-01 1.534210000000000029e+01 7.338749999999998863e+01 1.800779999999999973e+03
4.700000000000000011e-02 1.576230000000000131e-01 1.526169999999999938e+01 7.417785000000000650e+01 1.800925000000000182e+03
4.800000000000000100e-02 1.576520000000000143e-01 1.526794999999999902e+01 7.517275000000000773e+01 1.801154999999999973e+03
4.900000000000000189e-02 1.576890000000000236e-01 1.532300000000000040e+01 7.626959999999999695e+01 1.801440000000000055e+03
5.000000000000000278e-02 1.577295000000000225e-01 1.538589999999999947e+01 7.735434999999999661e+01 1.801759999999999991e+03
5.100000000000000366e-02 1.577695000000000070e-01 1.541750000000000043e+01 7.831714999999999804e+01 1.802079999999999927e+03
5.200000000000000455e-02 1.578054999999999874e-01 1.538455000000000084e+01 7.906430000000000291e+01 1.802375000000000000e+03
5.300000000000000544e-02 1.578344999999999887e-01 1.526194999999999879e+01 7.952760000000000673e+01 1.802605000000000018e+03
5.399999999999999939e-02 1.578534999999999799e-01 1.503389999999999915e+01 7.966790000000000305e+01 1.802764999999999873e+03
5.500000000000000028e-02 1.578609999999999736e-01 1.469369999999999976e+01 7.947450000000000614e+01 1.802829999999999927e+03
5.600000000000000117e-02 1.578565000000000107e-01 1.424204999999999899e+01 7.896099999999999852e+01 1.802799999999999955e+03
5.700000000000000205e-02 1.578399999999999803e-01 1.368595000000000006e+01 7.815930000000000177e+01 1.802674999999999955e+03
5.800000000000000294e-02 1.578114999999999934e-01 1.303604999999999947e+01 7.711269999999998959e+01 1.802454999999999927e+03
5.900000000000000383e-02 1.577739999999999976e-01 1.230564999999999998e+01 7.586960000000000548e+01 1.802150000000000091e+03
6.000000000000000472e-02 1.577275000000000205e-01 1.150938999999999979e+01 7.447900000000001342e+01 1.801775000000000091e+03
6.099999999999999867e-02 1.576734999999999942e-01 1.066268499999999975e+01 7.298765000000000214e+01 1.801349999999999909e+03
6.199999999999999956e-02 1.576150000000000051e-01 9.781684999999999519e+00 7.143935000000000457e+01 1.800880000000000109e+03
6.300000000000000044e-02 1.575529999999999986e-01 8.883365000000001288e+00 6.987510000000000332e+01 1.800375000000000000e+03
6.400000000000000133e-02 1.574884999999999757e-01 7.985979999999999634e+00 6.833469999999999800e+01 1.799865000000000009e+03
6.500000000000000222e-02 1.574240000000000084e-01 7.109299999999999287e+00 6.685829999999999984e+01 1.799345000000000027e+03
6.600000000000000311e-02 1.573620000000000019e-01 6.274525000000000574e+00 6.548740000000000805e+01 1.798839999999999918e+03
6.700000000000000400e-02 1.573034999999999850e-01 5.504319999999999879e+00 6.426590000000000202e+01 1.798364999999999782e+03
6.800000000000000488e-02 1.572500000000000009e-01 4.822189999999999976e+00 6.323919999999999675e+01 1.797930000000000064e+03
6.900000000000000577e-02 1.572040000000000104e-01 4.251755000000000173e+00 6.245355000000000700e+01 1.797554999999999836e+03
7.000000000000000666e-02 1.571675000000000155e-01 3.815755000000000230e+00 6.195380000000000109e+01 1.797255000000000109e+03
7.100000000000000755e-02 1.571425000000000183e-01 3.535039999999999960e+00 6.178140000000000498e+01 1.797045000000000073e+03
7.200000000000000844e-02 1.571305000000000063e-01 3.427459999999999951e+00 6.197164999999999679e+01 1.796940000000000055e+03
7.300000000000000933e-02 1.571334999999999815e-01 3.506985000000000241e+00 6.255164999999999509e+01 1.796945000000000164e+03
7.399999999999999634e-02 1.571520000000000139e-01 3.782935000000000159e+00 6.353824999999999790e+01 1.797085000000000036e+03
7.499999999999999722e-02 1.571869999999999934e-01 4.259539999999999438e+00 6.493719999999999004e+01 1.797349999999999909e+03
7.599999999999999811e-02 1.572390000000000176e-01 4.935719999999999885e+00 6.674224999999999852e+01 1.797755000000000109e+03
7.699999999999999900e-02 1.573080000000000034e-01 5.805209999999999759e+00 6.893594999999999118e+01 1.798295000000000073e+03
7.799999999999999989e-02 1.573940000000000061e-01 6.856899999999999551e+00 7.149029999999999063e+01 1.798974999999999909e+03
7.900000000000000078e-02 1.574944999999999817e-01 8.075465000000001226e+00 7.436850000000001160e+01 1.799769999999999982e+03
8.000000000000000167e-02 1.576100000000000001e-01 9.442029999999999035e+00 7.752705000000000268e+01 1.800690000000000055e+03
8.100000000000000255e-02 1.577374999999999750e-01 1.093520499999999984e+01 8.091779999999999973e+01 1.801710000000000036e+03
8.200000000000000344e-02 1.578760000000000163e-01 1.253176000000000023e+01 8.449039999999999395e+01 1.802825000000000045e+03
8.300000000000000433e-02 1.580235000000000112e-01 1.420795000000000030e+01 8.819490000000000407e+01 1.804009999999999991e+03
8.400000000000000522e-02 1.581779999999999853e-01 1.593994999999999962e+01 9.198340000000000316e+01 1.805259999999999991e+03
8.500000000000000611e-02 1.583374999999999921e-01 1.770500000000000185e+01 9.581225000000000591e+01 1.806550000000000182e+03
8.600000000000000699e-02 1.585000000000000020e-01 1.948199999999999932e+01 9.964324999999999477e+01 1.807875000000000000e+03
8.700000000000000788e-02 1.586639999999999995e-01 2.125195000000000078e+01 1.034449999999999932e+02 1.809210000000000036e+03
8.800000000000000877e-02 1.588289999999999980e-01 2.299834999999999852e+01 1.071933499999999952e+02 1.810559999999999945e+03
8.899999999999999578e-02 1.589929999999999954e-01 2.470739999999999981e+01 1.108700000000000045e+02 1.811900000000000091e+03
8.999999999999999667e-02 1.591544999999999765e-01 2.636800000000000210e+01 1.144639999999999986e+02 1.813235000000000127e+03
9.099999999999999756e-02 1.593140000000000112e-01 2.797155000000000058e+01 1.179705000000000013e+02 1.814549999999999955e+03
9.199999999999999845e-02 1.594710000000000016e-01 2.951169999999999760e+01 1.213884999999999934e+02 1.815844999999999800e+03
9.299999999999999933e-02 1.596250000000000169e-01 3.098395000000000010e+01 1.247205000000000013e+02 1.817119999999999891e+03
9.400000000000000022e-02 1.597760000000000014e-01 3.238550000000000040e+01 1.279710000000000036e+02 1.818369999999999891e+03
9.500000000000000111e-02 1.599234999999999962e-01 3.371434999999999604e+01 1.311450000000000102e+02 1.819599999999999909e+03
9.600000000000000200e-02 1.600685000000000024e-01 3.496954999999999814e+01 1.342479999999999905e+02 1.820809999999999945e+03
9.700000000000000289e-02 1.602109999999999923e-01 3.615019999999999811e+01 1.372830000000000155e+02 1.821994999999999891e+03
9.800000000000000377e-02 1.603505000000000069e-01 3.725574999999999903e+01 1.402510000000000048e+02 1.823159999999999854e+03
9.900000000000000466e-02 1.604869999999999908e-01 3.828544999999999732e+01 1.431529999999999916e+02 1.824309999999999945e+03
1.000000000000000056e-01 1.606204999999999994e-01 3.923860000000000525e+01 1.459859999999999900e+02 1.825430000000000064e+03
1.010000000000000064e-01 1.607520000000000060e-01 4.011390000000000100e+01 1.487445000000000164e+02 1.826525000000000091e+03
1.020000000000000073e-01 1.608795000000000086e-01 4.090995000000000203e+01 1.514219999999999970e+02 1.827599999999999909e+03
1.030000000000000082e-01 1.610039999999999805e-01 4.162519999999999953e+01 1.540099999999999909e+02 1.828644999999999982e+03
1.040000000000000091e-01 1.611239999999999895e-01 4.225775000000000148e+01 1.564995000000000118e+02 1.829664999999999964e+03
1.050000000000000100e-01 1.612405000000000088e-01 4.280549999999999500e+01 1.588805000000000121e+02 1.830644999999999982e+03
1.059999999999999970e-01 1.613525000000000098e-01 4.326670000000000016e+01 1.611425000000000125e+02 1.831590000000000146e+03
1.069999999999999979e-01 1.614590000000000192e-01 4.363924999999999699e+01 1.632750000000000057e+02 1.832494999999999891e+03
1.079999999999999988e-01 1.615599999999999814e-01 4.392135000000000389e+01 1.652680000000000007e+02 1.833349999999999909e+03
1.089999999999999997e-01 1.616555000000000075e-01 4.411160000000000281e+01 1.671125000000000114e+02 1.834164999999999964e+03
1.100000000000000006e-01 1.617445000000000133e-01 4.420855000000000246e+01 1.688004999999999995e+02 1.834920000000000073e+03
1.110000000000000014e-01 1.618269999999999986e-01 4.421139999999999759e+01 1.703249999999999886e+02 1.835625000000000000e+03
1.120000000000000023e-01 1.619019999999999904e-01 4.411979999999999791e+01 1.716795000000000186e+02 1.836269999999999982e+03
1.130000000000000032e-01 1.619700000000000029e-01 4.393399999999999750e+01 1.728605000000000018e+02 1.836849999999999909e+03
1.140000000000000041e-01 1.620310000000000084e-01 4.365494999999999948e+01 1.738639999999999759e+02 1.837369999999999891e+03
1.150000000000000050e-01 1.620834999999999915e-01 4.328435000000000343e+01 1.746904999999999859e+02 1.837825000000000045e+03
1.160000000000000059e-01 1.621289999999999953e-01 4.282484999999999786e+01 1.753410000000000082e+02 1.838220000000000027e+03
1.170000000000000068e-01 1.621659999999999768e-01 4.227989999999999782e+01 1.758190000000000168e+02 1.838539999999999964e+03
1.180000000000000077e-01 1.621965000000000212e-01 4.165415000000000134e+01 1.761299999999999955e+02 1.838804999999999836e+03
1.190000000000000085e-01 1.622184999999999877e-01 4.095289999999999964e+01 1.762824999999999989e+02 1.839005000000000109e+03
1.200000000000000094e-01 1.622339999999999893e-01 4.018269999999999698e+01 1.762864999999999895e+02 1.839144999999999982e+03
1.209999999999999964e-01 1.622430000000000261e-01 3.935065000000000168e+01 1.761539999999999964e+02 1.839230000000000018e+03
1.219999999999999973e-01 1.622450000000000003e-01 3.846470000000000056e+01 1.758985000000000127e+02 1.839255000000000109e+03
1.229999999999999982e-01 1.622419999999999973e-01 3.753329999999999700e+01 1.755349999999999966e+02 1.839239999999999782e+03
1.239999999999999991e-01 1.622335000000000027e-01 3.656510000000000105e+01 1.750794999999999959e+02 1.839175000000000182e+03
1.250000000000000000e-01 1.622210000000000041e-01 3.556905000000000427e+01 1.745469999999999970e+02 1.839069999999999936e+03
1.260000000000000009e-01 1.622040000000000148e-01 3.455389999999999873e+01 1.739540000000000077e+02 1.838934999999999945e+03
1.270000000000000018e-01 1.621839999999999948e-01 3.352805000000000035e+01 1.733139999999999930e+02 1.838769999999999982e+03
1.280000000000000027e-01 1.621615000000000140e-01 3.249949999999999761e+01 1.726424999999999841e+02 1.838579999999999927e+03
1.290000000000000036e-01 1.621365000000000167e-01 3.147530000000000072e+01 1.719509999999999934e+02 1.838375000000000000e+03
1.300000000000000044e-01 1.621104999999999907e-01 3.046195000000000164e+01 1.712489999999999952e+02 1.838160000000000082e+03
1.310000000000000053e-01 1.620830000000000048e-01 2.946470000000000056e+01 1.705455000000000041e+02 1.837930000000000064e+03
1.320000000000000062e-01 1.620550000000000046e-01 2.848794999999999789e+01 1.698460000000000036e+02 1.837695000000000164e+03
1.330000000000000071e-01 1.620265000000000177e-01 2.753470000000000084e+01 1.691539999999999964e+02 1.837450000000000045e+03
1.340000000000000080e-01 1.619980000000000031e-01 2.660714999999999719e+01 1.684719999999999800e+02 1.837210000000000036e+03
1.350000000000000089e-01 1.619690000000000019e-01 2.570625000000000071e+01 1.677980000000000018e+02 1.836969999999999800e+03
1.360000000000000098e-01 1.619404999999999872e-01 2.483200000000000074e+01 1.671310000000000002e+02 1.836719999999999800e+03
1.370000000000000107e-01 1.619114999999999860e-01 2.398320000000000007e+01 1.664655000000000200e+02 1.836474999999999909e+03
1.380000000000000115e-01 1.618824999999999847e-01 2.315820000000000078e+01 1.657964999999999804e+02 1.836230000000000018e+03
1.390000000000000124e-01 1.618534999999999835e-01 2.235430000000000206e+01 1.651175000000000068e+02 1.835980000000000018e+03
1.400000000000000133e-01 1.618229999999999946e-01 2.156855000000000189e+01 1.644209999999999923e+02 1.835724999999999909e+03
1.410000000000000142e-01 1.617919999999999914e-01 2.079744999999999777e+01 1.636995000000000005e+02 1.835460000000000036e+03
1.420000000000000151e-01 1.617605000000000015e-01 2.003739999999999810e+01 1.629454999999999814e+02 1.835190000000000055e+03
1.430000000000000160e-01 1.617270000000000096e-01 1.928459999999999752e+01 1.621510000000000105e+02 1.834900000000000091e+03
1.440000000000000169e-01 1.616914999999999880e-01 1.853555000000000064e+01 1.613100000000000023e+02 1.834605000000000018e+03
1.450000000000000178e-01 1.616545000000000065e-01 1.778699999999999903e+01 1.604159999999999968e+02 1.834295000000000073e+03
1.459999999999999909e-01 1.616150000000000087e-01 1.703610000000000113e+01 1.594660000000000082e+02 1.833960000000000036e+03
1.469999999999999918e-01 1.615735000000000088e-01 1.628045000000000186e+01 1.584555000000000007e+02 1.833605000000000018e+03
1.479999999999999927e-01 1.615294999999999925e-01 1.551865000000000094e+01 1.573840000000000146e+02 1.833235000000000127e+03
1.489999999999999936e-01 1.614825000000000010e-01 1.474970000000000070e+01 1.562524999999999977e+02 1.832840000000000146e+03
1.499999999999999944e-01 1.614335000000000075e-01 1.397364999999999924e+01 1.550614999999999952e+02 1.832429999999999836e+03
1.509999999999999953e-01 1.613815000000000111e-01 1.319120000000000026e+01 1.538160000000000025e+02 1.831994999999999891e+03
1.519999999999999962e-01 1.613275000000000126e-01 1.240404499999999999e+01 1.525229999999999961e+02 1.831539999999999964e+03
1.529999999999999971e-01 1.612709999999999977e-01 1.161467500000000008e+01 1.511879999999999882e+02 1.831070000000000164e+03
1.539999999999999980e-01 1.612129999999999952e-01 1.082616499999999959e+01 1.498209999999999980e+02 1.830585000000000036e+03
1.549999999999999989e-01 1.611529999999999907e-01 1.004235500000000059e+01 1.484314999999999998e+02 1.830090000000000146e+03
1.559999999999999998e-01 1.610924999999999996e-01 9.267545000000000144e+00 1.470305000000000177e+02 1.829575000000000045e+03
1.570000000000000007e-01 1.610309999999999797e-01 8.506399999999999295e+00 1.456299999999999955e+02 1.829059999999999945e+03
1.580000000000000016e-01 1.609690000000000010e-01 7.763795000000000002e+00 1.442415000000000020e+02 1.828549999999999955e+03
1.590000000000000024e-01 1.609079999999999955e-01 7.044645000000000046e+00 1.428760000000000048e+02 1.828034999999999854e+03
