# t [s], A [cm^2], U [cm/s], P [cPa], c [cm/s]
1.000000000000000021e-03 1.356729999999999881e-01 3.751330000000000497e-01 1.002735500000000002e+02 1.926134999999999991e+03
2.000000000000000042e-03 1.356450000000000156e-01 1.980562999999999851e+00 9.695064999999999600e+01 1.925769999999999982e+03
3.000000000000000062e-03 1.355520000000000058e-01 3.919672499999999893e+00 9.261605000000000132e+01 1.924630000000000109e+03
4.000000000000000083e-03 1.354175000000000240e-01 6.065503500000000159e+00 8.794495000000000573e+01 1.923009999999999991e+03
5.000000000000000104e-03 1.352659999999999973e-01 8.355095000000000383e+00 8.371200000000000330e+01 1.921204999999999927e+03
6.000000000000000125e-03 1.351140000000000119e-01 1.065024000000000015e+01 8.020969999999999800e+01 1.919409999999999854e+03
7.000000000000000146e-03 1.349684999999999913e-01 1.277447000000000088e+01 7.727629999999999200e+01 1.917715000000000146e+03
8.000000000000000167e-03 1.348320000000000074e-01 1.463049499999999981e+01 7.467204999999999870e+01 1.916150000000000091e+03
9.000000000000001055e-03 1.347074999999999800e-01 1.622719999999999985e+01 7.235904999999999632e+01 1.914735000000000127e+03
1.000000000000000194e-02 1.345975000000000088e-01 1.759724999999999895e+01 7.039475000000000193e+01 1.913505000000000109e+03
1.099999999999999936e-02 1.345024999999999971e-01 1.875479999999999947e+01 6.877680000000000859e+01 1.912454999999999927e+03
1.200000000000000025e-02 1.344230000000000147e-01 1.970785000000000053e+01 6.745420000000000016e+01 1.911579999999999927e+03
1.300000000000000114e-02 1.343560000000000032e-01 2.046325000000000216e+01 6.636119999999999663e+01 1.910860000000000127e+03
1.400000000000000203e-02 1.342999999999999750e-01 2.102629999999999910e+01 6.541804999999999382e+01 1.910259999999999991e+03
1.499999999999999944e-02 1.342520000000000102e-01 2.142010000000000147e+01 6.457089999999999463e+01 1.909755000000000109e+03
1.600000000000000033e-02 1.342115000000000113e-01 2.170984999999999943e+01 6.387009999999999366e+01 1.909340000000000146e+03
1.700000000000000122e-02 1.341819999999999957e-01 2.199875000000000114e+01 6.349885000000000446e+01 1.909034999999999854e+03
1.800000000000000211e-02 1.341680000000000095e-01 2.239059999999999917e+01 6.369819999999999993e+01 1.908900000000000091e+03
1.900000000000000300e-02 1.341740000000000155e-01 2.294314999999999927e+01 6.463205000000000666e+01 1.908980000000000018e+03
2.000000000000000042e-02 1.342010000000000147e-01 2.364119999999999777e+01 6.627824999999999989e+01 1.909295000000000073e+03
2.100000000000000130e-02 1.342475000000000196e-01 2.440240000000000009e+01 6.840659999999999741e+01 1.909809999999999945e+03
2.200000000000000219e-02 1.343050000000000077e-01 2.510804999999999865e+01 7.064629999999999654e+01 1.910454999999999927e+03
2.299999999999999961e-02 1.343650000000000122e-01 2.564399999999999835e+01 7.260240000000000293e+01 1.911130000000000109e+03
2.400000000000000050e-02 1.344174999999999953e-01 2.593395000000000294e+01 7.397175000000000011e+01 1.911740000000000009e+03
2.500000000000000139e-02 1.344569999999999932e-01 2.595684999999999931e+01 7.461639999999999873e+01 1.912199999999999818e+03
2.600000000000000228e-02 1.344799999999999884e-01 2.574394999999999811e+01 7.457765000000000555e+01 1.912485000000000127e+03
2.700000000000000316e-02 1.344879999999999964e-01 2.536110000000000042e+01 7.403435000000000343e+01 1.912594999999999800e+03
2.800000000000000058e-02 1.344835000000000058e-01 2.488384999999999891e+01 7.322669999999999391e+01 1.912565000000000055e+03
2.900000000000000147e-02 1.344724999999999948e-01 2.437420000000000186e+01 7.237659999999999627e+01 1.912454999999999927e+03
3.000000000000000236e-02 1.344585000000000086e-01 2.386690000000000111e+01 7.162834999999999752e+01 1.912304999999999836e+03
3.099999999999999978e-02 1.344440000000000079e-01 2.336690000000000111e+01 7.102590000000000714e+01 1.912150000000000091e+03
3.200000000000000067e-02 1.344299999999999939e-01 2.285665000000000191e+01 7.052495000000000402e+01 1.912000000000000000e+03
3.300000000000000155e-02 1.344159999999999799e-01 2.230969999999999942e+01 7.003085000000000093e+01 1.911849999999999909e+03
3.400000000000000244e-02 1.344005000000000061e-01 2.170530000000000115e+01 6.944610000000000127e+01 1.911675000000000182e+03
3.500000000000000333e-02 1.343810000000000004e-01 2.103979999999999961e+01 6.871314999999999884e+01 1.911469999999999800e+03
3.600000000000000422e-02 1.343579999999999774e-01 2.033234999999999815e+01 6.784080000000000155e+01 1.911215000000000146e+03
3.700000000000000511e-02 1.343314999999999926e-01 1.962349999999999994e+01 6.690914999999999679e+01 1.910924999999999955e+03
3.799999999999999906e-02 1.343044999999999933e-01 1.896760000000000090e+01 6.605190000000000339e+01 1.910634999999999991e+03
3.899999999999999994e-02 1.342814999999999981e-01 1.842025000000000290e+01 6.542365000000000919e+01 1.910369999999999891e+03
4.000000000000000083e-02 1.342639999999999945e-01 1.802655000000000030e+01 6.516049999999999898e+01 1.910174999999999955e+03
4.100000000000000172e-02 1.342575000000000018e-01 1.781024999999999991e+01 6.534520000000000550e+01 1.910095000000000027e+03
4.200000000000000261e-02 1.342625000000000068e-01 1.776865000000000094e+01 6.598584999999999923e+01 1.910134999999999991e+03
4.300000000000000350e-02 1.342789999999999817e-01 1.787299999999999756e+01 6.701169999999999050e+01 1.910309999999999945e+03
4.400000000000000439e-02 1.343060000000000087e-01 1.807319999999999993e+01 6.828549999999999898e+01 1.910599999999999909e+03
4.499999999999999833e-02 1.343395000000000006e-01 1.830695000000000050e+01 6.962815000000000509e+01 1.910960000000000036e+03
4.599999999999999922e-02 1.343749999999999944e-01 1.850869999999999749e+01 7.084874999999999545e+01 1.911344999999999800e+03
4.700000000000000011e-02 1.344075000000000131e-01 1.861880000000000024e+01 7.177320000000000277e+01 1.911704999999999927e+03
4.800000000000000100e-02 1.344319999999999959e-01 1.859020000000000294e+01 7.226670000000000016e+01 1.911990000000000009e+03
4.900000000000000189e-02 1.344464999999999966e-01 1.839195000000000135e+01 7.224725000000000819e+01 1.912144999999999982e+03
5.000000000000000278e-02 1.344474999999999976e-01 1.801015000000000299e+01 7.168789999999999907e+01 1.912159999999999854e+03
5.100000000000000366e-02 1.344329999999999969e-01 1.744660000000000011e+01 7.061169999999999902e+01 1.912014999999999873e+03
5.200000000000000455e-02 1.344044999999999823e-01 1.671555000000000035e+01 6.908019999999999072e+01 1.911704999999999927e+03
5.300000000000000544e-02 1.343630000000000102e-01 1.584005000000000152e+01 6.717990000000000350e+01 1.911244999999999891e+03
5.399999999999999939e-02 1.343094999999999983e-01 1.484870000000000090e+01 6.500865000000000293e+01 1.910659999999999854e+03
5.500000000000000028e-02 1.342464999999999908e-01 1.377294999999999980e+01 6.266600000000000392e+01 1.909970000000000027e+03
5.600000000000000117e-02 1.341780000000000195e-01 1.264552000000000120e+01 6.024644999999999584e+01 1.909210000000000036e+03
5.700000000000000205e-02 1.341050000000000020e-01 1.149964999999999904e+01 5.783684999999999832e+01 1.908394999999999982e+03
5.800000000000000294e-02 1.340304999999999969e-01 1.036870000000000047e+01 5.551670000000000016e+01 1.907575000000000045e+03
5.900000000000000383e-02 1.339575000000000071e-01 9.286469999999999558e+00 5.336005000000000109e+01 1.906759999999999991e+03
6.000000000000000472e-02 1.338880000000000070e-01 8.287074999999999747e+00 5.143784999999999741e+01 1.905985000000000127e+03
6.099999999999999867e-02 1.338239999999999985e-01 7.404964999999999797e+00 4.981884999999999764e+01 1.905275000000000091e+03
6.199999999999999956e-02 1.337694999999999856e-01 6.673704999999999998e+00 4.857035000000000480e+01 1.904654999999999973e+03
6.300000000000000044e-02 1.337244999999999961e-01 6.125440000000000218e+00 4.775639999999999930e+01 1.904154999999999973e+03
6.400000000000000133e-02 1.336930000000000063e-01 5.789125000000000298e+00 4.743495000000000061e+01 1.903784999999999854e+03
6.500000000000000222e-02 1.336760000000000170e-01 5.689135000000000275e+00 4.765484999999999616e+01 1.903585000000000036e+03
6.600000000000000311e-02 1.336755000000000027e-01 5.843754999999999811e+00 4.845159999999999911e+01 1.903565000000000055e+03
6.700000000000000400e-02 1.336930000000000063e-01 6.264044999999999419e+00 4.984449999999999648e+01 1.903734999999999900e+03
6.800000000000000488e-02 1.337285000000000001e-01 6.953075000000000117e+00 5.183459999999999468e+01 1.904115000000000009e+03
6.900000000000000577e-02 1.337825000000000264e-01 7.905670000000000641e+00 5.440384999999999849e+01 1.904694999999999936e+03
7.000000000000000666e-02 1.338550000000000018e-01 9.108800000000000452e+00 5.751585000000000036e+01 1.905485000000000127e+03
7.100000000000000755e-02 1.339454999999999951e-01 1.054219999999999935e+01 6.111814999999999998e+01 1.906470000000000027e+03
7.200000000000000844e-02 1.340514999999999901e-01 1.217975999999999992e+01 6.514525000000000432e+01 1.907639999999999873e+03
7.300000000000000933e-02 1.341725000000000001e-01 1.399080000000000013e+01 6.952285000000000537e+01 1.908969999999999800e+03
7.399999999999999634e-02 1.343060000000000087e-01 1.594190000000000040e+01 7.417189999999999372e+01 1.910444999999999936e+03
7.499999999999999722e-02 1.344494999999999996e-01 1.799840000000000018e+01 7.901305000000000689e+01 1.912039999999999964e+03
7.599999999999999811e-02 1.346009999999999984e-01 2.012579999999999814e+01 8.397079999999999700e+01 1.913730000000000018e+03
7.699999999999999900e-02 1.347575000000000023e-01 2.229175000000000040e+01 8.897684999999999889e+01 1.915485000000000127e+03
7.799999999999999989e-02 1.349174999999999958e-01 2.446689999999999898e+01 9.397315000000000396e+01 1.917285000000000082e+03
7.900000000000000078e-02 1.350800000000000056e-01 2.662579999999999814e+01 9.891294999999999504e+01 1.919110000000000127e+03
8.000000000000000167e-02 1.352419999999999733e-01 2.874779999999999802e+01 1.037629500000000036e+02 1.920940000000000055e+03
8.100000000000000255e-02 1.354024999999999812e-01 3.081719999999999970e+01 1.085035000000000025e+02 1.922759999999999991e+03
8.200000000000000344e-02 1.355615000000000014e-01 3.282319999999999993e+01 1.131254999999999882e+02 1.924569999999999936e+03
8.300000000000000433e-02 1.357180000000000053e-01 3.475965000000000060e+01 1.176320000000000050e+02 1.926355000000000018e+03
8.400000000000000522e-02 1.358714999999999784e-01 3.662425000000000352e+01 1.220340000000000060e+02 1.928110000000000127e+03
8.500000000000000611e-02 1.360230000000000050e-01 3.841800000000000637e+01 1.263470000000000084e+02 1.929845000000000027e+03
8.600000000000000699e-02 1.361715000000000009e-01 4.014399999999999835e+01 1.305900000000000034e+02 1.931554999999999836e+03
8.700000000000000788e-02 1.363185000000000091e-01 4.180660000000000309e+01 1.347839999999999918e+02 1.933250000000000000e+03
8.800000000000000877e-02 1.364640000000000020e-01 4.341049999999999898e+01 1.389440000000000168e+02 1.934930000000000064e+03
8.899999999999999578e-02 1.366084999999999938e-01 4.495974999999999966e+01 1.430834999999999866e+02 1.936595000000000027e+03
8.999999999999999667e-02 1.367519999999999847e-01 4.645744999999999436e+01 1.472090000000000032e+02 1.938259999999999991e+03
9.099999999999999756e-02 1.368949999999999889e-01 4.790474999999999994e+01 1.513204999999999814e+02 1.939909999999999854e+03
9.199999999999999845e-02 1.370370000000000199e-01 4.930105000000000359e+01 1.554114999999999895e+02 1.941570000000000164e+03
9.299999999999999933e-02 1.371789999999999954e-01 5.064355000000000473e+01 1.594685000000000059e+02 1.943210000000000036e+03
9.400000000000000022e-02 1.373185000000000100e-01 5.192745000000000033e+01 1.634724999999999966e+02 1.944840000000000146e+03
9.500000000000000111e-02 1.374569999999999959e-01 5.314634999999999820e+01 1.674000000000000057e+02 1.946454999999999927e+03
9.600000000000000200e-02 1.375929999999999931e-01 5.429219999999999402e+01 1.712224999999999966e+02 1.948039999999999964e+03
9.700000000000000289e-02 1.377255000000000007e-01 5.535625000000000284e+01 1.749120000000000061e+02 1.949594999999999800e+03
9.800000000000000377e-02 1.378540000000000043e-01 5.632894999999999897e+01 1.784379999999999882e+02 1.951099999999999909e+03
9.900000000000000466e-02 1.379775000000000029e-01 5.720085000000000264e+01 1.817719999999999914e+02 1.952549999999999955e+03
1.000000000000000056e-01 1.380949999999999955e-01 5.796280000000000143e+01 1.848865000000000123e+02 1.953924999999999955e+03
1.010000000000000064e-01 1.382055000000000089e-01 5.860649999999999693e+01 1.877565000000000168e+02 1.955230000000000018e+03
1.020000000000000073e-01 1.383085000000000009e-01 5.912500000000000000e+01 1.903634999999999877e+02 1.956449999999999818e+03
1.030000000000000082e-01 1.384035000000000126e-01 5.951279999999999859e+01 1.926899999999999977e+02 1.957575000000000045e+03
1.040000000000000091e-01 1.384890000000000010e-01 5.976624999999999943e+01 1.947259999999999991e+02 1.958599999999999909e+03
1.050000000000000100e-01 1.385665000000000091e-01 5.988380000000000081e+01 1.964650000000000034e+02 1.959514999999999873e+03
1.059999999999999970e-01 1.386335000000000206e-01 5.986619999999999919e+01 1.979080000000000155e+02 1.960320000000000164e+03
1.069999999999999979e-01 1.386915000000000231e-01 5.971634999999999849e+01 1.990600000000000023e+02 1.961009999999999991e+03
1.079999999999999988e-01 1.387399999999999745e-01 5.943954999999999700e+01 1.999314999999999998e+02 1.961599999999999909e+03
1.089999999999999997e-01 1.387790000000000135e-01 5.904319999999999879e+01 2.005380000000000109e+02 1.962070000000000164e+03
1.100000000000000006e-01 1.388090000000000157e-01 5.853685000000000116e+01 2.008994999999999891e+02 1.962440000000000055e+03
1.110000000000000014e-01 1.388309999999999822e-01 5.793160000000000309e+01 2.010409999999999968e+02 1.962715000000000146e+03
1.120000000000000023e-01 1.388459999999999972e-01 5.724009999999999820e+01 2.009879999999999995e+02 1.962900000000000091e+03
1.130000000000000032e-01 1.388539999999999774e-01 5.647575000000000500e+01 2.007690000000000055e+02 1.963000000000000000e+03
1.140000000000000041e-01 1.388555000000000206e-01 5.565265000000000128e+01 2.004145000000000039e+02 1.963035000000000082e+03
1.150000000000000050e-01 1.388519999999999754e-01 5.478484999999999872e+01 1.999524999999999864e+02 1.962994999999999891e+03
1.160000000000000059e-01 1.388439999999999952e-01 5.388595000000000113e+01 1.994110000000000014e+02 1.962914999999999964e+03
1.170000000000000068e-01 1.388330000000000120e-01 5.296880000000000166e+01 1.988160000000000025e+02 1.962795000000000073e+03
1.180000000000000077e-01 1.388189999999999980e-01 5.204495000000000005e+01 1.981889999999999930e+02 1.962634999999999991e+03
1.190000000000000085e-01 1.388034999999999963e-01 5.112439999999999429e+01 1.975489999999999782e+02 1.962454999999999927e+03
1.200000000000000094e-01 1.387865000000000071e-01 5.021549999999999869e+01 1.969105000000000132e+02 1.962250000000000000e+03
1.209999999999999964e-01 1.387684999999999891e-01 4.932450000000000045e+01 1.962830000000000155e+02 1.962049999999999955e+03
1.219999999999999973e-01 1.387504999999999988e-01 4.845579999999999643e+01 1.956725000000000136e+02 1.961835000000000036e+03
1.229999999999999982e-01 1.387320000000000220e-01 4.761159999999999570e+01 1.950809999999999889e+02 1.961615000000000009e+03
1.239999999999999991e-01 1.387140000000000040e-01 4.679245000000000232e+01 1.945039999999999907e+02 1.961400000000000091e+03
1.250000000000000000e-01 1.386959999999999860e-01 4.599694999999999823e+01 1.939375000000000000e+02 1.961184999999999945e+03
1.260000000000000009e-01 1.386775000000000091e-01 4.522229999999999706e+01 1.933714999999999975e+02 1.960965000000000146e+03
1.270000000000000018e-01 1.386589999999999767e-01 4.446439999999999770e+01 1.927944999999999993e+02 1.960744999999999891e+03
1.280000000000000027e-01 1.386394999999999988e-01 4.371814999999999429e+01 1.921945000000000050e+02 1.960515000000000100e+03
1.290000000000000036e-01 1.386195000000000066e-01 4.297789999999999822e+01 1.915569999999999879e+02 1.960275000000000091e+03
1.300000000000000044e-01 1.385985000000000134e-01 4.223770000000000380e+01 1.908694999999999879e+02 1.960025000000000091e+03
1.310000000000000053e-01 1.385760000000000047e-01 4.149164999999999992e+01 1.901194999999999879e+02 1.959755000000000109e+03
1.320000000000000062e-01 1.385509999999999797e-01 4.073425000000000296e+01 1.892949999999999875e+02 1.959460000000000036e+03
1.330000000000000071e-01 1.385239999999999805e-01 3.996054999999999779e+01 1.883870000000000005e+02 1.959140000000000100e+03
1.340000000000000080e-01 1.384940000000000060e-01 3.916669999999999874e+01 1.873890000000000100e+02 1.958789999999999964e+03
1.350000000000000089e-01 1.384614999999999874e-01 3.834990000000000521e+01 1.862975000000000136e+02 1.958410000000000082e+03
1.360000000000000098e-01 1.384265000000000079e-01 3.750854999999999961e+01 1.851119999999999948e+02 1.957994999999999891e+03
1.370000000000000107e-01 1.383880000000000110e-01 3.664274999999999949e+01 1.838344999999999914e+02 1.957549999999999955e+03
1.380000000000000115e-01 1.383469999999999978e-01 3.575374999999999659e+01 1.824720000000000084e+02 1.957065000000000055e+03
1.390000000000000124e-01 1.383030000000000093e-01 3.484445000000000192e+01 1.810339999999999918e+02 1.956554999999999836e+03
1.400000000000000133e-01 1.382565000000000044e-01 3.391904999999999859e+01 1.795330000000000155e+02 1.956014999999999873e+03
1.410000000000000142e-01 1.382085000000000119e-01 3.298304999999999865e+01 1.779844999999999970e+02 1.955450000000000045e+03
1.420000000000000151e-01 1.381580000000000030e-01 3.204279999999999973e+01 1.764039999999999964e+02 1.954860000000000127e+03
1.430000000000000160e-01 1.381069999999999798e-01 3.110559999999999903e+01 1.748110000000000070e+02 1.954259999999999991e+03
1.440000000000000169e-01 1.380549999999999833e-01 3.017920000000000158e+01 1.732250000000000227e+02 1.953650000000000091e+03
1.450000000000000178e-01 1.380025000000000002e-01 2.927155000000000129e+01 1.716645000000000039e+02 1.953045000000000073e+03
1.459999999999999909e-01 1.379509999999999903e-01 2.839039999999999964e+01 1.701490000000000009e+02 1.952440000000000055e+03
1.469999999999999918e-01 1.379004999999999814e-01 2.754330000000000211e+01 1.686939999999999884e+02 1.951844999999999800e+03
1.479999999999999927e-01 1.378515000000000157e-01 2.673684999999999690e+01 1.673154999999999859e+02 1.951269999999999982e+03
1.489999999999999936e-01 1.378044999999999964e-01 2.597684999999999889e+01 1.660264999999999986e+02 1.950724999999999909e+03
1.499999999999999944e-01 1.377599999999999936e-01 2.526809999999999690e+01 1.648360000000000127e+02 1.950199999999999818e+03
1.509999999999999953e-01 1.377185000000000215e-01 2.461390000000000100e+01 1.637509999999999764e+02 1.949710000000000036e+03
1.519999999999999962e-01 1.376799999999999968e-01 2.401634999999999920e+01 1.627744999999999891e+02 1.949255000000000109e+03
1.529999999999999971e-01 1.376445000000000030e-01 2.347619999999999862e+01 1.619064999999999941e+02 1.948845000000000027e+03
1.539999999999999980e-01 1.376124999999999987e-01 2.299284999999999712e+01 1.611444999999999936e+02 1.948464999999999918e+03
1.549999999999999989e-01 1.375839999999999841e-01 2.256459999999999866e+01 1.604839999999999804e+02 1.948125000000000000e+03
1.559999999999999998e-01 1.375585000000000002e-01 2.218874999999999886e+01 1.599175000000000182e+02 1.947825000000000045e+03
1.570000000000000007e-01 1.375359999999999916e-01 2.186149999999999949e+01 1.594354999999999905e+02 1.947559999999999945e+03
1.580000000000000016e-01 1.375164999999999860e-01 2.157869999999999777e+01 1.590285000000000082e+02 1.947324999999999818e+03
1.590000000000000024e-01 1.374990000000000101e-01 2.133545000000000158e+01 1.586860000000000070e+02 1.947115000000000009e+03
