# t [s], A [cm^2], U [cm/s], P [cPa], c [cm/s]
1.000000000000000021e-03 1.857509999999999994e-01 2.350085000000000091e-01 1.010910499999999956e+02 2.005750000000000000e+03
2.000000000000000042e-03 1.857079999999999842e-01 1.731178500000000176e+00 9.804484999999999673e+01 2.005420000000000073e+03
3.000000000000000062e-03 1.855755000000000043e-01 3.618357499999999671e+00 9.376890000000000214e+01 2.004470000000000027e+03
4.000000000000000083e-03 1.853859999999999952e-01 5.745821750000000172e+00 8.891100000000000136e+01 2.003134999999999991e+03
5.000000000000000104e-03 1.851749999999999785e-01 8.047579999999999956e+00 8.434300000000000352e+01 2.001660000000000082e+03
6.000000000000000125e-03 1.849680000000000213e-01 1.037975499999999940e+01 8.049359999999998649e+01 2.000230000000000018e+03
7.000000000000000146e-03 1.847734999999999794e-01 1.253184000000000076e+01 7.726449999999999818e+01 1.998909999999999854e+03
8.000000000000000167e-03 1.845935000000000215e-01 1.437020499999999856e+01 7.439869999999999095e+01 1.997710000000000036e+03
9.000000000000001055e-03 1.844319999999999848e-01 1.589969999999999928e+01 7.186430000000000007e+01 1.996650000000000091e+03
1.000000000000000194e-02 1.842949999999999866e-01 1.716304999999999836e+01 6.975119999999999720e+01 1.995759999999999991e+03
1.099999999999999936e-02 1.841805000000000248e-01 1.818400000000000105e+01 6.807949999999999591e+01 1.995029999999999973e+03
1.200000000000000025e-02 1.840900000000000036e-01 1.898174999999999812e+01 6.681119999999999948e+01 1.994454999999999927e+03
1.300000000000000114e-02 1.840205000000000035e-01 1.957070000000000221e+01 6.588034999999999286e+01 1.994025000000000091e+03
1.400000000000000203e-02 1.839665000000000050e-01 1.995495000000000019e+01 6.517914999999999281e+01 1.993694999999999936e+03
1.499999999999999944e-02 1.839244999999999908e-01 2.015655000000000285e+01 6.461294999999999789e+01 1.993445000000000164e+03
1.600000000000000033e-02 1.838930000000000009e-01 2.025240000000000151e+01 6.421845000000000425e+01 1.993265000000000100e+03
1.700000000000000122e-02 1.838774999999999993e-01 2.037089999999999890e+01 6.421035000000000537e+01 1.993190000000000055e+03
1.800000000000000211e-02 1.838874999999999815e-01 2.063900000000000290e+01 6.488009999999999877e+01 1.993259999999999991e+03
1.900000000000000300e-02 1.839279999999999804e-01 2.111885000000000190e+01 6.641140000000000043e+01 1.993529999999999973e+03
2.000000000000000042e-02 1.839994999999999825e-01 2.177519999999999811e+01 6.874009999999999820e+01 1.993994999999999891e+03
2.100000000000000130e-02 1.840940000000000076e-01 2.248855000000000004e+01 7.153784999999999172e+01 1.994619999999999891e+03
2.200000000000000219e-02 1.841990000000000016e-01 2.310300000000000153e+01 7.431624999999999659e+01 1.995309999999999945e+03
2.299999999999999961e-02 1.842959999999999876e-01 2.348199999999999932e+01 7.659109999999999729e+01 1.995954999999999927e+03
2.400000000000000050e-02 1.843735000000000235e-01 2.355140000000000100e+01 7.803369999999999607e+01 1.996485000000000127e+03
2.500000000000000139e-02 1.844224999999999892e-01 2.331535000000000224e+01 7.855514999999999759e+01 1.996829999999999927e+03
2.600000000000000228e-02 1.844439999999999968e-01 2.284384999999999977e+01 7.830189999999998918e+01 1.996994999999999891e+03
2.700000000000000316e-02 1.844434999999999825e-01 2.224000000000000199e+01 7.757394999999999641e+01 1.997009999999999991e+03
2.800000000000000058e-02 1.844294999999999962e-01 2.160115000000000052e+01 7.670454999999999757e+01 1.996930000000000064e+03
2.900000000000000147e-02 1.844119999999999926e-01 2.098895000000000266e+01 7.594870000000000232e+01 1.996820000000000164e+03
3.000000000000000236e-02 1.843960000000000043e-01 2.041655000000000086e+01 7.541655000000000086e+01 1.996714999999999918e+03
3.099999999999999978e-02 1.843825000000000047e-01 1.985450000000000159e+01 7.506620000000000914e+01 1.996625000000000000e+03
3.200000000000000067e-02 1.843699999999999783e-01 1.925019999999999953e+01 7.474830000000000041e+01 1.996545000000000073e+03
3.300000000000000155e-02 1.843540000000000179e-01 1.855349999999999966e+01 7.428130000000000166e+01 1.996445000000000164e+03
3.400000000000000244e-02 1.843290000000000206e-01 1.773945000000000149e+01 7.352979999999999450e+01 1.996284999999999854e+03
3.500000000000000333e-02 1.842940000000000134e-01 1.682290000000000063e+01 7.246444999999999936e+01 1.996065000000000055e+03
3.600000000000000422e-02 1.842499999999999971e-01 1.586050000000000004e+01 7.118469999999999231e+01 1.995779999999999973e+03
3.700000000000000511e-02 1.842019999999999769e-01 1.493900000000000006e+01 6.990094999999999459e+01 1.995469999999999800e+03
3.799999999999999906e-02 1.841585000000000027e-01 1.415470000000000006e+01 6.888030000000000541e+01 1.995184999999999945e+03
3.899999999999999994e-02 1.841285000000000005e-01 1.358940000000000126e+01 6.837495000000001255e+01 1.994980000000000018e+03
4.000000000000000083e-02 1.841184999999999905e-01 1.329044999999999987e+01 6.855420000000000869e+01 1.994904999999999973e+03
4.100000000000000172e-02 1.841335000000000055e-01 1.325980000000000025e+01 6.946000000000000796e+01 1.994985000000000127e+03
4.200000000000000261e-02 1.841725000000000168e-01 1.345469999999999899e+01 7.099569999999999936e+01 1.995220000000000027e+03
4.300000000000000350e-02 1.842314999999999925e-01 1.379690000000000083e+01 7.294755000000000678e+01 1.995595000000000027e+03
4.400000000000000439e-02 1.843024999999999802e-01 1.418844999999999956e+01 7.502899999999999636e+01 1.996049999999999955e+03
4.499999999999999833e-02 1.843754999999999977e-01 1.452914999999999957e+01 7.693550000000000466e+01 1.996519999999999982e+03
4.599999999999999922e-02 1.844405000000000072e-01 1.473134999999999906e+01 7.839600000000000080e+01 1.996949999999999818e+03
4.700000000000000011e-02 1.844879999999999853e-01 1.473059999999999903e+01 7.921135000000001014e+01 1.997269999999999982e+03
4.800000000000000100e-02 1.845129999999999826e-01 1.449060000000000059e+01 7.927420000000000755e+01 1.997445000000000164e+03
4.900000000000000189e-02 1.845104999999999940e-01 1.400220000000000020e+01 7.856999999999999318e+01 1.997440000000000055e+03
5.000000000000000278e-02 1.844810000000000061e-01 1.327904999999999980e+01 7.716214999999999691e+01 1.997259999999999991e+03
5.100000000000000366e-02 1.844260000000000066e-01 1.235071500000000100e+01 7.516759999999999309e+01 1.996914999999999964e+03
5.200000000000000455e-02 1.843500000000000139e-01 1.125508500000000112e+01 7.272990000000000066e+01 1.996420000000000073e+03
5.300000000000000544e-02 1.842564999999999897e-01 1.003300999999999910e+01 6.999575000000000102e+01 1.995815000000000055e+03
5.399999999999999939e-02 1.841514999999999957e-01 8.724180000000000490e+00 6.709860000000000468e+01 1.995130000000000109e+03
5.500000000000000028e-02 1.840379999999999794e-01 7.366060000000000052e+00 6.415139999999999532e+01 1.994389999999999873e+03
5.600000000000000117e-02 1.839215000000000155e-01 5.993869999999999365e+00 6.124654999999999916e+01 1.993630000000000109e+03
5.700000000000000205e-02 1.838055000000000105e-01 4.642244999999999955e+00 5.846175000000000210e+01 1.992865000000000009e+03
5.800000000000000294e-02 1.836929999999999952e-01 3.346575000000000077e+00 5.586704999999999899e+01 1.992125000000000000e+03
5.900000000000000383e-02 1.835870000000000002e-01 2.144096000000000224e+00 5.353194999999999482e+01 1.991429999999999836e+03
6.000000000000000472e-02 1.834919999999999884e-01 1.073944999999999927e+00 5.152949999999999875e+01 1.990795000000000073e+03
6.099999999999999867e-02 1.834095000000000031e-01 1.761500000000000288e-01 4.993689999999999429e+01 1.990244999999999891e+03
6.199999999999999956e-02 1.833440000000000070e-01 -5.102600000000001579e-01 4.883225000000000193e+01 1.989805000000000064e+03
6.300000000000000044e-02 1.832980000000000165e-01 -9.498061500000000157e-01 4.828945000000000221e+01 1.989490000000000009e+03
6.400000000000000133e-02 1.832750000000000212e-01 -1.113170999999999911e+00 4.837064999999999770e+01 1.989320000000000164e+03
6.500000000000000222e-02 1.832769999999999955e-01 -9.795690000000000230e-01 4.912004999999999910e+01 1.989315000000000055e+03
6.600000000000000311e-02 1.833065000000000111e-01 -5.384724999999999095e-01 5.055825000000000102e+01 1.989485000000000127e+03
6.700000000000000400e-02 1.833624999999999838e-01 2.095500000000000140e-01 5.267940000000000111e+01 1.989839999999999918e+03
6.800000000000000488e-02 1.834459999999999980e-01 1.252815000000000012e+00 5.545074999999999932e+01 1.990365000000000009e+03
6.900000000000000577e-02 1.835559999999999969e-01 2.569412999999999947e+00 5.881499999999999773e+01 1.991065000000000055e+03
7.000000000000000666e-02 1.836895000000000056e-01 4.128611499999999879e+00 6.269379999999999598e+01 1.991924999999999955e+03
7.100000000000000755e-02 1.838434999999999930e-01 5.892759999999999998e+00 6.699389999999999645e+01 1.992924999999999955e+03
7.200000000000000844e-02 1.840154999999999985e-01 7.819379999999999775e+00 7.161240000000000805e+01 1.994034999999999854e+03
7.300000000000000933e-02 1.842010000000000036e-01 9.863414999999999822e+00 7.644335000000000946e+01 1.995244999999999891e+03
7.399999999999999634e-02 1.843954999999999900e-01 1.197944999999999993e+01 8.138345000000001050e+01 1.996519999999999982e+03
7.499999999999999722e-02 1.845959999999999823e-01 1.412361999999999895e+01 8.633695000000000164e+01 1.997839999999999918e+03
7.599999999999999811e-02 1.847985000000000044e-01 1.625570000000000093e+01 9.122079999999999700e+01 1.999179999999999836e+03
7.699999999999999900e-02 1.849989999999999968e-01 1.834080000000000155e+01 9.596829999999999927e+01 2.000505000000000109e+03
7.799999999999999989e-02 1.851955000000000129e-01 2.035030000000000072e+01 1.005297500000000070e+02 2.001815000000000055e+03
7.900000000000000078e-02 1.853865000000000096e-01 2.226275000000000048e+01 1.048759500000000031e+02 2.003090000000000146e+03
8.000000000000000167e-02 1.855704999999999993e-01 2.406419999999999959e+01 1.089964999999999975e+02 2.004315000000000055e+03
8.100000000000000255e-02 1.857459999999999944e-01 2.574774999999999991e+01 1.128979999999999961e+02 2.005494999999999891e+03
8.200000000000000344e-02 1.859144999999999825e-01 2.731259999999999977e+01 1.166004999999999967e+02 2.006625000000000000e+03
8.300000000000000433e-02 1.860755000000000048e-01 2.876295000000000002e+01 1.201354999999999933e+02 2.007710000000000036e+03
8.400000000000000522e-02 1.862304999999999933e-01 3.010674999999999812e+01 1.235374999999999943e+02 2.008759999999999991e+03
8.500000000000000611e-02 1.863810000000000189e-01 3.135374999999999801e+01 1.268439999999999941e+02 2.009775000000000091e+03
8.600000000000000699e-02 1.865275000000000127e-01 3.251444999999999652e+01 1.300879999999999939e+02 2.010764999999999873e+03
8.700000000000000788e-02 1.866714999999999902e-01 3.359850000000000136e+01 1.332964999999999804e+02 2.011740000000000009e+03
8.800000000000000877e-02 1.868139999999999801e-01 3.461415000000000219e+01 1.364875000000000114e+02 2.012704999999999927e+03
8.899999999999999578e-02 1.869554999999999967e-01 3.556709999999999638e+01 1.396694999999999993e+02 2.013659999999999854e+03
8.999999999999999667e-02 1.870964999999999989e-01 3.646039999999999992e+01 1.428414999999999964e+02 2.014615000000000009e+03
9.099999999999999756e-02 1.872360000000000135e-01 3.729449999999999932e+01 1.459915000000000020e+02 2.015554999999999836e+03
9.199999999999999845e-02 1.873739999999999850e-01 3.806714999999999804e+01 1.491020000000000039e+02 2.016494999999999891e+03
9.299999999999999933e-02 1.875100000000000100e-01 3.877370000000000516e+01 1.521480000000000246e+02 2.017414999999999964e+03
9.400000000000000022e-02 1.876434999999999909e-01 3.940769999999999840e+01 1.550999999999999943e+02 2.018320000000000164e+03
9.500000000000000111e-02 1.877719999999999945e-01 3.996150000000000091e+01 1.579265000000000043e+02 2.019190000000000055e+03
9.600000000000000200e-02 1.878960000000000075e-01 4.042629999999999768e+01 1.605955000000000155e+02 2.020029999999999973e+03
9.700000000000000289e-02 1.880124999999999991e-01 4.079344999999999999e+01 1.630759999999999934e+02 2.020825000000000045e+03
9.800000000000000377e-02 1.881214999999999971e-01 4.105410000000000537e+01 1.653379999999999939e+02 2.021569999999999936e+03
9.900000000000000466e-02 1.882214999999999860e-01 4.120045000000000357e+01 1.673575000000000159e+02 2.022255000000000109e+03
1.000000000000000056e-01 1.883115000000000205e-01 4.122599999999999909e+01 1.691114999999999782e+02 2.022869999999999891e+03
1.010000000000000064e-01 1.883900000000000019e-01 4.112574999999999648e+01 1.705855000000000246e+02 2.023414999999999964e+03
1.020000000000000073e-01 1.884575000000000000e-01 4.089695000000000391e+01 1.717684999999999889e+02 2.023880000000000109e+03
1.030000000000000082e-01 1.885129999999999861e-01 4.053920000000000101e+01 1.726574999999999989e+02 2.024260000000000218e+03
1.040000000000000091e-01 1.885560000000000014e-01 4.005469999999999686e+01 1.732554999999999836e+02 2.024569999999999936e+03
1.050000000000000100e-01 1.885870000000000046e-01 3.944865000000000066e+01 1.735720000000000027e+02 2.024789999999999964e+03
1.059999999999999970e-01 1.886065000000000103e-01 3.872865000000000180e+01 1.736239999999999952e+02 2.024934999999999945e+03
1.069999999999999979e-01 1.886154999999999915e-01 3.790505000000000280e+01 1.734334999999999809e+02 2.025000000000000000e+03
1.079999999999999988e-01 1.886140000000000039e-01 3.699054999999999893e+01 1.730285000000000082e+02 2.025000000000000000e+03
1.089999999999999997e-01 1.886035000000000073e-01 3.599930000000000518e+01 1.724404999999999859e+02 2.024940000000000055e+03
1.100000000000000006e-01 1.885850000000000026e-01 3.494719999999999516e+01 1.717030000000000030e+02 2.024819999999999936e+03
1.110000000000000014e-01 1.885594999999999910e-01 3.385049999999999670e+01 1.708514999999999873e+02 2.024654999999999973e+03
1.120000000000000023e-01 1.885300000000000031e-01 3.272560000000000002e+01 1.699205000000000041e+02 2.024460000000000036e+03
1.130000000000000032e-01 1.884959999999999969e-01 3.158849999999999625e+01 1.689435000000000002e+02 2.024235000000000127e+03
1.140000000000000041e-01 1.884589999999999876e-01 3.045400000000000063e+01 1.679495000000000005e+02 2.023990000000000009e+03
1.150000000000000050e-01 1.884215000000000195e-01 2.933545000000000158e+01 1.669644999999999868e+02 2.023735000000000127e+03
1.160000000000000059e-01 1.883834999999999815e-01 2.824425000000000097e+01 1.660099999999999909e+02 2.023485000000000127e+03
1.170000000000000068e-01 1.883465000000000000e-01 2.718959999999999866e+01 1.651009999999999991e+02 2.023230000000000018e+03
1.180000000000000077e-01 1.883100000000000052e-01 2.617824999999999847e+01 1.642479999999999905e+02 2.022985000000000127e+03
1.190000000000000085e-01 1.882754999999999845e-01 2.521444999999999936e+01 1.634555000000000007e+02 2.022744999999999891e+03
1.200000000000000094e-01 1.882425000000000070e-01 2.429984999999999928e+01 1.627219999999999800e+02 2.022519999999999982e+03
1.209999999999999964e-01 1.882119999999999904e-01 2.343394999999999939e+01 1.620425000000000182e+02 2.022309999999999945e+03
1.219999999999999973e-01 1.881829999999999892e-01 2.261374999999999957e+01 1.614055000000000177e+02 2.022110000000000127e+03
1.229999999999999982e-01 1.881554999999999755e-01 2.183445000000000036e+01 1.607975000000000136e+02 2.021914999999999964e+03
1.239999999999999991e-01 1.881285000000000041e-01 2.108955000000000268e+01 1.602015000000000100e+02 2.021730000000000018e+03
1.250000000000000000e-01 1.881015000000000048e-01 2.037145000000000294e+01 1.595980000000000132e+02 2.021550000000000182e+03
1.260000000000000009e-01 1.880749999999999922e-01 1.967194999999999894e+01 1.589675000000000011e+02 2.021360000000000127e+03
1.270000000000000018e-01 1.880465000000000053e-01 1.898214999999999719e+01 1.582909999999999968e+02 2.021164999999999964e+03
1.280000000000000027e-01 1.880160000000000164e-01 1.829374999999999929e+01 1.575500000000000114e+02 2.020960000000000036e+03
1.290000000000000036e-01 1.879830000000000112e-01 1.759884999999999877e+01 1.567274999999999920e+02 2.020735000000000127e+03
1.300000000000000044e-01 1.879465000000000163e-01 1.689079999999999870e+01 1.558120000000000118e+02 2.020490000000000009e+03
1.310000000000000053e-01 1.879065000000000041e-01 1.616404999999999959e+01 1.547944999999999993e+02 2.020220000000000027e+03
1.320000000000000062e-01 1.878630000000000022e-01 1.541495000000000104e+01 1.536694999999999993e+02 2.019920000000000073e+03
1.330000000000000071e-01 1.878144999999999953e-01 1.464179999999999993e+01 1.524370000000000118e+02 2.019595000000000027e+03
1.340000000000000080e-01 1.877619999999999845e-01 1.384479999999999933e+01 1.511020000000000039e+02 2.019244999999999891e+03
1.350000000000000089e-01 1.877055000000000251e-01 1.302625000000000099e+01 1.496744999999999948e+02 2.018865000000000009e+03
1.360000000000000098e-01 1.876450000000000062e-01 1.219036000000000008e+01 1.481680000000000064e+02 2.018460000000000036e+03
1.370000000000000107e-01 1.875815000000000121e-01 1.134314499999999981e+01 1.466009999999999991e+02 2.018034999999999854e+03
1.380000000000000115e-01 1.875160000000000160e-01 1.049232500000000101e+01 1.449939999999999998e+02 2.017594999999999800e+03
1.390000000000000124e-01 1.874485000000000179e-01 9.646570000000000533e+00 1.433704999999999927e+02 2.017140000000000100e+03
1.400000000000000133e-01 1.873805000000000054e-01 8.815514999999999546e+00 1.417554999999999836e+02 2.016684999999999945e+03
1.410000000000000142e-01 1.873130000000000073e-01 8.009050000000000225e+00 1.401734999999999900e+02 2.016230000000000018e+03
1.420000000000000151e-01 1.872464999999999824e-01 7.237045000000000172e+00 1.386479999999999961e+02 2.015779999999999973e+03
1.430000000000000160e-01 1.871820000000000150e-01 6.508779999999999788e+00 1.372010000000000218e+02 2.015345000000000027e+03
1.440000000000000169e-01 1.871209999999999818e-01 5.832609999999999850e+00 1.358530000000000086e+02 2.014929999999999836e+03
1.450000000000000178e-01 1.870634999999999937e-01 5.215605000000000047e+00 1.346175000000000068e+02 2.014539999999999964e+03
1.459999999999999909e-01 1.870100000000000096e-01 4.663280000000000314e+00 1.335074999999999932e+02 2.014180000000000064e+03
1.469999999999999918e-01 1.869620000000000171e-01 4.179425000000000168e+00 1.325294999999999845e+02 2.013855000000000018e+03
1.479999999999999927e-01 1.869190000000000018e-01 3.766010000000000080e+00 1.316870000000000118e+02 2.013559999999999945e+03
1.489999999999999936e-01 1.868815000000000059e-01 3.423204999999999831e+00 1.309764999999999873e+02 2.013300000000000182e+03
1.499999999999999944e-01 1.868489999999999873e-01 3.149449999999999861e+00 1.303954999999999984e+02 2.013079999999999927e+03
1.509999999999999953e-01 1.868219999999999881e-01 2.941609999999999836e+00 1.299334999999999809e+02 2.012889999999999873e+03
1.519999999999999962e-01 1.867995000000000072e-01 2.795195000000000096e+00 1.295790000000000077e+02 2.012730000000000018e+03
1.529999999999999971e-01 1.867814999999999892e-01 2.704614999999999991e+00 1.293199999999999932e+02 2.012605000000000018e+03
1.539999999999999980e-01 1.867675000000000030e-01 2.663440000000000030e+00 1.291409999999999911e+02 2.012505000000000109e+03
1.549999999999999989e-01 1.867570000000000063e-01 2.664670000000000094e+00 1.290264999999999986e+02 2.012429999999999836e+03
1.559999999999999998e-01 1.867489999999999983e-01 2.701005000000000322e+00 1.289615000000000009e+02 2.012369999999999891e+03
1.570000000000000007e-01 1.867429999999999923e-01 2.765099999999999891e+00 1.289314999999999998e+02 2.012329999999999927e+03
1.580000000000000016e-01 1.867389999999999883e-01 2.849784999999999791e+00 1.289225000000000136e+02 2.012299999999999955e+03
1.590000000000000024e-01 1.867364999999999997e-01 2.948245000000000005e+00 1.289230000000000018e+02 2.012275000000000091e+03
