# t [s], A [cm^2], U [cm/s], P [cPa], c [cm/s]
1.000000000000000021e-03 6.992884999999999796e-01 5.838849999999999596e-03 1.053954999999999984e+02 1.593190000000000055e+03
2.000000000000000042e-03 6.992760000000000087e-01 -3.815665000000000202e-03 1.053675000000000068e+02 1.593184999999999945e+03
3.000000000000000062e-03 6.993270000000000319e-01 7.474480000000000013e-02 1.054509999999999934e+02 1.593204999999999927e+03
4.000000000000000083e-03 6.993864999999999110e-01 1.744266499999999886e-01 1.055749999999999886e+02 1.593230000000000018e+03
5.000000000000000104e-03 6.993709999999999649e-01 1.706464999999999788e-01 1.055515000000000043e+02 1.593230000000000018e+03
6.000000000000000125e-03 6.992985000000000451e-01 7.868900000000000894e-02 1.053584999999999923e+02 1.593190000000000055e+03
7.000000000000000146e-03 6.992369999999999974e-01 -4.128499999999979408e-03 1.051115000000000066e+02 1.593134999999999991e+03
8.000000000000000167e-03 6.991564999999999586e-01 -1.262044999999999972e-01 1.047760000000000105e+02 1.593065000000000055e+03
9.000000000000001055e-03 6.990160000000000817e-01 -3.589849999999999985e-01 1.042554999999999978e+02 1.592954999999999927e+03
1.000000000000000194e-02 6.988119999999999887e-01 -7.070199999999998708e-01 1.035100000000000051e+02 1.592804999999999836e+03
1.099999999999999936e-02 6.985319999999999308e-01 -1.181289999999999951e+00 1.024907499999999914e+02 1.592590000000000146e+03
1.200000000000000025e-02 6.981549999999999701e-01 -1.799430000000000085e+00 1.011339000000000112e+02 1.592299999999999955e+03
1.300000000000000114e-02 6.976955000000000240e-01 -2.520094999999999974e+00 9.944610000000000127e+01 1.591930000000000064e+03
1.400000000000000203e-02 6.972099999999999964e-01 -3.223429999999999573e+00 9.754990000000000805e+01 1.591505000000000109e+03
1.499999999999999944e-02 6.967685000000000128e-01 -3.763873999999999942e+00 9.563544999999999163e+01 1.591054999999999836e+03
1.600000000000000033e-02 6.964150000000000063e-01 -4.038101499999999788e+00 9.387385000000000446e+01 1.590619999999999891e+03
1.700000000000000122e-02 6.961505000000000054e-01 -4.018421000000000021e+00 9.235150000000000148e+01 1.590224999999999909e+03
1.800000000000000211e-02 6.959435000000000482e-01 -3.746326999999999963e+00 9.105594999999999573e+01 1.589869999999999891e+03
1.900000000000000300e-02 6.957474999999999632e-01 -3.303420999999999719e+00 8.990094999999999459e+01 1.589534999999999854e+03
2.000000000000000042e-02 6.955185000000000395e-01 -2.776859774999999697e+00 8.876980000000000359e+01 1.589204999999999927e+03
2.100000000000000130e-02 6.952305000000000845e-01 -2.230492499999999989e+00 8.756085000000000207e+01 1.588860000000000127e+03
2.200000000000000219e-02 6.948810000000000819e-01 -1.689005000000000312e+00 8.622069999999999368e+01 1.588490000000000009e+03
2.299999999999999961e-02 6.944894999999999818e-01 -1.139234999999999776e+00 8.475549999999999784e+01 1.588089999999999918e+03
2.400000000000000050e-02 6.940839999999999232e-01 -5.468099999999997962e-01 8.321774999999999523e+01 1.587679999999999836e+03
2.500000000000000139e-02 6.936895000000000699e-01 1.203099999999999170e-01 8.167645000000000266e+01 1.587259999999999991e+03
2.600000000000000228e-02 6.933190000000000186e-01 8.715049999999999741e-01 8.018489999999999895e+01 1.586849999999999909e+03
2.700000000000000316e-02 6.929669999999999996e-01 1.683199999999999807e+00 7.875754999999999484e+01 1.586454999999999927e+03
2.800000000000000058e-02 6.926129999999999232e-01 2.499984999999999680e+00 7.736144999999999072e+01 1.586059999999999945e+03
2.900000000000000147e-02 6.922260000000000080e-01 3.245095000000000063e+00 7.592255000000000109e+01 1.585659999999999854e+03
3.000000000000000236e-02 6.917744999999999589e-01 3.836755000000000138e+00 7.434450000000001069e+01 1.585235000000000127e+03
3.099999999999999978e-02 6.912329999999999863e-01 4.206445000000000434e+00 7.253370000000001028e+01 1.584764999999999873e+03
3.200000000000000067e-02 6.905924999999999425e-01 4.314770000000000216e+00 7.042589999999999861e+01 1.584240000000000009e+03
3.300000000000000155e-02 6.898615000000000164e-01 4.160705000000000098e+00 6.800665000000000759e+01 1.583644999999999982e+03
3.400000000000000244e-02 6.890654999999999974e-01 3.781435000000000546e+00 6.531955000000000666e+01 1.582994999999999891e+03
3.500000000000000333e-02 6.882440000000000779e-01 3.243340000000000334e+00 6.246075000000000443e+01 1.582300000000000182e+03
3.600000000000000422e-02 6.874390000000000223e-01 2.627154999999999685e+00 5.956179999999999808e+01 1.581595000000000027e+03
3.700000000000000511e-02 6.866915000000000102e-01 2.013485000000000191e+00 5.676794999999999902e+01 1.580909999999999854e+03
3.799999999999999906e-02 6.860355000000000203e-01 1.470994999999999830e+00 5.421710000000000207e+01 1.580260000000000218e+03
3.899999999999999994e-02 6.854929999999999080e-01 1.050155000000000172e+00 5.202439999999999998e+01 1.579690000000000055e+03
4.000000000000000083e-02 6.850764999999999771e-01 7.820549999999997226e-01 5.027304999999999779e+01 1.579214999999999918e+03
4.100000000000000172e-02 6.847909999999999275e-01 6.809699999999998532e-01 4.901290000000000191e+01 1.578849999999999909e+03
4.200000000000000261e-02 6.846334999999998949e-01 7.493749999999999023e-01 4.826364999999999839e+01 1.578599999999999909e+03
4.300000000000000350e-02 6.845999999999999863e-01 9.836348500000000605e-01 4.802230000000000132e+01 1.578474999999999909e+03
4.400000000000000439e-02 6.846839999999999593e-01 1.379040000000000044e+00 4.827159999999999940e+01 1.578470000000000027e+03
4.499999999999999833e-02 6.848800000000000443e-01 1.933107499999999979e+00 4.898794999999999789e+01 1.578585000000000036e+03
4.599999999999999922e-02 6.851840000000000153e-01 2.646554000000000073e+00 5.014690000000000225e+01 1.578809999999999945e+03
4.700000000000000011e-02 6.855919999999999792e-01 3.522079999999999878e+00 5.172525000000000261e+01 1.579139999999999873e+03
4.800000000000000100e-02 6.861014999999999198e-01 4.561679999999999957e+00 5.370060000000000144e+01 1.579574999999999818e+03
4.900000000000000189e-02 6.867064999999999975e-01 5.763555999999999457e+00 5.604860000000000042e+01 1.580105000000000018e+03
5.000000000000000278e-02 6.873989999999999823e-01 7.119408500000000473e+00 5.873935000000000173e+01 1.580720000000000027e+03
5.100000000000000366e-02 6.881680000000000019e-01 8.613285499999999928e+00 6.173559999999999803e+01 1.581420000000000073e+03
5.200000000000000455e-02 6.890005000000000157e-01 1.022150000000000070e+01 6.499110000000000298e+01 1.582195000000000164e+03
5.300000000000000544e-02 6.898794999999999789e-01 1.191417999999999999e+01 6.845149999999999579e+01 1.583025000000000091e+03
5.399999999999999939e-02 6.907889999999999864e-01 1.365749499999999905e+01 7.205689999999999884e+01 1.583900000000000091e+03
5.500000000000000028e-02 6.917124999999999524e-01 1.541654999999999909e+01 7.574504999999999200e+01 1.584804999999999836e+03
5.600000000000000117e-02 6.926339999999999719e-01 1.715806500000000057e+01 7.945550000000000068e+01 1.585730000000000018e+03
5.700000000000000205e-02 6.935409999999999631e-01 1.885255000000000081e+01 8.313339999999999463e+01 1.586650000000000091e+03
5.800000000000000294e-02 6.944239999999999302e-01 2.047585000000000122e+01 8.673250000000000171e+01 1.587565000000000055e+03
5.900000000000000383e-02 6.952749999999999764e-01 2.200994999999999990e+01 9.021754999999998859e+01 1.588460000000000036e+03
6.000000000000000472e-02 6.960910000000000153e-01 2.344310000000000116e+01 9.356364999999999554e+01 1.589329999999999927e+03
6.099999999999999867e-02 6.968704999999999483e-01 2.476905000000000001e+01 9.675935000000001196e+01 1.590175000000000182e+03
6.199999999999999956e-02 6.976154999999999440e-01 2.598649999999999949e+01 9.980169999999999675e+01 1.590980000000000018e+03
6.300000000000000044e-02 6.983274999999999899e-01 2.709789999999999921e+01 1.026971000000000060e+02 1.591755000000000109e+03
6.400000000000000133e-02 6.990115000000000078e-01 2.810855000000000103e+01 1.054578499999999934e+02 1.592494999999999891e+03
6.500000000000000222e-02 6.996720000000000717e-01 2.902570000000000050e+01 1.081015000000000015e+02 1.593210000000000036e+03
6.600000000000000311e-02 7.003129999999999633e-01 2.985764999999999958e+01 1.106484999999999985e+02 1.593900000000000091e+03
6.700000000000000400e-02 7.009404999999999664e-01 3.061299999999999955e+01 1.131169999999999902e+02 1.594569999999999936e+03
6.800000000000000488e-02 7.015579999999999039e-01 3.129979999999999762e+01 1.155275000000000034e+02 1.595219999999999800e+03
6.900000000000000577e-02 7.021690000000000431e-01 3.192515000000000214e+01 1.178940000000000055e+02 1.595855000000000018e+03
7.000000000000000666e-02 7.027734999999999399e-01 3.249445000000000050e+01 1.202280000000000086e+02 1.596485000000000127e+03
7.100000000000000755e-02 7.033739999999999437e-01 3.301089999999999947e+01 1.225349999999999966e+02 1.597110000000000127e+03
7.200000000000000844e-02 7.039684999999999970e-01 3.347545000000000215e+01 1.248139999999999930e+02 1.597724999999999909e+03
7.300000000000000933e-02 7.045540000000000136e-01 3.388685000000000258e+01 1.270589999999999975e+02 1.598329999999999927e+03
7.399999999999999634e-02 7.051264999999999894e-01 3.424159999999999826e+01 1.292574999999999932e+02 1.598914999999999964e+03
7.499999999999999722e-02 7.056820000000000315e-01 3.453495000000000203e+01 1.313930000000000007e+02 1.599494999999999891e+03
7.599999999999999811e-02 7.062144999999999673e-01 3.476084999999999781e+01 1.334465000000000146e+02 1.600055000000000064e+03
7.699999999999999900e-02 7.067185000000000272e-01 3.491334999999999411e+01 1.353954999999999984e+02 1.600585000000000036e+03
7.799999999999999989e-02 7.071879999999999278e-01 3.498635000000000161e+01 1.372185000000000059e+02 1.601085000000000036e+03
7.900000000000000078e-02 7.076189999999999980e-01 3.497499999999999432e+01 1.388960000000000150e+02 1.601555000000000064e+03
8.000000000000000167e-02 7.080075000000000118e-01 3.487539999999999907e+01 1.404094999999999800e+02 1.601985000000000127e+03
8.100000000000000255e-02 7.083500000000000352e-01 3.468550000000000466e+01 1.417454999999999927e+02 1.602365000000000009e+03
8.200000000000000344e-02 7.086440000000000516e-01 3.440449999999999875e+01 1.428925000000000125e+02 1.602700000000000045e+03
8.300000000000000433e-02 7.088894999999999502e-01 3.403374999999999773e+01 1.438455000000000155e+02 1.602990000000000009e+03
8.400000000000000522e-02 7.090855000000000352e-01 3.357609999999999673e+01 1.446034999999999968e+02 1.603224999999999909e+03
8.500000000000000611e-02 7.092335000000000722e-01 3.303620000000000090e+01 1.451684999999999945e+02 1.603414999999999964e+03
8.600000000000000699e-02 7.093359999999999665e-01 3.242019999999999413e+01 1.455470000000000255e+02 1.603554999999999836e+03
8.700000000000000788e-02 7.093949999999999978e-01 3.173584999999999923e+01 1.457510000000000048e+02 1.603650000000000091e+03
8.800000000000000877e-02 7.094154999999999767e-01 3.099215000000000231e+01 1.457950000000000159e+02 1.603699999999999818e+03
8.899999999999999578e-02 7.094009999999999483e-01 3.019910000000000139e+01 1.456945000000000050e+02 1.603704999999999927e+03
8.999999999999999667e-02 7.093570000000000153e-01 2.936775000000000091e+01 1.454689999999999941e+02 1.603684999999999945e+03
9.099999999999999756e-02 7.092874999999999597e-01 2.850945000000000107e+01 1.451399999999999864e+02 1.603630000000000109e+03
9.199999999999999845e-02 7.091989999999999128e-01 2.763595000000000113e+01 1.447295000000000016e+02 1.603549999999999955e+03
9.299999999999999933e-02 7.090965000000000185e-01 2.675854999999999961e+01 1.442584999999999980e+02 1.603450000000000045e+03
9.400000000000000022e-02 7.089855000000000462e-01 2.588820000000000121e+01 1.437479999999999905e+02 1.603335000000000036e+03
9.500000000000000111e-02 7.088704999999999590e-01 2.503455000000000297e+01 1.432180000000000177e+02 1.603210000000000036e+03
9.600000000000000200e-02 7.087550000000000239e-01 2.420589999999999975e+01 1.426864999999999952e+02 1.603085000000000036e+03
9.700000000000000289e-02 7.086425000000000640e-01 2.340885000000000105e+01 1.421670000000000016e+02 1.602950000000000045e+03
9.800000000000000377e-02 7.085365000000000135e-01 2.264795000000000158e+01 1.416719999999999970e+02 1.602825000000000045e+03
9.900000000000000466e-02 7.084365000000000245e-01 2.192575000000000074e+01 1.412085000000000150e+02 1.602704999999999927e+03
1.000000000000000056e-01 7.083439999999999737e-01 2.124259999999999948e+01 1.407814999999999941e+02 1.602590000000000146e+03
1.010000000000000064e-01 7.082589999999999719e-01 2.059689999999999799e+01 1.403899999999999864e+02 1.602480000000000018e+03
1.020000000000000073e-01 7.081800000000000317e-01 1.998525000000000063e+01 1.400314999999999941e+02 1.602375000000000000e+03
1.030000000000000082e-01 7.081049999999999844e-01 1.940279999999999916e+01 1.396995000000000005e+02 1.602284999999999854e+03
1.040000000000000091e-01 7.080314999999999248e-01 1.884349999999999881e+01 1.393865000000000123e+02 1.602195000000000164e+03
1.050000000000000100e-01 7.079575000000000173e-01 1.830055000000000121e+01 1.390819999999999936e+02 1.602110000000000127e+03
1.059999999999999970e-01 7.078800000000000647e-01 1.776679999999999993e+01 1.387744999999999891e+02 1.602025000000000091e+03
1.069999999999999979e-01 7.077964999999999396e-01 1.723499999999999943e+01 1.384535000000000196e+02 1.601929999999999836e+03
1.079999999999999988e-01 7.077039999999999997e-01 1.669825000000000159e+01 1.381084999999999923e+02 1.601840000000000146e+03
1.089999999999999997e-01 7.076009999999999245e-01 1.615030000000000143e+01 1.377289999999999850e+02 1.601739999999999782e+03
1.100000000000000006e-01 7.074849999999999195e-01 1.558595000000000041e+01 1.373070000000000164e+02 1.601630000000000109e+03
1.110000000000000014e-01 7.073559999999999848e-01 1.500100000000000122e+01 1.368369999999999891e+02 1.601509999999999991e+03
1.120000000000000023e-01 7.072129999999999805e-01 1.439274999999999949e+01 1.363145000000000095e+02 1.601380000000000109e+03
1.130000000000000032e-01 7.070560000000000178e-01 1.375990499999999983e+01 1.357389999999999759e+02 1.601235000000000127e+03
1.140000000000000041e-01 7.068860000000000143e-01 1.310286999999999935e+01 1.351120000000000232e+02 1.601079999999999927e+03
1.150000000000000050e-01 7.067044999999999577e-01 1.242349500000000084e+01 1.344379999999999882e+02 1.600910000000000082e+03
1.160000000000000059e-01 7.065139999999999754e-01 1.172525000000000084e+01 1.337245000000000061e+02 1.600730000000000018e+03
1.170000000000000068e-01 7.063174999999999315e-01 1.101284000000000063e+01 1.329805000000000064e+02 1.600545000000000073e+03
1.180000000000000077e-01 7.061180000000000234e-01 1.029232499999999995e+01 1.322175000000000011e+02 1.600355000000000018e+03
1.190000000000000085e-01 7.059189999999999632e-01 9.570440000000001390e+00 1.314484999999999957e+02 1.600159999999999854e+03
1.200000000000000094e-01 7.057234999999999481e-01 8.854879999999999640e+00 1.306879999999999882e+02 1.599964999999999918e+03
1.209999999999999964e-01 7.055365000000000109e-01 8.153404999999999347e+00 1.299499999999999886e+02 1.599775000000000091e+03
1.219999999999999973e-01 7.053605000000000569e-01 7.473829999999999529e+00 1.292485000000000070e+02 1.599595000000000027e+03
1.229999999999999982e-01 7.051994999999999791e-01 6.823735000000000106e+00 1.285980000000000132e+02 1.599424999999999955e+03
1.239999999999999991e-01 7.050560000000000160e-01 6.209975000000000023e+00 1.280089999999999861e+02 1.599264999999999873e+03
1.250000000000000000e-01 7.049320000000000030e-01 5.638530000000000264e+00 1.274939999999999998e+02 1.599125000000000000e+03
1.260000000000000009e-01 7.048304999999999154e-01 5.114214999999999733e+00 1.270584999999999951e+02 1.599000000000000000e+03
1.270000000000000018e-01 7.047509999999999053e-01 4.640564999999999607e+00 1.267099999999999937e+02 1.598900000000000091e+03
1.280000000000000027e-01 7.046950000000000713e-01 4.219664999999999999e+00 1.264495000000000005e+02 1.598815000000000055e+03
1.290000000000000036e-01 7.046604999999999119e-01 3.852164999999999839e+00 1.262775000000000034e+02 1.598759999999999991e+03
1.300000000000000044e-01 7.046479999999999411e-01 3.537275000000000169e+00 1.261914999999999907e+02 1.598720000000000027e+03
1.310000000000000053e-01 7.046550000000000313e-01 3.272874999999999979e+00 1.261855000000000047e+02 1.598699999999999818e+03
1.320000000000000062e-01 7.046799999999999731e-01 3.055690000000000239e+00 1.262520000000000095e+02 1.598700000000000045e+03
1.330000000000000071e-01 7.047189999999999843e-01 2.881445000000000256e+00 1.263810000000000002e+02 1.598720000000000027e+03
1.340000000000000080e-01 7.047700000000000076e-01 2.745144999999999946e+00 1.265629999999999882e+02 1.598755000000000109e+03
1.350000000000000089e-01 7.048299999999999566e-01 2.641280000000000072e+00 1.267855000000000132e+02 1.598799999999999955e+03
1.360000000000000098e-01 7.048965000000000369e-01 2.564084999999999948e+00 1.270365000000000038e+02 1.598855000000000018e+03
1.370000000000000107e-01 7.049649999999999528e-01 2.507769999999999833e+00 1.273044999999999902e+02 1.598909999999999854e+03
1.380000000000000115e-01 7.050350000000000783e-01 2.466714999999999769e+00 1.275790000000000077e+02 1.598974999999999909e+03
1.390000000000000124e-01 7.051024999999999654e-01 2.435640000000000249e+00 1.278495000000000061e+02 1.599034999999999854e+03
1.400000000000000133e-01 7.051659999999999595e-01 2.409745000000000026e+00 1.281075000000000159e+02 1.599099999999999909e+03
1.410000000000000142e-01 7.052235000000000031e-01 2.384789999999999743e+00 1.283455000000000155e+02 1.599159999999999854e+03
1.420000000000000151e-01 7.052745000000000264e-01 2.357165000000000177e+00 1.285564999999999998e+02 1.599215000000000146e+03
1.430000000000000160e-01 7.053175000000000416e-01 2.323904999999999887e+00 1.287369999999999948e+02 1.599255000000000109e+03
1.440000000000000169e-01 7.053519999999999790e-01 2.282704999999999984e+00 1.288840000000000146e+02 1.599295000000000073e+03
1.450000000000000178e-01 7.053770000000000318e-01 2.231880000000000308e+00 1.289960000000000093e+02 1.599325000000000045e+03
1.459999999999999909e-01 7.053939999999999655e-01 2.170359999999999623e+00 1.290720000000000027e+02 1.599349999999999909e+03
1.469999999999999918e-01 7.054020000000000845e-01 2.097595000000000098e+00 1.291120000000000232e+02 1.599365000000000009e+03
1.479999999999999927e-01 7.054015000000000146e-01 2.013545000000000140e+00 1.291184999999999832e+02 1.599375000000000000e+03
1.489999999999999936e-01 7.053939999999999655e-01 1.918590000000000018e+00 1.290925000000000011e+02 1.599369999999999891e+03
1.499999999999999944e-01 7.053795000000000481e-01 1.813485000000000014e+00 1.290375000000000227e+02 1.599360000000000127e+03
1.509999999999999953e-01 7.053584999999999994e-01 1.699270000000000058e+00 1.289554999999999723e+02 1.599349999999999909e+03
1.519999999999999962e-01 7.053320000000000700e-01 1.577201999999999993e+00 1.288499999999999943e+02 1.599329999999999927e+03
1.529999999999999971e-01 7.053009999999999557e-01 1.448714499999999905e+00 1.287235000000000014e+02 1.599300000000000182e+03
1.539999999999999980e-01 7.052659999999999485e-01 1.315322000000000102e+00 1.285790000000000077e+02 1.599264999999999873e+03
1.549999999999999989e-01 7.052275000000000071e-01 1.178561499999999818e+00 1.284200000000000159e+02 1.599230000000000018e+03
1.559999999999999998e-01 7.051859999999999795e-01 1.039939999999999864e+00 1.282489999999999952e+02 1.599190000000000055e+03
1.570000000000000007e-01 7.051425000000000054e-01 9.008909999999999973e-01 1.280674999999999955e+02 1.599144999999999982e+03
1.580000000000000016e-01 7.050969999999999738e-01 7.627131999999999801e-01 1.278774999999999977e+02 1.599095000000000027e+03
1.590000000000000024e-01 7.050494999999999957e-01 6.265777999999999626e-01 1.276804999999999950e+02 1.599050000000000182e+03
