# t [s], A [cm^2], U [cm/s], P [cPa], c [cm/s]
1.000000000000000021e-03 1.609275000000000011e-01 1.190147000000000010e-01 8.878790000000000759e+01 1.725855000000000018e+03
2.000000000000000042e-03 1.609140000000000015e-01 1.294004500000000002e+00 8.663644999999999641e+01 1.725739999999999782e+03
3.000000000000000062e-03 1.608340000000000047e-01 2.802137500000000170e+00 8.384819999999999141e+01 1.725130000000000109e+03
4.000000000000000083e-03 1.607034999999999991e-01 4.489295999999999509e+00 8.052185000000000059e+01 1.724164999999999964e+03
5.000000000000000104e-03 1.605435000000000056e-01 6.312917500000000182e+00 7.712154999999999916e+01 1.722994999999999891e+03
6.000000000000000125e-03 1.603720000000000145e-01 8.222054999999999225e+00 7.401404999999999745e+01 1.721744999999999891e+03
7.000000000000000146e-03 1.602020000000000111e-01 1.012477999999999945e+01 7.134234999999999616e+01 1.720525000000000091e+03
8.000000000000000167e-03 1.600389999999999868e-01 1.191016499999999922e+01 6.904900000000000659e+01 1.719360000000000127e+03
9.000000000000001055e-03 1.598844999999999850e-01 1.350233500000000042e+01 6.701269999999999527e+01 1.718284999999999854e+03
1.000000000000000194e-02 1.597425000000000095e-01 1.488687000000000005e+01 6.518420000000000414e+01 1.717299999999999955e+03
1.099999999999999936e-02 1.596144999999999925e-01 1.608155000000000001e+01 6.358695000000000164e+01 1.716429999999999836e+03
1.200000000000000025e-02 1.595024999999999915e-01 1.710280000000000200e+01 6.224510000000000076e+01 1.715670000000000073e+03
1.300000000000000114e-02 1.594070000000000209e-01 1.796039999999999992e+01 6.115279999999999916e+01 1.715029999999999973e+03
1.400000000000000203e-02 1.593269999999999964e-01 1.866185000000000116e+01 6.028445000000000675e+01 1.714505000000000109e+03
1.499999999999999944e-02 1.592615000000000003e-01 1.921269999999999811e+01 5.960250000000000625e+01 1.714074999999999818e+03
1.600000000000000033e-02 1.592080000000000162e-01 1.961655000000000015e+01 5.905845000000000056e+01 1.713730000000000018e+03
1.700000000000000122e-02 1.591639999999999999e-01 1.988400000000000034e+01 5.860859999999999559e+01 1.713454999999999927e+03
1.800000000000000211e-02 1.591285000000000061e-01 2.004424999999999812e+01 5.824575000000000102e+01 1.713235000000000127e+03
1.900000000000000300e-02 1.591020000000000212e-01 2.014869999999999806e+01 5.802100000000000080e+01 1.713074999999999818e+03
2.000000000000000042e-02 1.590865000000000196e-01 2.026089999999999947e+01 5.803520000000000323e+01 1.712994999999999891e+03
2.100000000000000130e-02 1.590870000000000062e-01 2.043730000000000047e+01 5.839939999999999998e+01 1.713005000000000109e+03
2.200000000000000219e-02 1.591044999999999821e-01 2.070909999999999940e+01 5.918449999999999989e+01 1.713134999999999991e+03
2.299999999999999961e-02 1.591414999999999913e-01 2.107269999999999754e+01 6.038524999999999920e+01 1.713389999999999873e+03
2.400000000000000050e-02 1.591950000000000032e-01 2.149219999999999686e+01 6.191080000000000183e+01 1.713759999999999991e+03
2.500000000000000139e-02 1.592604999999999993e-01 2.191075000000000017e+01 6.360415000000000418e+01 1.714214999999999918e+03
2.600000000000000228e-02 1.593324999999999880e-01 2.226655000000000229e+01 6.527930000000000632e+01 1.714714999999999918e+03
2.700000000000000316e-02 1.594039999999999901e-01 2.250769999999999982e+01 6.676339999999999009e+01 1.715210000000000036e+03
2.800000000000000058e-02 1.594685000000000130e-01 2.260314999999999941e+01 6.793189999999999884e+01 1.715659999999999854e+03
2.900000000000000147e-02 1.595219999999999971e-01 2.254654999999999987e+01 6.872814999999999941e+01 1.716039999999999964e+03
3.000000000000000236e-02 1.595630000000000104e-01 2.235394999999999754e+01 6.916505000000000791e+01 1.716335000000000036e+03
3.099999999999999978e-02 1.595920000000000116e-01 2.205630000000000024e+01 6.931055000000000632e+01 1.716545000000000073e+03
3.200000000000000067e-02 1.596100000000000019e-01 2.168984999999999985e+01 6.926215000000000543e+01 1.716684999999999945e+03
3.300000000000000155e-02 1.596210000000000129e-01 2.128654999999999831e+01 6.911914999999999054e+01 1.716769999999999982e+03
3.400000000000000244e-02 1.596270000000000189e-01 2.086735000000000184e+01 6.895889999999999986e+01 1.716820000000000164e+03
3.500000000000000333e-02 1.596305000000000085e-01 2.043954999999999700e+01 6.882259999999999422e+01 1.716844999999999800e+03
3.600000000000000422e-02 1.596325000000000105e-01 1.999800000000000111e+01 6.871299999999999386e+01 1.716865000000000009e+03
3.700000000000000511e-02 1.596329999999999971e-01 1.952960000000000207e+01 6.860195000000000221e+01 1.716865000000000009e+03
3.799999999999999906e-02 1.596305000000000085e-01 1.901924999999999955e+01 6.844504999999999484e+01 1.716860000000000127e+03
3.899999999999999994e-02 1.596250000000000169e-01 1.845599999999999952e+01 6.819910000000000139e+01 1.716825000000000045e+03
4.000000000000000083e-02 1.596150000000000069e-01 1.783830000000000027e+01 6.783814999999999884e+01 1.716759999999999991e+03
4.100000000000000172e-02 1.595995000000000053e-01 1.717624999999999957e+01 6.736420000000001096e+01 1.716659999999999854e+03
4.200000000000000261e-02 1.595799999999999996e-01 1.649184999999999945e+01 6.681130000000000280e+01 1.716530000000000200e+03
4.300000000000000350e-02 1.595579999999999776e-01 1.581619999999999848e+01 6.624179999999999779e+01 1.716380000000000109e+03
4.400000000000000439e-02 1.595354999999999968e-01 1.518454999999999977e+01 6.573584999999999923e+01 1.716235000000000127e+03
4.499999999999999833e-02 1.595165000000000055e-01 1.463084999999999880e+01 6.537699999999999534e+01 1.716105000000000018e+03
4.599999999999999922e-02 1.595040000000000069e-01 1.418189999999999884e+01 6.523685000000000400e+01 1.716019999999999982e+03
4.700000000000000011e-02 1.594999999999999751e-01 1.385310000000000130e+01 6.536175000000000068e+01 1.715985000000000127e+03
4.800000000000000100e-02 1.595070000000000099e-01 1.364630000000000010e+01 6.576435000000000741e+01 1.716025000000000091e+03
4.900000000000000189e-02 1.595245000000000135e-01 1.354984999999999928e+01 6.642125000000000057e+01 1.716134999999999991e+03
5.000000000000000278e-02 1.595519999999999994e-01 1.354044999999999987e+01 6.727684999999999604e+01 1.716315000000000055e+03
5.100000000000000366e-02 1.595869999999999789e-01 1.358680000000000021e+01 6.825124999999999886e+01 1.716545000000000073e+03
5.200000000000000455e-02 1.596269999999999911e-01 1.365350000000000108e+01 6.925165000000001214e+01 1.716815000000000055e+03
5.300000000000000544e-02 1.596690000000000054e-01 1.370534999999999926e+01 7.018385000000000673e+01 1.717094999999999800e+03
5.399999999999999939e-02 1.597075000000000022e-01 1.371085000000000065e+01 7.096330000000000382e+01 1.717355000000000018e+03
5.500000000000000028e-02 1.597409999999999941e-01 1.364470000000000027e+01 7.152280000000000371e+01 1.717585000000000036e+03
5.600000000000000117e-02 1.597655000000000047e-01 1.348914999999999864e+01 7.181719999999999970e+01 1.717759999999999991e+03
5.700000000000000205e-02 1.597804999999999920e-01 1.323409999999999975e+01 7.182489999999999952e+01 1.717859999999999900e+03
5.800000000000000294e-02 1.597834999999999950e-01 1.287674999999999947e+01 7.154574999999999818e+01 1.717884999999999991e+03
5.900000000000000383e-02 1.597744999999999860e-01 1.242004999999999981e+01 7.099734999999999729e+01 1.717829999999999927e+03
6.000000000000000472e-02 1.597544999999999937e-01 1.187110000000000021e+01 7.020980000000000132e+01 1.717700000000000045e+03
6.099999999999999867e-02 1.597235000000000182e-01 1.124009999999999998e+01 6.922059999999999036e+01 1.717490000000000009e+03
6.199999999999999956e-02 1.596825000000000050e-01 1.053865000000000052e+01 6.807019999999999982e+01 1.717214999999999918e+03
6.300000000000000044e-02 1.596345000000000125e-01 9.779239999999999711e+00 6.679810000000000514e+01 1.716890000000000100e+03
6.400000000000000133e-02 1.595794999999999852e-01 8.974610000000000198e+00 6.544149999999999068e+01 1.716519999999999982e+03
6.500000000000000222e-02 1.595195000000000085e-01 8.137985000000000468e+00 6.403470000000000084e+01 1.716110000000000127e+03
6.600000000000000311e-02 1.594559999999999866e-01 7.283059999999999867e+00 6.260909999999999798e+01 1.715684999999999945e+03
6.700000000000000400e-02 1.593904999999999905e-01 6.424319999999999808e+00 6.119469999999999743e+01 1.715240000000000009e+03
6.800000000000000488e-02 1.593249999999999944e-01 5.577405000000000612e+00 5.982150000000000034e+01 1.714789999999999964e+03
6.900000000000000577e-02 1.592600000000000127e-01 4.759179999999999744e+00 5.852025000000000432e+01 1.714345000000000027e+03
7.000000000000000666e-02 1.591980000000000062e-01 3.987709999999999866e+00 5.732334999999999781e+01 1.713920000000000073e+03
7.100000000000000755e-02 1.591400000000000037e-01 3.281914999999999694e+00 5.626510000000000389e+01 1.713519999999999982e+03
7.200000000000000844e-02 1.590880000000000072e-01 2.661137000000000086e+00 5.538065000000000282e+01 1.713159999999999854e+03
7.300000000000000933e-02 1.590429999999999899e-01 2.144386499999999973e+00 5.470524999999999949e+01 1.712849999999999909e+03
7.399999999999999634e-02 1.590080000000000104e-01 1.749610500000000179e+00 5.427230000000000132e+01 1.712599999999999909e+03
7.499999999999999722e-02 1.589829999999999854e-01 1.492834999999999912e+00 5.411200000000000188e+01 1.712420000000000073e+03
7.599999999999999811e-02 1.589705000000000146e-01 1.387414999999999843e+00 5.424920000000000186e+01 1.712329999999999927e+03
7.699999999999999900e-02 1.589714999999999878e-01 1.443359999999999976e+00 5.470180000000000575e+01 1.712325000000000045e+03
7.799999999999999989e-02 1.589865000000000028e-01 1.666869999999999852e+00 5.548010000000000019e+01 1.712414999999999964e+03
7.900000000000000078e-02 1.590165000000000051e-01 2.060036499999999826e+00 5.658545000000000158e+01 1.712609999999999900e+03
8.000000000000000167e-02 1.590615000000000223e-01 2.620779999999999887e+00 5.801064999999999827e+01 1.712900000000000091e+03
8.100000000000000255e-02 1.591219999999999857e-01 3.342960000000000154e+00 5.973984999999999701e+01 1.713300000000000182e+03
8.200000000000000344e-02 1.591960000000000042e-01 4.216730000000000089e+00 6.174960000000000093e+01 1.713795000000000073e+03
8.300000000000000433e-02 1.592839999999999812e-01 5.228979999999999961e+00 6.401019999999999754e+01 1.714384999999999991e+03
8.400000000000000522e-02 1.593844999999999845e-01 6.363915000000000433e+00 6.648699999999999477e+01 1.715059999999999945e+03
8.500000000000000611e-02 1.594955000000000123e-01 7.603740000000000165e+00 6.914199999999999591e+01 1.715805000000000064e+03
8.600000000000000699e-02 1.596159999999999801e-01 8.929355000000001041e+00 7.193559999999999377e+01 1.716625000000000000e+03
8.700000000000000788e-02 1.597439999999999971e-01 1.032102000000000075e+01 7.482845000000000368e+01 1.717490000000000009e+03
8.800000000000000877e-02 1.598780000000000201e-01 1.175919999999999987e+01 7.778274999999999295e+01 1.718404999999999973e+03
8.899999999999999578e-02 1.600159999999999916e-01 1.322484499999999841e+01 8.076370000000000005e+01 1.719355000000000018e+03
8.999999999999999667e-02 1.601565000000000072e-01 1.470035000000000025e+01 8.374054999999999893e+01 1.720315000000000055e+03
9.099999999999999756e-02 1.602989999999999970e-01 1.616965000000000074e+01 8.668754999999998745e+01 1.721289999999999964e+03
9.199999999999999845e-02 1.604410000000000003e-01 1.761874999999999858e+01 8.958414999999999395e+01 1.722275000000000091e+03
9.299999999999999933e-02 1.605810000000000015e-01 1.903569999999999851e+01 9.241525000000000034e+01 1.723244999999999891e+03
9.400000000000000022e-02 1.607200000000000017e-01 2.041094999999999970e+01 9.517125000000000057e+01 1.724204999999999927e+03
9.500000000000000111e-02 1.608570000000000000e-01 2.173695000000000022e+01 9.784684999999998922e+01 1.725150000000000091e+03
9.600000000000000200e-02 1.609904999999999808e-01 2.300805000000000078e+01 1.004414000000000016e+02 1.726079999999999927e+03
9.700000000000000289e-02 1.611204999999999998e-01 2.422064999999999912e+01 1.029566499999999962e+02 1.726989999999999782e+03
9.800000000000000377e-02 1.612480000000000024e-01 2.537239999999999895e+01 1.053979999999999961e+02 1.727880000000000109e+03
9.900000000000000466e-02 1.613725000000000021e-01 2.646199999999999974e+01 1.077700000000000102e+02 1.728750000000000000e+03
1.000000000000000056e-01 1.614935000000000120e-01 2.748920000000000030e+01 1.100794999999999959e+02 1.729599999999999909e+03
1.010000000000000064e-01 1.616124999999999923e-01 2.845414999999999850e+01 1.123325000000000102e+02 1.730434999999999945e+03
1.020000000000000073e-01 1.617284999999999973e-01 2.935725000000000051e+01 1.145324999999999989e+02 1.731255000000000109e+03
1.030000000000000082e-01 1.618419999999999859e-01 3.019895000000000351e+01 1.166829999999999927e+02 1.732050000000000182e+03
1.040000000000000091e-01 1.619530000000000136e-01 3.097970000000000113e+01 1.187860000000000014e+02 1.732835000000000036e+03
1.050000000000000100e-01 1.620624999999999982e-01 3.169969999999999999e+01 1.208400000000000034e+02 1.733605000000000018e+03
1.059999999999999970e-01 1.621684999999999932e-01 3.235880000000000223e+01 1.228439999999999941e+02 1.734355000000000018e+03
1.069999999999999979e-01 1.622724999999999862e-01 3.295669999999999789e+01 1.247934999999999945e+02 1.735094999999999800e+03
1.079999999999999988e-01 1.623740000000000183e-01 3.349264999999999759e+01 1.266839999999999975e+02 1.735809999999999945e+03
1.089999999999999997e-01 1.624729999999999785e-01 3.396580000000000155e+01 1.285084999999999980e+02 1.736509999999999991e+03
1.100000000000000006e-01 1.625685000000000047e-01 3.437494999999999834e+01 1.302604999999999791e+02 1.737184999999999945e+03
1.110000000000000014e-01 1.626604999999999857e-01 3.471885000000000332e+01 1.319320000000000164e+02 1.737835000000000036e+03
1.120000000000000023e-01 1.627490000000000048e-01 3.499604999999999677e+01 1.335165000000000077e+02 1.738470000000000027e+03
1.130000000000000032e-01 1.628330000000000055e-01 3.520504999999999995e+01 1.350049999999999955e+02 1.739065000000000055e+03
1.140000000000000041e-01 1.629125000000000156e-01 3.534454999999999814e+01 1.363905000000000030e+02 1.739630000000000109e+03
1.150000000000000050e-01 1.629869999999999930e-01 3.541299999999999670e+01 1.376649999999999920e+02 1.740164999999999964e+03
1.160000000000000059e-01 1.630564999999999931e-01 3.540930000000000177e+01 1.388224999999999909e+02 1.740659999999999854e+03
1.170000000000000068e-01 1.631199999999999872e-01 3.533250000000000313e+01 1.398575000000000159e+02 1.741115000000000009e+03
1.180000000000000077e-01 1.631785000000000041e-01 3.518209999999999837e+01 1.407644999999999982e+02 1.741530000000000200e+03
1.190000000000000085e-01 1.632299999999999862e-01 3.495779999999999887e+01 1.415395000000000039e+02 1.741905000000000200e+03
1.200000000000000094e-01 1.632755000000000178e-01 3.466004999999999825e+01 1.421800000000000068e+02 1.742235000000000127e+03
1.209999999999999964e-01 1.633145000000000013e-01 3.428990000000000293e+01 1.426854999999999905e+02 1.742514999999999873e+03
1.219999999999999973e-01 1.633469999999999922e-01 3.384895000000000209e+01 1.430550000000000068e+02 1.742755000000000109e+03
1.229999999999999982e-01 1.633725000000000038e-01 3.333984999999999843e+01 1.432919999999999732e+02 1.742940000000000055e+03
1.239999999999999991e-01 1.633919999999999817e-01 3.276575000000000415e+01 1.434004999999999939e+02 1.743085000000000036e+03
1.250000000000000000e-01 1.634049999999999947e-01 3.213074999999999903e+01 1.433859999999999957e+02 1.743184999999999945e+03
1.260000000000000009e-01 1.634114999999999873e-01 3.143969999999999843e+01 1.432554999999999836e+02 1.743244999999999891e+03
1.270000000000000018e-01 1.634130000000000027e-01 3.069814999999999827e+01 1.430190000000000055e+02 1.743255000000000109e+03
1.280000000000000027e-01 1.634085000000000121e-01 2.991230000000000189e+01 1.426859999999999786e+02 1.743230000000000018e+03
1.290000000000000036e-01 1.633989999999999887e-01 2.908865000000000123e+01 1.422680000000000007e+02 1.743170000000000073e+03
1.300000000000000044e-01 1.633850000000000025e-01 2.823425000000000296e+01 1.417769999999999868e+02 1.743074999999999818e+03
1.310000000000000053e-01 1.633669999999999844e-01 2.735609999999999786e+01 1.412259999999999991e+02 1.742954999999999927e+03
1.320000000000000062e-01 1.633454999999999768e-01 2.646144999999999925e+01 1.406265000000000214e+02 1.742809999999999945e+03
1.330000000000000071e-01 1.633215000000000083e-01 2.555705000000000027e+01 1.399904999999999973e+02 1.742639999999999873e+03
1.340000000000000080e-01 1.632950000000000235e-01 2.464949999999999974e+01 1.393285000000000196e+02 1.742460000000000036e+03
1.350000000000000089e-01 1.632665000000000088e-01 2.374494999999999933e+01 1.386510000000000105e+02 1.742259999999999991e+03
1.360000000000000098e-01 1.632369999999999932e-01 2.284884999999999877e+01 1.379664999999999964e+02 1.742054999999999836e+03
1.370000000000000107e-01 1.632064999999999766e-01 2.196594999999999942e+01 1.372814999999999941e+02 1.741839999999999918e+03
1.380000000000000115e-01 1.631754999999999733e-01 2.110014999999999930e+01 1.366019999999999754e+02 1.741615000000000009e+03
1.390000000000000124e-01 1.631434999999999969e-01 2.025475000000000136e+01 1.359320000000000164e+02 1.741394999999999982e+03
1.400000000000000133e-01 1.631124999999999936e-01 1.943185000000000073e+01 1.352735000000000127e+02 1.741174999999999955e+03
1.410000000000000142e-01 1.630814999999999904e-01 1.863305000000000078e+01 1.346270000000000095e+02 1.740949999999999818e+03
1.420000000000000151e-01 1.630500000000000005e-01 1.785895000000000010e+01 1.339920000000000186e+02 1.740730000000000018e+03
1.430000000000000160e-01 1.630194999999999839e-01 1.710930000000000106e+01 1.333654999999999973e+02 1.740509999999999991e+03
1.440000000000000169e-01 1.629884999999999806e-01 1.638335000000000008e+01 1.327454999999999927e+02 1.740289999999999964e+03
1.450000000000000178e-01 1.629575000000000051e-01 1.567964999999999876e+01 1.321265000000000214e+02 1.740074999999999818e+03
1.459999999999999909e-01 1.629269999999999885e-01 1.499619999999999997e+01 1.315040000000000191e+02 1.739855000000000018e+03
1.469999999999999918e-01 1.628954999999999986e-01 1.433060000000000045e+01 1.308729999999999905e+02 1.739634999999999991e+03
1.479999999999999927e-01 1.628640000000000088e-01 1.368025000000000091e+01 1.302274999999999920e+02 1.739404999999999973e+03
1.489999999999999936e-01 1.628315000000000179e-01 1.304220000000000113e+01 1.295614999999999952e+02 1.739174999999999955e+03
1.499999999999999944e-01 1.627979999999999983e-01 1.241345000000000098e+01 1.288704999999999927e+02 1.738934999999999945e+03
1.509999999999999953e-01 1.627635000000000054e-01 1.179116499999999945e+01 1.281479999999999961e+02 1.738695000000000164e+03
1.519999999999999962e-01 1.627275000000000249e-01 1.117261500000000041e+01 1.273900000000000148e+02 1.738440000000000055e+03
1.529999999999999971e-01 1.626900000000000013e-01 1.055523499999999970e+01 1.265929999999999893e+02 1.738170000000000073e+03
1.539999999999999980e-01 1.626504999999999757e-01 9.936920000000000641e+00 1.257530000000000001e+02 1.737894999999999982e+03
1.549999999999999989e-01 1.626090000000000035e-01 9.315929999999999822e+00 1.248695000000000022e+02 1.737605000000000018e+03
1.559999999999999998e-01 1.625655000000000017e-01 8.691060000000000230e+00 1.239410000000000025e+02 1.737289999999999964e+03
1.570000000000000007e-01 1.625194999999999834e-01 8.061719999999999331e+00 1.229679999999999893e+02 1.736974999999999909e+03
1.580000000000000016e-01 1.624720000000000053e-01 7.427859999999999907e+00 1.219519999999999982e+02 1.736634999999999991e+03
1.590000000000000024e-01 1.624220000000000108e-01 6.790089999999999293e+00 1.208965000000000032e+02 1.736284999999999854e+03
