# t [s], A [cm^2], U [cm/s], P [cPa], c [cm/s]
1.000000000000000021e-03 1.518054999999999821e-01 3.344829999999999748e-01 9.573949999999999250e+01 1.773994999999999891e+03
2.000000000000000042e-03 1.517749999999999932e-01 1.914546499999999929e+00 9.276345000000000596e+01 1.773700000000000045e+03
3.000000000000000062e-03 1.516675000000000106e-01 3.831293500000000130e+00 8.887539999999999907e+01 1.772714999999999918e+03
4.000000000000000083e-03 1.515075000000000172e-01 5.944963999999999693e+00 8.458474999999999966e+01 1.771280000000000200e+03
5.000000000000000104e-03 1.513240000000000141e-01 8.203319999999999723e+00 8.059919999999999618e+01 1.769644999999999982e+03
6.000000000000000125e-03 1.511385000000000089e-01 1.049390500000000159e+01 7.726059999999999661e+01 1.768005000000000109e+03
7.000000000000000146e-03 1.509599999999999831e-01 1.265292499999999976e+01 7.450275000000000603e+01 1.766449999999999818e+03
8.000000000000000167e-03 1.507930000000000104e-01 1.455964999999999954e+01 7.210014999999999930e+01 1.765009999999999991e+03
9.000000000000001055e-03 1.506389999999999951e-01 1.619630000000000081e+01 6.995550000000000068e+01 1.763704999999999927e+03
1.000000000000000194e-02 1.505025000000000113e-01 1.759604999999999819e+01 6.810890000000000555e+01 1.762559999999999945e+03
1.099999999999999936e-02 1.503840000000000177e-01 1.878115000000000023e+01 6.658599999999999852e+01 1.761585000000000036e+03
1.200000000000000025e-02 1.502840000000000009e-01 1.976275000000000048e+01 6.535739999999999839e+01 1.760764999999999873e+03
1.300000000000000114e-02 1.502010000000000012e-01 2.055375000000000085e+01 6.437980000000000302e+01 1.760095000000000027e+03
1.400000000000000203e-02 1.501335000000000031e-01 2.116499999999999915e+01 6.360374999999999801e+01 1.759549999999999955e+03
1.499999999999999944e-02 1.500785000000000036e-01 2.160529999999999973e+01 6.296809999999999974e+01 1.759119999999999891e+03
1.600000000000000033e-02 1.500329999999999997e-01 2.190024999999999977e+01 6.243540000000000134e+01 1.758769999999999982e+03
1.700000000000000122e-02 1.499969999999999914e-01 2.211114999999999853e+01 6.205230000000000246e+01 1.758500000000000000e+03
1.800000000000000211e-02 1.499739999999999962e-01 2.232959999999999923e+01 6.196640000000000725e+01 1.758329999999999927e+03
1.900000000000000300e-02 1.499679999999999902e-01 2.264605000000000246e+01 6.236730000000000018e+01 1.758304999999999836e+03
2.000000000000000042e-02 1.499849999999999794e-01 2.311195000000000022e+01 6.338519999999999754e+01 1.758454999999999927e+03
2.100000000000000130e-02 1.500259999999999927e-01 2.371585000000000321e+01 6.500650000000000261e+01 1.758805000000000064e+03
2.200000000000000219e-02 1.500885000000000136e-01 2.438635000000000019e+01 6.705105000000000359e+01 1.759320000000000164e+03
2.299999999999999961e-02 1.501640000000000197e-01 2.501575000000000060e+01 6.921609999999999729e+01 1.759954999999999927e+03
2.400000000000000050e-02 1.502425000000000010e-01 2.549385000000000190e+01 7.116219999999999857e+01 1.760625000000000000e+03
2.500000000000000139e-02 1.503140000000000032e-01 2.573900000000000077e+01 7.260685000000000855e+01 1.761235000000000127e+03
2.600000000000000228e-02 1.503694999999999893e-01 2.571724999999999994e+01 7.339300000000000068e+01 1.761715000000000146e+03
2.700000000000000316e-02 1.504050000000000109e-01 2.544585000000000008e+01 7.351614999999999611e+01 1.762029999999999973e+03
2.800000000000000058e-02 1.504199999999999982e-01 2.498179999999999978e+01 7.310589999999999122e+01 1.762184999999999945e+03
2.900000000000000147e-02 1.504185000000000105e-01 2.440090000000000003e+01 7.237245000000000061e+01 1.762190000000000055e+03
3.000000000000000236e-02 1.504059999999999842e-01 2.377605000000000146e+01 7.153969999999999629e+01 1.762099999999999909e+03
3.099999999999999978e-02 1.503884999999999805e-01 2.315899999999999892e+01 7.078565000000000396e+01 1.761965000000000146e+03
3.200000000000000067e-02 1.503714999999999913e-01 2.257270000000000110e+01 7.020560000000000400e+01 1.761824999999999818e+03
3.300000000000000155e-02 1.503559999999999897e-01 2.201245000000000118e+01 6.980564999999999998e+01 1.761704999999999927e+03
3.400000000000000244e-02 1.503440000000000054e-01 2.145479999999999876e+01 6.952115000000000578e+01 1.761599999999999909e+03
3.500000000000000333e-02 1.503324999999999800e-01 2.087055000000000149e+01 6.925229999999999109e+01 1.761500000000000000e+03
3.600000000000000422e-02 1.503194999999999948e-01 2.023709999999999809e+01 6.890319999999999823e+01 1.761400000000000091e+03
3.700000000000000511e-02 1.503035000000000065e-01 1.954870000000000019e+01 6.841625000000000512e+01 1.761269999999999982e+03
3.799999999999999906e-02 1.502819999999999989e-01 1.882099999999999795e+01 6.779229999999999734e+01 1.761099999999999909e+03
3.899999999999999994e-02 1.502574999999999883e-01 1.808990000000000009e+01 6.709454999999999814e+01 1.760900000000000091e+03
4.000000000000000083e-02 1.502320000000000044e-01 1.740489999999999782e+01 6.643495000000000061e+01 1.760684999999999945e+03
4.100000000000000172e-02 1.502085000000000226e-01 1.681919999999999860e+01 6.594849999999999568e+01 1.760490000000000009e+03
4.200000000000000261e-02 1.501925000000000066e-01 1.637819999999999965e+01 6.576125000000000398e+01 1.760355000000000018e+03
4.300000000000000350e-02 1.501870000000000149e-01 1.610999999999999943e+01 6.596064999999998690e+01 1.760304999999999836e+03
4.400000000000000439e-02 1.501954999999999818e-01 1.601899999999999835e+01 6.657419999999999050e+01 1.760365000000000009e+03
4.499999999999999833e-02 1.502184999999999770e-01 1.608464999999999989e+01 6.756170000000000186e+01 1.760545000000000073e+03
4.599999999999999922e-02 1.502539999999999987e-01 1.626469999999999771e+01 6.882025000000000148e+01 1.760829999999999927e+03
4.700000000000000011e-02 1.502990000000000159e-01 1.650110000000000099e+01 7.020085000000000264e+01 1.761194999999999936e+03
4.800000000000000100e-02 1.503484999999999960e-01 1.672879999999999967e+01 7.153164999999999907e+01 1.761599999999999909e+03
4.900000000000000189e-02 1.503964999999999885e-01 1.688390000000000057e+01 7.264260000000000161e+01 1.761990000000000009e+03
5.000000000000000278e-02 1.504369999999999874e-01 1.691120000000000090e+01 7.338759999999999195e+01 1.762329999999999927e+03
5.100000000000000366e-02 1.504655000000000020e-01 1.676895000000000024e+01 7.366055000000000064e+01 1.762570000000000164e+03
5.200000000000000455e-02 1.504774999999999863e-01 1.643199999999999861e+01 7.340324999999999989e+01 1.762675000000000182e+03
5.300000000000000544e-02 1.504699999999999926e-01 1.589154999999999873e+01 7.260649999999999693e+01 1.762630000000000109e+03
5.399999999999999939e-02 1.504435000000000078e-01 1.515360000000000085e+01 7.130375000000000796e+01 1.762414999999999964e+03
5.500000000000000028e-02 1.503975000000000173e-01 1.423629999999999995e+01 6.956145000000000778e+01 1.762039999999999964e+03
5.600000000000000117e-02 1.503339999999999954e-01 1.316629999999999967e+01 6.746715000000000373e+01 1.761519999999999982e+03
5.700000000000000205e-02 1.502560000000000007e-01 1.197541499999999992e+01 6.511820000000000164e+01 1.760875000000000000e+03
5.800000000000000294e-02 1.501664999999999806e-01 1.069829000000000008e+01 6.261244999999999550e+01 1.760139999999999873e+03
5.900000000000000383e-02 1.500690000000000079e-01 9.370350000000000179e+00 6.004249999999999687e+01 1.759325000000000045e+03
6.000000000000000472e-02 1.499659999999999882e-01 8.026785000000000281e+00 5.749204999999999899e+01 1.758474999999999909e+03
6.099999999999999867e-02 1.498619999999999952e-01 6.702054999999999652e+00 5.503605000000000302e+01 1.757615000000000009e+03
6.199999999999999956e-02 1.497600000000000042e-01 5.429790000000000560e+00 5.274115000000000464e+01 1.756764999999999873e+03
6.300000000000000044e-02 1.496620000000000172e-01 4.242939999999999934e+00 5.066799999999999926e+01 1.755944999999999936e+03
6.400000000000000133e-02 1.495714999999999961e-01 3.173455999999999833e+00 4.887255000000000393e+01 1.755190000000000055e+03
6.500000000000000222e-02 1.494909999999999850e-01 2.251999999999999780e+00 4.740720000000000312e+01 1.754514999999999873e+03
6.600000000000000311e-02 1.494234999999999869e-01 1.507233999999999963e+00 4.632034999999999769e+01 1.753940000000000055e+03
6.700000000000000400e-02 1.493700000000000028e-01 9.648394999999999611e-01 4.565540000000000020e+01 1.753484999999999900e+03
6.800000000000000488e-02 1.493329999999999935e-01 6.464090000000000114e-01 4.544844999999999402e+01 1.753170000000000073e+03
6.900000000000000577e-02 1.493140000000000023e-01 5.682770000000000321e-01 4.572599999999999909e+01 1.752994999999999891e+03
7.000000000000000666e-02 1.493154999999999899e-01 7.405045000000001210e-01 4.650239999999999441e+01 1.752990000000000009e+03
7.100000000000000755e-02 1.493359999999999965e-01 1.166179999999999994e+00 4.777824999999999989e+01 1.753150000000000091e+03
7.200000000000000844e-02 1.493784999999999974e-01 1.841064500000000104e+00 4.953909999999999769e+01 1.753480000000000018e+03
7.300000000000000933e-02 1.494409999999999905e-01 2.753709500000000254e+00 5.175574999999999903e+01 1.753974999999999909e+03
7.399999999999999634e-02 1.495219999999999883e-01 3.885979999999999990e+00 5.438540000000000418e+01 1.754634999999999991e+03
7.499999999999999722e-02 1.496215000000000184e-01 5.213980000000000281e+00 5.737369999999999948e+01 1.755445000000000164e+03
7.599999999999999811e-02 1.497370000000000090e-01 6.709195000000000242e+00 6.065769999999999840e+01 1.756394999999999982e+03
7.699999999999999900e-02 1.498665000000000136e-01 8.339869999999999450e+00 6.416919999999998936e+01 1.757454999999999927e+03
7.799999999999999989e-02 1.500070000000000014e-01 1.007230999999999987e+01 6.783799999999999386e+01 1.758610000000000127e+03
7.900000000000000078e-02 1.501560000000000117e-01 1.187242999999999959e+01 7.159514999999998963e+01 1.759845000000000027e+03
8.000000000000000167e-02 1.503099999999999992e-01 1.370681500000000064e+01 7.537584999999999980e+01 1.761130000000000109e+03
8.100000000000000255e-02 1.504679999999999906e-01 1.554404999999999859e+01 7.912180000000000746e+01 1.762450000000000045e+03
8.200000000000000344e-02 1.506260000000000099e-01 1.735559999999999903e+01 8.278325000000000955e+01 1.763769999999999982e+03
8.300000000000000433e-02 1.507835000000000147e-01 1.911670000000000158e+01 8.632009999999999650e+01 1.765095000000000027e+03
8.400000000000000522e-02 1.509365000000000012e-01 2.080684999999999718e+01 8.970300000000000296e+01 1.766384999999999991e+03
8.500000000000000611e-02 1.510859999999999981e-01 2.241035000000000110e+01 9.291354999999998654e+01 1.767650000000000091e+03
8.600000000000000699e-02 1.512295000000000167e-01 2.391649999999999920e+01 9.594389999999999930e+01 1.768865000000000009e+03
8.700000000000000788e-02 1.513670000000000015e-01 2.531929999999999836e+01 9.879654999999999632e+01 1.770034999999999854e+03
8.800000000000000877e-02 1.514979999999999938e-01 2.661755000000000138e+01 1.014830500000000058e+02 1.771150000000000091e+03
8.899999999999999578e-02 1.516224999999999934e-01 2.781410000000000338e+01 1.040219000000000023e+02 1.772215000000000146e+03
8.999999999999999667e-02 1.517415000000000014e-01 2.891510000000000247e+01 1.064375000000000000e+02 1.773240000000000009e+03
9.099999999999999756e-02 1.518555000000000044e-01 2.992944999999999922e+01 1.087574999999999932e+02 1.774220000000000027e+03
9.199999999999999845e-02 1.519659999999999900e-01 3.086775000000000091e+01 1.110099999999999909e+02 1.775164999999999964e+03
9.299999999999999933e-02 1.520730000000000137e-01 3.174130000000000251e+01 1.132229999999999990e+02 1.776085000000000036e+03
9.400000000000000022e-02 1.521784999999999943e-01 3.256130000000000280e+01 1.154224999999999994e+02 1.776990000000000009e+03
9.500000000000000111e-02 1.522819999999999729e-01 3.333809999999999718e+01 1.176274999999999977e+02 1.777894999999999982e+03
9.600000000000000200e-02 1.523860000000000214e-01 3.408039999999999736e+01 1.198530000000000086e+02 1.778784999999999854e+03
9.700000000000000289e-02 1.524900000000000144e-01 3.479465000000000430e+01 1.221069999999999993e+02 1.779679999999999836e+03
9.800000000000000377e-02 1.525945000000000218e-01 3.548479999999999990e+01 1.243909999999999911e+02 1.780585000000000036e+03
9.900000000000000466e-02 1.527000000000000024e-01 3.615229999999999677e+01 1.266989999999999981e+02 1.781490000000000009e+03
1.000000000000000056e-01 1.528059999999999974e-01 3.679574999999999818e+01 1.290190000000000055e+02 1.782400000000000091e+03
1.010000000000000064e-01 1.529114999999999780e-01 3.741140000000000043e+01 1.313329999999999984e+02 1.783315000000000055e+03
1.020000000000000073e-01 1.530175000000000007e-01 3.799325000000000330e+01 1.336194999999999879e+02 1.784230000000000018e+03
1.030000000000000082e-01 1.531220000000000081e-01 3.853365000000000151e+01 1.358520000000000039e+02 1.785125000000000000e+03
1.040000000000000091e-01 1.532235000000000125e-01 3.902360000000000184e+01 1.380045000000000073e+02 1.786009999999999991e+03
1.050000000000000100e-01 1.533225000000000005e-01 3.945349999999999824e+01 1.400494999999999948e+02 1.786869999999999891e+03
1.059999999999999970e-01 1.534169999999999978e-01 3.981340000000000146e+01 1.419599999999999795e+02 1.787690000000000055e+03
1.069999999999999979e-01 1.535060000000000036e-01 4.009375000000000000e+01 1.437110000000000127e+02 1.788460000000000036e+03
1.079999999999999988e-01 1.535890000000000033e-01 4.028569999999999851e+01 1.452819999999999823e+02 1.789180000000000064e+03
1.089999999999999997e-01 1.536644999999999817e-01 4.038165000000000049e+01 1.466525000000000034e+02 1.789840000000000146e+03
1.100000000000000006e-01 1.537324999999999942e-01 4.037554999999999694e+01 1.478110000000000070e+02 1.790429999999999836e+03
1.110000000000000014e-01 1.537904999999999966e-01 4.026299999999999812e+01 1.487459999999999809e+02 1.790945000000000164e+03
1.120000000000000023e-01 1.538404999999999911e-01 4.004179999999999495e+01 1.494540000000000077e+02 1.791380000000000109e+03
1.130000000000000032e-01 1.538805000000000034e-01 3.971179999999999666e+01 1.499345000000000141e+02 1.791740000000000009e+03
1.140000000000000041e-01 1.539105000000000056e-01 3.927500000000000568e+01 1.501935000000000002e+02 1.792009999999999991e+03
1.150000000000000050e-01 1.539314999999999989e-01 3.873560000000000514e+01 1.502390000000000043e+02 1.792204999999999927e+03
1.160000000000000059e-01 1.539435000000000109e-01 3.809990000000000521e+01 1.500854999999999961e+02 1.792315000000000055e+03
1.170000000000000068e-01 1.539464999999999861e-01 3.737584999999999980e+01 1.497495000000000118e+02 1.792349999999999909e+03
1.180000000000000077e-01 1.539409999999999945e-01 3.657325000000000159e+01 1.492515000000000214e+02 1.792315000000000055e+03
1.190000000000000085e-01 1.539284999999999959e-01 3.570310000000000628e+01 1.486125000000000114e+02 1.792215000000000146e+03
1.200000000000000094e-01 1.539094999999999769e-01 3.477740000000000009e+01 1.478580000000000041e+02 1.792055000000000064e+03
1.209999999999999964e-01 1.538845000000000074e-01 3.380875000000000341e+01 1.470120000000000005e+02 1.791855000000000018e+03
1.219999999999999973e-01 1.538550000000000195e-01 3.281005000000000393e+01 1.460980000000000132e+02 1.791605000000000018e+03
1.229999999999999982e-01 1.538225000000000009e-01 3.179390000000000072e+01 1.451410000000000196e+02 1.791325000000000045e+03
1.239999999999999991e-01 1.537859999999999783e-01 3.077244999999999919e+01 1.441614999999999895e+02 1.791014999999999873e+03
1.250000000000000000e-01 1.537485000000000102e-01 2.975714999999999577e+01 1.431809999999999832e+02 1.790695000000000164e+03
1.260000000000000009e-01 1.537100000000000133e-01 2.875789999999999935e+01 1.422160000000000082e+02 1.790365000000000009e+03
1.270000000000000018e-01 1.536710000000000020e-01 2.778359999999999985e+01 1.412805000000000177e+02 1.790025000000000091e+03
1.280000000000000027e-01 1.536325000000000052e-01 2.684125000000000227e+01 1.403859999999999957e+02 1.789695000000000164e+03
1.290000000000000036e-01 1.535944999999999949e-01 2.593634999999999735e+01 1.395389999999999873e+02 1.789365000000000009e+03
1.300000000000000044e-01 1.535580000000000001e-01 2.507249999999999801e+01 1.387434999999999832e+02 1.789050000000000182e+03
1.310000000000000053e-01 1.535229999999999928e-01 2.425144999999999840e+01 1.380000000000000000e+02 1.788750000000000000e+03
1.320000000000000062e-01 1.534904999999999742e-01 2.347334999999999994e+01 1.373050000000000068e+02 1.788460000000000036e+03
1.330000000000000071e-01 1.534590000000000121e-01 2.273664999999999736e+01 1.366530000000000200e+02 1.788180000000000064e+03
1.340000000000000080e-01 1.534284999999999954e-01 2.203839999999999932e+01 1.360355000000000132e+02 1.787914999999999964e+03
1.350000000000000089e-01 1.533994999999999942e-01 2.137424999999999997e+01 1.354415000000000191e+02 1.787664999999999964e+03
1.360000000000000098e-01 1.533720000000000083e-01 2.073910000000000053e+01 1.348600000000000136e+02 1.787420000000000073e+03
1.370000000000000107e-01 1.533439999999999803e-01 2.012685000000000102e+01 1.342764999999999986e+02 1.787180000000000064e+03
1.380000000000000115e-01 1.533170000000000088e-01 1.953110000000000213e+01 1.336794999999999902e+02 1.786940000000000055e+03
1.390000000000000124e-01 1.532890000000000086e-01 1.894529999999999959e+01 1.330540000000000020e+02 1.786695000000000164e+03
1.400000000000000133e-01 1.532600000000000073e-01 1.836280000000000001e+01 1.323890000000000100e+02 1.786444999999999936e+03
1.410000000000000142e-01 1.532295000000000185e-01 1.777759999999999962e+01 1.316734999999999900e+02 1.786179999999999836e+03
1.420000000000000151e-01 1.531974999999999865e-01 1.718415000000000248e+01 1.308979999999999961e+02 1.785900000000000091e+03
1.430000000000000160e-01 1.531624999999999792e-01 1.657784999999999798e+01 1.300544999999999902e+02 1.785595000000000027e+03
1.440000000000000169e-01 1.531250000000000111e-01 1.595514999999999972e+01 1.291394999999999982e+02 1.785275000000000091e+03
1.450000000000000178e-01 1.530849999999999989e-01 1.531375000000000064e+01 1.281504999999999939e+02 1.784930000000000064e+03
1.459999999999999909e-01 1.530414999999999970e-01 1.465259999999999962e+01 1.270884999999999962e+02 1.784559999999999945e+03
1.469999999999999918e-01 1.529955000000000065e-01 1.397210000000000107e+01 1.259569999999999936e+02 1.784164999999999964e+03
1.479999999999999927e-01 1.529469999999999996e-01 1.327400000000000091e+01 1.247634999999999934e+02 1.783744999999999891e+03
1.489999999999999936e-01 1.528954999999999897e-01 1.256135000000000090e+01 1.235169999999999959e+02 1.783304999999999836e+03
1.499999999999999944e-01 1.528420000000000056e-01 1.183850999999999942e+01 1.222280000000000086e+02 1.782840000000000146e+03
1.509999999999999953e-01 1.527860000000000051e-01 1.111084999999999923e+01 1.209115000000000038e+02 1.782365000000000009e+03
1.519999999999999962e-01 1.527290000000000036e-01 1.038462499999999977e+01 1.195809999999999889e+02 1.781880000000000109e+03
1.529999999999999971e-01 1.526715000000000155e-01 9.666859999999999786e+00 1.182539999999999907e+02 1.781380000000000109e+03
1.539999999999999980e-01 1.526129999999999987e-01 8.964790000000000703e+00 1.169465000000000003e+02 1.780884999999999991e+03
1.549999999999999989e-01 1.525555000000000105e-01 8.285980000000000345e+00 1.156744999999999948e+02 1.780389999999999873e+03
1.559999999999999998e-01 1.524989999999999957e-01 7.637734999999999275e+00 1.144534999999999911e+02 1.779910000000000082e+03
1.570000000000000007e-01 1.524444999999999828e-01 7.027025000000000077e+00 1.132984999999999900e+02 1.779440000000000055e+03
1.580000000000000016e-01 1.523924999999999863e-01 6.460199999999999498e+00 1.122220000000000084e+02 1.778990000000000009e+03
1.590000000000000024e-01 1.523424999999999918e-01 5.942745000000000388e+00 1.112344999999999970e+02 1.778570000000000164e+03
