# t [s], A [cm^2], U [cm/s], P [cPa], c [cm/s]
1.000000000000000021e-03 6.537279999999999758e-01 5.039450000000000873e-03 1.089515000000000100e+02 1.789289999999999964e+03
2.000000000000000042e-03 6.537279999999999758e-01 1.908399999999999680e-02 1.089344999999999999e+02 1.789289999999999964e+03
3.000000000000000062e-03 6.538079999999999448e-01 1.804302499999999865e-01 1.091334999999999980e+02 1.789329999999999927e+03
4.000000000000000083e-03 6.538189999999999280e-01 2.283159999999999912e-01 1.091825000000000045e+02 1.789339999999999918e+03
5.000000000000000104e-03 6.537405000000000577e-01 1.043719999999999926e-01 1.089020000000000010e+02 1.789289999999999964e+03
6.000000000000000125e-03 6.536610000000000475e-01 -3.458450000000001801e-02 1.084759999999999991e+02 1.789210000000000036e+03
7.000000000000000146e-03 6.535410000000000386e-01 -2.693499999999999783e-01 1.078315000000000055e+02 1.789095000000000027e+03
8.000000000000000167e-03 6.533305000000000362e-01 -7.022650000000000281e-01 1.067864999999999895e+02 1.788900000000000091e+03
9.000000000000001055e-03 6.530264999999999542e-01 -1.330874999999999808e+00 1.052725000000000080e+02 1.788619999999999891e+03
1.000000000000000194e-02 6.526015000000000565e-01 -2.184690000000000243e+00 1.031770000000000067e+02 1.788224999999999909e+03
1.099999999999999936e-02 6.520550000000000512e-01 -3.234504999999999963e+00 1.004642499999999927e+02 1.787700000000000045e+03
1.200000000000000025e-02 6.514659999999999895e-01 -4.285600000000000520e+00 9.735779999999999745e+01 1.787085000000000036e+03
1.300000000000000114e-02 6.509454999999999547e-01 -5.063289000000000151e+00 9.428755000000001019e+01 1.786444999999999936e+03
1.400000000000000203e-02 6.505650000000000599e-01 -5.378936000000000384e+00 9.164160000000001105e+01 1.785860000000000127e+03
1.499999999999999944e-02 6.503200000000000092e-01 -5.212499999999999467e+00 8.958424999999999727e+01 1.785365000000000009e+03
1.600000000000000033e-02 6.501474999999999893e-01 -4.687224999999999753e+00 8.802455000000000496e+01 1.784950000000000045e+03
1.700000000000000122e-02 6.499699999999999367e-01 -3.988750000000000018e+00 8.670480000000000587e+01 1.784579999999999927e+03
1.800000000000000211e-02 6.497269999999999435e-01 -3.276921499999999821e+00 8.534029999999999916e+01 1.784214999999999918e+03
1.900000000000000300e-02 6.494010000000000060e-01 -2.625505500000000048e+00 8.374604999999999677e+01 1.783815000000000055e+03
2.000000000000000042e-02 6.490139999999999798e-01 -2.014199999999999768e+00 8.189490000000000691e+01 1.783375000000000000e+03
2.100000000000000130e-02 6.486094999999999500e-01 -1.372210000000000152e+00 7.988479999999999848e+01 1.782900000000000091e+03
2.200000000000000219e-02 6.482200000000000184e-01 -6.425199999999997580e-01 7.784735000000000582e+01 1.782414999999999964e+03
2.299999999999999961e-02 6.478515000000000246e-01 1.700250000000003148e-01 7.585425000000000750e+01 1.781934999999999945e+03
2.400000000000000050e-02 6.474790000000000267e-01 9.853800000000001447e-01 7.386529999999999063e+01 1.781454999999999927e+03
2.500000000000000139e-02 6.470540000000000180e-01 1.667749999999999844e+00 7.172955000000000325e+01 1.780945000000000164e+03
2.600000000000000228e-02 6.465244999999999465e-01 2.065810000000000368e+00 6.923274999999999579e+01 1.780369999999999891e+03
2.700000000000000316e-02 6.458530000000000104e-01 2.059605000000000352e+00 6.617060000000000741e+01 1.779699999999999818e+03
2.800000000000000058e-02 6.450299999999999923e-01 1.599385000000000279e+00 6.242565000000000452e+01 1.778894999999999982e+03
2.900000000000000147e-02 6.440805000000000557e-01 7.230800000000003891e-01 5.801999999999999602e+01 1.777970000000000027e+03
3.000000000000000236e-02 6.430584999999999773e-01 -4.538500000000000867e-01 5.312439999999999429e+01 1.776950000000000045e+03
3.099999999999999978e-02 6.420330000000000759e-01 -1.769515000000000171e+00 4.802469999999999573e+01 1.775865000000000009e+03
3.200000000000000067e-02 6.410739999999999217e-01 -3.054724999999999913e+00 4.306065000000000254e+01 1.774795000000000073e+03
3.300000000000000155e-02 6.402404999999999902e-01 -4.164354999999999585e+00 3.856210000000000093e+01 1.773795000000000073e+03
3.400000000000000244e-02 6.395714999999999595e-01 -4.995449999999999946e+00 3.479925000000000068e+01 1.772924999999999955e+03
3.500000000000000333e-02 6.390869999999999607e-01 -5.490456000000000003e+00 3.195499999999999829e+01 1.772224999999999909e+03
3.600000000000000422e-02 6.387935000000000141e-01 -5.629940000000000389e+00 3.012055000000000149e+01 1.771724999999999909e+03
3.700000000000000511e-02 6.386834999999999596e-01 -5.419615000000000293e+00 2.930829999999999913e+01 1.771440000000000055e+03
3.799999999999999906e-02 6.387450000000000072e-01 -4.876570000000000071e+00 2.947550000000000381e+01 1.771365000000000009e+03
3.899999999999999994e-02 6.389650000000000052e-01 -4.019313000000000358e+00 3.054905000000000115e+01 1.771485000000000127e+03
4.000000000000000083e-02 6.393305000000000238e-01 -2.863645000000000440e+00 3.244449999999999790e+01 1.771789999999999964e+03
4.100000000000000172e-02 6.398274999999999935e-01 -1.424309999999999743e+00 3.507594999999999885e+01 1.772264999999999873e+03
4.200000000000000261e-02 6.404434999999999434e-01 2.796400000000005548e-01 3.835620000000000118e+01 1.772889999999999873e+03
4.300000000000000350e-02 6.411614999999999398e-01 2.219145000000000145e+00 4.219225000000000136e+01 1.773644999999999982e+03
4.400000000000000439e-02 6.419610000000000039e-01 4.351544999999999774e+00 4.647955000000000325e+01 1.774514999999999873e+03
4.499999999999999833e-02 6.428180000000000005e-01 6.621065000000000644e+00 5.109975000000000023e+01 1.775465000000000146e+03
4.599999999999999922e-02 6.437055000000000415e-01 8.962114500000000206e+00 5.592340000000000089e+01 1.776480000000000018e+03
4.700000000000000011e-02 6.445980000000000043e-01 1.130555999999999983e+01 6.081684999999999519e+01 1.777525000000000091e+03
4.800000000000000100e-02 6.454720000000000457e-01 1.358553500000000014e+01 6.565205000000000268e+01 1.778579999999999927e+03
4.900000000000000189e-02 6.463075000000000347e-01 1.574506499999999853e+01 7.031694999999999141e+01 1.779615000000000009e+03
5.000000000000000278e-02 6.470910000000000828e-01 1.774064999999999870e+01 7.472405000000000541e+01 1.780610000000000127e+03
5.100000000000000366e-02 6.478150000000000297e-01 1.954374999999999929e+01 7.881560000000000343e+01 1.781549999999999955e+03
5.200000000000000455e-02 6.484779999999999989e-01 2.114110000000000156e+01 8.256534999999999513e+01 1.782430000000000064e+03
5.300000000000000544e-02 6.490834999999999244e-01 2.253275000000000006e+01 8.597649999999998727e+01 1.783244999999999891e+03
5.399999999999999939e-02 6.496374999999999789e-01 2.372980000000000089e+01 8.907760000000000389e+01 1.783990000000000009e+03
5.500000000000000028e-02 6.501520000000000632e-01 2.475159999999999982e+01 9.191625000000000512e+01 1.784684999999999945e+03
5.600000000000000117e-02 6.506380000000000496e-01 2.562314999999999898e+01 9.455315000000000225e+01 1.785335000000000036e+03
5.700000000000000205e-02 6.511065000000000325e-01 2.637284999999999968e+01 9.705575000000000330e+01 1.785949999999999818e+03
5.800000000000000294e-02 6.515710000000000113e-01 2.703024999999999878e+01 9.949105000000000132e+01 1.786545000000000073e+03
5.900000000000000383e-02 6.520420000000000105e-01 2.762369999999999948e+01 1.019228999999999985e+02 1.787134999999999991e+03
6.000000000000000472e-02 6.525270000000000792e-01 2.817839999999999989e+01 1.044039999999999964e+02 1.787730000000000018e+03
6.099999999999999867e-02 6.530325000000000157e-01 2.871394999999999698e+01 1.069714999999999918e+02 1.788335000000000036e+03
6.199999999999999956e-02 6.535604999999999887e-01 2.924304999999999666e+01 1.096460000000000008e+02 1.788954999999999927e+03
6.300000000000000044e-02 6.541090000000000515e-01 2.977035000000000053e+01 1.124269999999999925e+02 1.789605000000000018e+03
6.400000000000000133e-02 6.546720000000000317e-01 3.029230000000000089e+01 1.152944999999999993e+02 1.790259999999999991e+03
6.500000000000000222e-02 6.552419999999999911e-01 3.079789999999999850e+01 1.182090000000000032e+02 1.790934999999999945e+03
6.600000000000000311e-02 6.558064999999999589e-01 3.127040000000000219e+01 1.211184999999999974e+02 1.791605000000000018e+03
6.700000000000000400e-02 6.563539999999999930e-01 3.168910000000000338e+01 1.239590000000000032e+02 1.792264999999999873e+03
6.800000000000000488e-02 6.568720000000000114e-01 3.203175000000000239e+01 1.266640000000000157e+02 1.792900000000000091e+03
6.900000000000000577e-02 6.573485000000000023e-01 3.227644999999999698e+01 1.291674999999999898e+02 1.793494999999999891e+03
7.000000000000000666e-02 6.577720000000000233e-01 3.240380000000000393e+01 1.314085000000000036e+02 1.794039999999999964e+03
7.100000000000000755e-02 6.581354999999999844e-01 3.239820000000000277e+01 1.333394999999999868e+02 1.794519999999999982e+03
7.200000000000000844e-02 6.584315000000000584e-01 3.224895000000000067e+01 1.349219999999999970e+02 1.794924999999999955e+03
7.300000000000000933e-02 6.586585000000000356e-01 3.195080000000000098e+01 1.361355000000000075e+02 1.795250000000000000e+03
7.399999999999999634e-02 6.588154999999999983e-01 3.150434999999999874e+01 1.369730000000000132e+02 1.795500000000000000e+03
7.499999999999999722e-02 6.589054999999999218e-01 3.091595000000000226e+01 1.374429999999999836e+02 1.795664999999999964e+03
7.599999999999999811e-02 6.589324999999999211e-01 3.019709999999999894e+01 1.375685000000000002e+02 1.795750000000000000e+03
7.699999999999999900e-02 6.589035000000000863e-01 2.936439999999999984e+01 1.373834999999999980e+02 1.795759999999999991e+03
7.799999999999999989e-02 6.588279999999999692e-01 2.843789999999999907e+01 1.369325000000000045e+02 1.795715000000000146e+03
7.900000000000000078e-02 6.587145000000000916e-01 2.744089999999999918e+01 1.362665000000000077e+02 1.795605000000000018e+03
8.000000000000000167e-02 6.585739999999999927e-01 2.639795000000000158e+01 1.354399999999999977e+02 1.795460000000000036e+03
8.100000000000000255e-02 6.584160000000000013e-01 2.533420000000000272e+01 1.345099999999999909e+02 1.795284999999999854e+03
8.200000000000000344e-02 6.582505000000000717e-01 2.427380000000000138e+01 1.335300000000000011e+02 1.795085000000000036e+03
8.300000000000000433e-02 6.580865000000000187e-01 2.323864999999999981e+01 1.325490000000000066e+02 1.794884999999999991e+03
8.400000000000000522e-02 6.579310000000000436e-01 2.224739999999999895e+01 1.316090000000000089e+02 1.794684999999999945e+03
8.500000000000000611e-02 6.577895000000000270e-01 2.131465000000000032e+01 1.307439999999999998e+02 1.794490000000000009e+03
8.600000000000000699e-02 6.576655000000000140e-01 2.045015000000000072e+01 1.299759999999999991e+02 1.794309999999999945e+03
8.700000000000000788e-02 6.575604999999999922e-01 1.965869999999999962e+01 1.293179999999999836e+02 1.794150000000000091e+03
8.800000000000000877e-02 6.574735000000000440e-01 1.894030000000000058e+01 1.287699999999999818e+02 1.794014999999999873e+03
8.899999999999999578e-02 6.574035000000000295e-01 1.829015000000000057e+01 1.283230000000000075e+02 1.793900000000000091e+03
8.999999999999999667e-02 6.573459999999999859e-01 1.769965000000000188e+01 1.279609999999999985e+02 1.793799999999999955e+03
9.099999999999999756e-02 6.572959999999999914e-01 1.715680000000000049e+01 1.276580000000000013e+02 1.793720000000000027e+03
9.199999999999999845e-02 6.572480000000000544e-01 1.664734999999999943e+01 1.273849999999999909e+02 1.793639999999999873e+03
9.299999999999999933e-02 6.571964999999999613e-01 1.615575000000000117e+01 1.271090000000000089e+02 1.793565000000000055e+03
9.400000000000000022e-02 6.571350000000000247e-01 1.566614999999999824e+01 1.267980000000000018e+02 1.793484999999999900e+03
9.500000000000000111e-02 6.570580000000000309e-01 1.516339999999999932e+01 1.264209999999999923e+02 1.793394999999999982e+03
9.600000000000000200e-02 6.569614999999999760e-01 1.463419999999999987e+01 1.259504999999999910e+02 1.793289999999999964e+03
9.700000000000000289e-02 6.568419999999999259e-01 1.406770000000000032e+01 1.253640000000000043e+02 1.793160000000000082e+03
9.800000000000000377e-02 6.566965000000000163e-01 1.345646999999999949e+01 1.246479999999999961e+02 1.793005000000000109e+03
9.900000000000000466e-02 6.565255000000000951e-01 1.279669999999999952e+01 1.237964999999999947e+02 1.792825000000000045e+03
1.000000000000000056e-01 6.563300000000000800e-01 1.208873999999999960e+01 1.228110000000000070e+02 1.792610000000000127e+03
1.010000000000000064e-01 6.561120000000000285e-01 1.133691500000000119e+01 1.217030000000000030e+02 1.792375000000000000e+03
1.020000000000000073e-01 6.558764999999999734e-01 1.054946999999999946e+01 1.204909999999999997e+02 1.792115000000000009e+03
1.030000000000000082e-01 6.556284999999999474e-01 9.737819999999999254e+00 1.192015000000000100e+02 1.791835000000000036e+03
1.040000000000000091e-01 6.553744999999999710e-01 8.916145000000000209e+00 1.178659999999999997e+02 1.791545000000000073e+03
1.050000000000000100e-01 6.551210000000000644e-01 8.100469999999999615e+00 1.165194999999999936e+02 1.791250000000000000e+03
1.059999999999999970e-01 6.548749999999999849e-01 7.307539999999999480e+00 1.151995000000000005e+02 1.790949999999999818e+03
1.069999999999999979e-01 6.546430000000000859e-01 6.554134999999999600e+00 1.139415000000000049e+02 1.790664999999999964e+03
1.079999999999999988e-01 6.544320000000000137e-01 5.855884999999999785e+00 1.127804999999999893e+02 1.790394999999999982e+03
1.089999999999999997e-01 6.542455000000000354e-01 5.226480000000000459e+00 1.117460000000000093e+02 1.790154999999999973e+03
1.100000000000000006e-01 6.540889999999999205e-01 4.676880000000000592e+00 1.108605000000000018e+02 1.789934999999999945e+03
1.110000000000000014e-01 6.539635000000000309e-01 4.214825000000000266e+00 1.101409999999999911e+02 1.789755000000000109e+03
1.120000000000000023e-01 6.538709999999999800e-01 3.844439999999999635e+00 1.095949999999999989e+02 1.789610000000000127e+03
1.130000000000000032e-01 6.538100000000000023e-01 3.566189999999999749e+00 1.092235000000000014e+02 1.789500000000000000e+03
1.140000000000000041e-01 6.537800000000000278e-01 3.377005000000000479e+00 1.090190000000000055e+02 1.789425000000000182e+03
1.150000000000000050e-01 6.537764999999999826e-01 3.270595000000000141e+00 1.089669999999999987e+02 1.789389999999999873e+03
1.160000000000000059e-01 6.537960000000000438e-01 3.237994999999999735e+00 1.090464999999999947e+02 1.789380000000000109e+03
1.170000000000000068e-01 6.538344999999999851e-01 3.268119999999999692e+00 1.092355000000000018e+02 1.789400000000000091e+03
1.180000000000000077e-01 6.538850000000000495e-01 3.348479999999999901e+00 1.095060000000000002e+02 1.789440000000000055e+03
1.190000000000000085e-01 6.539439999999999698e-01 3.465840000000000032e+00 1.098294999999999959e+02 1.789494999999999891e+03
1.200000000000000094e-01 6.540064999999999351e-01 3.606885000000000119e+00 1.101800000000000068e+02 1.789554999999999836e+03
1.209999999999999964e-01 6.540669999999999540e-01 3.758809999999999985e+00 1.105310000000000059e+02 1.789625000000000000e+03
1.219999999999999973e-01 6.541224999999999401e-01 3.909839999999999982e+00 1.108599999999999994e+02 1.789684999999999945e+03
1.229999999999999982e-01 6.541690000000000005e-01 4.049649999999999750e+00 1.111485000000000127e+02 1.789750000000000000e+03
1.239999999999999991e-01 6.542050000000000365e-01 4.169649999999999856e+00 1.113804999999999978e+02 1.789795000000000073e+03
1.250000000000000000e-01 6.542280000000000317e-01 4.263234999999999886e+00 1.115459999999999923e+02 1.789835000000000036e+03
1.260000000000000009e-01 6.542375000000000274e-01 4.325849999999999973e+00 1.116400000000000006e+02 1.789860000000000127e+03
1.270000000000000018e-01 6.542339999999999822e-01 4.355019999999999669e+00 1.116595000000000084e+02 1.789875000000000000e+03
1.280000000000000027e-01 6.542175000000000074e-01 4.350265000000000271e+00 1.116080000000000041e+02 1.789865000000000009e+03
1.290000000000000036e-01 6.541900000000000492e-01 4.312949999999999839e+00 1.114915000000000020e+02 1.789849999999999909e+03
1.300000000000000044e-01 6.541535000000000544e-01 4.246025000000000382e+00 1.113180000000000121e+02 1.789819999999999936e+03
1.310000000000000053e-01 6.541090000000000515e-01 4.153769999999999740e+00 1.110995000000000061e+02 1.789779999999999973e+03
1.320000000000000062e-01 6.540595000000000159e-01 4.041439999999999699e+00 1.108474999999999966e+02 1.789730000000000018e+03
1.330000000000000071e-01 6.540080000000000338e-01 3.914905000000000079e+00 1.105755000000000052e+02 1.789674999999999955e+03
1.340000000000000080e-01 6.539554999999999119e-01 3.780244999999999855e+00 1.102955000000000041e+02 1.789619999999999891e+03
1.350000000000000089e-01 6.539055000000000284e-01 3.643430000000000391e+00 1.100199999999999960e+02 1.789559999999999945e+03
1.360000000000000098e-01 6.538589999999999680e-01 3.509895000000000209e+00 1.097595000000000027e+02 1.789505000000000109e+03
1.370000000000000107e-01 6.538174999999999404e-01 3.384310000000000151e+00 1.095215000000000032e+02 1.789454999999999927e+03
1.380000000000000115e-01 6.537809999999999455e-01 3.270319999999999894e+00 1.093119999999999976e+02 1.789404999999999973e+03
1.390000000000000124e-01 6.537515000000000409e-01 3.170389999999999819e+00 1.091340000000000003e+02 1.789365000000000009e+03
1.400000000000000133e-01 6.537275000000000169e-01 3.085774999999999935e+00 1.089879999999999995e+02 1.789329999999999927e+03
1.410000000000000142e-01 6.537090000000000956e-01 3.016535000000000188e+00 1.088714999999999975e+02 1.789299999999999955e+03
1.420000000000000151e-01 6.536944999999999562e-01 2.961654999999999927e+00 1.087789999999999964e+02 1.789275000000000091e+03
1.430000000000000160e-01 6.536830000000000140e-01 2.919220000000000148e+00 1.087060000000000031e+02 1.789259999999999991e+03
1.440000000000000169e-01 6.536724999999999897e-01 2.886655000000000193e+00 1.086430000000000007e+02 1.789234999999999900e+03
1.450000000000000178e-01 6.536625000000000352e-01 2.860959999999999948e+00 1.085835000000000008e+02 1.789224999999999909e+03
1.459999999999999909e-01 6.536505000000000232e-01 2.839019999999999655e+00 1.085180000000000007e+02 1.789204999999999927e+03
1.469999999999999918e-01 6.536349999999999660e-01 2.817790000000000017e+00 1.084399999999999977e+02 1.789184999999999945e+03
1.479999999999999927e-01 6.536159999999999748e-01 2.794559999999999711e+00 1.083429999999999893e+02 1.789164999999999964e+03
1.489999999999999936e-01 6.535914999999999919e-01 2.767125000000000057e+00 1.082220000000000084e+02 1.789134999999999991e+03
1.499999999999999944e-01 6.535625000000000462e-01 2.733905000000000030e+00 1.080745000000000005e+02 1.789105000000000018e+03
1.509999999999999953e-01 6.535279999999999978e-01 2.694049999999999834e+00 1.078990000000000009e+02 1.789065000000000055e+03
1.519999999999999962e-01 6.534880000000000688e-01 2.647485000000000088e+00 1.076970000000000027e+02 1.789025000000000091e+03
1.529999999999999971e-01 6.534439999999999138e-01 2.594889999999999919e+00 1.074710000000000036e+02 1.788970000000000027e+03
1.539999999999999980e-01 6.533970000000000056e-01 2.537675000000000125e+00 1.072264999999999873e+02 1.788920000000000073e+03
1.549999999999999989e-01 6.533470000000000111e-01 2.477899999999999991e+00 1.069685000000000059e+02 1.788860000000000127e+03
1.559999999999999998e-01 6.532964999999999467e-01 2.418144999999999989e+00 1.067049999999999983e+02 1.788804999999999836e+03
1.570000000000000007e-01 6.532474999999999810e-01 2.361390000000000100e+00 1.064439999999999884e+02 1.788744999999999891e+03
1.580000000000000016e-01 6.532005000000000727e-01 2.310855000000000103e+00 1.061945000000000050e+02 1.788690000000000055e+03
1.590000000000000024e-01 6.531580000000000163e-01 2.269804999999999851e+00 1.059639999999999986e+02 1.788634999999999991e+03
