# t [s], A [cm^2], U [cm/s], P [cPa], c [cm/s]
1.000000000000000021e-03 1.688775000000000137e-01 3.538888499999999770e-01 9.743484999999999729e+01 2.297519999999999982e+03
2.000000000000000042e-03 1.688264999999999905e-01 1.895693499999999920e+00 9.364844999999999686e+01 2.296965000000000146e+03
3.000000000000000062e-03 1.687029999999999919e-01 3.803374000000000255e+00 8.840139999999999532e+01 2.295659999999999854e+03
4.000000000000000083e-03 1.685435000000000128e-01 5.970265500000000003e+00 8.294634999999999536e+01 2.294005000000000109e+03
5.000000000000000104e-03 1.683804999999999885e-01 8.284620000000000317e+00 7.832474999999999454e+01 2.292324999999999818e+03
6.000000000000000125e-03 1.682279999999999887e-01 1.047682499999999983e+01 7.459975000000000023e+01 2.290779999999999745e+03
7.000000000000000146e-03 1.680860000000000132e-01 1.232163500000000056e+01 7.129885000000000161e+01 2.289375000000000000e+03
8.000000000000000167e-03 1.679599999999999982e-01 1.382479499999999817e+01 6.834879999999999711e+01 2.288139999999999873e+03
9.000000000000001055e-03 1.678530000000000022e-01 1.504874999999999829e+01 6.591894999999999527e+01 2.287114999999999782e+03
1.000000000000000194e-02 1.677664999999999851e-01 1.601689999999999969e+01 6.402075000000000671e+01 2.286300000000000182e+03
1.099999999999999936e-02 1.676989999999999870e-01 1.674585000000000079e+01 6.257455000000000211e+01 2.285664999999999964e+03
1.200000000000000025e-02 1.676460000000000172e-01 1.723424999999999940e+01 6.142754999999999654e+01 2.285175000000000182e+03
1.300000000000000114e-02 1.676010000000000000e-01 1.748935000000000173e+01 6.038949999999999818e+01 2.284774999999999636e+03
1.400000000000000203e-02 1.675645000000000051e-01 1.761309999999999931e+01 5.950150000000000006e+01 2.284449999999999818e+03
1.499999999999999944e-02 1.675435000000000119e-01 1.781550000000000011e+01 5.920669999999999789e+01 2.284265000000000327e+03
1.600000000000000033e-02 1.675499999999999767e-01 1.830089999999999861e+01 6.010470000000000113e+01 2.284335000000000036e+03
1.700000000000000122e-02 1.675935000000000064e-01 1.912865000000000038e+01 6.247469999999999857e+01 2.284750000000000000e+03
1.800000000000000211e-02 1.676690000000000125e-01 2.016385000000000005e+01 6.597849999999999682e+01 2.285470000000000255e+03
1.900000000000000300e-02 1.677615000000000078e-01 2.114334999999999809e+01 6.975244999999999607e+01 2.286369999999999891e+03
2.000000000000000042e-02 1.678494999999999848e-01 2.180270000000000152e+01 7.278964999999999463e+01 2.287235000000000127e+03
2.100000000000000130e-02 1.679125000000000201e-01 2.198839999999999861e+01 7.436914999999999054e+01 2.287880000000000109e+03
2.200000000000000219e-02 1.679404999999999926e-01 2.170579999999999998e+01 7.431480000000000530e+01 2.288194999999999709e+03
2.299999999999999961e-02 1.679360000000000019e-01 2.109205000000000041e+01 7.298814999999999031e+01 2.288175000000000182e+03
2.400000000000000050e-02 1.679080000000000017e-01 2.033745000000000047e+01 7.105620000000000402e+01 2.287929999999999836e+03
2.500000000000000139e-02 1.678704999999999781e-01 1.959924999999999784e+01 6.917064999999999486e+01 2.287569999999999709e+03
2.600000000000000228e-02 1.678344999999999976e-01 1.894635000000000247e+01 6.771395000000001119e+01 2.287224999999999909e+03
2.700000000000000316e-02 1.678049999999999820e-01 1.835215000000000174e+01 6.670484999999999332e+01 2.286930000000000291e+03
2.800000000000000058e-02 1.677790000000000115e-01 1.772935000000000016e+01 6.587355000000000871e+01 2.286664999999999964e+03
2.900000000000000147e-02 1.677500000000000102e-01 1.698509999999999920e+01 6.484414999999999907e+01 2.286390000000000327e+03
3.000000000000000236e-02 1.677120000000000000e-01 1.607460000000000022e+01 6.334064999999999657e+01 2.286029999999999745e+03
3.099999999999999978e-02 1.676620000000000055e-01 1.503219999999999956e+01 6.133629999999999427e+01 2.285559999999999945e+03
3.200000000000000067e-02 1.676040000000000030e-01 1.397029999999999994e+01 5.909470000000000312e+01 2.285005000000000109e+03
3.300000000000000155e-02 1.675464999999999871e-01 1.304630000000000045e+01 5.708944999999999936e+01 2.284449999999999818e+03
3.400000000000000244e-02 1.675024999999999986e-01 1.241114999999999924e+01 5.583875000000000455e+01 2.284000000000000000e+03
3.500000000000000333e-02 1.674804999999999766e-01 1.216039999999999921e+01 5.572239999999999327e+01 2.283769999999999982e+03
3.600000000000000422e-02 1.674879999999999980e-01 1.230439999999999934e+01 5.685079999999999956e+01 2.283815000000000055e+03
3.700000000000000511e-02 1.675240000000000062e-01 1.276614999999999966e+01 5.902665000000000362e+01 2.284139999999999873e+03
3.799999999999999906e-02 1.675820000000000087e-01 1.340344999999999942e+01 6.180095000000000027e+01 2.284680000000000291e+03
3.899999999999999994e-02 1.676495000000000068e-01 1.404424999999999990e+01 6.459270000000000778e+01 2.285324999999999818e+03
4.000000000000000083e-02 1.677130000000000010e-01 1.452455000000000140e+01 6.682779999999999632e+01 2.285940000000000055e+03
4.100000000000000172e-02 1.677595000000000058e-01 1.471790000000000020e+01 6.805674999999999386e+01 2.286404999999999745e+03
4.200000000000000261e-02 1.677804999999999991e-01 1.455095000000000027e+01 6.802530000000000143e+01 2.286619999999999891e+03
4.300000000000000350e-02 1.677700000000000025e-01 1.400575000000000081e+01 6.668979999999999109e+01 2.286534999999999854e+03
4.400000000000000439e-02 1.677270000000000150e-01 1.310994999999999955e+01 6.418365000000000009e+01 2.286144999999999982e+03
4.499999999999999833e-02 1.676559999999999995e-01 1.192098499999999994e+01 6.075480000000000302e+01 2.285470000000000255e+03
4.599999999999999922e-02 1.675619999999999887e-01 1.051021000000000072e+01 5.669724999999999682e+01 2.284574999999999818e+03
4.700000000000000011e-02 1.674519999999999897e-01 8.950364999999999682e+00 5.229475000000000051e+01 2.283515000000000327e+03
4.800000000000000100e-02 1.673319999999999808e-01 7.309015000000000484e+00 4.778815000000000168e+01 2.282355000000000018e+03
4.900000000000000189e-02 1.672089999999999965e-01 5.647650000000000503e+00 4.336769999999999925e+01 2.281159999999999854e+03
5.000000000000000278e-02 1.670864999999999989e-01 4.023545999999999623e+00 3.918325000000000102e+01 2.279965000000000146e+03
5.100000000000000366e-02 1.669694999999999929e-01 2.493475000000000108e+00 3.536254999999999882e+01 2.278829999999999927e+03
5.200000000000000455e-02 1.668614999999999959e-01 1.115955000000000030e+00 3.202915000000000134e+01 2.277779999999999745e+03
5.300000000000000544e-02 1.667680000000000273e-01 -4.858999999999991104e-02 2.931200000000000117e+01 2.276855000000000018e+03
5.399999999999999939e-02 1.666914999999999925e-01 -9.402050000000000685e-01 2.734534999999999982e+01 2.276105000000000018e+03
5.500000000000000028e-02 1.666369999999999796e-01 -1.503810499999999939e+00 2.625890000000000057e+01 2.275555000000000291e+03
5.600000000000000117e-02 1.666074999999999917e-01 -1.694464999999999888e+00 2.616254999999999953e+01 2.275244999999999891e+03
5.700000000000000205e-02 1.666060000000000041e-01 -1.482229999999999936e+00 2.713034999999999997e+01 2.275199999999999818e+03
5.800000000000000294e-02 1.666345000000000187e-01 -8.556885000000000741e-01 2.918750000000000000e+01 2.275444999999999709e+03
5.900000000000000383e-02 1.666925000000000212e-01 1.766200000000001102e-01 3.230389999999999873e+01 2.275984999999999673e+03
6.000000000000000472e-02 1.667799999999999838e-01 1.586899999999999977e+00 3.639515000000000100e+01 2.276800000000000182e+03
6.099999999999999867e-02 1.668950000000000156e-01 3.330545000000000311e+00 4.132949999999999591e+01 2.277890000000000327e+03
6.199999999999999956e-02 1.670325000000000004e-01 5.349920000000000009e+00 4.694015000000000271e+01 2.279199999999999818e+03
6.300000000000000044e-02 1.671894999999999909e-01 7.578780000000000072e+00 5.303934999999999889e+01 2.280704999999999927e+03
6.400000000000000133e-02 1.673594999999999944e-01 9.947065000000000268e+00 5.943335000000000434e+01 2.282355000000000018e+03
6.500000000000000222e-02 1.675389999999999935e-01 1.238546999999999976e+01 6.593689999999999429e+01 2.284095000000000255e+03
6.600000000000000311e-02 1.677219999999999822e-01 1.482979999999999876e+01 7.238550000000000750e+01 2.285875000000000000e+03
6.700000000000000400e-02 1.679050000000000264e-01 1.722469999999999857e+01 7.864584999999999582e+01 2.287664999999999964e+03
6.800000000000000488e-02 1.680840000000000112e-01 1.952674999999999983e+01 8.462319999999999709e+01 2.289425000000000182e+03
6.900000000000000577e-02 1.682565000000000033e-01 2.170589999999999975e+01 9.026489999999999725e+01 2.291130000000000109e+03
7.000000000000000666e-02 1.684209999999999874e-01 2.374629999999999797e+01 9.556010000000000559e+01 2.292760000000000218e+03
7.100000000000000755e-02 1.685780000000000056e-01 2.564540000000000219e+01 1.005350999999999999e+02 2.294314999999999600e+03
7.200000000000000844e-02 1.687270000000000159e-01 2.741149999999999665e+01 1.052450499999999920e+02 2.295800000000000182e+03
7.300000000000000933e-02 1.688704999999999790e-01 2.906125000000000114e+01 1.097644999999999982e+02 2.297224999999999909e+03
7.399999999999999634e-02 1.690089999999999926e-01 3.061610000000000298e+01 1.141740000000000066e+02 2.298609999999999673e+03
7.499999999999999722e-02 1.691445000000000032e-01 3.209870000000000090e+01 1.185504999999999995e+02 2.299970000000000255e+03
7.599999999999999811e-02 1.692805000000000004e-01 3.352989999999999782e+01 1.229565000000000055e+02 2.301319999999999709e+03
7.699999999999999900e-02 1.694160000000000110e-01 3.492660000000000053e+01 1.274370000000000118e+02 2.302675000000000182e+03
7.799999999999999989e-02 1.695539999999999825e-01 3.629964999999999975e+01 1.320109999999999957e+02 2.304055000000000291e+03
7.900000000000000078e-02 1.696934999999999971e-01 3.765335000000000321e+01 1.366754999999999995e+02 2.305449999999999818e+03
8.000000000000000167e-02 1.698350000000000137e-01 3.898534999999999684e+01 1.414025000000000034e+02 2.306859999999999673e+03
8.100000000000000255e-02 1.699775000000000036e-01 4.028699999999999903e+01 1.461474999999999795e+02 2.308284999999999854e+03
8.200000000000000344e-02 1.701199999999999934e-01 4.154435000000000144e+01 1.508514999999999873e+02 2.309710000000000036e+03
8.300000000000000433e-02 1.702605000000000091e-01 4.273960000000000292e+01 1.554449999999999932e+02 2.311119999999999891e+03
8.400000000000000522e-02 1.703970000000000207e-01 4.385224999999999795e+01 1.598550000000000182e+02 2.312489999999999782e+03
8.500000000000000611e-02 1.705280000000000129e-01 4.486070000000000135e+01 1.640095000000000027e+02 2.313809999999999945e+03
8.600000000000000699e-02 1.706519999999999981e-01 4.574380000000000024e+01 1.678410000000000082e+02 2.315055000000000291e+03
8.700000000000000788e-02 1.707655000000000145e-01 4.648210000000000264e+01 1.712895000000000039e+02 2.316204999999999927e+03
8.800000000000000877e-02 1.708684999999999787e-01 4.705910000000000082e+01 1.743064999999999998e+02 2.317255000000000109e+03
8.899999999999999578e-02 1.709594999999999865e-01 4.746240000000000236e+01 1.768580000000000041e+02 2.318175000000000182e+03
8.999999999999999667e-02 1.710369999999999946e-01 4.768479999999999563e+01 1.789240000000000066e+02 2.318969999999999800e+03
9.099999999999999756e-02 1.711010000000000031e-01 4.772449999999999903e+01 1.805024999999999977e+02 2.319630000000000109e+03
9.199999999999999845e-02 1.711504999999999832e-01 4.758579999999999899e+01 1.816059999999999945e+02 2.320144999999999982e+03
9.299999999999999933e-02 1.711874999999999925e-01 4.727850000000000108e+01 1.822649999999999864e+02 2.320525000000000091e+03
9.400000000000000022e-02 1.712115000000000165e-01 4.681804999999999950e+01 1.825219999999999914e+02 2.320784999999999854e+03
9.500000000000000111e-02 1.712239999999999873e-01 4.622379999999999711e+01 1.824304999999999950e+02 2.320929999999999836e+03
9.600000000000000200e-02 1.712269999999999903e-01 4.551879999999999882e+01 1.820529999999999973e+02 2.320970000000000255e+03
9.700000000000000289e-02 1.712214999999999987e-01 4.472785000000000366e+01 1.814549999999999841e+02 2.320925000000000182e+03
9.800000000000000377e-02 1.712100000000000011e-01 4.387659999999999627e+01 1.807024999999999864e+02 2.320814999999999600e+03
9.900000000000000466e-02 1.711929999999999841e-01 4.298999999999999488e+01 1.798569999999999993e+02 2.320654999999999745e+03
1.000000000000000056e-01 1.711735000000000062e-01 4.209120000000000061e+01 1.789755000000000109e+02 2.320460000000000036e+03
1.010000000000000064e-01 1.711519999999999986e-01 4.120060000000000144e+01 1.781045000000000016e+02 2.320250000000000000e+03
1.020000000000000073e-01 1.711300000000000043e-01 4.033494999999999919e+01 1.772819999999999823e+02 2.320034999999999854e+03
1.030000000000000082e-01 1.711090000000000111e-01 3.950695000000000334e+01 1.765330000000000155e+02 2.319819999999999709e+03
1.040000000000000091e-01 1.710889999999999911e-01 3.872464999999999691e+01 1.758710000000000093e+02 2.319619999999999891e+03
1.050000000000000100e-01 1.710710000000000008e-01 3.799160000000000537e+01 1.752969999999999970e+02 2.319434999999999945e+03
1.059999999999999970e-01 1.710554999999999992e-01 3.730675000000000097e+01 1.748015000000000043e+02 2.319275000000000091e+03
1.069999999999999979e-01 1.710409999999999986e-01 3.666494999999999749e+01 1.743650000000000091e+02 2.319125000000000000e+03
1.079999999999999988e-01 1.710280000000000133e-01 3.605740000000000123e+01 1.739585000000000150e+02 2.318989999999999782e+03
1.089999999999999997e-01 1.710145000000000137e-01 3.547265000000000157e+01 1.735484999999999900e+02 2.318850000000000364e+03
1.100000000000000006e-01 1.710015000000000007e-01 3.489730000000000132e+01 1.730969999999999800e+02 2.318710000000000036e+03
1.110000000000000014e-01 1.709864999999999857e-01 3.431714999999999804e+01 1.725654999999999859e+02 2.318559999999999945e+03
1.120000000000000023e-01 1.709689999999999821e-01 3.371824999999999761e+01 1.719170000000000016e+02 2.318389999999999873e+03
1.130000000000000032e-01 1.709485000000000032e-01 3.308790000000000475e+01 1.711204999999999927e+02 2.318179999999999836e+03
1.140000000000000041e-01 1.709235000000000060e-01 3.241539999999999822e+01 1.701514999999999986e+02 2.317930000000000291e+03
1.150000000000000050e-01 1.708939999999999904e-01 3.169320000000000093e+01 1.689929999999999950e+02 2.317630000000000109e+03
1.160000000000000059e-01 1.708589999999999831e-01 3.091734999999999900e+01 1.676405000000000030e+02 2.317284999999999854e+03
1.170000000000000068e-01 1.708184999999999842e-01 3.008760000000000190e+01 1.660999999999999943e+02 2.316885000000000218e+03
1.180000000000000077e-01 1.707734999999999947e-01 2.920790000000000219e+01 1.643884999999999934e+02 2.316434999999999945e+03
1.190000000000000085e-01 1.707235000000000003e-01 2.828600000000000136e+01 1.625320000000000107e+02 2.315940000000000055e+03
1.200000000000000094e-01 1.706699999999999884e-01 2.733299999999999841e+01 1.605664999999999907e+02 2.315400000000000091e+03
1.209999999999999964e-01 1.706125000000000003e-01 2.636289999999999978e+01 1.585344999999999800e+02 2.314835000000000036e+03
1.219999999999999973e-01 1.705544999999999978e-01 2.539144999999999897e+01 1.564825000000000159e+02 2.314250000000000000e+03
1.229999999999999982e-01 1.704954999999999943e-01 2.443549999999999756e+01 1.544585000000000150e+02 2.313659999999999854e+03
1.239999999999999991e-01 1.704374999999999918e-01 2.351190000000000069e+01 1.525099999999999909e+02 2.313079999999999927e+03
1.250000000000000000e-01 1.703815000000000190e-01 2.263635000000000019e+01 1.506775000000000091e+02 2.312515000000000327e+03
1.260000000000000009e-01 1.703284999999999938e-01 2.182294999999999874e+01 1.489995000000000118e+02 2.311984999999999673e+03
1.270000000000000018e-01 1.702795000000000003e-01 2.108310000000000173e+01 1.475034999999999741e+02 2.311494999999999891e+03
1.280000000000000027e-01 1.702359999999999984e-01 2.042520000000000024e+01 1.462090000000000032e+02 2.311050000000000182e+03
1.290000000000000036e-01 1.701975000000000016e-01 1.985450000000000159e+01 1.451260000000000048e+02 2.310659999999999854e+03
1.300000000000000044e-01 1.701644999999999963e-01 1.937265000000000015e+01 1.442565000000000168e+02 2.310329999999999927e+03
1.310000000000000053e-01 1.701380000000000114e-01 1.897834999999999894e+01 1.435919999999999845e+02 2.310054999999999836e+03
1.320000000000000062e-01 1.701170000000000182e-01 1.866734999999999900e+01 1.431184999999999832e+02 2.309835000000000036e+03
1.330000000000000071e-01 1.701015000000000166e-01 1.843294999999999817e+01 1.428154999999999859e+02 2.309670000000000073e+03
1.340000000000000080e-01 1.700899999999999912e-01 1.826670000000000016e+01 1.426589999999999918e+02 2.309550000000000182e+03
1.350000000000000089e-01 1.700829999999999842e-01 1.815874999999999773e+01 1.426220000000000141e+02 2.309475000000000364e+03
1.360000000000000098e-01 1.700794999999999946e-01 1.809850000000000136e+01 1.426790000000000020e+02 2.309435000000000400e+03
1.370000000000000107e-01 1.700790000000000080e-01 1.807499999999999929e+01 1.428015000000000043e+02 2.309420000000000073e+03
1.380000000000000115e-01 1.700805000000000233e-01 1.807779999999999987e+01 1.429650000000000034e+02 2.309430000000000291e+03
1.390000000000000124e-01 1.700829999999999842e-01 1.809664999999999679e+01 1.431465000000000032e+02 2.309449999999999818e+03
1.400000000000000133e-01 1.700860000000000150e-01 1.812265000000000015e+01 1.433269999999999982e+02 2.309485000000000127e+03
1.410000000000000142e-01 1.700895000000000046e-01 1.814779999999999660e+01 1.434879999999999995e+02 2.309519999999999982e+03
1.420000000000000151e-01 1.700929999999999942e-01 1.816559999999999775e+01 1.436189999999999998e+02 2.309550000000000182e+03
1.430000000000000160e-01 1.700955000000000106e-01 1.817105000000000103e+01 1.437110000000000127e+02 2.309574999999999818e+03
1.440000000000000169e-01 1.700969999999999982e-01 1.816065000000000040e+01 1.437570000000000050e+02 2.309590000000000146e+03
1.450000000000000178e-01 1.700979999999999992e-01 1.813255000000000194e+01 1.437580000000000098e+02 2.309599999999999909e+03
1.459999999999999909e-01 1.700975000000000126e-01 1.808630000000000138e+01 1.437144999999999868e+02 2.309595000000000255e+03
1.469999999999999918e-01 1.700964999999999838e-01 1.802280000000000015e+01 1.436315000000000168e+02 2.309590000000000146e+03
1.479999999999999927e-01 1.700939999999999952e-01 1.794409999999999883e+01 1.435169999999999959e+02 2.309565000000000055e+03
1.489999999999999936e-01 1.700909999999999922e-01 1.785300000000000153e+01 1.433790000000000191e+02 2.309534999999999854e+03
1.499999999999999944e-01 1.700869999999999882e-01 1.775309999999999988e+01 1.432280000000000086e+02 2.309500000000000000e+03
1.509999999999999953e-01 1.700834999999999986e-01 1.764815000000000111e+01 1.430740000000000123e+02 2.309454999999999927e+03
1.519999999999999962e-01 1.700790000000000080e-01 1.754179999999999851e+01 1.429265000000000043e+02 2.309414999999999964e+03
1.529999999999999971e-01 1.700750000000000040e-01 1.743759999999999977e+01 1.427930000000000064e+02 2.309380000000000109e+03
1.539999999999999980e-01 1.700714999999999866e-01 1.733845000000000169e+01 1.426800000000000068e+02 2.309345000000000255e+03
1.549999999999999989e-01 1.700685000000000113e-01 1.724654999999999916e+01 1.425919999999999845e+02 2.309315000000000055e+03
1.559999999999999998e-01 1.700665000000000093e-01 1.716335000000000122e+01 1.425310000000000059e+02 2.309289999999999964e+03
1.570000000000000007e-01 1.700645000000000073e-01 1.708955000000000268e+01 1.424954999999999927e+02 2.309275000000000091e+03
1.580000000000000016e-01 1.700639999999999930e-01 1.702510000000000190e+01 1.424839999999999804e+02 2.309265000000000327e+03
1.590000000000000024e-01 1.700629999999999920e-01 1.696914999999999907e+01 1.424929999999999950e+02 2.309264999999999873e+03
