# t [s], A [cm^2], U [cm/s], P [cPa], c [cm/s]
1.000000000000000021e-03 6.653200000000000225e-01 3.246999999999999886e-03 1.045589999999999975e+02 1.738269999999999982e+03
2.000000000000000042e-03 6.653244999999999854e-01 2.786365000000000022e-02 1.045494999999999948e+02 1.738269999999999982e+03
3.000000000000000062e-03 6.654134999999999911e-01 2.029144000000000225e-01 1.047554999999999978e+02 1.738315000000000055e+03
4.000000000000000083e-03 6.654139999999999500e-01 2.333054999999999990e-01 1.047710000000000008e+02 1.738315000000000055e+03
5.000000000000000104e-03 6.653199999999999115e-01 8.719999999999999973e-02 1.044424999999999955e+02 1.738255000000000109e+03
6.000000000000000125e-03 6.652244999999999964e-01 -8.027499999999998526e-02 1.039509999999999934e+02 1.738154999999999973e+03
7.000000000000000146e-03 6.650665000000000049e-01 -3.818299999999998917e-01 1.031784999999999997e+02 1.738005000000000109e+03
8.000000000000000167e-03 6.648009999999999753e-01 -9.055800000000000516e-01 1.019496500000000054e+02 1.737759999999999991e+03
9.000000000000001055e-03 6.644305000000000350e-01 -1.633244999999999836e+00 1.002104499999999945e+02 1.737404999999999973e+03
1.000000000000000194e-02 6.639234999999999998e-01 -2.593544999999999767e+00 9.785595000000000709e+01 1.736914999999999964e+03
1.099999999999999936e-02 6.632819999999999272e-01 -3.749379999999999491e+00 9.485954999999999870e+01 1.736284999999999854e+03
1.200000000000000025e-02 6.626004999999999256e-01 -4.877309999999999590e+00 9.148704999999999643e+01 1.735549999999999955e+03
1.300000000000000114e-02 6.620129999999999626e-01 -5.666005249999999549e+00 8.822970000000000823e+01 1.734804999999999836e+03
1.400000000000000203e-02 6.616055000000000685e-01 -5.906789999999999985e+00 8.552979999999999450e+01 1.734139999999999873e+03
1.499999999999999944e-02 6.613694999999999435e-01 -5.588750000000000107e+00 8.356600000000000250e+01 1.733605000000000018e+03
1.600000000000000033e-02 6.612279999999999269e-01 -4.870554999999999524e+00 8.221415000000000362e+01 1.733184999999999945e+03
1.700000000000000122e-02 6.610795000000000421e-01 -3.986119999999999663e+00 8.114719999999999800e+01 1.732825000000000045e+03
1.800000000000000211e-02 6.608445000000000569e-01 -3.137247499999999967e+00 8.000149999999999295e+01 1.732474999999999909e+03
1.900000000000000300e-02 6.604970000000000008e-01 -2.417340000000000266e+00 7.853525000000000489e+01 1.732070000000000164e+03
2.000000000000000042e-02 6.600639999999999841e-01 -1.800420000000000131e+00 7.670385000000000275e+01 1.731595000000000027e+03
2.100000000000000130e-02 6.595984999999999765e-01 -1.195749999999999869e+00 7.462194999999999823e+01 1.731069999999999936e+03
2.200000000000000219e-02 6.591445000000000221e-01 -5.273300000000000765e-01 7.245189999999999486e+01 1.730525000000000091e+03
2.299999999999999961e-02 6.587104999999999766e-01 2.081550000000000900e-01 7.029165000000000418e+01 1.729970000000000027e+03
2.400000000000000050e-02 6.582684999999999231e-01 9.260499999999995957e-01 6.811114999999999498e+01 1.729404999999999973e+03
2.500000000000000139e-02 6.577645000000000852e-01 1.476795000000000080e+00 6.575305000000000177e+01 1.728799999999999955e+03
2.600000000000000228e-02 6.571370000000000822e-01 1.692690000000000250e+00 6.298389999999999844e+01 1.728119999999999891e+03
2.700000000000000316e-02 6.563419999999999810e-01 1.441690000000000360e+00 5.957795000000000130e+01 1.727315000000000055e+03
2.800000000000000058e-02 6.553660000000000041e-01 6.719550000000005241e-01 5.540409999999999968e+01 1.726355000000000018e+03
2.900000000000000147e-02 6.542380000000000972e-01 -5.679999999999996163e-01 5.048675000000000068e+01 1.725240000000000009e+03
3.000000000000000236e-02 6.530219999999999914e-01 -2.139950000000000685e+00 4.501919999999999789e+01 1.723994999999999891e+03
3.099999999999999978e-02 6.518014999999999226e-01 -3.851269999999999527e+00 3.932789999999999964e+01 1.722690000000000055e+03
3.200000000000000067e-02 6.506625000000000325e-01 -5.498460000000000569e+00 3.380559999999999832e+01 1.721394999999999982e+03
3.300000000000000155e-02 6.496785000000000476e-01 -6.903914999999999580e+00 2.883924999999999983e+01 1.720195000000000164e+03
3.400000000000000244e-02 6.489020000000000898e-01 -7.937944800000000356e+00 2.475155000000000172e+01 1.719159999999999854e+03
3.500000000000000333e-02 6.483630000000000226e-01 -8.524610000000000909e+00 2.176595000000000013e+01 1.718349999999999909e+03
3.600000000000000422e-02 6.480704999999999938e-01 -8.635474999999999568e+00 1.999739999999999895e+01 1.717795000000000073e+03
3.700000000000000511e-02 6.480174999999999130e-01 -8.276479999999999393e+00 1.946300000000000097e+01 1.717519999999999982e+03
3.799999999999999906e-02 6.481870000000000687e-01 -7.472789999999999822e+00 2.010679999999999978e+01 1.717525000000000091e+03
3.899999999999999994e-02 6.485589999999999966e-01 -6.257323000000000413e+00 2.182744999999999891e+01 1.717779999999999973e+03
4.000000000000000083e-02 6.491100000000000758e-01 -4.664690000000000225e+00 2.450220000000000198e+01 1.718264999999999873e+03
4.100000000000000172e-02 6.498190000000000355e-01 -2.731415000000000148e+00 2.800035000000000096e+01 1.718969999999999800e+03
4.200000000000000261e-02 6.506594999999999462e-01 -4.998849999999999127e-01 3.218759999999999621e+01 1.719844999999999800e+03
4.300000000000000350e-02 6.516064999999999774e-01 1.976619999999999600e+00 3.692419999999999902e+01 1.720869999999999891e+03
4.400000000000000439e-02 6.526269999999999571e-01 4.631744999999998669e+00 4.206174999999999642e+01 1.722009999999999991e+03
4.499999999999999833e-02 6.536899999999999933e-01 7.387350000000000527e+00 4.744279999999999831e+01 1.723230000000000018e+03
4.599999999999999922e-02 6.547614999999999963e-01 1.015835749999999926e+01 5.290545000000000186e+01 1.724490000000000009e+03
4.700000000000000011e-02 6.558079999999999465e-01 1.286016000000000048e+01 5.829189999999999827e+01 1.725760000000000218e+03
4.800000000000000100e-02 6.568035000000000956e-01 1.541635499999999936e+01 6.346020000000000039e+01 1.727000000000000000e+03
4.900000000000000189e-02 6.577260000000000328e-01 1.776496500000000012e+01 6.829480000000000928e+01 1.728190000000000055e+03
5.000000000000000278e-02 6.585650000000000670e-01 1.986309999999999931e+01 7.271564999999999657e+01 1.729300000000000182e+03
5.100000000000000366e-02 6.593145000000000255e-01 2.168809999999999860e+01 7.668200000000000216e+01 1.730315000000000055e+03
5.200000000000000455e-02 6.599779999999999536e-01 2.323675000000000068e+01 8.019265000000000043e+01 1.731240000000000009e+03
5.300000000000000544e-02 6.605670000000000153e-01 2.452239999999999753e+01 8.328164999999999907e+01 1.732065000000000055e+03
5.399999999999999939e-02 6.610940000000000705e-01 2.557155000000000200e+01 8.601105000000001155e+01 1.732815000000000055e+03
5.500000000000000028e-02 6.615774999999999295e-01 2.641995000000000005e+01 8.846320000000000050e+01 1.733490000000000009e+03
5.600000000000000117e-02 6.620344999999999702e-01 2.710960000000000036e+01 9.073220000000000596e+01 1.734119999999999891e+03
5.700000000000000205e-02 6.624849999999999905e-01 2.768564999999999898e+01 9.291649999999999920e+01 1.734724999999999909e+03
5.800000000000000294e-02 6.629475000000000229e-01 2.819415000000000049e+01 9.511275000000000546e+01 1.735309999999999945e+03
5.900000000000000383e-02 6.634375000000000133e-01 2.867940000000000111e+01 9.740954999999999586e+01 1.735920000000000073e+03
6.000000000000000472e-02 6.639699999999999491e-01 2.918140000000000001e+01 9.988210000000000832e+01 1.736554999999999836e+03
6.099999999999999867e-02 6.645535000000000192e-01 2.973274999999999935e+01 1.025875000000000057e+02 1.737240000000000009e+03
6.199999999999999956e-02 6.651940000000000630e-01 3.035645000000000238e+01 1.055604999999999905e+02 1.737974999999999909e+03
6.300000000000000044e-02 6.658899999999999819e-01 3.106315000000000026e+01 1.088079999999999927e+02 1.738775000000000091e+03
6.400000000000000133e-02 6.666365000000000762e-01 3.185089999999999932e+01 1.123114999999999952e+02 1.739630000000000109e+03
6.500000000000000222e-02 6.674215000000000009e-01 3.270485000000000042e+01 1.160235000000000127e+02 1.740534999999999854e+03
6.600000000000000311e-02 6.682295000000000318e-01 3.359890000000000043e+01 1.198735000000000070e+02 1.741474999999999909e+03
6.700000000000000400e-02 6.690409999999999968e-01 3.449839999999999662e+01 1.237724999999999937e+02 1.742434999999999945e+03
6.800000000000000488e-02 6.698349999999999582e-01 3.536334999999999695e+01 1.276219999999999999e+02 1.743384999999999991e+03
6.900000000000000577e-02 6.705915000000000070e-01 3.615194999999999936e+01 1.313170000000000073e+02 1.744309999999999945e+03
7.000000000000000666e-02 6.712905000000000122e-01 3.682394999999999641e+01 1.347584999999999980e+02 1.745190000000000055e+03
7.100000000000000755e-02 6.719154999999999989e-01 3.734364999999999668e+01 1.378594999999999970e+02 1.745994999999999891e+03
7.200000000000000844e-02 6.724544999999999551e-01 3.768245000000000289e+01 1.405484999999999900e+02 1.746710000000000036e+03
7.300000000000000933e-02 6.728990000000000249e-01 3.782019999999999982e+01 1.427750000000000057e+02 1.747319999999999936e+03
7.399999999999999634e-02 6.732439999999999536e-01 3.774644999999999584e+01 1.445124999999999886e+02 1.747819999999999936e+03
7.499999999999999722e-02 6.734915000000000207e-01 3.746050000000000324e+01 1.457574999999999932e+02 1.748210000000000036e+03
7.599999999999999811e-02 6.736465000000000369e-01 3.697104999999999819e+01 1.465300000000000011e+02 1.748480000000000018e+03
7.699999999999999900e-02 6.737170000000000103e-01 3.629574999999999818e+01 1.468669999999999902e+02 1.748644999999999982e+03
7.799999999999999989e-02 6.737150000000000638e-01 3.545924999999999727e+01 1.468259999999999934e+02 1.748710000000000036e+03
7.900000000000000078e-02 6.736550000000000038e-01 3.449230000000000018e+01 1.464735000000000014e+02 1.748699999999999818e+03
8.000000000000000167e-02 6.735520000000000396e-01 3.342929999999999779e+01 1.458870000000000005e+02 1.748619999999999891e+03
8.100000000000000255e-02 6.734215000000000062e-01 3.230679999999999552e+01 1.451454999999999984e+02 1.748494999999999891e+03
8.200000000000000344e-02 6.732789999999999608e-01 3.116114999999999924e+01 1.443265000000000100e+02 1.748335000000000036e+03
8.300000000000000433e-02 6.731380000000000141e-01 3.002689999999999770e+01 1.435040000000000191e+02 1.748164999999999964e+03
8.400000000000000522e-02 6.730110000000000259e-01 2.893469999999999942e+01 1.427409999999999854e+02 1.748000000000000000e+03
8.500000000000000611e-02 6.729070000000000329e-01 2.791029999999999944e+01 1.420905000000000200e+02 1.747845000000000027e+03
8.600000000000000699e-02 6.728335000000000843e-01 2.697279999999999944e+01 1.415889999999999986e+02 1.747724999999999909e+03
8.700000000000000788e-02 6.727940000000000031e-01 2.613454999999999728e+01 1.412604999999999791e+02 1.747630000000000109e+03
8.800000000000000877e-02 6.727885000000000115e-01 2.540084999999999837e+01 1.411109999999999900e+02 1.747574999999999818e+03
8.899999999999999578e-02 6.728140000000000231e-01 2.476970000000000027e+01 1.411340000000000146e+02 1.747559999999999945e+03
8.999999999999999667e-02 6.728674999999999518e-01 2.423279999999999745e+01 1.413079999999999927e+02 1.747585000000000036e+03
9.099999999999999756e-02 6.729410000000000114e-01 2.377604999999999791e+01 1.416020000000000039e+02 1.747630000000000109e+03
9.199999999999999845e-02 6.730255000000000543e-01 2.338119999999999976e+01 1.419735000000000014e+02 1.747700000000000045e+03
9.299999999999999933e-02 6.731130000000000724e-01 2.302635000000000076e+01 1.423770000000000095e+02 1.747779999999999973e+03
9.400000000000000022e-02 6.731914999999999427e-01 2.268844999999999956e+01 1.427620000000000005e+02 1.747859999999999900e+03
9.500000000000000111e-02 6.732529999999999903e-01 2.234389999999999787e+01 1.430815000000000055e+02 1.747930000000000064e+03
9.600000000000000200e-02 6.732890000000000263e-01 2.197055000000000291e+01 1.432889999999999873e+02 1.747985000000000127e+03
9.700000000000000289e-02 6.732920000000000016e-01 2.154890000000000327e+01 1.433460000000000036e+02 1.748005000000000109e+03
9.800000000000000377e-02 6.732560000000000766e-01 2.106334999999999980e+01 1.432214999999999918e+02 1.747985000000000127e+03
9.900000000000000466e-02 6.731789999999999718e-01 2.050314999999999799e+01 1.428974999999999795e+02 1.747920000000000073e+03
1.000000000000000056e-01 6.730594999999999217e-01 1.986289999999999978e+01 1.423645000000000209e+02 1.747809999999999945e+03
1.010000000000000064e-01 6.728994999999999838e-01 1.914300000000000068e+01 1.416270000000000095e+02 1.747654999999999973e+03
1.020000000000000073e-01 6.727030000000000509e-01 1.834949999999999903e+01 1.407009999999999934e+02 1.747449999999999818e+03
1.030000000000000082e-01 6.724755000000000038e-01 1.749380000000000024e+01 1.396125000000000114e+02 1.747204999999999927e+03
1.040000000000000091e-01 6.722255000000000313e-01 1.659189999999999898e+01 1.383985000000000127e+02 1.746929999999999836e+03
1.050000000000000100e-01 6.719619999999999482e-01 1.566355000000000075e+01 1.371025000000000205e+02 1.746635000000000218e+03
1.059999999999999970e-01 6.716949999999999310e-01 1.473105999999999938e+01 1.357715000000000032e+02 1.746319999999999936e+03
1.069999999999999979e-01 6.714335000000000164e-01 1.381783000000000072e+01 1.344555000000000007e+02 1.746005000000000109e+03
1.079999999999999988e-01 6.711884999999999657e-01 1.294739500000000021e+01 1.332050000000000125e+02 1.745700000000000045e+03
1.089999999999999997e-01 6.709690000000000376e-01 1.214166499999999971e+01 1.320649999999999977e+02 1.745414999999999964e+03
1.100000000000000006e-01 6.707810000000000716e-01 1.141992499999999922e+01 1.310745000000000005e+02 1.745160000000000082e+03
1.110000000000000014e-01 6.706309999999999771e-01 1.079769999999999897e+01 1.302660000000000196e+02 1.744940000000000055e+03
1.120000000000000023e-01 6.705225000000000213e-01 1.028613499999999981e+01 1.296605000000000132e+02 1.744769999999999982e+03
1.130000000000000032e-01 6.704574999999999285e-01 9.891305000000000902e+00 1.292690000000000055e+02 1.744644999999999982e+03
1.140000000000000041e-01 6.704350000000000032e-01 9.614290000000000447e+00 1.290935000000000059e+02 1.744570000000000164e+03
1.150000000000000050e-01 6.704514999999999780e-01 9.451060000000000016e+00 1.291225000000000023e+02 1.744539999999999964e+03
1.160000000000000059e-01 6.705045000000000588e-01 9.393190000000000595e+00 1.293385000000000105e+02 1.744559999999999945e+03
1.170000000000000068e-01 6.705864999999999743e-01 9.428374999999999062e+00 1.297135000000000105e+02 1.744619999999999891e+03
1.180000000000000077e-01 6.706924999999999137e-01 9.541320000000000690e+00 1.302169999999999845e+02 1.744715000000000146e+03
1.190000000000000085e-01 6.708134999999999515e-01 9.714545000000001096e+00 1.308125000000000000e+02 1.744829999999999927e+03
1.200000000000000094e-01 6.709430000000000671e-01 9.929515000000000313e+00 1.314619999999999891e+02 1.744965000000000146e+03
1.209999999999999964e-01 6.710739999999999483e-01 1.016740000000000066e+01 1.321304999999999836e+02 1.745110000000000127e+03
1.219999999999999973e-01 6.711985000000000312e-01 1.041024999999999956e+01 1.327820000000000107e+02 1.745259999999999991e+03
1.229999999999999982e-01 6.713130000000000486e-01 1.064144999999999897e+01 1.333865000000000123e+02 1.745400000000000091e+03
1.239999999999999991e-01 6.714115000000000499e-01 1.084650000000000070e+01 1.339194999999999993e+02 1.745529999999999973e+03
1.250000000000000000e-01 6.714904999999999902e-01 1.101374999999999993e+01 1.343600000000000136e+02 1.745639999999999873e+03
1.260000000000000009e-01 6.715484999999999927e-01 1.113429999999999964e+01 1.346959999999999980e+02 1.745730000000000018e+03
1.270000000000000018e-01 6.715839999999999588e-01 1.120250000000000057e+01 1.349205000000000041e+02 1.745795000000000073e+03
1.280000000000000027e-01 6.715979999999999173e-01 1.121605500000000077e+01 1.350344999999999800e+02 1.745835000000000036e+03
1.290000000000000036e-01 6.715919999999999668e-01 1.117554000000000158e+01 1.350425000000000182e+02 1.745849999999999909e+03
1.300000000000000044e-01 6.715679999999999428e-01 1.108445999999999998e+01 1.349560000000000173e+02 1.745845000000000027e+03
1.310000000000000053e-01 6.715305000000000302e-01 1.094870500000000035e+01 1.347894999999999754e+02 1.745824999999999818e+03
1.320000000000000062e-01 6.714809999999999945e-01 1.077608500000000014e+01 1.345615000000000236e+02 1.745785000000000082e+03
1.330000000000000071e-01 6.714255000000000084e-01 1.057587000000000010e+01 1.342919999999999732e+02 1.745724999999999909e+03
1.340000000000000080e-01 6.713679999999999648e-01 1.035802999999999940e+01 1.340010000000000048e+02 1.745664999999999964e+03
1.350000000000000089e-01 6.713115000000000610e-01 1.013284999999999947e+01 1.337090000000000032e+02 1.745605000000000018e+03
1.360000000000000098e-01 6.712595000000000089e-01 9.910154999999999603e+00 1.334345000000000141e+02 1.745545000000000073e+03
1.370000000000000107e-01 6.712160000000000348e-01 9.698829999999999174e+00 1.331940000000000168e+02 1.745490000000000009e+03
1.380000000000000115e-01 6.711819999999999453e-01 9.506455000000000766e+00 1.329979999999999905e+02 1.745440000000000055e+03
1.390000000000000124e-01 6.711599999999999788e-01 9.338775000000000048e+00 1.328575000000000159e+02 1.745404999999999973e+03
1.400000000000000133e-01 6.711499999999999133e-01 9.199640000000000484e+00 1.327755000000000223e+02 1.745380000000000109e+03
1.410000000000000142e-01 6.711510000000000531e-01 9.090949999999999420e+00 1.327529999999999859e+02 1.745369999999999891e+03
1.420000000000000151e-01 6.711635000000000240e-01 9.012520000000000309e+00 1.327860000000000014e+02 1.745369999999999891e+03
1.430000000000000160e-01 6.711850000000000316e-01 8.962350000000000705e+00 1.328679999999999950e+02 1.745384999999999991e+03
1.440000000000000169e-01 6.712134999999999074e-01 8.936999999999999389e+00 1.329879999999999995e+02 1.745404999999999973e+03
1.450000000000000178e-01 6.712460000000000093e-01 8.931725000000000136e+00 1.331349999999999909e+02 1.745434999999999945e+03
1.459999999999999909e-01 6.712804999999999467e-01 8.940929999999999822e+00 1.332955000000000041e+02 1.745465000000000146e+03
1.469999999999999918e-01 6.713135000000000074e-01 8.958729999999999194e+00 1.334565000000000055e+02 1.745500000000000000e+03
1.479999999999999927e-01 6.713430000000000231e-01 8.979105000000000558e+00 1.336045000000000016e+02 1.745534999999999854e+03
1.489999999999999936e-01 6.713670000000000471e-01 8.996489999999999654e+00 1.337295000000000016e+02 1.745565000000000055e+03
1.499999999999999944e-01 6.713835000000000219e-01 9.005974999999999397e+00 1.338209999999999980e+02 1.745589999999999918e+03
1.509999999999999953e-01 6.713915000000000299e-01 9.003565000000000040e+00 1.338735000000000070e+02 1.745605000000000018e+03
1.519999999999999962e-01 6.713905000000000012e-01 8.986399999999999721e+00 1.338820000000000050e+02 1.745605000000000018e+03
1.529999999999999971e-01 6.713804999999999357e-01 8.952965000000000728e+00 1.338464999999999918e+02 1.745599999999999909e+03
1.539999999999999980e-01 6.713620000000000143e-01 8.902995000000000658e+00 1.337674999999999841e+02 1.745590000000000146e+03
1.549999999999999989e-01 6.713359999999999328e-01 8.837535000000000807e+00 1.336514999999999986e+02 1.745565000000000055e+03
1.559999999999999998e-01 6.713044999999999707e-01 8.758704999999999075e+00 1.335039999999999907e+02 1.745529999999999973e+03
1.570000000000000007e-01 6.712679999999999758e-01 8.669840000000000657e+00 1.333344999999999914e+02 1.745494999999999891e+03
1.580000000000000016e-01 6.712310000000000221e-01 8.574825000000000585e+00 1.331535000000000082e+02 1.745450000000000045e+03
1.590000000000000024e-01 6.711939999999999573e-01 8.478234999999999744e+00 1.329720000000000084e+02 1.745410000000000082e+03
