# t [s], A [cm^2], U [cm/s], P [cPa], c [cm/s]
1.000000000000000021e-03 1.869864999999999999e-01 3.840446000000000137e-01 9.401439999999999486e+01 2.254304999999999836e+03
2.000000000000000042e-03 1.869250000000000078e-01 1.958670499999999981e+00 9.017885000000001128e+01 2.253750000000000000e+03
3.000000000000000062e-03 1.867800000000000016e-01 3.892598000000000003e+00 8.489914999999999168e+01 2.252505000000000109e+03
4.000000000000000083e-03 1.865959999999999841e-01 6.087925999999999505e+00 7.951460000000000150e+01 2.250949999999999818e+03
5.000000000000000104e-03 1.864115000000000077e-01 8.420994999999999564e+00 7.505445000000000277e+01 2.249389999999999873e+03
6.000000000000000125e-03 1.862395000000000023e-01 1.059803499999999943e+01 7.148770000000000380e+01 2.247970000000000255e+03
7.000000000000000146e-03 1.860809999999999964e-01 1.240004000000000062e+01 6.830474999999999852e+01 2.246694999999999709e+03
8.000000000000000167e-03 1.859414999999999818e-01 1.385589500000000029e+01 6.547935000000001082e+01 2.245579999999999927e+03
9.000000000000001055e-03 1.858250000000000179e-01 1.503059999999999974e+01 6.318645000000000067e+01 2.244670000000000073e+03
1.000000000000000194e-02 1.857314999999999938e-01 1.594600000000000151e+01 6.141219999999999857e+01 2.243944999999999709e+03
1.099999999999999936e-02 1.856590000000000185e-01 1.662444999999999951e+01 6.007714999999999606e+01 2.243390000000000327e+03
1.200000000000000025e-02 1.856030000000000180e-01 1.706895000000000095e+01 5.903645000000000209e+01 2.242965000000000146e+03
1.300000000000000114e-02 1.855565000000000131e-01 1.729064999999999941e+01 5.810620000000000118e+01 2.242630000000000109e+03
1.400000000000000203e-02 1.855195000000000038e-01 1.740435000000000088e+01 5.735614999999999952e+01 2.242359999999999673e+03
1.499999999999999944e-02 1.855020000000000002e-01 1.763745000000000118e+01 5.727885000000000559e+01 2.242239999999999782e+03
1.600000000000000033e-02 1.855189999999999895e-01 1.819859999999999900e+01 5.849689999999999657e+01 2.242380000000000109e+03
1.700000000000000122e-02 1.855800000000000227e-01 1.912610000000000099e+01 6.124105000000000132e+01 2.242849999999999909e+03
1.800000000000000211e-02 1.856774999999999953e-01 2.024390000000000001e+01 6.505655000000000143e+01 2.243619999999999891e+03
1.900000000000000300e-02 1.857909999999999839e-01 2.124504999999999910e+01 6.894400000000000261e+01 2.244519999999999982e+03
2.000000000000000042e-02 1.858914999999999873e-01 2.183785000000000309e+01 7.180554999999999666e+01 2.245340000000000146e+03
2.100000000000000130e-02 1.859560000000000102e-01 2.187015000000000242e+01 7.291929999999999268e+01 2.245880000000000109e+03
2.200000000000000219e-02 1.859729999999999994e-01 2.137790000000000035e+01 7.220570000000000732e+01 2.246055000000000291e+03
2.299999999999999961e-02 1.859480000000000022e-01 2.054410000000000025e+01 7.018404999999999916e+01 2.245890000000000327e+03
2.400000000000000050e-02 1.858969999999999789e-01 1.960115000000000052e+01 6.767535000000000878e+01 2.245500000000000000e+03
2.500000000000000139e-02 1.858394999999999908e-01 1.872905000000000086e+01 6.542324999999999591e+01 2.245045000000000073e+03
2.600000000000000228e-02 1.857885000000000231e-01 1.799569999999999936e+01 6.381510000000000105e+01 2.244635000000000218e+03
2.700000000000000316e-02 1.857489999999999974e-01 1.735630000000000095e+01 6.280450000000000443e+01 2.244315000000000055e+03
2.800000000000000058e-02 1.857169999999999932e-01 1.670009999999999906e+01 6.202769999999999584e+01 2.244050000000000182e+03
2.900000000000000147e-02 1.856825000000000003e-01 1.591820000000000057e+01 6.103209999999999980e+01 2.243784999999999854e+03
3.000000000000000236e-02 1.856379999999999975e-01 1.496369999999999933e+01 5.951285000000000025e+01 2.243434999999999945e+03
3.099999999999999978e-02 1.855789999999999940e-01 1.388374999999999915e+01 5.746945000000000192e+01 2.242975000000000364e+03
3.200000000000000067e-02 1.855114999999999958e-01 1.281240000000000023e+01 5.523035000000000139e+01 2.242444999999999709e+03
3.300000000000000155e-02 1.854474999999999874e-01 1.192751499999999965e+01 5.334000000000000341e+01 2.241934999999999945e+03
3.400000000000000244e-02 1.854020000000000112e-01 1.138992999999999967e+01 5.235904999999999632e+01 2.241559999999999945e+03
3.500000000000000333e-02 1.853870000000000240e-01 1.128894999999999982e+01 5.265865000000000151e+01 2.241414999999999964e+03
3.600000000000000422e-02 1.854085000000000039e-01 1.161250000000000071e+01 5.428674999999999784e+01 2.241565000000000055e+03
3.700000000000000511e-02 1.854644999999999766e-01 1.225065000000000026e+01 5.694559999999999889e+01 2.241985000000000127e+03
3.799999999999999906e-02 1.855439999999999867e-01 1.302500000000000036e+01 6.007484999999999786e+01 2.242594999999999800e+03
3.899999999999999994e-02 1.856300000000000172e-01 1.373254999999999981e+01 6.299839999999999662e+01 2.243269999999999982e+03
4.000000000000000083e-02 1.857044999999999946e-01 1.418860000000000099e+01 6.508369999999999322e+01 2.243864999999999782e+03
4.100000000000000172e-02 1.857509999999999994e-01 1.425890000000000057e+01 6.586860000000000070e+01 2.244250000000000000e+03
4.200000000000000261e-02 1.857594999999999941e-01 1.387550000000000061e+01 6.512964999999999804e+01 2.244335000000000036e+03
4.300000000000000350e-02 1.857240000000000002e-01 1.303559999999999874e+01 6.288604999999999734e+01 2.244069999999999709e+03
4.400000000000000439e-02 1.856464999999999921e-01 1.178847500000000004e+01 5.935110000000000241e+01 2.243474999999999909e+03
4.499999999999999833e-02 1.855330000000000035e-01 1.021614499999999914e+01 5.485474999999999568e+01 2.242590000000000146e+03
4.599999999999999922e-02 1.853914999999999869e-01 8.414089999999999847e+00 4.976420000000000243e+01 2.241485000000000127e+03
4.700000000000000011e-02 1.852329999999999810e-01 6.477685000000000137e+00 4.442220000000000368e+01 2.240230000000000018e+03
4.800000000000000100e-02 1.850654999999999939e-01 4.494481050000000089e+00 3.911449999999999960e+01 2.238904999999999745e+03
4.900000000000000189e-02 1.848980000000000068e-01 2.543515000000000192e+00 3.406445000000000078e+01 2.237574999999999818e+03
5.000000000000000278e-02 1.847369999999999846e-01 6.975199999999999179e-01 2.944679999999999964e+01 2.236295000000000073e+03
5.100000000000000366e-02 1.845884999999999887e-01 -9.737249999999999517e-01 2.540875000000000128e+01 2.235109999999999673e+03
5.200000000000000455e-02 1.844585000000000252e-01 -2.401461999999999986e+00 2.208810000000000073e+01 2.234059999999999945e+03
5.300000000000000544e-02 1.843509999999999871e-01 -3.518669999999999742e+00 1.962115000000000009e+01 2.233199999999999818e+03
5.399999999999999939e-02 1.842719999999999914e-01 -4.263434999999999420e+00 1.814000000000000057e+01 2.232550000000000182e+03
5.500000000000000028e-02 1.842245000000000132e-01 -4.584130000000000038e+00 1.775985000000000014e+01 2.232150000000000091e+03
5.600000000000000117e-02 1.842135000000000022e-01 -4.444980000000000153e+00 1.856224999999999881e+01 2.232034999999999854e+03
5.700000000000000205e-02 1.842409999999999881e-01 -3.830610000000000070e+00 2.057939999999999969e+01 2.232215000000000146e+03
5.800000000000000294e-02 1.843064999999999842e-01 -2.748409499999999728e+00 2.378410000000000224e+01 2.232710000000000036e+03
5.900000000000000383e-02 1.844099999999999906e-01 -1.228355000000000086e+00 2.808809999999999718e+01 2.233500000000000000e+03
6.000000000000000472e-02 1.845479999999999898e-01 6.795049999999998036e-01 3.334825000000000017e+01 2.234569999999999709e+03
6.099999999999999867e-02 1.847175000000000067e-01 2.909339999999999815e+00 3.937964999999999804e+01 2.235890000000000327e+03
6.199999999999999956e-02 1.849105000000000054e-01 5.384573000000000498e+00 4.597135000000000105e+01 2.237404999999999745e+03
6.300000000000000044e-02 1.851220000000000088e-01 8.023270000000000124e+00 5.290285000000000082e+01 2.239074999999999818e+03
6.400000000000000133e-02 1.853454999999999964e-01 1.074288500000000113e+01 5.995945000000000391e+01 2.240844999999999800e+03
6.500000000000000222e-02 1.855735000000000023e-01 1.346525000000000105e+01 6.694525000000000148e+01 2.242664999999999964e+03
6.600000000000000311e-02 1.858009999999999939e-01 1.612044999999999817e+01 7.369374999999999432e+01 2.244480000000000018e+03
6.700000000000000400e-02 1.860215000000000063e-01 1.865044999999999931e+01 8.007634999999999081e+01 2.246260000000000218e+03
6.800000000000000488e-02 1.862324999999999953e-01 2.101200000000000045e+01 8.600865000000000293e+01 2.247960000000000036e+03
6.900000000000000577e-02 1.864310000000000134e-01 2.317864999999999753e+01 9.145345000000000368e+01 2.249564999999999600e+03
7.000000000000000666e-02 1.866150000000000031e-01 2.514090000000000202e+01 9.642050000000000409e+01 2.251065000000000055e+03
7.100000000000000755e-02 1.867854999999999932e-01 2.690549999999999997e+01 1.009617999999999967e+02 2.252460000000000036e+03
7.200000000000000844e-02 1.869445000000000134e-01 2.849285000000000068e+01 1.051626499999999993e+02 2.253760000000000218e+03
7.300000000000000933e-02 1.870939999999999825e-01 2.993345000000000056e+01 1.091299999999999955e+02 2.254985000000000127e+03
7.399999999999999634e-02 1.872369999999999868e-01 3.126370000000000005e+01 1.129800000000000040e+02 2.256154999999999745e+03
7.499999999999999722e-02 1.873765000000000014e-01 3.252134999999999820e+01 1.168239999999999981e+02 2.257295000000000073e+03
7.599999999999999811e-02 1.875164999999999749e-01 3.374139999999999873e+01 1.207554999999999978e+02 2.258434999999999945e+03
7.699999999999999900e-02 1.876585000000000059e-01 3.495244999999999891e+01 1.248440000000000083e+02 2.259599999999999909e+03
7.799999999999999989e-02 1.878049999999999997e-01 3.617475000000000307e+01 1.291270000000000095e+02 2.260795000000000073e+03
7.900000000000000078e-02 1.879569999999999852e-01 3.741809999999999548e+01 1.336094999999999970e+02 2.262034999999999854e+03
8.000000000000000167e-02 1.881140000000000034e-01 3.868240000000000123e+01 1.382644999999999982e+02 2.263315000000000055e+03
8.100000000000000255e-02 1.882754999999999845e-01 3.995744999999999436e+01 1.430384999999999991e+02 2.264630000000000109e+03
8.200000000000000344e-02 1.884399999999999964e-01 4.122464999999999691e+01 1.478555000000000064e+02 2.265970000000000255e+03
8.300000000000000433e-02 1.886050000000000226e-01 4.245919999999999561e+01 1.526245000000000118e+02 2.267319999999999709e+03
8.400000000000000522e-02 1.887665000000000037e-01 4.363174999999999670e+01 1.572479999999999905e+02 2.268639999999999873e+03
8.500000000000000611e-02 1.889235000000000220e-01 4.471110000000000184e+01 1.616279999999999859e+02 2.269929999999999836e+03
8.600000000000000699e-02 1.890715000000000034e-01 4.566624999999999801e+01 1.656719999999999970e+02 2.271144999999999982e+03
8.700000000000000788e-02 1.892089999999999883e-01 4.646894999999999953e+01 1.693000000000000114e+02 2.272274999999999636e+03
8.800000000000000877e-02 1.893325000000000147e-01 4.709485000000000099e+01 1.724459999999999980e+02 2.273295000000000073e+03
8.899999999999999578e-02 1.894399999999999973e-01 4.752590000000000003e+01 1.750654999999999859e+02 2.274190000000000055e+03
8.999999999999999667e-02 1.895304999999999906e-01 4.775079999999999814e+01 1.771329999999999814e+02 2.274949999999999818e+03
9.099999999999999756e-02 1.896034999999999804e-01 4.776590000000000202e+01 1.786444999999999936e+02 2.275559999999999945e+03
9.199999999999999845e-02 1.896585000000000076e-01 4.757554999999999978e+01 1.796189999999999998e+02 2.276025000000000091e+03
9.299999999999999933e-02 1.896960000000000035e-01 4.719150000000000489e+01 1.800930000000000177e+02 2.276355000000000018e+03
9.400000000000000022e-02 1.897179999999999978e-01 4.663214999999999577e+01 1.801210000000000093e+02 2.276550000000000182e+03
9.500000000000000111e-02 1.897250000000000048e-01 4.592154999999999632e+01 1.797690000000000055e+02 2.276625000000000000e+03
9.600000000000000200e-02 1.897199999999999998e-01 4.508785000000000309e+01 1.791125000000000114e+02 2.276590000000000146e+03
9.700000000000000289e-02 1.897044999999999981e-01 4.416174999999999784e+01 1.782309999999999945e+02 2.276474999999999909e+03
9.800000000000000377e-02 1.896820000000000173e-01 4.317470000000000141e+01 1.772034999999999911e+02 2.276300000000000182e+03
9.900000000000000466e-02 1.896535000000000026e-01 4.215744999999999720e+01 1.761049999999999898e+02 2.276074999999999818e+03
1.000000000000000056e-01 1.896224999999999994e-01 4.113864999999999839e+01 1.750029999999999859e+02 2.275824999999999818e+03
1.010000000000000064e-01 1.895904999999999951e-01 4.014350000000000307e+01 1.739549999999999841e+02 2.275565000000000055e+03
1.020000000000000073e-01 1.895600000000000063e-01 3.919279999999999831e+01 1.730060000000000002e+02 2.275309999999999945e+03
1.030000000000000082e-01 1.895310000000000050e-01 3.830195000000000505e+01 1.721870000000000118e+02 2.275079999999999927e+03
1.040000000000000091e-01 1.895064999999999944e-01 3.748069999999999879e+01 1.715124999999999886e+02 2.274869999999999891e+03
1.050000000000000100e-01 1.894855000000000012e-01 3.673300000000000409e+01 1.709855000000000018e+02 2.274694999999999709e+03
1.059999999999999970e-01 1.894684999999999842e-01 3.605679999999999552e+01 1.705919999999999845e+02 2.274550000000000182e+03
1.069999999999999979e-01 1.894549999999999845e-01 3.544469999999999743e+01 1.703070000000000164e+02 2.274434999999999945e+03
1.079999999999999988e-01 1.894440000000000013e-01 3.488455000000000439e+01 1.700914999999999964e+02 2.274340000000000146e+03
1.089999999999999997e-01 1.894355000000000067e-01 3.436070000000000135e+01 1.699029999999999916e+02 2.274265000000000327e+03
1.100000000000000006e-01 1.894264999999999977e-01 3.385484999999999900e+01 1.696899999999999977e+02 2.274190000000000055e+03
1.110000000000000014e-01 1.894170000000000020e-01 3.334744999999999493e+01 1.694025000000000034e+02 2.274105000000000018e+03
1.120000000000000023e-01 1.894040000000000168e-01 3.281940000000000168e+01 1.689900000000000091e+02 2.274000000000000000e+03
1.130000000000000032e-01 1.893880000000000008e-01 3.225300000000000011e+01 1.684105000000000132e+02 2.273864999999999782e+03
1.140000000000000041e-01 1.893659999999999788e-01 3.163345000000000340e+01 1.676295000000000073e+02 2.273684999999999945e+03
1.150000000000000050e-01 1.893374999999999919e-01 3.094969999999999999e+01 1.666229999999999905e+02 2.273454999999999927e+03
1.160000000000000059e-01 1.893019999999999980e-01 3.019549999999999912e+01 1.653824999999999932e+02 2.273170000000000073e+03
1.170000000000000068e-01 1.892594999999999972e-01 2.936970000000000169e+01 1.639114999999999895e+02 2.272820000000000164e+03
1.180000000000000077e-01 1.892090000000000161e-01 2.847625000000000028e+01 1.622280000000000086e+02 2.272414999999999964e+03
1.190000000000000085e-01 1.891530000000000156e-01 2.752430000000000021e+01 1.603639999999999759e+02 2.271960000000000036e+03
1.200000000000000094e-01 1.890904999999999947e-01 2.652730000000000032e+01 1.583614999999999782e+02 2.271454999999999927e+03
1.209999999999999964e-01 1.890244999999999842e-01 2.550240000000000151e+01 1.562715000000000032e+02 2.270914999999999964e+03
1.219999999999999973e-01 1.889560000000000128e-01 2.446929999999999694e+01 1.541490000000000009e+02 2.270355000000000018e+03
1.229999999999999982e-01 1.888859999999999983e-01 2.344899999999999807e+01 1.520529999999999973e+02 2.269789999999999964e+03
1.239999999999999991e-01 1.888170000000000126e-01 2.246239999999999881e+01 1.500400000000000205e+02 2.269225000000000364e+03
1.250000000000000000e-01 1.887504999999999877e-01 2.152949999999999875e+01 1.481614999999999895e+02 2.268679999999999836e+03
1.260000000000000009e-01 1.886889999999999956e-01 2.066779999999999973e+01 1.464619999999999891e+02 2.268170000000000073e+03
1.270000000000000018e-01 1.886325000000000085e-01 1.989179999999999993e+01 1.449755000000000109e+02 2.267710000000000036e+03
1.280000000000000027e-01 1.885830000000000006e-01 1.921205000000000140e+01 1.437264999999999873e+02 2.267300000000000182e+03
1.290000000000000036e-01 1.885404999999999998e-01 1.863514999999999944e+01 1.427264999999999873e+02 2.266944999999999709e+03
1.300000000000000044e-01 1.885060000000000069e-01 1.816319999999999979e+01 1.419764999999999873e+02 2.266659999999999854e+03
1.310000000000000053e-01 1.884794999999999943e-01 1.779415000000000191e+01 1.414669999999999845e+02 2.266430000000000291e+03
1.320000000000000062e-01 1.884604999999999753e-01 1.752244999999999919e+01 1.411789999999999736e+02 2.266270000000000437e+03
1.330000000000000071e-01 1.884480000000000044e-01 1.733924999999999983e+01 1.410854999999999961e+02 2.266159999999999854e+03
1.340000000000000080e-01 1.884419999999999984e-01 1.723310000000000031e+01 1.411560000000000059e+02 2.266105000000000018e+03
1.350000000000000089e-01 1.884419999999999984e-01 1.719080000000000297e+01 1.413559999999999945e+02 2.266095000000000255e+03
1.360000000000000098e-01 1.884454999999999880e-01 1.719819999999999993e+01 1.416479999999999961e+02 2.266119999999999891e+03
1.370000000000000107e-01 1.884520000000000084e-01 1.724080000000000013e+01 1.419970000000000141e+02 2.266170000000000073e+03
1.380000000000000115e-01 1.884609999999999896e-01 1.730445000000000277e+01 1.423700000000000045e+02 2.266239999999999782e+03
1.390000000000000124e-01 1.884709999999999996e-01 1.737590000000000146e+01 1.427369999999999948e+02 2.266315000000000055e+03
1.400000000000000133e-01 1.884810000000000096e-01 1.744319999999999737e+01 1.430709999999999980e+02 2.266390000000000327e+03
1.410000000000000142e-01 1.884899999999999909e-01 1.749644999999999939e+01 1.433525000000000205e+02 2.266465000000000146e+03
1.420000000000000151e-01 1.884979999999999989e-01 1.752749999999999986e+01 1.435654999999999859e+02 2.266529999999999745e+03
1.430000000000000160e-01 1.885040000000000049e-01 1.753045000000000186e+01 1.436995000000000005e+02 2.266579999999999927e+03
1.440000000000000169e-01 1.885069999999999801e-01 1.750184999999999746e+01 1.437504999999999882e+02 2.266610000000000127e+03
1.450000000000000178e-01 1.885084999999999955e-01 1.744024999999999892e+01 1.437185000000000059e+02 2.266619999999999891e+03
1.459999999999999909e-01 1.885074999999999945e-01 1.734639999999999915e+01 1.436100000000000136e+02 2.266614999999999782e+03
1.469999999999999918e-01 1.885040000000000049e-01 1.722299999999999898e+01 1.434339999999999975e+02 2.266585000000000036e+03
1.479999999999999927e-01 1.884985000000000133e-01 1.707410000000000139e+01 1.432030000000000030e+02 2.266545000000000073e+03
1.489999999999999936e-01 1.884909999999999919e-01 1.690514999999999901e+01 1.429325000000000045e+02 2.266489999999999782e+03
1.499999999999999944e-01 1.884824999999999973e-01 1.672214999999999918e+01 1.426380000000000052e+02 2.266425000000000182e+03
1.509999999999999953e-01 1.884734999999999883e-01 1.653164999999999907e+01 1.423369999999999891e+02 2.266355000000000018e+03
1.519999999999999962e-01 1.884649999999999936e-01 1.634004999999999797e+01 1.420434999999999945e+02 2.266279999999999745e+03
1.529999999999999971e-01 1.884554999999999980e-01 1.615309999999999846e+01 1.417719999999999914e+02 2.266204999999999927e+03
1.539999999999999980e-01 1.884474999999999900e-01 1.597584999999999944e+01 1.415330000000000155e+02 2.266135000000000218e+03
1.549999999999999989e-01 1.884395000000000098e-01 1.581215000000000082e+01 1.413340000000000032e+02 2.266074999999999818e+03
1.559999999999999998e-01 1.884335000000000038e-01 1.566485000000000127e+01 1.411790000000000020e+02 2.266024999999999636e+03
1.570000000000000007e-01 1.884284999999999988e-01 1.553539999999999921e+01 1.410689999999999884e+02 2.265985000000000127e+03
1.580000000000000016e-01 1.884250000000000091e-01 1.542395000000000138e+01 1.410029999999999859e+02 2.265949999999999818e+03
1.590000000000000024e-01 1.884224999999999928e-01 1.532975000000000065e+01 1.409739999999999895e+02 2.265935000000000400e+03
