# t [s], A [cm^2], U [cm/s], P [cPa], c [cm/s]
1.000000000000000021e-03 1.338630000000000098e-01 4.735960000000000170e-01 1.028909999999999911e+02 1.781710000000000036e+03
2.000000000000000042e-03 1.338245000000000129e-01 2.353675500000000032e+00 9.931880000000001019e+01 1.781279999999999973e+03
3.000000000000000062e-03 1.337070000000000203e-01 4.591076999999999408e+00 9.468010000000001014e+01 1.780025000000000091e+03
4.000000000000000083e-03 1.335395000000000054e-01 7.045057499999999528e+00 8.976175000000000637e+01 1.778264999999999873e+03
5.000000000000000104e-03 1.333540000000000003e-01 9.642830000000000013e+00 8.540279999999999916e+01 1.776335000000000036e+03
6.000000000000000125e-03 1.331710000000000116e-01 1.221918499999999952e+01 8.187784999999999513e+01 1.774440000000000055e+03
7.000000000000000146e-03 1.329974999999999907e-01 1.457154000000000060e+01 7.897560000000000002e+01 1.772679999999999836e+03
8.000000000000000167e-03 1.328370000000000106e-01 1.659499999999999886e+01 7.642320000000000846e+01 1.771075000000000045e+03
9.000000000000001055e-03 1.326924999999999910e-01 1.830940000000000012e+01 7.418224999999999625e+01 1.769644999999999982e+03
1.000000000000000194e-02 1.325665000000000038e-01 1.975864999999999938e+01 7.231640000000000157e+01 1.768420000000000073e+03
1.099999999999999936e-02 1.324599999999999944e-01 2.096164999999999878e+01 7.081629999999999825e+01 1.767394999999999982e+03
1.200000000000000025e-02 1.323719999999999897e-01 2.193570000000000064e+01 6.963035000000000707e+01 1.766549999999999955e+03
1.300000000000000114e-02 1.323010000000000019e-01 2.270284999999999798e+01 6.871495000000000175e+01 1.765880000000000109e+03
1.400000000000000203e-02 1.322440000000000004e-01 2.327720000000000056e+01 6.801234999999999786e+01 1.765355000000000018e+03
1.499999999999999944e-02 1.321984999999999966e-01 2.367494999999999905e+01 6.745335000000000036e+01 1.764940000000000055e+03
1.600000000000000033e-02 1.321624999999999883e-01 2.394704999999999728e+01 6.703539999999999566e+01 1.764625000000000000e+03
1.700000000000000122e-02 1.321380000000000055e-01 2.419310000000000116e+01 6.689170000000000016e+01 1.764420000000000073e+03
1.800000000000000211e-02 1.321299999999999975e-01 2.453224999999999767e+01 6.725659999999999172e+01 1.764365000000000009e+03
1.900000000000000300e-02 1.321439999999999837e-01 2.504800000000000182e+01 6.833424999999999727e+01 1.764519999999999982e+03
2.000000000000000042e-02 1.321835000000000093e-01 2.574445000000000050e+01 7.015739999999999554e+01 1.764904999999999973e+03
2.100000000000000130e-02 1.322454999999999881e-01 2.653825000000000145e+01 7.252549999999999386e+01 1.765514999999999873e+03
2.200000000000000219e-02 1.323225000000000096e-01 2.728710000000000235e+01 7.504765000000000441e+01 1.766269999999999982e+03
2.299999999999999961e-02 1.324024999999999785e-01 2.783830000000000027e+01 7.726364999999999839e+01 1.767059999999999945e+03
2.400000000000000050e-02 1.324724999999999930e-01 2.807659999999999911e+01 7.878469999999998663e+01 1.767755000000000109e+03
2.500000000000000139e-02 1.325224999999999875e-01 2.795595000000000141e+01 7.940344999999999231e+01 1.768275000000000091e+03
2.600000000000000228e-02 1.325484999999999858e-01 2.750645000000000095e+01 7.913864999999999839e+01 1.768555000000000064e+03
2.700000000000000316e-02 1.325505000000000155e-01 2.681749999999999901e+01 7.820619999999999550e+01 1.768605000000000018e+03
2.800000000000000058e-02 1.325344999999999995e-01 2.600540000000000163e+01 7.693459999999998900e+01 1.768470000000000027e+03
2.900000000000000147e-02 1.325085000000000013e-01 2.517804999999999893e+01 7.565735000000000809e+01 1.768240000000000009e+03
3.000000000000000236e-02 1.324810000000000154e-01 2.440859999999999985e+01 7.462229999999999563e+01 1.767969999999999800e+03
3.099999999999999978e-02 1.324565000000000048e-01 2.372395000000000209e+01 7.394034999999999513e+01 1.767735000000000127e+03
3.200000000000000067e-02 1.324385000000000145e-01 2.310904999999999987e+01 7.358445000000000391e+01 1.767559999999999945e+03
3.300000000000000155e-02 1.324270000000000169e-01 2.252264999999999873e+01 7.342705000000000837e+01 1.767444999999999936e+03
3.400000000000000244e-02 1.324184999999999945e-01 2.191724999999999923e+01 7.330034999999999457e+01 1.767365000000000009e+03
3.500000000000000333e-02 1.324095000000000133e-01 2.125829999999999842e+01 7.305740000000000123e+01 1.767279999999999973e+03
3.600000000000000422e-02 1.323970000000000147e-01 2.053795000000000215e+01 7.262010000000000787e+01 1.767160000000000082e+03
3.700000000000000511e-02 1.323795000000000111e-01 1.977940000000000254e+01 7.200274999999999181e+01 1.766994999999999891e+03
3.799999999999999906e-02 1.323584999999999900e-01 1.903320000000000078e+01 7.130835000000000434e+01 1.766789999999999964e+03
3.899999999999999994e-02 1.323364999999999958e-01 1.836534999999999940e+01 7.070079999999998677e+01 1.766579999999999927e+03
4.000000000000000083e-02 1.323189999999999922e-01 1.784159999999999968e+01 7.036039999999999850e+01 1.766409999999999854e+03
4.100000000000000172e-02 1.323110000000000119e-01 1.751124999999999687e+01 7.043630000000000280e+01 1.766320000000000164e+03
4.200000000000000261e-02 1.323155000000000026e-01 1.739475000000000193e+01 7.100690000000000168e+01 1.766355000000000018e+03
4.300000000000000350e-02 1.323349999999999804e-01 1.747845000000000226e+01 7.205795000000000528e+01 1.766539999999999964e+03
4.400000000000000439e-02 1.323690000000000144e-01 1.771549999999999869e+01 7.348175000000000523e+01 1.766855000000000018e+03
4.499999999999999833e-02 1.324135000000000173e-01 1.803370000000000317e+01 7.509550000000000125e+01 1.767279999999999973e+03
4.599999999999999922e-02 1.324644999999999850e-01 1.834669999999999845e+01 7.667260000000000275e+01 1.767764999999999873e+03
4.700000000000000011e-02 1.325135000000000063e-01 1.856634999999999991e+01 7.797990000000000066e+01 1.768234999999999900e+03
4.800000000000000100e-02 1.325550000000000062e-01 1.861480000000000246e+01 7.881149999999999523e+01 1.768639999999999873e+03
4.900000000000000189e-02 1.325814999999999910e-01 1.843244999999999933e+01 7.901554999999999040e+01 1.768909999999999854e+03
5.000000000000000278e-02 1.325894999999999990e-01 1.798304999999999865e+01 7.850860000000000127e+01 1.768990000000000009e+03
5.100000000000000366e-02 1.325749999999999984e-01 1.725500000000000256e+01 7.727840000000000487e+01 1.768860000000000127e+03
5.200000000000000455e-02 1.325375000000000025e-01 1.625900000000000034e+01 7.537659999999999627e+01 1.768505000000000109e+03
5.300000000000000544e-02 1.324770000000000114e-01 1.502435000000000187e+01 7.290415000000000134e+01 1.767934999999999945e+03
5.399999999999999939e-02 1.323975000000000013e-01 1.359328000000000003e+01 6.999340000000000828e+01 1.767160000000000082e+03
5.500000000000000028e-02 1.323014999999999886e-01 1.201659500000000058e+01 6.679134999999999422e+01 1.766240000000000009e+03
5.600000000000000117e-02 1.321934999999999916e-01 1.034890500000000024e+01 6.344535000000000480e+01 1.765195000000000164e+03
5.700000000000000205e-02 1.320784999999999876e-01 8.645904999999999063e+00 6.009385000000000332e+01 1.764075000000000045e+03
5.800000000000000294e-02 1.319599999999999940e-01 6.962349999999999817e+00 5.686160000000000281e+01 1.762925000000000182e+03
5.900000000000000383e-02 1.318435000000000024e-01 5.351255000000000095e+00 5.385899999999999466e+01 1.761795000000000073e+03
6.000000000000000472e-02 1.317325000000000024e-01 3.863297650000000250e+00 5.118330000000000268e+01 1.760714999999999918e+03
6.099999999999999867e-02 1.316309999999999980e-01 2.546726000000000045e+00 4.892109999999999559e+01 1.759724999999999909e+03
6.199999999999999956e-02 1.315425000000000066e-01 1.446779999999999955e+00 4.715014999999999645e+01 1.758855000000000018e+03
6.300000000000000044e-02 1.314700000000000035e-01 6.048449999999998550e-01 4.593970000000000198e+01 1.758134999999999991e+03
6.400000000000000133e-02 1.314160000000000050e-01 5.718999999999996309e-02 4.534969999999999857e+01 1.757599999999999909e+03
6.500000000000000222e-02 1.313840000000000008e-01 -1.667114999999999569e-01 4.542784999999999940e+01 1.757275000000000091e+03
6.600000000000000311e-02 1.313750000000000195e-01 -4.586615000000000830e-02 4.620655000000000001e+01 1.757164999999999964e+03
6.700000000000000400e-02 1.313910000000000078e-01 4.306504999999999361e-01 4.769849999999999568e+01 1.757295000000000073e+03
6.800000000000000488e-02 1.314319999999999933e-01 1.262563499999999950e+00 4.989464999999999861e+01 1.757675000000000182e+03
6.900000000000000577e-02 1.314994999999999914e-01 2.437971049999999806e+00 5.276215000000000543e+01 1.758305000000000064e+03
7.000000000000000666e-02 1.315915000000000001e-01 3.933678000000000008e+00 5.624484999999999957e+01 1.759170000000000073e+03
7.100000000000000755e-02 1.317065000000000041e-01 5.716345000000000454e+00 6.026614999999999611e+01 1.760259999999999991e+03
7.200000000000000844e-02 1.318420000000000147e-01 7.744299999999999962e+00 6.473290000000000077e+01 1.761559999999999945e+03
7.300000000000000933e-02 1.319954999999999878e-01 9.969815000000000538e+00 6.954104999999999848e+01 1.763034999999999854e+03
7.399999999999999634e-02 1.321634999999999893e-01 1.234162500000000051e+01 7.458190000000000452e+01 1.764659999999999854e+03
7.499999999999999722e-02 1.323420000000000152e-01 1.480728500000000025e+01 7.974779999999999802e+01 1.766394999999999982e+03
7.599999999999999811e-02 1.325280000000000069e-01 1.731540000000000035e+01 8.493755000000000166e+01 1.768204999999999927e+03
7.699999999999999900e-02 1.327170000000000016e-01 1.981769999999999854e+01 9.006024999999999636e+01 1.770059999999999945e+03
7.799999999999999989e-02 1.329069999999999974e-01 2.227019999999999911e+01 9.503870000000000573e+01 1.771924999999999955e+03
7.900000000000000078e-02 1.330935000000000035e-01 2.463454999999999728e+01 9.981020000000000891e+01 1.773764999999999873e+03
8.000000000000000167e-02 1.332754999999999912e-01 2.687904999999999944e+01 1.043284000000000020e+02 1.775565000000000055e+03
8.100000000000000255e-02 1.334504999999999997e-01 2.897885000000000133e+01 1.085625000000000000e+02 1.777305000000000064e+03
8.200000000000000344e-02 1.336169999999999858e-01 3.091685000000000372e+01 1.124985000000000070e+02 1.778965000000000146e+03
8.300000000000000433e-02 1.337740000000000040e-01 3.268319999999999936e+01 1.161370000000000005e+02 1.780539999999999964e+03
8.400000000000000522e-02 1.339214999999999989e-01 3.427559999999999718e+01 1.194915000000000020e+02 1.782019999999999982e+03
8.500000000000000611e-02 1.340594999999999981e-01 3.569880000000000564e+01 1.225894999999999868e+02 1.783414999999999964e+03
8.600000000000000699e-02 1.341890000000000027e-01 3.696365000000000123e+01 1.254669999999999987e+02 1.784720000000000027e+03
8.700000000000000788e-02 1.343104999999999993e-01 3.808624999999999972e+01 1.281689999999999827e+02 1.785950000000000045e+03
8.800000000000000877e-02 1.344254999999999756e-01 3.908660000000000423e+01 1.307439999999999998e+02 1.787119999999999891e+03
8.899999999999999578e-02 1.345355000000000023e-01 3.998709999999999809e+01 1.332445000000000164e+02 1.788235000000000127e+03
8.999999999999999667e-02 1.346419999999999839e-01 4.081109999999999616e+01 1.357180000000000177e+02 1.789325000000000045e+03
9.099999999999999756e-02 1.347470000000000057e-01 4.158109999999999928e+01 1.382099999999999795e+02 1.790389999999999873e+03
9.199999999999999845e-02 1.348519999999999996e-01 4.231754999999999711e+01 1.407565000000000168e+02 1.791450000000000045e+03
9.299999999999999933e-02 1.349575000000000080e-01 4.303735000000000355e+01 1.433834999999999980e+02 1.792529999999999973e+03
9.400000000000000022e-02 1.350649999999999906e-01 4.375319999999999965e+01 1.461065000000000111e+02 1.793619999999999891e+03
9.500000000000000111e-02 1.351749999999999896e-01 4.447270000000000323e+01 1.489279999999999973e+02 1.794740000000000009e+03
9.600000000000000200e-02 1.352880000000000194e-01 4.519799999999999329e+01 1.518374999999999773e+02 1.795884999999999991e+03
9.700000000000000289e-02 1.354035000000000100e-01 4.592634999999999934e+01 1.548145000000000095e+02 1.797059999999999945e+03
9.800000000000000377e-02 1.355204999999999882e-01 4.664995000000000402e+01 1.578269999999999982e+02 1.798250000000000000e+03
9.900000000000000466e-02 1.356395000000000239e-01 4.735684999999999434e+01 1.608369999999999891e+02 1.799450000000000045e+03
1.000000000000000056e-01 1.357569999999999888e-01 4.803204999999999814e+01 1.637975000000000136e+02 1.800654999999999973e+03
1.010000000000000064e-01 1.358734999999999804e-01 4.865810000000000457e+01 1.666634999999999991e+02 1.801840000000000146e+03
1.020000000000000073e-01 1.359869999999999968e-01 4.921644999999999470e+01 1.693854999999999791e+02 1.802994999999999891e+03
1.030000000000000082e-01 1.360950000000000215e-01 4.968845000000000312e+01 1.719184999999999945e+02 1.804099999999999909e+03
1.040000000000000091e-01 1.361964999999999981e-01 5.005615000000000236e+01 1.742199999999999989e+02 1.805139999999999873e+03
1.050000000000000100e-01 1.362905000000000089e-01 5.030360000000000298e+01 1.762549999999999955e+02 1.806099999999999909e+03
1.059999999999999970e-01 1.363749999999999962e-01 5.041714999999999947e+01 1.779939999999999998e+02 1.806974999999999909e+03
1.069999999999999979e-01 1.364489999999999870e-01 5.038625000000000398e+01 1.794164999999999850e+02 1.807744999999999891e+03
1.079999999999999988e-01 1.365124999999999811e-01 5.020399999999999352e+01 1.805099999999999909e+02 1.808400000000000091e+03
1.089999999999999997e-01 1.365635000000000043e-01 4.986710000000000065e+01 1.812704999999999984e+02 1.808934999999999945e+03
1.100000000000000006e-01 1.366025000000000156e-01 4.937630000000000052e+01 1.817030000000000030e+02 1.809349999999999909e+03
1.110000000000000014e-01 1.366300000000000014e-01 4.873604999999999876e+01 1.818190000000000168e+02 1.809639999999999873e+03
1.120000000000000023e-01 1.366455000000000031e-01 4.795449999999999591e+01 1.816394999999999982e+02 1.809815000000000055e+03
1.130000000000000032e-01 1.366499999999999937e-01 4.704314999999999714e+01 1.811889999999999930e+02 1.809869999999999891e+03
1.140000000000000041e-01 1.366439999999999877e-01 4.601640000000000441e+01 1.804989999999999952e+02 1.809824999999999818e+03
1.150000000000000050e-01 1.366284999999999861e-01 4.489090000000000202e+01 1.796039999999999850e+02 1.809674999999999955e+03
1.160000000000000059e-01 1.366044999999999898e-01 4.368510000000000559e+01 1.785414999999999850e+02 1.809445000000000164e+03
1.170000000000000068e-01 1.365740000000000010e-01 4.241875000000000284e+01 1.773509999999999991e+02 1.809139999999999873e+03
1.180000000000000077e-01 1.365375000000000061e-01 4.111185000000000400e+01 1.760704999999999814e+02 1.808775000000000091e+03
1.190000000000000085e-01 1.364965000000000206e-01 3.978430000000000177e+01 1.747375000000000114e+02 1.808365000000000009e+03
1.200000000000000094e-01 1.364525000000000043e-01 3.845515000000000327e+01 1.733874999999999886e+02 1.807920000000000073e+03
1.209999999999999964e-01 1.364070000000000005e-01 3.714230000000000587e+01 1.720525000000000091e+02 1.807454999999999927e+03
1.219999999999999973e-01 1.363604999999999956e-01 3.586149999999999949e+01 1.707595000000000027e+02 1.806990000000000009e+03
1.229999999999999982e-01 1.363145000000000051e-01 3.462644999999999840e+01 1.695310000000000059e+02 1.806519999999999982e+03
1.239999999999999991e-01 1.362700000000000022e-01 3.344804999999999495e+01 1.683855000000000075e+02 1.806059999999999945e+03
1.250000000000000000e-01 1.362275000000000014e-01 3.233460000000000178e+01 1.673340000000000032e+02 1.805625000000000000e+03
1.260000000000000009e-01 1.361875000000000169e-01 3.129124999999999801e+01 1.663815000000000168e+02 1.805210000000000036e+03
1.270000000000000018e-01 1.361499999999999932e-01 3.032025000000000148e+01 1.655289999999999964e+02 1.804829999999999927e+03
1.280000000000000027e-01 1.361160000000000148e-01 2.942109999999999914e+01 1.647710000000000150e+02 1.804474999999999909e+03
1.290000000000000036e-01 1.360854999999999981e-01 2.859040000000000248e+01 1.640969999999999800e+02 1.804154999999999973e+03
1.300000000000000044e-01 1.360570000000000113e-01 2.782254999999999967e+01 1.634929999999999950e+02 1.803855000000000018e+03
1.310000000000000053e-01 1.360304999999999986e-01 2.710979999999999990e+01 1.629410000000000025e+02 1.803585000000000036e+03
1.320000000000000062e-01 1.360069999999999890e-01 2.644279999999999831e+01 1.624209999999999923e+02 1.803335000000000036e+03
1.330000000000000071e-01 1.359835000000000071e-01 2.581105000000000160e+01 1.619105000000000132e+02 1.803094999999999800e+03
1.340000000000000080e-01 1.359609999999999985e-01 2.520329999999999870e+01 1.613874999999999886e+02 1.802855000000000018e+03
1.350000000000000089e-01 1.359385000000000177e-01 2.460800000000000054e+01 1.608294999999999959e+02 1.802625000000000000e+03
1.360000000000000098e-01 1.359150000000000080e-01 2.401415000000000077e+01 1.602154999999999916e+02 1.802380000000000109e+03
1.370000000000000107e-01 1.358894999999999964e-01 2.341114999999999924e+01 1.595269999999999868e+02 1.802115000000000009e+03
1.380000000000000115e-01 1.358619999999999828e-01 2.278960000000000008e+01 1.587479999999999905e+02 1.801829999999999927e+03
1.390000000000000124e-01 1.358314999999999939e-01 2.214185000000000159e+01 1.578665000000000020e+02 1.801514999999999873e+03
1.400000000000000133e-01 1.357970000000000010e-01 2.146170000000000044e+01 1.568729999999999905e+02 1.801170000000000073e+03
1.410000000000000142e-01 1.357589999999999908e-01 2.074520000000000053e+01 1.557655000000000030e+02 1.800789999999999964e+03
1.420000000000000151e-01 1.357180000000000053e-01 1.999070000000000036e+01 1.545434999999999945e+02 1.800365000000000009e+03
1.430000000000000160e-01 1.356720000000000148e-01 1.919854999999999734e+01 1.532135000000000105e+02 1.799905000000000200e+03
1.440000000000000169e-01 1.356225000000000069e-01 1.837164999999999893e+01 1.517839999999999918e+02 1.799400000000000091e+03
1.450000000000000178e-01 1.355695000000000094e-01 1.751484999999999914e+01 1.502704999999999984e+02 1.798865000000000009e+03
1.459999999999999909e-01 1.355124999999999802e-01 1.663510000000000133e+01 1.486904999999999859e+02 1.798295000000000073e+03
1.469999999999999918e-01 1.354540000000000188e-01 1.574094999999999978e+01 1.470645000000000095e+02 1.797700000000000045e+03
1.479999999999999927e-01 1.353929999999999856e-01 1.484234999999999971e+01 1.454159999999999968e+02 1.797085000000000036e+03
1.489999999999999936e-01 1.353309999999999791e-01 1.395019999999999882e+01 1.437685000000000173e+02 1.796465000000000146e+03
1.499999999999999944e-01 1.352690000000000003e-01 1.307600000000000051e+01 1.421479999999999961e+02 1.795829999999999927e+03
1.509999999999999953e-01 1.352074999999999805e-01 1.223119499999999960e+01 1.405780000000000030e+02 1.795210000000000036e+03
1.519999999999999962e-01 1.351469999999999894e-01 1.142706000000000088e+01 1.390824999999999818e+02 1.794595000000000027e+03
1.529999999999999971e-01 1.350890000000000146e-01 1.067403000000000013e+01 1.376814999999999998e+02 1.794014999999999873e+03
1.539999999999999980e-01 1.350335000000000008e-01 9.981355000000000643e+00 1.363935000000000173e+02 1.793454999999999927e+03
1.549999999999999989e-01 1.349825000000000053e-01 9.356889999999999930e+00 1.352325000000000159e+02 1.792929999999999836e+03
1.559999999999999998e-01 1.349349999999999994e-01 8.806809999999998695e+00 1.342099999999999795e+02 1.792449999999999818e+03
1.570000000000000007e-01 1.348924999999999985e-01 8.335224999999999440e+00 1.333325000000000102e+02 1.792014999999999873e+03
1.580000000000000016e-01 1.348555000000000170e-01 7.944465000000000110e+00 1.326020000000000039e+02 1.791630000000000109e+03
1.590000000000000024e-01 1.348225000000000118e-01 7.634599999999999831e+00 1.320165000000000077e+02 1.791300000000000182e+03
