# t [s], A [cm^2], U [cm/s], P [cPa], c [cm/s]
1.000000000000000021e-03 5.039059999999999651e-01 3.591050000000005349e-03 1.085884999999999962e+02 1.415065000000000055e+03
2.000000000000000042e-03 5.038979999999999571e-01 1.027470000000000163e-03 1.085689999999999884e+02 1.415065000000000055e+03
3.000000000000000062e-03 5.039449999999999763e-01 8.981510000000000882e-02 1.086490000000000009e+02 1.415085000000000036e+03
4.000000000000000083e-03 5.039909999999999668e-01 1.813115499999999880e-01 1.087530000000000001e+02 1.415119999999999891e+03
5.000000000000000104e-03 5.039780000000000371e-01 1.652481499999999826e-01 1.087235000000000014e+02 1.415119999999999891e+03
6.000000000000000125e-03 5.039249999999999563e-01 6.873950000000000893e-02 1.085444999999999993e+02 1.415074999999999818e+03
7.000000000000000146e-03 5.038704999999999989e-01 -3.712149999999997396e-02 1.082854999999999990e+02 1.415014999999999873e+03
8.000000000000000167e-03 5.037935000000000052e-01 -1.920499999999999430e-01 1.079155000000000086e+02 1.414914999999999964e+03
9.000000000000001055e-03 5.036644999999999595e-01 -4.584549999999999459e-01 1.073515000000000015e+02 1.414769999999999982e+03
1.000000000000000194e-02 5.034799999999999276e-01 -8.367299999999999738e-01 1.065560000000000116e+02 1.414559999999999945e+03
1.099999999999999936e-02 5.032354999999999468e-01 -1.321169999999999956e+00 1.055014999999999930e+02 1.414275000000000091e+03
1.200000000000000025e-02 5.029164999999999885e-01 -1.923490000000000144e+00 1.041419999999999959e+02 1.413900000000000091e+03
1.300000000000000114e-02 5.025189999999999380e-01 -2.628324999999999800e+00 1.024582000000000050e+02 1.413420000000000073e+03
1.400000000000000203e-02 5.020719999999999628e-01 -3.353604999999999947e+00 1.005142999999999915e+02 1.412855000000000018e+03
1.499999999999999944e-02 5.016270000000000451e-01 -3.965875000000000039e+00 9.845924999999999727e+01 1.412235000000000127e+03
1.600000000000000033e-02 5.012354999999999450e-01 -4.335092000000000390e+00 9.647624999999999318e+01 1.411610000000000127e+03
1.700000000000000122e-02 5.009235000000000770e-01 -4.384059999999999846e+00 9.471129999999999427e+01 1.411019999999999982e+03
1.800000000000000211e-02 5.006890000000000507e-01 -4.107662099999999761e+00 9.323359999999999559e+01 1.410490000000000009e+03
1.900000000000000300e-02 5.005070000000000352e-01 -3.563803950000000054e+00 9.202349999999999852e+01 1.410019999999999982e+03
2.000000000000000042e-02 5.003390000000000892e-01 -2.847687500000000149e+00 9.099250000000000682e+01 1.409599999999999909e+03
2.100000000000000130e-02 5.001480000000000370e-01 -2.060484999999999900e+00 9.001749999999999829e+01 1.409194999999999936e+03
2.200000000000000219e-02 4.999089999999999923e-01 -1.281134999999999913e+00 8.898194999999999766e+01 1.408784999999999854e+03
2.299999999999999961e-02 4.996125000000000149e-01 -5.490299999999996849e-01 8.780849999999999511e+01 1.408335000000000036e+03
2.400000000000000050e-02 4.992685000000000040e-01 1.371950000000001779e-01 8.647495000000000687e+01 1.407849999999999909e+03
2.500000000000000139e-02 4.988960000000000061e-01 8.057900000000000063e-01 8.500854999999999961e+01 1.407329999999999927e+03
2.600000000000000228e-02 4.985140000000000127e-01 1.490419999999999856e+00 8.346379999999999200e+01 1.406779999999999973e+03
2.700000000000000316e-02 4.981379999999999697e-01 2.210214999999999819e+00 8.189525000000000432e+01 1.406230000000000018e+03
2.800000000000000058e-02 4.977685000000000026e-01 2.957714999999999872e+00 8.033514999999999873e+01 1.405664999999999964e+03
2.900000000000000147e-02 4.973994999999999944e-01 3.696579999999999977e+00 7.878079999999999927e+01 1.405099999999999909e+03
3.000000000000000236e-02 4.970115000000000505e-01 4.367860000000000298e+00 7.719379999999999598e+01 1.404535000000000082e+03
3.099999999999999978e-02 4.965849999999999986e-01 4.901580000000000048e+00 7.550939999999999941e+01 1.403940000000000055e+03
3.200000000000000067e-02 4.960989999999999567e-01 5.231600000000000250e+00 7.365225000000000932e+01 1.403295000000000073e+03
3.300000000000000155e-02 4.955400000000000360e-01 5.309169999999999945e+00 7.155619999999998981e+01 1.402599999999999909e+03
3.400000000000000244e-02 4.949059999999999571e-01 5.114234999999999864e+00 6.918280000000000030e+01 1.401824999999999818e+03
3.500000000000000333e-02 4.942039999999999766e-01 4.660045000000000215e+00 6.653450000000000841e+01 1.400974999999999909e+03
3.600000000000000422e-02 4.934560000000000057e-01 3.991900000000000226e+00 6.365985000000000582e+01 1.400065000000000055e+03
3.700000000000000511e-02 4.926905000000000312e-01 3.179814999999999614e+00 6.064934999999999832e+01 1.399105000000000018e+03
3.799999999999999906e-02 4.919405000000000028e-01 2.307455000000000034e+00 5.762435000000000684e+01 1.398139999999999873e+03
3.899999999999999994e-02 4.912404999999999688e-01 1.460719999999999352e+00 5.472175000000000011e+01 1.397190000000000055e+03
4.000000000000000083e-02 4.906194999999999862e-01 7.180499999999998550e-01 5.207809999999999917e+01 1.396309999999999945e+03
4.100000000000000172e-02 4.901039999999999841e-01 1.437650000000001427e-01 4.981624999999999659e+01 1.395529999999999973e+03
4.200000000000000261e-02 4.897095000000000198e-01 -2.154349999999998211e-01 4.803504999999999825e+01 1.394875000000000000e+03
4.300000000000000350e-02 4.894479999999999942e-01 -3.303549999999999542e-01 4.680410000000000537e+01 1.394380000000000109e+03
4.400000000000000439e-02 4.893224999999999936e-01 -1.873149999999998983e-01 4.616275000000000261e+01 1.394065000000000055e+03
4.499999999999999833e-02 4.893324999999999481e-01 2.153525000000000300e-01 4.612239999999999895e+01 1.393924999999999955e+03
4.599999999999999922e-02 4.894735000000000058e-01 8.711645000000001193e-01 4.667159999999999798e+01 1.393974999999999909e+03
4.700000000000000011e-02 4.897374999999999923e-01 1.768815000000000026e+00 4.778170000000000073e+01 1.394210000000000036e+03
4.800000000000000100e-02 4.901155000000000372e-01 2.894419999999999771e+00 4.941304999999999836e+01 1.394615000000000009e+03
4.900000000000000189e-02 4.905979999999999785e-01 4.232454999999999856e+00 5.151905000000000001e+01 1.395174999999999955e+03
5.000000000000000278e-02 4.911749999999999727e-01 5.765554999999999986e+00 5.404925000000000068e+01 1.395890000000000100e+03
5.100000000000000366e-02 4.918344999999999523e-01 7.473614999999999675e+00 5.695050000000000523e+01 1.396735000000000127e+03
5.200000000000000455e-02 4.925640000000000018e-01 9.332501499999999339e+00 6.016710000000000491e+01 1.397695000000000164e+03
5.300000000000000544e-02 4.933509999999999840e-01 1.131376700000000035e+01 6.364039999999999964e+01 1.398750000000000000e+03
5.399999999999999939e-02 4.941805000000000225e-01 1.338438499999999998e+01 6.730920000000000414e+01 1.399884999999999991e+03
5.500000000000000028e-02 4.950379999999999781e-01 1.550785999999999909e+01 7.110989999999999611e+01 1.401079999999999927e+03
5.600000000000000117e-02 4.959080000000000155e-01 1.764562000000000097e+01 7.497849999999999682e+01 1.402315000000000055e+03
5.700000000000000205e-02 4.967759999999999954e-01 1.975909500000000207e+01 7.885219999999999629e+01 1.403575000000000045e+03
5.800000000000000294e-02 4.976294999999999469e-01 2.181200000000000117e+01 8.267250000000001364e+01 1.404825000000000045e+03
5.900000000000000383e-02 4.984560000000000102e-01 2.377209999999999823e+01 8.638775000000001114e+01 1.406065000000000055e+03
6.000000000000000472e-02 4.992484999999999840e-01 2.561305000000000121e+01 8.995520000000000493e+01 1.407275000000000091e+03
6.099999999999999867e-02 4.999994999999999856e-01 2.731495000000000317e+01 9.334295000000000186e+01 1.408440000000000055e+03
6.199999999999999956e-02 5.007074999999999720e-01 2.886540000000000106e+01 9.653139999999999077e+01 1.409554999999999836e+03
6.300000000000000044e-02 5.013705000000000522e-01 3.025850000000000151e+01 9.951230000000001041e+01 1.410610000000000127e+03
6.400000000000000133e-02 5.019905000000000062e-01 3.149510000000000076e+01 1.022882500000000050e+02 1.411610000000000127e+03
6.500000000000000222e-02 5.025724999999999776e-01 3.258109999999999928e+01 1.048722999999999956e+02 1.412549999999999955e+03
6.600000000000000311e-02 5.031205000000000815e-01 3.352669999999999817e+01 1.072849999999999966e+02 1.413440000000000055e+03
6.700000000000000400e-02 5.036410000000000053e-01 3.434539999999999793e+01 1.095519999999999925e+02 1.414279999999999973e+03
6.800000000000000488e-02 5.041404999999999914e-01 3.505290000000000106e+01 1.117030000000000030e+02 1.415079999999999927e+03
6.900000000000000577e-02 5.046254999999999491e-01 3.566615000000000180e+01 1.137694999999999936e+02 1.415849999999999909e+03
7.000000000000000666e-02 5.051025000000000098e-01 3.620265000000000555e+01 1.157824999999999989e+02 1.416594999999999800e+03
7.100000000000000755e-02 5.055784999999999307e-01 3.667965000000000231e+01 1.177719999999999914e+02 1.417329999999999927e+03
7.200000000000000844e-02 5.060584999999999667e-01 3.711370000000000147e+01 1.197639999999999958e+02 1.418059999999999945e+03
7.300000000000000933e-02 5.065474999999999284e-01 3.751970000000000027e+01 1.217810000000000059e+02 1.418795000000000073e+03
7.399999999999999634e-02 5.070474999999999843e-01 3.791029999999999944e+01 1.238404999999999916e+02 1.419534999999999854e+03
7.499999999999999722e-02 5.075614999999999988e-01 3.829529999999999745e+01 1.259539999999999935e+02 1.420289999999999964e+03
7.599999999999999811e-02 5.080899999999999306e-01 3.868104999999999905e+01 1.281250000000000000e+02 1.421059999999999945e+03
7.699999999999999900e-02 5.086300000000000265e-01 3.907014999999999816e+01 1.303499999999999943e+02 1.421840000000000146e+03
7.799999999999999989e-02 5.091805000000000359e-01 3.946119999999999806e+01 1.326210000000000093e+02 1.422634999999999991e+03
7.900000000000000078e-02 5.097355000000000080e-01 3.984879999999999711e+01 1.349184999999999945e+02 1.423440000000000055e+03
8.000000000000000167e-02 5.102900000000000214e-01 4.022424999999999784e+01 1.372205000000000155e+02 1.424250000000000000e+03
8.100000000000000255e-02 5.108369999999999855e-01 4.057599999999999341e+01 1.394979999999999905e+02 1.425045000000000073e+03
8.200000000000000344e-02 5.113680000000000447e-01 4.089029999999999632e+01 1.417199999999999989e+02 1.425835000000000036e+03
8.300000000000000433e-02 5.118754999999999278e-01 4.115245000000000175e+01 1.438519999999999754e+02 1.426595000000000027e+03
8.400000000000000522e-02 5.123524999999999885e-01 4.134740000000000038e+01 1.458600000000000136e+02 1.427319999999999936e+03
8.500000000000000611e-02 5.127909999999999968e-01 4.146105000000000018e+01 1.477129999999999939e+02 1.428000000000000000e+03
8.600000000000000699e-02 5.131850000000000023e-01 4.148069999999999879e+01 1.493815000000000168e+02 1.428619999999999891e+03
8.700000000000000788e-02 5.135305000000000009e-01 4.139605000000000246e+01 1.508410000000000082e+02 1.429170000000000073e+03
8.800000000000000877e-02 5.138225000000000708e-01 4.119944999999999879e+01 1.520740000000000123e+02 1.429660000000000082e+03
8.899999999999999578e-02 5.140590000000000437e-01 4.088635000000000019e+01 1.530679999999999836e+02 1.430069999999999936e+03
8.999999999999999667e-02 5.142394999999999605e-01 4.045555000000000234e+01 1.538185000000000002e+02 1.430400000000000091e+03
9.099999999999999756e-02 5.143649999999999611e-01 3.990909999999999513e+01 1.543259999999999934e+02 1.430644999999999982e+03
9.199999999999999845e-02 5.144370000000000331e-01 3.925215000000000032e+01 1.545995000000000061e+02 1.430815000000000055e+03
9.299999999999999933e-02 5.144604999999999873e-01 3.849280000000000257e+01 1.546524999999999750e+02 1.430904999999999973e+03
9.400000000000000022e-02 5.144379999999999509e-01 3.764170000000000016e+01 1.545054999999999836e+02 1.430929999999999836e+03
9.500000000000000111e-02 5.143769999999999731e-01 3.671144999999999925e+01 1.541804999999999950e+02 1.430889999999999873e+03
9.600000000000000200e-02 5.142820000000000169e-01 3.571654999999999802e+01 1.537049999999999841e+02 1.430789999999999964e+03
9.700000000000000289e-02 5.141594999999999915e-01 3.467249999999999943e+01 1.531080000000000041e+02 1.430644999999999982e+03
9.800000000000000377e-02 5.140175000000000161e-01 3.359544999999999959e+01 1.524180000000000064e+02 1.430460000000000036e+03
9.900000000000000466e-02 5.138620000000000410e-01 3.250154999999999461e+01 1.516664999999999850e+02 1.430244999999999891e+03
1.000000000000000056e-01 5.136994999999999756e-01 3.140650000000000119e+01 1.508815000000000168e+02 1.430014999999999873e+03
1.010000000000000064e-01 5.135354999999999226e-01 3.032515000000000072e+01 1.500900000000000034e+02 1.429769999999999982e+03
1.020000000000000073e-01 5.133754999999999846e-01 2.927080000000000126e+01 1.493165000000000191e+02 1.429519999999999982e+03
1.030000000000000082e-01 5.132240000000000135e-01 2.825479999999999947e+01 1.485819999999999936e+02 1.429279999999999973e+03
1.040000000000000091e-01 5.130850000000000133e-01 2.728645000000000209e+01 1.479030000000000200e+02 1.429050000000000182e+03
1.050000000000000100e-01 5.129599999999999715e-01 2.637265000000000015e+01 1.472920000000000016e+02 1.428835000000000036e+03
1.059999999999999970e-01 5.128520000000000856e-01 2.551760000000000161e+01 1.467579999999999814e+02 1.428644999999999982e+03
1.069999999999999979e-01 5.127599999999999936e-01 2.472295000000000087e+01 1.463025000000000091e+02 1.428469999999999800e+03
1.079999999999999988e-01 5.126844999999999875e-01 2.398789999999999978e+01 1.459254999999999995e+02 1.428325000000000045e+03
1.089999999999999997e-01 5.126235000000000097e-01 2.330920000000000059e+01 1.456214999999999975e+02 1.428200000000000045e+03
1.100000000000000006e-01 5.125754999999999617e-01 2.268149999999999977e+01 1.453824999999999932e+02 1.428095000000000027e+03
1.110000000000000014e-01 5.125370000000000203e-01 2.209779999999999944e+01 1.451954999999999814e+02 1.428009999999999991e+03
1.120000000000000023e-01 5.125054999999999472e-01 2.154945000000000022e+01 1.450464999999999804e+02 1.427934999999999945e+03
1.130000000000000032e-01 5.124765000000000015e-01 2.102714999999999890e+01 1.449194999999999993e+02 1.427869999999999891e+03
1.140000000000000041e-01 5.124474999999999447e-01 2.052069999999999794e+01 1.447984999999999900e+02 1.427809999999999945e+03
1.150000000000000050e-01 5.124135000000000773e-01 2.002009999999999934e+01 1.446655000000000086e+02 1.427750000000000000e+03
1.160000000000000059e-01 5.123714999999999797e-01 1.951549999999999940e+01 1.445049999999999955e+02 1.427684999999999945e+03
1.170000000000000068e-01 5.123180000000000511e-01 1.899784999999999968e+01 1.443025000000000091e+02 1.427610000000000127e+03
1.180000000000000077e-01 5.122515000000000818e-01 1.845904999999999774e+01 1.440444999999999993e+02 1.427519999999999982e+03
1.190000000000000085e-01 5.121685000000000265e-01 1.789249999999999829e+01 1.437205000000000155e+02 1.427414999999999964e+03
1.200000000000000094e-01 5.120685000000000375e-01 1.729335000000000022e+01 1.433230000000000075e+02 1.427279999999999973e+03
1.209999999999999964e-01 5.119504999999999750e-01 1.665820000000000078e+01 1.428485000000000014e+02 1.427130000000000109e+03
1.219999999999999973e-01 5.118150000000000199e-01 1.598600000000000065e+01 1.422944999999999993e+02 1.426950000000000045e+03
1.229999999999999982e-01 5.116614999999999913e-01 1.527735000000000021e+01 1.416634999999999991e+02 1.426755000000000109e+03
1.239999999999999991e-01 5.114925000000000166e-01 1.453512000000000093e+01 1.409615000000000009e+02 1.426529999999999973e+03
1.250000000000000000e-01 5.113105000000000011e-01 1.376367499999999922e+01 1.401959999999999980e+02 1.426284999999999854e+03
1.260000000000000009e-01 5.111175000000000024e-01 1.296924500000000080e+01 1.393789999999999907e+02 1.426019999999999982e+03
1.270000000000000018e-01 5.109169999999999545e-01 1.215949999999999953e+01 1.385240000000000009e+02 1.425740000000000009e+03
1.280000000000000027e-01 5.107129999999999725e-01 1.134325500000000098e+01 1.376449999999999818e+02 1.425454999999999927e+03
1.290000000000000036e-01 5.105089999999999906e-01 1.053008499999999970e+01 1.367590000000000146e+02 1.425160000000000082e+03
1.300000000000000044e-01 5.103079999999999838e-01 9.730164999999999509e+00 1.358834999999999980e+02 1.424869999999999891e+03
1.310000000000000053e-01 5.101149999999999851e-01 8.953730000000000189e+00 1.350355000000000132e+02 1.424579999999999927e+03
1.320000000000000062e-01 5.099339999999999984e-01 8.210720000000000240e+00 1.342305000000000064e+02 1.424305000000000064e+03
1.330000000000000071e-01 5.097669999999999702e-01 7.510525000000000340e+00 1.334839999999999804e+02 1.424045000000000073e+03
1.340000000000000080e-01 5.096175000000000566e-01 6.861455000000000304e+00 1.328094999999999857e+02 1.423799999999999955e+03
1.350000000000000089e-01 5.094879999999999409e-01 6.270684999999999398e+00 1.322179999999999893e+02 1.423585000000000036e+03
1.360000000000000098e-01 5.093800000000000550e-01 5.743730000000000224e+00 1.317179999999999893e+02 1.423394999999999982e+03
1.370000000000000107e-01 5.092944999999999833e-01 5.284480000000000288e+00 1.313140000000000214e+02 1.423235000000000127e+03
1.380000000000000115e-01 5.092309999999999892e-01 4.894985000000000142e+00 1.310105000000000075e+02 1.423099999999999909e+03
1.390000000000000124e-01 5.091909999999999492e-01 4.575495000000000090e+00 1.308045000000000186e+02 1.423005000000000109e+03
1.400000000000000133e-01 5.091714999999999991e-01 4.324435000000000251e+00 1.306940000000000168e+02 1.422934999999999945e+03
1.410000000000000142e-01 5.091714999999999991e-01 4.138569999999999638e+00 1.306725000000000136e+02 1.422894999999999982e+03
1.420000000000000151e-01 5.091890000000000027e-01 4.013164999999999871e+00 1.307300000000000182e+02 1.422884999999999991e+03
1.430000000000000160e-01 5.092214999999999936e-01 3.942199999999999704e+00 1.308564999999999827e+02 1.422904999999999973e+03
1.440000000000000169e-01 5.092649999999999677e-01 3.918639999999999901e+00 1.310399999999999920e+02 1.422934999999999945e+03
1.450000000000000178e-01 5.093180000000000485e-01 3.934705000000000119e+00 1.312665000000000077e+02 1.422990000000000009e+03
1.459999999999999909e-01 5.093765000000000098e-01 3.982169999999999987e+00 1.315224999999999795e+02 1.423049999999999955e+03
1.469999999999999918e-01 5.094369999999999177e-01 4.052640000000000242e+00 1.317939999999999827e+02 1.423125000000000000e+03
1.479999999999999927e-01 5.094974999999999365e-01 4.137855000000000061e+00 1.320679999999999836e+02 1.423199999999999818e+03
1.489999999999999936e-01 5.095545000000000213e-01 4.229894999999999960e+00 1.323319999999999936e+02 1.423279999999999973e+03
1.499999999999999944e-01 5.096060000000000034e-01 4.321434999999999249e+00 1.325745000000000005e+02 1.423349999999999909e+03
1.509999999999999953e-01 5.096500000000000474e-01 4.405929999999999680e+00 1.327864999999999895e+02 1.423420000000000073e+03
1.519999999999999962e-01 5.096844999999999848e-01 4.477740000000000720e+00 1.329605000000000246e+02 1.423474999999999909e+03
1.529999999999999971e-01 5.097095000000000375e-01 4.532250000000000334e+00 1.330894999999999868e+02 1.423519999999999982e+03
1.539999999999999980e-01 5.097230000000000372e-01 4.565934999999999633e+00 1.331709999999999923e+02 1.423554999999999836e+03
1.549999999999999989e-01 5.097255000000000535e-01 4.576389999999999958e+00 1.332015000000000100e+02 1.423569999999999936e+03
1.559999999999999998e-01 5.097165000000000168e-01 4.562294999999999767e+00 1.331820000000000164e+02 1.423575000000000045e+03
1.570000000000000007e-01 5.096970000000000667e-01 4.523390000000000022e+00 1.331139999999999759e+02 1.423559999999999945e+03
1.580000000000000016e-01 5.096669999999999812e-01 4.460370000000000168e+00 1.330000000000000000e+02 1.423529999999999973e+03
1.590000000000000024e-01 5.096289999999999987e-01 4.374814999999999898e+00 1.328444999999999823e+02 1.423490000000000009e+03
