# t [s], A [cm^2], U [cm/s], P [cPa], c [cm/s]
1.000000000000000021e-03 6.877594999999999681e-01 6.102599999999999691e-03 1.093785000000000025e+02 1.625089999999999918e+03
2.000000000000000042e-03 6.877470000000001082e-01 -3.259958500000000037e-03 1.093509999999999991e+02 1.625079999999999927e+03
3.000000000000000062e-03 6.877955000000000041e-01 7.246735000000001370e-02 1.094350000000000023e+02 1.625099999999999909e+03
4.000000000000000083e-03 6.878524999999999778e-01 1.694583000000000061e-01 1.095604999999999905e+02 1.625130000000000109e+03
5.000000000000000104e-03 6.878390000000000892e-01 1.666090000000000071e-01 1.095414999999999992e+02 1.625130000000000109e+03
6.000000000000000125e-03 6.877735000000000376e-01 8.001300000000002854e-02 1.093564999999999969e+02 1.625090000000000146e+03
7.000000000000000146e-03 6.877180000000000515e-01 2.541999999999988713e-03 1.091185000000000116e+02 1.625039999999999964e+03
8.000000000000000167e-03 6.876454999999999096e-01 -1.112154999999999672e-01 1.087955000000000041e+02 1.624970000000000027e+03
9.000000000000001055e-03 6.875184999999999214e-01 -3.296899999999999276e-01 1.082925000000000040e+02 1.624860000000000127e+03
1.000000000000000194e-02 6.873299999999999965e-01 -6.621650000000001146e-01 1.075649999999999977e+02 1.624704999999999927e+03
1.099999999999999936e-02 6.870674999999999422e-01 -1.123720000000000052e+00 1.065579999999999927e+02 1.624485000000000127e+03
1.200000000000000025e-02 6.867114999999999192e-01 -1.729410000000000114e+00 1.052085000000000008e+02 1.624184999999999945e+03
1.300000000000000114e-02 6.862794999999999312e-01 -2.432215000000000238e+00 1.035306999999999960e+02 1.623799999999999955e+03
1.400000000000000203e-02 6.858269999999999644e-01 -3.111460000000000115e+00 1.016510000000000105e+02 1.623359999999999900e+03
1.499999999999999944e-02 6.854175000000000129e-01 -3.628182500000000310e+00 9.975620000000000687e+01 1.622900000000000091e+03
1.600000000000000033e-02 6.850875000000000714e-01 -3.888765999999999945e+00 9.800540000000000873e+01 1.622450000000000045e+03
1.700000000000000122e-02 6.848345000000000127e-01 -3.872535999999999756e+00 9.647200000000000841e+01 1.622035000000000082e+03
1.800000000000000211e-02 6.846269999999999856e-01 -3.621880999999999684e+00 9.513710000000000377e+01 1.621654999999999973e+03
1.900000000000000300e-02 6.844239999999999213e-01 -3.212831500000000062e+00 9.391575000000000273e+01 1.621295000000000073e+03
2.000000000000000042e-02 6.841865000000000308e-01 -2.722623500000000085e+00 9.270060000000000855e+01 1.620929999999999836e+03
2.100000000000000130e-02 6.838954999999999895e-01 -2.204530000000000101e+00 9.140305000000000746e+01 1.620549999999999955e+03
2.200000000000000219e-02 6.835519999999999374e-01 -1.675969999999999960e+00 8.998165000000000191e+01 1.620144999999999982e+03
2.299999999999999961e-02 6.831730000000000302e-01 -1.122164999999999857e+00 8.844839999999999236e+01 1.619710000000000036e+03
2.400000000000000050e-02 6.827834999999999877e-01 -5.125150000000000539e-01 8.685425000000000750e+01 1.619259999999999991e+03
2.500000000000000139e-02 6.824034999999999407e-01 1.783000000000001251e-01 8.526064999999999827e+01 1.618804999999999836e+03
2.600000000000000228e-02 6.820420000000000371e-01 9.531049999999998690e-01 8.371139999999999759e+01 1.618359999999999900e+03
2.700000000000000316e-02 6.816929999999999934e-01 1.784419999999999895e+00 8.221245000000000402e+01 1.617925000000000182e+03
2.800000000000000058e-02 6.813350000000000239e-01 2.616870000000000029e+00 8.072704999999999131e+01 1.617485000000000127e+03
2.900000000000000147e-02 6.809420000000000472e-01 3.377754999999999619e+00 7.918290000000000362e+01 1.617045000000000073e+03
3.000000000000000236e-02 6.804859999999999243e-01 3.992454999999999643e+00 7.749099999999999966e+01 1.616565000000000055e+03
3.099999999999999978e-02 6.799479999999999968e-01 4.400945000000000107e+00 7.556924999999999670e+01 1.616049999999999955e+03
3.200000000000000067e-02 6.793215000000000225e-01 4.571210000000000662e+00 7.336634999999999707e+01 1.615470000000000027e+03
3.300000000000000155e-02 6.786185000000000134e-01 4.506384999999999863e+00 7.087834999999999752e+01 1.614829999999999927e+03
3.400000000000000244e-02 6.778630000000001044e-01 4.242869999999999919e+00 6.815404999999999802e+01 1.614134999999999991e+03
3.500000000000000333e-02 6.770895000000000108e-01 3.840979999999999617e+00 6.528745000000000687e+01 1.613400000000000091e+03
3.600000000000000422e-02 6.763349999999999085e-01 3.371724999999999639e+00 6.240125000000000455e+01 1.612664999999999964e+03
3.700000000000000511e-02 6.756334999999999980e-01 2.903920000000000279e+00 5.962654999999999461e+01 1.611940000000000055e+03
3.799999999999999906e-02 6.750125000000000153e-01 2.494560000000000333e+00 5.708485000000000298e+01 1.611264999999999873e+03
3.899999999999999994e-02 6.744894999999999641e-01 2.184225000000000083e+00 5.487500000000000000e+01 1.610660000000000082e+03
4.000000000000000083e-02 6.740734999999999921e-01 1.996930000000000316e+00 5.306664999999999566e+01 1.610150000000000091e+03
4.100000000000000172e-02 6.737679999999999225e-01 1.943114999999999926e+00 5.170029999999999859e+01 1.609740000000000009e+03
4.200000000000000261e-02 6.735710000000000308e-01 2.024439999999999795e+00 5.079120000000000346e+01 1.609450000000000045e+03
4.300000000000000350e-02 6.734785000000000910e-01 2.238898999999999972e+00 5.033650000000000091e+01 1.609264999999999873e+03
4.400000000000000439e-02 6.734860000000000291e-01 2.584920000000000329e+00 5.032285000000000252e+01 1.609199999999999818e+03
4.499999999999999833e-02 6.735910000000000508e-01 3.063755000000000006e+00 5.073304999999999865e+01 1.609240000000000009e+03
4.599999999999999922e-02 6.737919999999999465e-01 3.679675000000000029e+00 5.155010000000000048e+01 1.609394999999999982e+03
4.700000000000000011e-02 6.740855000000000041e-01 4.438344999999999985e+00 5.275799999999999557e+01 1.609650000000000091e+03
4.800000000000000100e-02 6.744710000000000427e-01 5.344110000000000582e+00 5.434069999999999823e+01 1.610005000000000109e+03
4.900000000000000189e-02 6.749430000000000707e-01 6.397104999999999819e+00 5.627925000000000466e+01 1.610449999999999818e+03
5.000000000000000278e-02 6.754955000000000265e-01 7.591175000000000672e+00 5.854855000000000587e+01 1.610990000000000009e+03
5.100000000000000366e-02 6.761194999999999844e-01 8.912614999999998844e+00 6.111554999999999893e+01 1.611610000000000127e+03
5.200000000000000455e-02 6.768020000000000147e-01 1.034091000000000093e+01 6.393820000000000192e+01 1.612305000000000064e+03
5.300000000000000544e-02 6.775305000000000355e-01 1.184973500000000080e+01 6.696699999999999875e+01 1.613059999999999945e+03
5.399999999999999939e-02 6.782885000000000719e-01 1.340963999999999956e+01 7.014709999999999468e+01 1.613860000000000127e+03
5.500000000000000028e-02 6.790629999999999722e-01 1.499028500000000008e+01 7.342170000000000130e+01 1.614690000000000055e+03
5.600000000000000117e-02 6.798410000000000286e-01 1.656287499999999824e+01 7.673619999999999663e+01 1.615545000000000073e+03
5.700000000000000205e-02 6.806114999999999249e-01 1.810239999999999938e+01 8.004134999999999422e+01 1.616409999999999854e+03
5.800000000000000294e-02 6.813655000000000683e-01 1.958845000000000169e+01 8.329599999999999227e+01 1.617264999999999873e+03
5.900000000000000383e-02 6.820979999999999821e-01 2.100625000000000142e+01 8.646930000000000405e+01 1.618115000000000009e+03
6.000000000000000472e-02 6.828069999999999418e-01 2.234635000000000105e+01 8.954059999999999775e+01 1.618950000000000045e+03
6.099999999999999867e-02 6.834905000000000008e-01 2.360415000000000063e+01 9.250029999999999575e+01 1.619755000000000109e+03
6.199999999999999956e-02 6.841504999999999947e-01 2.477895000000000181e+01 9.534725000000000250e+01 1.620534999999999854e+03
6.300000000000000044e-02 6.847889999999999810e-01 2.587330000000000041e+01 9.808709999999999241e+01 1.621289999999999964e+03
6.400000000000000133e-02 6.854109999999999925e-01 2.689150000000000063e+01 1.007330499999999915e+02 1.622025000000000091e+03
6.500000000000000222e-02 6.860180000000000167e-01 2.783930000000000149e+01 1.032991000000000099e+02 1.622744999999999891e+03
6.600000000000000311e-02 6.866155000000000452e-01 2.872265000000000157e+01 1.058013499999999993e+02 1.623445000000000164e+03
6.700000000000000400e-02 6.872050000000000658e-01 2.954720000000000013e+01 1.082560000000000002e+02 1.624125000000000000e+03
6.800000000000000488e-02 6.877904999999999713e-01 3.031765000000000043e+01 1.106759999999999877e+02 1.624805000000000064e+03
6.900000000000000577e-02 6.883725000000000538e-01 3.103730000000000189e+01 1.130705000000000098e+02 1.625470000000000027e+03
7.000000000000000666e-02 6.889520000000000088e-01 3.170775000000000077e+01 1.154445000000000050e+02 1.626134999999999991e+03
7.100000000000000755e-02 6.895270000000000010e-01 3.232864999999999611e+01 1.177974999999999994e+02 1.626789999999999964e+03
7.200000000000000844e-02 6.900954999999999728e-01 3.289795000000000158e+01 1.201239999999999952e+02 1.627440000000000055e+03
7.300000000000000933e-02 6.906550000000000189e-01 3.341185000000000116e+01 1.224124999999999943e+02 1.628079999999999927e+03
7.399999999999999634e-02 6.912004999999999955e-01 3.386549999999999727e+01 1.246490000000000009e+02 1.628704999999999927e+03
7.499999999999999722e-02 6.917269999999999808e-01 3.425334999999999752e+01 1.268164999999999907e+02 1.629315000000000055e+03
7.599999999999999811e-02 6.922314999999999996e-01 3.456969999999999743e+01 1.288960000000000150e+02 1.629904999999999973e+03
7.699999999999999900e-02 6.927090000000000192e-01 3.480910000000000082e+01 1.308669999999999902e+02 1.630465000000000146e+03
7.799999999999999989e-02 6.931545000000000067e-01 3.496679999999999922e+01 1.327115000000000009e+02 1.630994999999999891e+03
7.900000000000000078e-02 6.935645000000000282e-01 3.503945000000000221e+01 1.344145000000000039e+02 1.631490000000000009e+03
8.000000000000000167e-02 6.939370000000000260e-01 3.502445000000000164e+01 1.359610000000000127e+02 1.631944999999999936e+03
8.100000000000000255e-02 6.942690000000000250e-01 3.492105000000000103e+01 1.373400000000000034e+02 1.632355000000000018e+03
8.200000000000000344e-02 6.945600000000000662e-01 3.472950000000000159e+01 1.385459999999999923e+02 1.632720000000000027e+03
8.300000000000000433e-02 6.948090000000000099e-01 3.445190000000000197e+01 1.395759999999999934e+02 1.633039999999999964e+03
8.400000000000000522e-02 6.950169999999999959e-01 3.409129999999999683e+01 1.404279999999999973e+02 1.633309999999999945e+03
8.500000000000000611e-02 6.951840000000000241e-01 3.365245000000000175e+01 1.411080000000000041e+02 1.633539999999999964e+03
8.600000000000000699e-02 6.953130000000000699e-01 3.314119999999999777e+01 1.416215000000000259e+02 1.633720000000000027e+03
8.700000000000000788e-02 6.954055000000000097e-01 3.256470000000000198e+01 1.419789999999999850e+02 1.633855000000000018e+03
8.800000000000000877e-02 6.954654999999999587e-01 3.193114999999999881e+01 1.421924999999999955e+02 1.633950000000000045e+03
8.899999999999999578e-02 6.954960000000000031e-01 3.124974999999999881e+01 1.422775000000000034e+02 1.634009999999999991e+03
8.999999999999999667e-02 6.955009999999999248e-01 3.053030000000000044e+01 1.422504999999999882e+02 1.634039999999999964e+03
9.099999999999999756e-02 6.954850000000000199e-01 2.978314999999999912e+01 1.421279999999999859e+02 1.634034999999999854e+03
9.199999999999999845e-02 6.954519999999999591e-01 2.901865000000000094e+01 1.419295000000000186e+02 1.634015000000000100e+03
9.299999999999999933e-02 6.954069999999999974e-01 2.824690000000000367e+01 1.416734999999999900e+02 1.633964999999999918e+03
9.400000000000000022e-02 6.953529999999999989e-01 2.747729999999999961e+01 1.413764999999999930e+02 1.633900000000000091e+03
9.500000000000000111e-02 6.952940000000000786e-01 2.671809999999999974e+01 1.410545000000000186e+02 1.633829999999999927e+03
9.600000000000000200e-02 6.952320000000000721e-01 2.597625000000000028e+01 1.407210000000000036e+02 1.633755000000000109e+03
9.700000000000000289e-02 6.951705000000000245e-01 2.525715000000000288e+01 1.403879999999999768e+02 1.633670000000000073e+03
9.800000000000000377e-02 6.951100000000000056e-01 2.456409999999999982e+01 1.400620000000000118e+02 1.633590000000000146e+03
9.900000000000000466e-02 6.950510000000000854e-01 2.389884999999999948e+01 1.397485000000000070e+02 1.633505000000000109e+03
1.000000000000000056e-01 6.949944999999999595e-01 2.326109999999999900e+01 1.394479999999999791e+02 1.633420000000000073e+03
1.010000000000000064e-01 6.949384999999999035e-01 2.264910000000000068e+01 1.391589999999999918e+02 1.633340000000000146e+03
1.020000000000000073e-01 6.948824999999999585e-01 2.205959999999999965e+01 1.388774999999999977e+02 1.633264999999999873e+03
1.030000000000000082e-01 6.948235000000000383e-01 2.148819999999999908e+01 1.385964999999999918e+02 1.633180000000000064e+03
1.040000000000000091e-01 6.947609999999999619e-01 2.092989999999999995e+01 1.383075000000000045e+02 1.633099999999999909e+03
1.050000000000000100e-01 6.946915000000000173e-01 2.037899999999999778e+01 1.380020000000000095e+02 1.633014999999999873e+03
1.059999999999999970e-01 6.946130000000000360e-01 1.982990000000000208e+01 1.376689999999999827e+02 1.632924999999999955e+03
1.069999999999999979e-01 6.945240000000000302e-01 1.927714999999999890e+01 1.373015000000000043e+02 1.632825000000000045e+03
1.079999999999999988e-01 6.944230000000000125e-01 1.871569999999999823e+01 1.368894999999999982e+02 1.632715000000000146e+03
1.089999999999999997e-01 6.943079999999999252e-01 1.814124999999999943e+01 1.364264999999999759e+02 1.632590000000000146e+03
1.100000000000000006e-01 6.941785000000000316e-01 1.755059999999999931e+01 1.359085000000000036e+02 1.632454999999999927e+03
1.110000000000000014e-01 6.940340000000000398e-01 1.694140000000000157e+01 1.353319999999999936e+02 1.632304999999999836e+03
1.120000000000000023e-01 6.938744999999999497e-01 1.631285000000000096e+01 1.346965000000000146e+02 1.632140000000000100e+03
1.130000000000000032e-01 6.937010000000000121e-01 1.566535000000000011e+01 1.340045000000000073e+02 1.631960000000000036e+03
1.140000000000000041e-01 6.935160000000000213e-01 1.500065000000000026e+01 1.332599999999999909e+02 1.631764999999999873e+03
1.150000000000000050e-01 6.933210000000000761e-01 1.432186000000000092e+01 1.324704999999999870e+02 1.631559999999999945e+03
1.160000000000000059e-01 6.931184999999999707e-01 1.363323999999999891e+01 1.316454999999999984e+02 1.631345000000000027e+03
1.170000000000000068e-01 6.929104999999999848e-01 1.294019499999999923e+01 1.307949999999999875e+02 1.631119999999999891e+03
1.180000000000000077e-01 6.927014999999999700e-01 1.224902999999999942e+01 1.299335000000000093e+02 1.630890000000000100e+03
1.190000000000000085e-01 6.924949999999999717e-01 1.156648500000000013e+01 1.290740000000000123e+02 1.630664999999999964e+03
1.200000000000000094e-01 6.922935000000000061e-01 1.089988999999999919e+01 1.282305000000000064e+02 1.630434999999999945e+03
1.209999999999999964e-01 6.921014999999999251e-01 1.025638999999999967e+01 1.274175000000000040e+02 1.630215000000000146e+03
1.219999999999999973e-01 6.919215000000000781e-01 9.643029999999999546e+00 1.266495000000000033e+02 1.630005000000000109e+03
1.229999999999999982e-01 6.917560000000000375e-01 9.066254999999999953e+00 1.259380000000000024e+02 1.629804999999999836e+03
1.239999999999999991e-01 6.916085000000000704e-01 8.531639999999999446e+00 1.252944999999999993e+02 1.629625000000000000e+03
1.250000000000000000e-01 6.914804999999999424e-01 8.043890000000001095e+00 1.247284999999999968e+02 1.629460000000000036e+03
1.260000000000000009e-01 6.913730000000000153e-01 7.606365000000000265e+00 1.242454999999999927e+02 1.629315000000000055e+03
1.270000000000000018e-01 6.912865000000000260e-01 7.221189999999999998e+00 1.238495000000000061e+02 1.629194999999999936e+03
1.280000000000000027e-01 6.912214999999999332e-01 6.889100000000000001e+00 1.235420000000000016e+02 1.629095000000000027e+03
1.290000000000000036e-01 6.911765000000000825e-01 6.609499999999999709e+00 1.233215000000000003e+02 1.629019999999999982e+03
1.300000000000000044e-01 6.911505000000000010e-01 6.380539999999999878e+00 1.231839999999999975e+02 1.628964999999999918e+03
1.310000000000000053e-01 6.911424999999999930e-01 6.199225000000000207e+00 1.231229999999999905e+02 1.628925000000000182e+03
1.320000000000000062e-01 6.911494999999999722e-01 6.061630000000000074e+00 1.231315000000000026e+02 1.628914999999999964e+03
1.330000000000000071e-01 6.911699999999999511e-01 5.963105000000000544e+00 1.231989999999999981e+02 1.628909999999999854e+03
1.340000000000000080e-01 6.912000000000000366e-01 5.898495000000000488e+00 1.233160000000000025e+02 1.628930000000000064e+03
1.350000000000000089e-01 6.912385000000000890e-01 5.862370000000000303e+00 1.234714999999999918e+02 1.628960000000000036e+03
1.360000000000000098e-01 6.912825000000000220e-01 5.849254999999999427e+00 1.236555000000000035e+02 1.628994999999999891e+03
1.370000000000000107e-01 6.913295000000000412e-01 5.853814999999999991e+00 1.238569999999999993e+02 1.629034999999999854e+03
1.380000000000000115e-01 6.913780000000000481e-01 5.871025000000000382e+00 1.240670000000000073e+02 1.629085000000000036e+03
1.390000000000000124e-01 6.914249999999999563e-01 5.896270000000000344e+00 1.242775000000000034e+02 1.629134999999999991e+03
1.400000000000000133e-01 6.914704999999999879e-01 5.925499999999999545e+00 1.244819999999999993e+02 1.629180000000000064e+03
1.410000000000000142e-01 6.915124999999999744e-01 5.955225000000000435e+00 1.246735000000000042e+02 1.629230000000000018e+03
1.420000000000000151e-01 6.915504999999999569e-01 5.982549999999999812e+00 1.248490000000000038e+02 1.629275000000000091e+03
1.430000000000000160e-01 6.915839999999999765e-01 6.005230000000000068e+00 1.250049999999999955e+02 1.629315000000000055e+03
1.440000000000000169e-01 6.916124999999999634e-01 6.021589999999999776e+00 1.251410000000000053e+02 1.629349999999999909e+03
1.450000000000000178e-01 6.916364999999999874e-01 6.030524999999999913e+00 1.252555000000000121e+02 1.629384999999999991e+03
1.459999999999999909e-01 6.916554999999999787e-01 6.031444999999999723e+00 1.253490000000000038e+02 1.629409999999999854e+03
1.469999999999999918e-01 6.916705000000000769e-01 6.024219999999999686e+00 1.254230000000000018e+02 1.629434999999999945e+03
1.479999999999999927e-01 6.916815000000000602e-01 6.009130000000000749e+00 1.254795000000000016e+02 1.629449999999999818e+03
1.489999999999999936e-01 6.916900000000000270e-01 5.986790000000000056e+00 1.255209999999999866e+02 1.629465000000000146e+03
1.499999999999999944e-01 6.916955000000000187e-01 5.958059999999999690e+00 1.255499999999999972e+02 1.629480000000000018e+03
1.509999999999999953e-01 6.916995000000000227e-01 5.924034999999999940e+00 1.255685000000000002e+02 1.629485000000000127e+03
1.519999999999999962e-01 6.917020000000000390e-01 5.885894999999999655e+00 1.255805000000000007e+02 1.629494999999999891e+03
1.529999999999999971e-01 6.917044999999999444e-01 5.844910000000000494e+00 1.255879999999999939e+02 1.629494999999999891e+03
1.539999999999999980e-01 6.917070000000000718e-01 5.802294999999999980e+00 1.255935000000000059e+02 1.629500000000000000e+03
1.549999999999999989e-01 6.917094999999999771e-01 5.759235000000000326e+00 1.255985000000000014e+02 1.629505000000000109e+03
1.559999999999999998e-01 6.917119999999999935e-01 5.716755000000000031e+00 1.256050000000000040e+02 1.629505000000000109e+03
1.570000000000000007e-01 6.917159999999999975e-01 5.675734999999999530e+00 1.256150000000000091e+02 1.629509999999999991e+03
1.580000000000000016e-01 6.917214999999999892e-01 5.636849999999999916e+00 1.256274999999999977e+02 1.629514999999999873e+03
1.590000000000000024e-01 6.917269999999999808e-01 5.600564999999999571e+00 1.256434999999999889e+02 1.629519999999999982e+03
