# t [s], A [cm^2], U [cm/s], P [cPa], c [cm/s]
1.000000000000000021e-03 4.589714999999999767e-01 1.511800000000000643e-03 9.394859999999999900e+01 1.468335000000000036e+03
2.000000000000000042e-03 4.589670000000000138e-01 3.867170000000000069e-03 9.393309999999999604e+01 1.468329999999999927e+03
3.000000000000000062e-03 4.590085000000000415e-01 9.671970000000000567e-02 9.401939999999999031e+01 1.468355000000000018e+03
4.000000000000000083e-03 4.590444999999999665e-01 1.787194800000000139e-01 9.411804999999999666e+01 1.468389999999999873e+03
5.000000000000000104e-03 4.590325000000000100e-01 1.564458999999999989e-01 9.408459999999999468e+01 1.468384999999999991e+03
6.000000000000000125e-03 4.589940000000000131e-01 7.081600000000001782e-02 9.392079999999999984e+01 1.468344999999999800e+03
7.000000000000000146e-03 4.589535000000000142e-01 -2.578150000000001274e-02 9.367955000000000609e+01 1.468289999999999964e+03
8.000000000000000167e-03 4.588909999999999934e-01 -1.775049999999999684e-01 9.331985000000000241e+01 1.468204999999999927e+03
9.000000000000001055e-03 4.587845000000000395e-01 -4.358949999999999214e-01 9.276525000000000887e+01 1.468070000000000164e+03
1.000000000000000194e-02 4.586284999999999945e-01 -8.073199999999999266e-01 9.197350000000000136e+01 1.467865000000000009e+03
1.099999999999999936e-02 4.584170000000000189e-01 -1.296565000000000190e+00 9.090700000000001069e+01 1.467589999999999918e+03
1.200000000000000025e-02 4.581405000000000061e-01 -1.909060000000000201e+00 8.952779999999999916e+01 1.467220000000000027e+03
1.300000000000000114e-02 4.578050000000000175e-01 -2.610479999999999912e+00 8.784424999999998818e+01 1.466764999999999873e+03
1.400000000000000203e-02 4.574404999999999721e-01 -3.309744999999999937e+00 8.594594999999999629e+01 1.466230000000000018e+03
1.499999999999999944e-02 4.570885000000000087e-01 -3.887760000000000105e+00 8.398595000000000255e+01 1.465664999999999964e+03
1.600000000000000033e-02 4.567824999999999802e-01 -4.244687000000000765e+00 8.212515000000000498e+01 1.465099999999999909e+03
1.700000000000000122e-02 4.565354999999999830e-01 -4.332593050000000723e+00 8.047955000000000325e+01 1.464565000000000055e+03
1.800000000000000211e-02 4.563420000000000254e-01 -4.162031999999999954e+00 7.909260000000000446e+01 1.464085000000000036e+03
1.900000000000000300e-02 4.561830000000000052e-01 -3.788220499999999991e+00 7.793604999999999450e+01 1.463650000000000091e+03
2.000000000000000042e-02 4.560319999999999929e-01 -3.287331500000000073e+00 7.693139999999999645e+01 1.463259999999999991e+03
2.100000000000000130e-02 4.558665000000000078e-01 -2.731860499999999803e+00 7.598140000000000782e+01 1.462884999999999991e+03
2.200000000000000219e-02 4.556745000000000378e-01 -2.172000000000000153e+00 7.500130000000000052e+01 1.462505000000000109e+03
2.299999999999999961e-02 4.554525000000000379e-01 -1.627850000000000019e+00 7.393970000000000198e+01 1.462110000000000127e+03
2.400000000000000050e-02 4.552064999999999584e-01 -1.093750000000000000e+00 7.278470000000000084e+01 1.461695000000000164e+03
2.500000000000000139e-02 4.549484999999999779e-01 -5.514500000000002178e-01 7.155445000000000277e+01 1.461264999999999873e+03
2.600000000000000228e-02 4.546870000000000078e-01 1.419000000000014694e-02 7.027864999999999895e+01 1.460819999999999936e+03
2.700000000000000316e-02 4.544245000000000090e-01 6.029400000000002535e-01 6.897944999999999993e+01 1.460369999999999891e+03
2.800000000000000058e-02 4.541579999999999506e-01 1.193795000000000162e+00 6.765800000000000125e+01 1.459900000000000091e+03
2.900000000000000147e-02 4.538769999999999749e-01 1.746755000000000058e+00 6.628934999999999889e+01 1.459424999999999955e+03
3.000000000000000236e-02 4.535679999999999712e-01 2.210160000000000124e+00 6.482659999999999911e+01 1.458920000000000073e+03
3.099999999999999978e-02 4.532174999999999954e-01 2.531274999999999942e+00 6.321139999999999759e+01 1.458380000000000109e+03
3.200000000000000067e-02 4.528145000000000087e-01 2.667369999999999575e+00 6.138864999999999839e+01 1.457784999999999854e+03
3.300000000000000155e-02 4.523544999999999927e-01 2.595009999999999817e+00 5.932160000000000366e+01 1.457125000000000000e+03
3.400000000000000244e-02 4.518410000000000482e-01 2.315330000000000332e+00 5.700364999999999327e+01 1.456404999999999973e+03
3.500000000000000333e-02 4.512865000000000348e-01 1.854884999999999895e+00 5.446470000000000056e+01 1.455619999999999891e+03
3.600000000000000422e-02 4.507085000000000119e-01 1.261160000000000281e+00 5.177035000000000053e+01 1.454789999999999964e+03
3.700000000000000511e-02 4.501294999999999602e-01 5.954299999999994597e-01 4.901465000000000316e+01 1.453929999999999836e+03
3.799999999999999906e-02 4.495739999999999736e-01 -7.612000000000040956e-02 4.630879999999999797e+01 1.453085000000000036e+03
3.899999999999999994e-02 4.490629999999999900e-01 -6.903949999999996479e-01 4.376865000000000094e+01 1.452269999999999982e+03
4.000000000000000083e-02 4.486165000000000291e-01 -1.193365000000000009e+00 4.150260000000000105e+01 1.451519999999999982e+03
4.100000000000000172e-02 4.482494999999999674e-01 -1.543419999999999792e+00 3.960264999999999702e+01 1.450865000000000009e+03
4.200000000000000261e-02 4.479714999999999669e-01 -1.712225000000000330e+00 3.813839999999999719e+01 1.450329999999999927e+03
4.300000000000000350e-02 4.477879999999999638e-01 -1.683505000000000251e+00 3.715569999999999595e+01 1.449925000000000182e+03
4.400000000000000439e-02 4.477005000000000012e-01 -1.450647500000000090e+00 3.667709999999999582e+01 1.449670000000000073e+03
4.499999999999999833e-02 4.477089999999999681e-01 -1.013844999999999885e+00 3.670555000000000234e+01 1.449565000000000055e+03
4.599999999999999922e-02 4.478100000000000414e-01 -3.775949999999999029e-01 3.722870000000000346e+01 1.449610000000000127e+03
4.700000000000000011e-02 4.479985000000000217e-01 4.510799999999999255e-01 3.822299999999999898e+01 1.449805000000000064e+03
4.800000000000000100e-02 4.482694999999999874e-01 1.463374999999999870e+00 3.965769999999999840e+01 1.450139999999999873e+03
4.900000000000000189e-02 4.486170000000000435e-01 2.648629999999999818e+00 4.149680000000000035e+01 1.450610000000000127e+03
5.000000000000000278e-02 4.490339999999999887e-01 3.993644999999999889e+00 4.370060000000000144e+01 1.451200000000000045e+03
5.100000000000000366e-02 4.495120000000000227e-01 5.481920000000000570e+00 4.622594999999999743e+01 1.451900000000000091e+03
5.200000000000000455e-02 4.500425000000000120e-01 7.093084999999999418e+00 4.902625000000000455e+01 1.452700000000000045e+03
5.300000000000000544e-02 4.506160000000000165e-01 8.802941499999999309e+00 5.205169999999999675e+01 1.453579999999999927e+03
5.399999999999999939e-02 4.512214999999999421e-01 1.058395500000000133e+01 5.524965000000000259e+01 1.454529999999999973e+03
5.500000000000000028e-02 4.518490000000000006e-01 1.240631499999999932e+01 5.856624999999999659e+01 1.455534999999999854e+03
5.600000000000000117e-02 4.524870000000000281e-01 1.423954499999999967e+01 6.194745000000000346e+01 1.456565000000000055e+03
5.700000000000000205e-02 4.531264999999999876e-01 1.605400000000000205e+01 6.534170000000000300e+01 1.457625000000000000e+03
5.800000000000000294e-02 4.537585000000000091e-01 1.782237500000000097e+01 6.870175000000000409e+01 1.458690000000000055e+03
5.900000000000000383e-02 4.543755000000000432e-01 1.952104999999999890e+01 7.198680000000000234e+01 1.459740000000000009e+03
6.000000000000000472e-02 4.549714999999999732e-01 2.113114999999999810e+01 7.516405000000000314e+01 1.460775000000000091e+03
6.099999999999999867e-02 4.555434999999999901e-01 2.263879999999999981e+01 7.820985000000000298e+01 1.461785000000000082e+03
6.199999999999999956e-02 4.560899999999999954e-01 2.403524999999999778e+01 8.110990000000001032e+01 1.462755000000000109e+03
6.300000000000000044e-02 4.566095000000000015e-01 2.531689999999999685e+01 8.385935000000000628e+01 1.463690000000000055e+03
6.400000000000000133e-02 4.571050000000000391e-01 2.648434999999999917e+01 8.646150000000000091e+01 1.464585000000000036e+03
6.500000000000000222e-02 4.575770000000000115e-01 2.754220000000000113e+01 8.892714999999999748e+01 1.465444999999999936e+03
6.600000000000000311e-02 4.580305000000000071e-01 2.849784999999999968e+01 9.127264999999999873e+01 1.466269999999999982e+03
6.700000000000000400e-02 4.584679999999999866e-01 2.936079999999999757e+01 9.351834999999999809e+01 1.467055000000000064e+03
6.800000000000000488e-02 4.588955000000000117e-01 3.014195000000000135e+01 9.568689999999999429e+01 1.467825000000000045e+03
6.900000000000000577e-02 4.593149999999999733e-01 3.085285000000000011e+01 9.780145000000000266e+01 1.468570000000000164e+03
7.000000000000000666e-02 4.597320000000000295e-01 3.150485000000000113e+01 9.988389999999999702e+01 1.469305000000000064e+03
7.100000000000000755e-02 4.601489999999999747e-01 3.210840000000000316e+01 1.019542999999999893e+02 1.470029999999999973e+03
7.200000000000000844e-02 4.605690000000000062e-01 3.267275000000000063e+01 1.040289999999999964e+02 1.470759999999999991e+03
7.300000000000000933e-02 4.609929999999999861e-01 3.320519999999999783e+01 1.061179999999999950e+02 1.471485000000000127e+03
7.399999999999999634e-02 4.614230000000000276e-01 3.371085000000000065e+01 1.082289999999999992e+02 1.472214999999999918e+03
7.499999999999999722e-02 4.618565000000000031e-01 3.419214999999999804e+01 1.103609999999999900e+02 1.472950000000000045e+03
7.599999999999999811e-02 4.622939999999999827e-01 3.464929999999999666e+01 1.125090000000000003e+02 1.473690000000000055e+03
7.699999999999999900e-02 4.627320000000000322e-01 3.507970000000000255e+01 1.146620000000000061e+02 1.474429999999999836e+03
7.799999999999999989e-02 4.631669999999999954e-01 3.547885000000000133e+01 1.168044999999999902e+02 1.475164999999999964e+03
7.900000000000000078e-02 4.635949999999999793e-01 3.584009999999999962e+01 1.189155000000000086e+02 1.475894999999999982e+03
8.000000000000000167e-02 4.640115000000000212e-01 3.615574999999999761e+01 1.209729999999999990e+02 1.476610000000000127e+03
8.100000000000000255e-02 4.644114999999999771e-01 3.641719999999999402e+01 1.229530000000000030e+02 1.477300000000000182e+03
8.200000000000000344e-02 4.647910000000000097e-01 3.661570000000000391e+01 1.248305000000000007e+02 1.477960000000000036e+03
8.300000000000000433e-02 4.651450000000000307e-01 3.674289999999999878e+01 1.265809999999999889e+02 1.478585000000000036e+03
8.400000000000000522e-02 4.654690000000000216e-01 3.679129999999999967e+01 1.281844999999999857e+02 1.479170000000000073e+03
8.500000000000000611e-02 4.657605000000000217e-01 3.675475000000000136e+01 1.296209999999999809e+02 1.479699999999999818e+03
8.600000000000000699e-02 4.660170000000000146e-01 3.662890000000000157e+01 1.308770000000000095e+02 1.480174999999999955e+03
8.700000000000000788e-02 4.662354999999999694e-01 3.641120000000000090e+01 1.319415000000000191e+02 1.480590000000000146e+03
8.800000000000000877e-02 4.664165000000000116e-01 3.610125000000000028e+01 1.328084999999999809e+02 1.480940000000000055e+03
8.899999999999999578e-02 4.665595000000000159e-01 3.570080000000000098e+01 1.334800000000000182e+02 1.481234999999999900e+03
8.999999999999999667e-02 4.666654999999999553e-01 3.521374999999999744e+01 1.339579999999999984e+02 1.481460000000000036e+03
9.099999999999999756e-02 4.667369999999999575e-01 3.464589999999999748e+01 1.342524999999999977e+02 1.481625000000000000e+03
9.199999999999999845e-02 4.667749999999999400e-01 3.400495000000000090e+01 1.343770000000000095e+02 1.481735000000000127e+03
9.299999999999999933e-02 4.667844999999999911e-01 3.329999999999999716e+01 1.343464999999999918e+02 1.481789999999999964e+03
9.400000000000000022e-02 4.667675000000000018e-01 3.254135000000000133e+01 1.341800000000000068e+02 1.481799999999999955e+03
9.500000000000000111e-02 4.667289999999999495e-01 3.174029999999999774e+01 1.338999999999999773e+02 1.481759999999999991e+03
9.600000000000000200e-02 4.666730000000000045e-01 3.090859999999999985e+01 1.335269999999999868e+02 1.481690000000000055e+03
9.700000000000000289e-02 4.666035000000000044e-01 3.005805000000000149e+01 1.330844999999999914e+02 1.481585000000000036e+03
9.800000000000000377e-02 4.665245000000000086e-01 2.920019999999999882e+01 1.325935000000000059e+02 1.481465000000000146e+03
9.900000000000000466e-02 4.664404999999999801e-01 2.834595000000000198e+01 1.320765000000000100e+02 1.481325000000000045e+03
1.000000000000000056e-01 4.663545000000000051e-01 2.750524999999999665e+01 1.315519999999999925e+02 1.481175000000000182e+03
1.010000000000000064e-01 4.662700000000000178e-01 2.668659999999999854e+01 1.310369999999999777e+02 1.481019999999999982e+03
1.020000000000000073e-01 4.661885000000000057e-01 2.589699999999999847e+01 1.305455000000000041e+02 1.480869999999999891e+03
1.030000000000000082e-01 4.661129999999999995e-01 2.514175000000000182e+01 1.300875000000000057e+02 1.480720000000000027e+03
1.040000000000000091e-01 4.660440000000000138e-01 2.442405000000000115e+01 1.296705000000000041e+02 1.480585000000000036e+03
1.050000000000000100e-01 4.659820000000000073e-01 2.374540000000000006e+01 1.292984999999999900e+02 1.480454999999999927e+03
1.059999999999999970e-01 4.659280000000000088e-01 2.310535000000000139e+01 1.289710000000000036e+02 1.480340000000000146e+03
1.069999999999999979e-01 4.658799999999999608e-01 2.250159999999999982e+01 1.286854999999999905e+02 1.480235000000000127e+03
1.079999999999999988e-01 4.658375000000000155e-01 2.193050000000000210e+01 1.284364999999999952e+02 1.480139999999999873e+03
1.089999999999999997e-01 4.657990000000000186e-01 2.138700000000000045e+01 1.282150000000000034e+02 1.480055000000000064e+03
1.100000000000000006e-01 4.657614999999999394e-01 2.086514999999999986e+01 1.280109999999999957e+02 1.479970000000000027e+03
1.110000000000000014e-01 4.657240000000000268e-01 2.035829999999999984e+01 1.278139999999999930e+02 1.479894999999999982e+03
1.120000000000000023e-01 4.656845000000000012e-01 1.985944999999999894e+01 1.276109999999999900e+02 1.479815000000000055e+03
1.130000000000000032e-01 4.656400000000000539e-01 1.936179999999999879e+01 1.273909999999999911e+02 1.479735000000000127e+03
1.140000000000000041e-01 4.655884999999999607e-01 1.885875000000000057e+01 1.271424999999999983e+02 1.479644999999999982e+03
1.150000000000000050e-01 4.655289999999999706e-01 1.834434999999999860e+01 1.268555000000000064e+02 1.479550000000000182e+03
1.160000000000000059e-01 4.654595000000000260e-01 1.781369999999999720e+01 1.265220000000000056e+02 1.479440000000000055e+03
1.170000000000000068e-01 4.653800000000000159e-01 1.726279999999999859e+01 1.261355000000000075e+02 1.479315000000000055e+03
1.180000000000000077e-01 4.652884999999999938e-01 1.668900000000000006e+01 1.256924999999999955e+02 1.479175000000000182e+03
1.190000000000000085e-01 4.651859999999999884e-01 1.609100000000000108e+01 1.251910000000000025e+02 1.479014999999999873e+03
1.200000000000000094e-01 4.650719999999999854e-01 1.546884999999999977e+01 1.246329999999999956e+02 1.478845000000000027e+03
1.209999999999999964e-01 4.649484999999999868e-01 1.482410000000000139e+01 1.240204999999999984e+02 1.478650000000000091e+03
1.219999999999999973e-01 4.648164999999999658e-01 1.415948500000000010e+01 1.233605000000000018e+02 1.478445000000000164e+03
1.229999999999999982e-01 4.646770000000000067e-01 1.347906000000000049e+01 1.226599999999999966e+02 1.478230000000000018e+03
1.239999999999999991e-01 4.645325000000000149e-01 1.278780500000000053e+01 1.219304999999999950e+02 1.477994999999999891e+03
1.250000000000000000e-01 4.643845000000000334e-01 1.209161500000000089e+01 1.211804999999999950e+02 1.477755000000000109e+03
1.260000000000000009e-01 4.642364999999999964e-01 1.139716500000000110e+01 1.204240000000000066e+02 1.477514999999999873e+03
1.270000000000000018e-01 4.640904999999999614e-01 1.071132000000000062e+01 1.196734999999999900e+02 1.477269999999999982e+03
1.280000000000000027e-01 4.639484999999999859e-01 1.004125499999999960e+01 1.189405000000000001e+02 1.477029999999999973e+03
1.290000000000000036e-01 4.638134999999999897e-01 9.393895000000000550e+00 1.182385000000000019e+02 1.476795000000000073e+03
1.300000000000000044e-01 4.636865000000000014e-01 8.775854999999999961e+00 1.175784999999999911e+02 1.476575000000000045e+03
1.310000000000000053e-01 4.635710000000000108e-01 8.193245000000000999e+00 1.169710000000000036e+02 1.476364999999999782e+03
1.320000000000000062e-01 4.634675000000000322e-01 7.651220000000000354e+00 1.164244999999999948e+02 1.476174999999999955e+03
1.330000000000000071e-01 4.633774999999999977e-01 7.154059999999999420e+00 1.159455000000000098e+02 1.476000000000000000e+03
1.340000000000000080e-01 4.633009999999999629e-01 6.704890000000000683e+00 1.155395000000000039e+02 1.475849999999999909e+03
1.350000000000000089e-01 4.632399999999999851e-01 6.305670000000000996e+00 1.152085000000000008e+02 1.475720000000000027e+03
1.360000000000000098e-01 4.631929999999999659e-01 5.957144999999999690e+00 1.149530000000000030e+02 1.475615000000000009e+03
1.370000000000000107e-01 4.631595000000000018e-01 5.658850000000000158e+00 1.147715000000000032e+02 1.475529999999999973e+03
1.380000000000000115e-01 4.631399999999999961e-01 5.409184999999999910e+00 1.146595000000000084e+02 1.475469999999999800e+03
1.390000000000000124e-01 4.631324999999999470e-01 5.205539999999999168e+00 1.146125000000000114e+02 1.475430000000000064e+03
1.400000000000000133e-01 4.631350000000000189e-01 5.044399999999999551e+00 1.146225000000000023e+02 1.475404999999999973e+03
1.410000000000000142e-01 4.631469999999999754e-01 4.921520000000000117e+00 1.146820000000000022e+02 1.475405000000000200e+03
1.420000000000000151e-01 4.631660000000000221e-01 4.832100000000000506e+00 1.147810000000000059e+02 1.475414999999999964e+03
1.430000000000000160e-01 4.631905000000000050e-01 4.770989999999999398e+00 1.149114999999999895e+02 1.475440000000000055e+03
1.440000000000000169e-01 4.632179999999999631e-01 4.732850000000000001e+00 1.150625000000000000e+02 1.475470000000000027e+03
1.450000000000000178e-01 4.632479999999999931e-01 4.712310000000000443e+00 1.152254999999999967e+02 1.475505000000000109e+03
1.459999999999999909e-01 4.632780000000000231e-01 4.704174999999999329e+00 1.153910000000000053e+02 1.475550000000000182e+03
1.469999999999999918e-01 4.633064999999999545e-01 4.703535000000000466e+00 1.155525000000000091e+02 1.475590000000000146e+03
1.479999999999999927e-01 4.633329999999999949e-01 4.705869999999999997e+00 1.157009999999999934e+02 1.475630000000000109e+03
1.489999999999999936e-01 4.633555000000000312e-01 4.707184999999999953e+00 1.158309999999999889e+02 1.475664999999999964e+03
1.499999999999999944e-01 4.633734999999999937e-01 4.704050000000000509e+00 1.159385000000000048e+02 1.475699999999999818e+03
1.509999999999999953e-01 4.633859999999999646e-01 4.693659999999999499e+00 1.160190000000000055e+02 1.475724999999999909e+03
1.519999999999999962e-01 4.633939999999999726e-01 4.673845000000000027e+00 1.160709999999999980e+02 1.475744999999999891e+03
1.529999999999999971e-01 4.633960000000000301e-01 4.643089999999999939e+00 1.160925000000000011e+02 1.475755000000000109e+03
1.539999999999999980e-01 4.633920000000000261e-01 4.600524999999999309e+00 1.160840000000000032e+02 1.475755000000000109e+03
1.549999999999999989e-01 4.633835000000000037e-01 4.545860000000000234e+00 1.160469999999999970e+02 1.475744999999999891e+03
1.559999999999999998e-01 4.633694999999999897e-01 4.479364999999999597e+00 1.159825000000000017e+02 1.475735000000000127e+03
1.570000000000000007e-01 4.633510000000000129e-01 4.401810000000000223e+00 1.158924999999999983e+02 1.475710000000000036e+03
1.580000000000000016e-01 4.633289999999999909e-01 4.314354999999999940e+00 1.157814999999999941e+02 1.475679999999999836e+03
1.590000000000000024e-01 4.633039999999999936e-01 4.218539999999999957e+00 1.156520000000000010e+02 1.475644999999999982e+03
