# t [s], A [cm^2], U [cm/s], P [cPa], c [cm/s]
1.000000000000000021e-03 1.820189999999999864e-01 2.143390000000000017e-01 8.835949999999999704e+01 2.136114999999999782e+03
2.000000000000000042e-03 1.819804999999999895e-01 1.485334500000000002e+00 8.554370000000000118e+01 2.135760000000000218e+03
3.000000000000000062e-03 1.818700000000000039e-01 3.089520000000000266e+00 8.155819999999999936e+01 2.134800000000000182e+03
4.000000000000000083e-03 1.817165000000000030e-01 4.910037199999999658e+00 7.710360000000000014e+01 2.133484999999999673e+03
5.000000000000000104e-03 1.815495000000000025e-01 6.890015000000000001e+00 7.301894999999998959e+01 2.132065000000000055e+03
6.000000000000000125e-03 1.813889999999999947e-01 8.880894999999998873e+00 6.965194999999999936e+01 2.130715000000000146e+03
7.000000000000000146e-03 1.812389999999999834e-01 1.067357499999999959e+01 6.680449999999999022e+01 2.129480000000000018e+03
8.000000000000000167e-03 1.811004999999999976e-01 1.217090999999999923e+01 6.423239999999999839e+01 2.128354999999999563e+03
9.000000000000001055e-03 1.809784999999999866e-01 1.340432999999999986e+01 6.197775000000000034e+01 2.127390000000000327e+03
1.000000000000000194e-02 1.808754999999999946e-01 1.441155000000000008e+01 6.013595000000000113e+01 2.126579999999999927e+03
1.099999999999999936e-02 1.807924999999999949e-01 1.520915000000000106e+01 5.870289999999999964e+01 2.125925000000000182e+03
1.200000000000000025e-02 1.807269999999999988e-01 1.580904999999999916e+01 5.762174999999999869e+01 2.125425000000000182e+03
1.300000000000000114e-02 1.806750000000000023e-01 1.621035000000000181e+01 5.678560000000000230e+01 2.125039999999999964e+03
1.400000000000000203e-02 1.806335000000000024e-01 1.641590000000000060e+01 5.605975000000000108e+01 2.124734999999999673e+03
1.499999999999999944e-02 1.805984999999999951e-01 1.648199999999999932e+01 5.542104999999999393e+01 2.124485000000000127e+03
1.600000000000000033e-02 1.805754999999999999e-01 1.653844999999999743e+01 5.507729999999999393e+01 2.124324999999999818e+03
1.700000000000000122e-02 1.805724999999999969e-01 1.673965000000000103e+01 5.539685000000000059e+01 2.124309999999999945e+03
1.800000000000000211e-02 1.805984999999999951e-01 1.718175000000000097e+01 5.667794999999999561e+01 2.124525000000000091e+03
1.900000000000000300e-02 1.806559999999999833e-01 1.784815000000000040e+01 5.893115000000000236e+01 2.124975000000000364e+03
2.000000000000000042e-02 1.807384999999999964e-01 1.861455000000000126e+01 6.181815000000000282e+01 2.125625000000000000e+03
2.100000000000000130e-02 1.808319999999999927e-01 1.930294999999999916e+01 6.476675000000000182e+01 2.126375000000000000e+03
2.200000000000000219e-02 1.809195000000000109e-01 1.975225000000000009e+01 6.718404999999999916e+01 2.127085000000000036e+03
2.299999999999999961e-02 1.809880000000000100e-01 1.987315000000000254e+01 6.866030000000000655e+01 2.127649999999999636e+03
2.400000000000000050e-02 1.810279999999999945e-01 1.966834999999999667e+01 6.908299999999999841e+01 2.128005000000000109e+03
2.500000000000000139e-02 1.810404999999999931e-01 1.921679999999999922e+01 6.862969999999999970e+01 2.128130000000000109e+03
2.600000000000000228e-02 1.810324999999999851e-01 1.863269999999999982e+01 6.765985000000000582e+01 2.128085000000000036e+03
2.700000000000000316e-02 1.810124999999999929e-01 1.801984999999999815e+01 6.655975000000000819e+01 2.127940000000000055e+03
2.800000000000000058e-02 1.809890000000000110e-01 1.743714999999999904e+01 6.560585000000000377e+01 2.127755000000000109e+03
2.900000000000000147e-02 1.809679999999999900e-01 1.688790000000000191e+01 6.489175000000000182e+01 2.127585000000000036e+03
3.000000000000000236e-02 1.809489999999999987e-01 1.633074999999999832e+01 6.433369999999999322e+01 2.127430000000000291e+03
3.099999999999999978e-02 1.809284999999999921e-01 1.570550000000000068e+01 6.373924999999999841e+01 2.127269999999999982e+03
3.200000000000000067e-02 1.809029999999999805e-01 1.496424999999999983e+01 6.290709999999999980e+01 2.127065000000000055e+03
3.300000000000000155e-02 1.808675000000000144e-01 1.409609999999999985e+01 6.172270000000000323e+01 2.126789999999999964e+03
3.400000000000000244e-02 1.808214999999999961e-01 1.313925000000000054e+01 6.021875000000000000e+01 2.126434999999999945e+03
3.500000000000000333e-02 1.807694999999999996e-01 1.217605000000000004e+01 5.858245000000000147e+01 2.126019999999999982e+03
3.600000000000000422e-02 1.807175000000000031e-01 1.131230000000000047e+01 5.710795000000000243e+01 2.125610000000000127e+03
3.700000000000000511e-02 1.806760000000000033e-01 1.064928499999999900e+01 5.611175000000000068e+01 2.125274999999999636e+03
3.799999999999999906e-02 1.806524999999999936e-01 1.025675999999999988e+01 5.584040000000000248e+01 2.125070000000000164e+03
3.899999999999999994e-02 1.806524999999999936e-01 1.015515500000000060e+01 5.640019999999999811e+01 2.125050000000000182e+03
4.000000000000000083e-02 1.806765000000000176e-01 1.031184999999999974e+01 5.772790000000000532e+01 2.125225000000000364e+03
4.100000000000000172e-02 1.807225000000000081e-01 1.065005999999999986e+01 5.960710000000000264e+01 2.125570000000000164e+03
4.200000000000000261e-02 1.807819999999999983e-01 1.106634999999999991e+01 6.171904999999999575e+01 2.126029999999999745e+03
4.300000000000000350e-02 1.808454999999999924e-01 1.145145000000000124e+01 6.371085000000000065e+01 2.126529999999999745e+03
4.400000000000000439e-02 1.809024999999999939e-01 1.170860000000000056e+01 6.526210000000000377e+01 2.126989999999999782e+03
4.499999999999999833e-02 1.809450000000000225e-01 1.176684999999999981e+01 6.613585000000000491e+01 2.127335000000000036e+03
4.599999999999999922e-02 1.809659999999999880e-01 1.158654999999999902e+01 6.620504999999999995e+01 2.127510000000000218e+03
4.700000000000000011e-02 1.809620000000000117e-01 1.115875000000000128e+01 6.545335000000000036e+01 2.127500000000000000e+03
4.800000000000000100e-02 1.809334999999999971e-01 1.049908500000000089e+01 6.395574999999999477e+01 2.127279999999999745e+03
4.900000000000000189e-02 1.808819999999999872e-01 9.639144999999999186e+00 6.184680000000000177e+01 2.126880000000000109e+03
5.000000000000000278e-02 1.808104999999999851e-01 8.618154999999999788e+00 5.928714999999999691e+01 2.126320000000000164e+03
5.100000000000000366e-02 1.807245000000000101e-01 7.476789999999999381e+00 5.643479999999999563e+01 2.125640000000000327e+03
5.200000000000000455e-02 1.806285000000000251e-01 6.253359999999999808e+00 5.342834999999999468e+01 2.124875000000000000e+03
5.300000000000000544e-02 1.805255000000000054e-01 4.983304999999999652e+00 5.038060000000000116e+01 2.124059999999999945e+03
5.399999999999999939e-02 1.804205000000000114e-01 3.700391999999999904e+00 4.738250000000000028e+01 2.123225000000000364e+03
5.500000000000000028e-02 1.803160000000000041e-01 2.438862499999999933e+00 4.451184999999999548e+01 2.122390000000000327e+03
5.600000000000000117e-02 1.802155000000000007e-01 1.235305000000000097e+00 4.184350000000000591e+01 2.121579999999999927e+03
5.700000000000000205e-02 1.801210000000000033e-01 1.296049999999999702e-01 3.945704999999999529e+01 2.120824999999999818e+03
5.800000000000000294e-02 1.800370000000000026e-01 -8.355550000000000477e-01 3.744010000000000105e+01 2.120144999999999982e+03
5.900000000000000383e-02 1.799665000000000015e-01 -1.616512500000000019e+00 3.588635000000000019e+01 2.119565000000000055e+03
6.000000000000000472e-02 1.799119999999999886e-01 -2.171425499999999786e+00 3.488944999999999652e+01 2.119119999999999891e+03
6.099999999999999867e-02 1.798774999999999957e-01 -2.463560000000000194e+00 3.453435000000000343e+01 2.118829999999999927e+03
6.199999999999999956e-02 1.798655000000000115e-01 -2.464419999999999611e+00 3.488785000000000025e+01 2.118715000000000146e+03
6.300000000000000044e-02 1.798784999999999967e-01 -2.156219999999999803e+00 3.599070000000000391e+01 2.118795000000000073e+03
6.400000000000000133e-02 1.799175000000000080e-01 -1.533425999999999956e+00 3.785249999999999915e+01 2.119085000000000036e+03
6.500000000000000222e-02 1.799824999999999897e-01 -6.031650000000000622e-01 4.044969999999999999e+01 2.119579999999999927e+03
6.600000000000000311e-02 1.800720000000000098e-01 6.154100000000000126e-01 4.372724999999999795e+01 2.120274999999999636e+03
6.700000000000000400e-02 1.801864999999999994e-01 2.092554999999999943e+00 4.760285000000000366e+01 2.121159999999999854e+03
6.800000000000000488e-02 1.803210000000000091e-01 3.790060449999999914e+00 5.197344999999999970e+01 2.122220000000000255e+03
6.900000000000000577e-02 1.804725000000000079e-01 5.663719999999999644e+00 5.672279999999999234e+01 2.123420000000000073e+03
7.000000000000000666e-02 1.806379999999999930e-01 7.666049999999999365e+00 6.172929999999999495e+01 2.124730000000000018e+03
7.100000000000000755e-02 1.808124999999999871e-01 9.749095000000000510e+00 6.687420000000000186e+01 2.126125000000000000e+03
7.200000000000000844e-02 1.809935000000000016e-01 1.186685000000000123e+01 7.204840000000000089e+01 2.127574999999999818e+03
7.300000000000000933e-02 1.811760000000000037e-01 1.397779999999999845e+01 7.715874999999999773e+01 2.129039999999999964e+03
7.399999999999999634e-02 1.813580000000000192e-01 1.604650000000000176e+01 8.213249999999999318e+01 2.130505000000000109e+03
7.499999999999999722e-02 1.815360000000000029e-01 1.804514999999999958e+01 8.691974999999999341e+01 2.131949999999999818e+03
7.599999999999999811e-02 1.817090000000000094e-01 1.995384999999999920e+01 9.149394999999999811e+01 2.133350000000000364e+03
7.699999999999999900e-02 1.818759999999999821e-01 2.176040000000000063e+01 9.585034999999999172e+01 2.134715000000000146e+03
7.799999999999999989e-02 1.820364999999999900e-01 2.345984999999999943e+01 1.000023999999999944e+02 2.136029999999999745e+03
7.900000000000000078e-02 1.821909999999999918e-01 2.505290000000000106e+01 1.039755499999999984e+02 2.137295000000000073e+03
8.000000000000000167e-02 1.823410000000000031e-01 2.654415000000000191e+01 1.078050000000000068e+02 2.138515000000000327e+03
8.100000000000000255e-02 1.824850000000000083e-01 2.794084999999999752e+01 1.115250000000000057e+02 2.139704999999999927e+03
8.200000000000000344e-02 1.826264999999999972e-01 2.925120000000000076e+01 1.151694999999999993e+02 2.140869999999999891e+03
8.300000000000000433e-02 1.827654999999999974e-01 3.048270000000000124e+01 1.187640000000000100e+02 2.142010000000000218e+03
8.400000000000000522e-02 1.829024999999999956e-01 3.164175000000000182e+01 1.223249999999999886e+02 2.143140000000000327e+03
8.500000000000000611e-02 1.830380000000000063e-01 3.273245000000000005e+01 1.258600000000000136e+02 2.144260000000000218e+03
8.600000000000000699e-02 1.831720000000000015e-01 3.375675000000000381e+01 1.293654999999999973e+02 2.145364999999999782e+03
8.700000000000000788e-02 1.833049999999999957e-01 3.471424999999999983e+01 1.328284999999999911e+02 2.146460000000000036e+03
8.800000000000000877e-02 1.834359999999999880e-01 3.560224999999999795e+01 1.362295000000000016e+02 2.147539999999999964e+03
8.899999999999999578e-02 1.835644999999999916e-01 3.641620000000000346e+01 1.395430000000000064e+02 2.148599999999999909e+03
8.999999999999999667e-02 1.836889999999999912e-01 3.714999999999999858e+01 1.427394999999999925e+02 2.149635000000000218e+03
9.099999999999999756e-02 1.838090000000000002e-01 3.779659999999999798e+01 1.457880000000000109e+02 2.150630000000000109e+03
9.199999999999999845e-02 1.839244999999999908e-01 3.834794999999999732e+01 1.486574999999999989e+02 2.151579999999999927e+03
9.299999999999999933e-02 1.840320000000000011e-01 3.879609999999999559e+01 1.513165000000000191e+02 2.152480000000000018e+03
9.400000000000000022e-02 1.841329999999999911e-01 3.913315000000000055e+01 1.537370000000000232e+02 2.153315000000000055e+03
9.500000000000000111e-02 1.842249999999999999e-01 3.935200000000000387e+01 1.558935000000000173e+02 2.154090000000000146e+03
9.600000000000000200e-02 1.843069999999999986e-01 3.944689999999999941e+01 1.577659999999999911e+02 2.154774999999999636e+03
9.700000000000000289e-02 1.843790000000000151e-01 3.941365000000000407e+01 1.593380000000000223e+02 2.155380000000000109e+03
9.800000000000000377e-02 1.844405000000000072e-01 3.925050000000000239e+01 1.606014999999999873e+02 2.155894999999999982e+03
9.900000000000000466e-02 1.844910000000000161e-01 3.895810000000000173e+01 1.615545000000000186e+02 2.156329999999999927e+03
1.000000000000000056e-01 1.845304999999999862e-01 3.854009999999999536e+01 1.622030000000000030e+02 2.156664999999999964e+03
1.010000000000000064e-01 1.845585000000000142e-01 3.800294999999999845e+01 1.625609999999999786e+02 2.156909999999999854e+03
1.020000000000000073e-01 1.845769999999999911e-01 3.735604999999999620e+01 1.626490000000000009e+02 2.157069999999999709e+03
1.030000000000000082e-01 1.845855000000000135e-01 3.661124999999999829e+01 1.624950000000000045e+02 2.157150000000000091e+03
1.040000000000000091e-01 1.845849999999999991e-01 3.578260000000000218e+01 1.621324999999999932e+02 2.157159999999999854e+03
1.050000000000000100e-01 1.845769999999999911e-01 3.488550000000000040e+01 1.615960000000000036e+02 2.157105000000000018e+03
1.059999999999999970e-01 1.845624999999999905e-01 3.393639999999999901e+01 1.609250000000000114e+02 2.156989999999999782e+03
1.069999999999999979e-01 1.845430000000000126e-01 3.295194999999999652e+01 1.601569999999999823e+02 2.156835000000000036e+03
1.079999999999999988e-01 1.845200000000000173e-01 3.194825000000000159e+01 1.593269999999999982e+02 2.156649999999999636e+03
1.089999999999999997e-01 1.844939999999999913e-01 3.094040000000000035e+01 1.584689999999999941e+02 2.156439999999999600e+03
1.100000000000000006e-01 1.844665000000000055e-01 2.994204999999999828e+01 1.576115000000000066e+02 2.156215000000000146e+03
1.110000000000000014e-01 1.844385000000000052e-01 2.896470000000000056e+01 1.567764999999999986e+02 2.155984999999999673e+03
1.120000000000000023e-01 1.844104999999999772e-01 2.801760000000000161e+01 1.559814999999999827e+02 2.155755000000000109e+03
1.130000000000000032e-01 1.843839999999999923e-01 2.710764999999999958e+01 1.552369999999999948e+02 2.155534999999999854e+03
1.140000000000000041e-01 1.843579999999999941e-01 2.623879999999999768e+01 1.545475000000000136e+02 2.155319999999999709e+03
1.150000000000000050e-01 1.843339999999999979e-01 2.541270000000000095e+01 1.539120000000000061e+02 2.155114999999999782e+03
1.160000000000000059e-01 1.843114999999999892e-01 2.462839999999999918e+01 1.533229999999999791e+02 2.154925000000000182e+03
1.170000000000000068e-01 1.842900000000000094e-01 2.388275000000000148e+01 1.527690000000000055e+02 2.154739999999999782e+03
1.180000000000000077e-01 1.842690000000000161e-01 2.317045000000000243e+01 1.522334999999999923e+02 2.154569999999999709e+03
1.190000000000000085e-01 1.842484999999999817e-01 2.248494999999999777e+01 1.516980000000000075e+02 2.154394999999999982e+03
1.200000000000000094e-01 1.842280000000000029e-01 2.181850000000000023e+01 1.511419999999999959e+02 2.154220000000000255e+03
1.209999999999999964e-01 1.842064999999999952e-01 2.116250000000000142e+01 1.505444999999999993e+02 2.154039999999999964e+03
1.219999999999999973e-01 1.841829999999999856e-01 2.050874999999999915e+01 1.498855000000000075e+02 2.153850000000000364e+03
1.229999999999999982e-01 1.841575000000000017e-01 1.984895000000000209e+01 1.491460000000000150e+02 2.153635000000000218e+03
1.239999999999999991e-01 1.841289999999999871e-01 1.917609999999999815e+01 1.483109999999999786e+02 2.153399999999999636e+03
1.250000000000000000e-01 1.840974999999999973e-01 1.848409999999999798e+01 1.473689999999999998e+02 2.153139999999999873e+03
1.260000000000000009e-01 1.840620000000000034e-01 1.776900000000000190e+01 1.463125000000000000e+02 2.152849999999999909e+03
1.270000000000000018e-01 1.840229999999999921e-01 1.702830000000000155e+01 1.451405000000000030e+02 2.152525000000000091e+03
1.280000000000000027e-01 1.839795000000000180e-01 1.626184999999999903e+01 1.438569999999999993e+02 2.152175000000000182e+03
1.290000000000000036e-01 1.839324999999999988e-01 1.547180000000000000e+01 1.424705000000000155e+02 2.151789999999999964e+03
1.300000000000000044e-01 1.838819999999999899e-01 1.466200000000000081e+01 1.409959999999999809e+02 2.151369999999999891e+03
1.310000000000000053e-01 1.838279999999999914e-01 1.383855000000000146e+01 1.394519999999999982e+02 2.150930000000000291e+03
1.320000000000000062e-01 1.837725000000000053e-01 1.300905000000000022e+01 1.378609999999999900e+02 2.150474999999999909e+03
1.330000000000000071e-01 1.837150000000000172e-01 1.218244999999999933e+01 1.362479999999999905e+02 2.150000000000000000e+03
1.340000000000000080e-01 1.836565000000000003e-01 1.136841000000000079e+01 1.346410000000000196e+02 2.149525000000000091e+03
1.350000000000000089e-01 1.835984999999999978e-01 1.057695499999999988e+01 1.330649999999999977e+02 2.149045000000000073e+03
1.360000000000000098e-01 1.835414999999999963e-01 9.817949999999999733e+00 1.315455000000000041e+02 2.148579999999999927e+03
1.370000000000000107e-01 1.834864999999999968e-01 9.100600000000000023e+00 1.301064999999999827e+02 2.148119999999999891e+03
1.380000000000000115e-01 1.834334999999999993e-01 8.432990000000000208e+00 1.287674999999999841e+02 2.147684999999999945e+03
1.390000000000000124e-01 1.833850000000000202e-01 7.821864999999998957e+00 1.275434999999999945e+02 2.147279999999999745e+03
1.400000000000000133e-01 1.833394999999999886e-01 7.272334999999999994e+00 1.264455000000000098e+02 2.146909999999999854e+03
1.410000000000000142e-01 1.832984999999999753e-01 6.787679999999999936e+00 1.254805000000000064e+02 2.146570000000000164e+03
1.420000000000000151e-01 1.832624999999999948e-01 6.369329999999999714e+00 1.246494999999999891e+02 2.146265000000000327e+03
1.430000000000000160e-01 1.832304999999999906e-01 6.016925000000000523e+00 1.239495000000000005e+02 2.145994999999999891e+03
1.440000000000000169e-01 1.832030000000000047e-01 5.728424999999999656e+00 1.233739999999999952e+02 2.145765000000000327e+03
1.450000000000000178e-01 1.831800000000000095e-01 5.500284999999999869e+00 1.229134999999999991e+02 2.145574999999999818e+03
1.459999999999999909e-01 1.831615000000000049e-01 5.327684999999999782e+00 1.225540000000000020e+02 2.145414999999999964e+03
1.469999999999999918e-01 1.831454999999999889e-01 5.204765000000000086e+00 1.222820000000000107e+02 2.145279999999999745e+03
1.479999999999999927e-01 1.831329999999999902e-01 5.124925000000000175e+00 1.220809999999999889e+02 2.145170000000000073e+03
1.489999999999999936e-01 1.831240000000000090e-01 5.081039999999999779e+00 1.219354999999999905e+02 2.145085000000000036e+03
1.499999999999999944e-01 1.831160000000000010e-01 5.065754999999999342e+00 1.218284999999999911e+02 2.145019999999999982e+03
1.509999999999999953e-01 1.831099999999999950e-01 5.071704999999999686e+00 1.217454999999999927e+02 2.144965000000000146e+03
1.519999999999999962e-01 1.831045000000000034e-01 5.091744999999999521e+00 1.216709999999999923e+02 2.144920000000000073e+03
1.529999999999999971e-01 1.830999999999999850e-01 5.119189999999999685e+00 1.215919999999999987e+02 2.144875000000000000e+03
1.539999999999999980e-01 1.830950000000000077e-01 5.147920000000000051e+00 1.214975000000000023e+02 2.144840000000000146e+03
1.549999999999999989e-01 1.830900000000000027e-01 5.172604999999999897e+00 1.213770000000000095e+02 2.144795000000000073e+03
1.559999999999999998e-01 1.830844999999999834e-01 5.188774999999999693e+00 1.212239999999999895e+02 2.144750000000000000e+03
1.570000000000000007e-01 1.830779999999999907e-01 5.192944999999999922e+00 1.210330000000000013e+02 2.144694999999999709e+03
1.580000000000000016e-01 1.830694999999999961e-01 5.182615000000000194e+00 1.208010000000000019e+02 2.144630000000000109e+03
1.590000000000000024e-01 1.830610000000000015e-01 5.156329999999999636e+00 1.205279999999999916e+02 2.144550000000000182e+03
