# t [s], A [cm^2], U [cm/s], P [cPa], c [cm/s]
1.000000000000000021e-03 1.316080000000000028e-01 3.725875000000000159e-01 9.547249999999999659e+01 2.011380000000000109e+03
2.000000000000000042e-03 1.315739999999999965e-01 1.954832999999999821e+00 9.208334999999999582e+01 2.010960000000000036e+03
3.000000000000000062e-03 1.314774999999999971e-01 3.875005500000000325e+00 8.753440000000000509e+01 2.009824999999999818e+03
4.000000000000000083e-03 1.313445000000000029e-01 6.017068499999999709e+00 8.269554999999999723e+01 2.008289999999999964e+03
5.000000000000000104e-03 1.312004999999999977e-01 8.307529999999999859e+00 7.843200000000000216e+01 2.006644999999999982e+03
6.000000000000000125e-03 1.310609999999999831e-01 1.056704500000000024e+01 7.497894999999999754e+01 2.005065000000000055e+03
7.000000000000000146e-03 1.309295000000000042e-01 1.258662500000000151e+01 7.204829999999999757e+01 2.003605000000000018e+03
8.000000000000000167e-03 1.308084999999999942e-01 1.429339999999999833e+01 6.939979999999999905e+01 2.002279999999999973e+03
9.000000000000001055e-03 1.307010000000000116e-01 1.573039999999999949e+01 6.708745000000000402e+01 2.001119999999999891e+03
1.000000000000000194e-02 1.306090000000000029e-01 1.693265000000000242e+01 6.518469999999999231e+01 2.000139999999999873e+03
1.099999999999999936e-02 1.305330000000000101e-01 1.791349999999999909e+01 6.366129999999999711e+01 1.999329999999999927e+03
1.200000000000000025e-02 1.304704999999999893e-01 1.868690000000000140e+01 6.245560000000000400e+01 1.998684999999999945e+03
1.300000000000000114e-02 1.304200000000000081e-01 1.925905000000000200e+01 6.148130000000000450e+01 1.998170000000000073e+03
1.400000000000000203e-02 1.303785000000000083e-01 1.963909999999999911e+01 6.063280000000000314e+01 1.997750000000000000e+03
1.499999999999999944e-02 1.303440000000000154e-01 1.988250000000000028e+01 5.989920000000000044e+01 1.997405000000000200e+03
1.600000000000000033e-02 1.303185000000000038e-01 2.011124999999999829e+01 5.947214999999999918e+01 1.997159999999999854e+03
1.700000000000000122e-02 1.303084999999999938e-01 2.047145000000000081e+01 5.968850000000000477e+01 1.997065000000000055e+03
1.800000000000000211e-02 1.303205000000000058e-01 2.105655000000000143e+01 6.082410000000000139e+01 1.997199999999999818e+03
1.900000000000000300e-02 1.303564999999999863e-01 2.185304999999999964e+01 6.288915000000000077e+01 1.997595000000000027e+03
2.000000000000000042e-02 1.304135000000000155e-01 2.274110000000000298e+01 6.556334999999999980e+01 1.998200000000000045e+03
2.100000000000000130e-02 1.304804999999999993e-01 2.354305000000000092e+01 6.829505000000000337e+01 1.998924999999999955e+03
2.200000000000000219e-02 1.305459999999999954e-01 2.409149999999999991e+01 7.049944999999999595e+01 1.999634999999999991e+03
2.299999999999999961e-02 1.305965000000000042e-01 2.428600000000000136e+01 7.175700000000000500e+01 2.000204999999999927e+03
2.400000000000000050e-02 1.306255000000000055e-01 2.411860000000000070e+01 7.193504999999998972e+01 2.000545000000000073e+03
2.500000000000000139e-02 1.306329999999999991e-01 2.366465000000000174e+01 7.119534999999999059e+01 2.000650000000000091e+03
2.600000000000000228e-02 1.306209999999999871e-01 2.304465000000000074e+01 6.989895000000001346e+01 2.000550000000000182e+03
2.700000000000000316e-02 1.305989999999999929e-01 2.237800000000000011e+01 6.845664999999999623e+01 2.000320000000000164e+03
2.800000000000000058e-02 1.305724999999999802e-01 2.174519999999999698e+01 6.718764999999999077e+01 2.000049999999999955e+03
2.900000000000000147e-02 1.305485000000000118e-01 2.117110000000000269e+01 6.623560000000000514e+01 1.999789999999999964e+03
3.000000000000000236e-02 1.305280000000000051e-01 2.063049999999999784e+01 6.556014999999999304e+01 1.999565000000000055e+03
3.099999999999999978e-02 1.305100000000000149e-01 2.007029999999999959e+01 6.499325000000000330e+01 1.999365000000000009e+03
3.200000000000000067e-02 1.304909999999999959e-01 1.943829999999999814e+01 6.432949999999999591e+01 1.999170000000000073e+03
3.300000000000000155e-02 1.304675000000000140e-01 1.870870000000000033e+01 6.341825000000000045e+01 1.998920000000000073e+03
3.400000000000000244e-02 1.304385000000000128e-01 1.789714999999999989e+01 6.222860000000000014e+01 1.998619999999999891e+03
3.500000000000000333e-02 1.304044999999999788e-01 1.706200000000000117e+01 6.087109999999999843e+01 1.998255000000000109e+03
3.600000000000000422e-02 1.303684999999999983e-01 1.629100000000000037e+01 5.957049999999999557e+01 1.997875000000000000e+03
3.700000000000000511e-02 1.303364999999999940e-01 1.567854999999999954e+01 5.860229999999999961e+01 1.997529999999999973e+03
3.799999999999999906e-02 1.303150000000000142e-01 1.530034999999999812e+01 5.821175000000000210e+01 1.997289999999999964e+03
3.899999999999999994e-02 1.303079999999999794e-01 1.519309999999999938e+01 5.854264999999999475e+01 1.997200000000000045e+03
4.000000000000000083e-02 1.303189999999999904e-01 1.534520000000000017e+01 5.959529999999999461e+01 1.997295000000000073e+03
4.100000000000000172e-02 1.303459999999999896e-01 1.569844999999999935e+01 6.122259999999999991e+01 1.997569999999999936e+03
4.200000000000000261e-02 1.303864999999999885e-01 1.616065000000000040e+01 6.316129999999999711e+01 1.997990000000000009e+03
4.300000000000000350e-02 1.304325000000000068e-01 1.662294999999999945e+01 6.508669999999999334e+01 1.998469999999999800e+03
4.400000000000000439e-02 1.304774999999999963e-01 1.697885000000000133e+01 6.667425000000000068e+01 1.998950000000000045e+03
4.499999999999999833e-02 1.305139999999999911e-01 1.713989999999999725e+01 6.765334999999998900e+01 1.999349999999999909e+03
4.599999999999999922e-02 1.305350000000000121e-01 1.704544999999999888e+01 6.784470000000000312e+01 1.999585000000000036e+03
4.700000000000000011e-02 1.305375000000000008e-01 1.666690000000000182e+01 6.717470000000000141e+01 1.999625000000000000e+03
4.800000000000000100e-02 1.305189999999999961e-01 1.600544999999999973e+01 6.567005000000000337e+01 1.999434999999999945e+03
4.900000000000000189e-02 1.304794999999999983e-01 1.508624999999999972e+01 6.343625000000000114e+01 1.999025000000000091e+03
5.000000000000000278e-02 1.304214999999999958e-01 1.395084999999999908e+01 6.062884999999999991e+01 1.998409999999999854e+03
5.100000000000000366e-02 1.303479999999999916e-01 1.264931999999999945e+01 5.742390000000000327e+01 1.997634999999999991e+03
5.200000000000000455e-02 1.302629999999999899e-01 1.123471499999999956e+01 5.399495000000000289e+01 1.996730000000000018e+03
5.300000000000000544e-02 1.301704999999999945e-01 9.759149999999999991e+00 5.049849999999999994e+01 1.995744999999999891e+03
5.399999999999999939e-02 1.300749999999999962e-01 8.272479999999999833e+00 4.706864999999999810e+01 1.994724999999999909e+03
5.500000000000000028e-02 1.299794999999999978e-01 6.822569999999999801e+00 4.381924999999999670e+01 1.993694999999999936e+03
5.600000000000000117e-02 1.298874999999999891e-01 5.455745000000000289e+00 4.084955000000000069e+01 1.992704999999999927e+03
5.700000000000000205e-02 1.298015000000000141e-01 4.217831999999999582e+00 3.825045000000000073e+01 1.991789999999999964e+03
5.800000000000000294e-02 1.297254999999999936e-01 3.154065999999999814e+00 3.610965000000000202e+01 1.990960000000000036e+03
5.900000000000000383e-02 1.296615000000000129e-01 2.308218299999999612e+00 3.451225000000000165e+01 1.990259999999999991e+03
6.000000000000000472e-02 1.296120000000000050e-01 1.720813200000000043e+00 3.353889999999999816e+01 1.989720000000000027e+03
6.099999999999999867e-02 1.295800000000000007e-01 1.426703000000000054e+00 3.326019999999999754e+01 1.989359999999999900e+03
6.199999999999999956e-02 1.295669999999999877e-01 1.452550000000000008e+00 3.373045000000000471e+01 1.989204999999999927e+03
6.300000000000000044e-02 1.295749999999999957e-01 1.814580000000000082e+00 3.498094999999999999e+01 1.989269999999999982e+03
6.400000000000000133e-02 1.296045000000000114e-01 2.517044999999999977e+00 3.701519999999999300e+01 1.989559999999999945e+03
6.500000000000000222e-02 1.296565000000000079e-01 3.551675000000000360e+00 3.980675000000000097e+01 1.990090000000000146e+03
6.600000000000000311e-02 1.297294999999999976e-01 4.898125000000000284e+00 4.329964999999999975e+01 1.990849999999999909e+03
6.700000000000000400e-02 1.298225000000000073e-01 6.525349999999999540e+00 4.741240000000000521e+01 1.991825000000000045e+03
6.800000000000000488e-02 1.299335000000000073e-01 8.393594999999999473e+00 5.204335000000000377e+01 1.993000000000000000e+03
6.900000000000000577e-02 1.300600000000000089e-01 1.045687000000000033e+01 5.707765000000000555e+01 1.994344999999999800e+03
7.000000000000000666e-02 1.301990000000000092e-01 1.266555499999999945e+01 6.239439999999999742e+01 1.995824999999999818e+03
7.100000000000000755e-02 1.303469999999999906e-01 1.496889999999999965e+01 6.787380000000000280e+01 1.997410000000000082e+03
7.200000000000000844e-02 1.305014999999999925e-01 1.731749999999999901e+01 7.340350000000000819e+01 1.999070000000000164e+03
7.300000000000000933e-02 1.306589999999999974e-01 1.966570000000000107e+01 7.888364999999998872e+01 2.000769999999999982e+03
7.399999999999999634e-02 1.308169999999999888e-01 2.197310000000000230e+01 8.423170000000000357e+01 2.002480000000000018e+03
7.499999999999999722e-02 1.309730000000000061e-01 2.420645000000000024e+01 8.938485000000000014e+01 2.004170000000000073e+03
7.599999999999999811e-02 1.311244999999999772e-01 2.634060000000000201e+01 9.430234999999998990e+01 2.005825000000000045e+03
7.699999999999999900e-02 1.312714999999999854e-01 2.835924999999999585e+01 9.896655000000001223e+01 2.007429999999999836e+03
7.799999999999999989e-02 1.314124999999999877e-01 3.025459999999999994e+01 1.033804999999999978e+02 2.008980000000000018e+03
7.900000000000000078e-02 1.315475000000000116e-01 3.202709999999999724e+01 1.075653499999999951e+02 2.010469999999999800e+03
8.000000000000000167e-02 1.316769999999999885e-01 3.368394999999999584e+01 1.115589999999999975e+02 2.011894999999999982e+03
8.100000000000000255e-02 1.318020000000000025e-01 3.523785000000000167e+01 1.154074999999999989e+02 2.013275000000000091e+03
8.200000000000000344e-02 1.319230000000000125e-01 3.670475000000000421e+01 1.191630000000000109e+02 2.014615000000000009e+03
8.300000000000000433e-02 1.320415000000000061e-01 3.810224999999999795e+01 1.228760000000000048e+02 2.015929999999999836e+03
8.400000000000000522e-02 1.321585000000000121e-01 3.944754999999999967e+01 1.265914999999999964e+02 2.017224999999999909e+03
8.500000000000000611e-02 1.322754999999999903e-01 4.075570000000000448e+01 1.303449999999999989e+02 2.018519999999999982e+03
8.600000000000000699e-02 1.323934999999999973e-01 4.203840000000000288e+01 1.341594999999999800e+02 2.019824999999999818e+03
8.700000000000000788e-02 1.325120000000000187e-01 4.330310000000000059e+01 1.380430000000000064e+02 2.021139999999999873e+03
8.800000000000000877e-02 1.326324999999999865e-01 4.455245000000000033e+01 1.419914999999999736e+02 2.022474999999999909e+03
8.899999999999999578e-02 1.327540000000000109e-01 4.578430000000000177e+01 1.459850000000000136e+02 2.023824999999999818e+03
8.999999999999999667e-02 1.328759999999999941e-01 4.699174999999999613e+01 1.499920000000000186e+02 2.025184999999999945e+03
9.099999999999999756e-02 1.329985000000000195e-01 4.816434999999999889e+01 1.539724999999999966e+02 2.026545000000000073e+03
9.199999999999999845e-02 1.331195000000000017e-01 4.928804999999999836e+01 1.578799999999999955e+02 2.027894999999999982e+03
9.299999999999999933e-02 1.332385000000000097e-01 5.034694999999999965e+01 1.616624999999999943e+02 2.029220000000000027e+03
9.400000000000000022e-02 1.333540000000000003e-01 5.132389999999999475e+01 1.652694999999999936e+02 2.030505000000000109e+03
9.500000000000000111e-02 1.334644999999999859e-01 5.220159999999999911e+01 1.686519999999999868e+02 2.031744999999999891e+03
9.600000000000000200e-02 1.335685000000000067e-01 5.296365000000000123e+01 1.717640000000000100e+02 2.032914999999999964e+03
9.700000000000000289e-02 1.336649999999999783e-01 5.359550000000000125e+01 1.745679999999999836e+02 2.034000000000000000e+03
9.800000000000000377e-02 1.337530000000000108e-01 5.408485000000000298e+01 1.770329999999999870e+02 2.034990000000000009e+03
9.900000000000000466e-02 1.338314999999999921e-01 5.442284999999999684e+01 1.791365000000000123e+02 2.035875000000000000e+03
1.000000000000000056e-01 1.339000000000000190e-01 5.460405000000000086e+01 1.808675000000000068e+02 2.036650000000000091e+03
1.010000000000000064e-01 1.339580000000000215e-01 5.462725000000000364e+01 1.822235000000000014e+02 2.037315000000000055e+03
1.020000000000000073e-01 1.340045000000000264e-01 5.449484999999999957e+01 1.832135000000000105e+02 2.037855000000000018e+03
1.030000000000000082e-01 1.340415000000000079e-01 5.421370000000000289e+01 1.838550000000000182e+02 2.038275000000000091e+03
1.040000000000000091e-01 1.340679999999999927e-01 5.379410000000000025e+01 1.841734999999999900e+02 2.038589999999999918e+03
1.050000000000000100e-01 1.340854999999999964e-01 5.324960000000000093e+01 1.842035000000000196e+02 2.038795000000000073e+03
1.059999999999999970e-01 1.340934999999999766e-01 5.259664999999999679e+01 1.839830000000000041e+02 2.038900000000000091e+03
1.069999999999999979e-01 1.340950000000000197e-01 5.185340000000000060e+01 1.835545000000000186e+02 2.038920000000000073e+03
1.079999999999999988e-01 1.340890000000000137e-01 5.103929999999999723e+01 1.829625000000000057e+02 2.038869999999999891e+03
1.089999999999999997e-01 1.340784999999999894e-01 5.017425000000000068e+01 1.822514999999999930e+02 2.038759999999999991e+03
1.100000000000000006e-01 1.340635000000000021e-01 4.927750000000000341e+01 1.814635000000000105e+02 2.038599999999999909e+03
1.110000000000000014e-01 1.340454999999999841e-01 4.836744999999999806e+01 1.806374999999999886e+02 2.038404999999999973e+03
1.120000000000000023e-01 1.340260000000000062e-01 4.746039999999999992e+01 1.798075000000000045e+02 2.038184999999999945e+03
1.130000000000000032e-01 1.340054999999999996e-01 4.657039999999999935e+01 1.789995000000000118e+02 2.037960000000000036e+03
1.140000000000000041e-01 1.339845000000000064e-01 4.570879999999999654e+01 1.782364999999999782e+02 2.037730000000000018e+03
1.150000000000000050e-01 1.339639999999999997e-01 4.488384999999999536e+01 1.775310000000000059e+02 2.037500000000000000e+03
1.160000000000000059e-01 1.339445000000000219e-01 4.410070000000000334e+01 1.768894999999999982e+02 2.037279999999999973e+03
1.170000000000000068e-01 1.339269999999999905e-01 4.336124999999999829e+01 1.763114999999999952e+02 2.037075000000000045e+03
1.180000000000000077e-01 1.339100000000000013e-01 4.266445000000000221e+01 1.757899999999999920e+02 2.036884999999999991e+03
1.190000000000000085e-01 1.338944999999999996e-01 4.200655000000000427e+01 1.753120000000000118e+02 2.036704999999999927e+03
1.200000000000000094e-01 1.338794999999999846e-01 4.138145000000000095e+01 1.748605000000000018e+02 2.036534999999999854e+03
1.209999999999999964e-01 1.338650000000000118e-01 4.078099999999999881e+01 1.744134999999999991e+02 2.036375000000000000e+03
1.219999999999999973e-01 1.338509999999999978e-01 4.019594999999999629e+01 1.739480000000000075e+02 2.036210000000000036e+03
1.229999999999999982e-01 1.338360000000000105e-01 3.961605000000000132e+01 1.734404999999999859e+02 2.036039999999999964e+03
1.239999999999999991e-01 1.338195000000000079e-01 3.903095000000000425e+01 1.728665000000000020e+02 2.035860000000000127e+03
1.250000000000000000e-01 1.338019999999999765e-01 3.843075000000000330e+01 1.722044999999999959e+02 2.035654999999999973e+03
1.260000000000000009e-01 1.337814999999999976e-01 3.780660000000000309e+01 1.714360000000000070e+02 2.035425000000000182e+03
1.270000000000000018e-01 1.337579999999999880e-01 3.715075000000000216e+01 1.705464999999999804e+02 2.035164999999999964e+03
1.280000000000000027e-01 1.337315000000000031e-01 3.645770000000000266e+01 1.695255000000000223e+02 2.034869999999999891e+03
1.290000000000000036e-01 1.337010000000000143e-01 3.572400000000000375e+01 1.683695000000000164e+02 2.034534999999999854e+03
1.300000000000000044e-01 1.336674999999999947e-01 3.494859999999999900e+01 1.670799999999999841e+02 2.034154999999999973e+03
1.310000000000000053e-01 1.336299999999999988e-01 3.413295000000000101e+01 1.656655000000000086e+02 2.033740000000000009e+03
1.320000000000000062e-01 1.335890000000000133e-01 3.328105000000000047e+01 1.641394999999999982e+02 2.033285000000000082e+03
1.330000000000000071e-01 1.335445000000000104e-01 3.239920000000000044e+01 1.625199999999999818e+02 2.032795000000000073e+03
1.340000000000000080e-01 1.334974999999999912e-01 3.149569999999999936e+01 1.608310000000000173e+02 2.032275000000000091e+03
1.350000000000000089e-01 1.334485000000000254e-01 3.058044999999999902e+01 1.590985000000000014e+02 2.031730000000000018e+03
1.360000000000000098e-01 1.333980000000000166e-01 2.966479999999999961e+01 1.573525000000000205e+02 2.031170000000000073e+03
1.370000000000000107e-01 1.333475000000000077e-01 2.876060000000000372e+01 1.556215000000000259e+02 2.030605000000000018e+03
1.380000000000000115e-01 1.332965000000000122e-01 2.787999999999999901e+01 1.539370000000000118e+02 2.030045000000000073e+03
1.390000000000000124e-01 1.332474999999999909e-01 2.703470000000000084e+01 1.523254999999999768e+02 2.029490000000000009e+03
1.400000000000000133e-01 1.331994999999999985e-01 2.623554999999999993e+01 1.508125000000000000e+02 2.028960000000000036e+03
1.410000000000000142e-01 1.331539999999999946e-01 2.549204999999999899e+01 1.494200000000000159e+02 2.028454999999999927e+03
1.420000000000000151e-01 1.331120000000000081e-01 2.481190000000000140e+01 1.481634999999999991e+02 2.027980000000000018e+03
1.430000000000000160e-01 1.330729999999999968e-01 2.420094999999999885e+01 1.470559999999999832e+02 2.027549999999999955e+03
1.440000000000000169e-01 1.330385000000000040e-01 2.366290000000000049e+01 1.461030000000000086e+02 2.027160000000000082e+03
1.450000000000000178e-01 1.330085000000000017e-01 2.319915000000000305e+01 1.453059999999999832e+02 2.026815000000000055e+03
1.459999999999999909e-01 1.329819999999999891e-01 2.280899999999999750e+01 1.446610000000000014e+02 2.026519999999999982e+03
1.469999999999999918e-01 1.329604999999999815e-01 2.248985000000000056e+01 1.441595000000000084e+02 2.026269999999999982e+03
1.479999999999999927e-01 1.329425000000000190e-01 2.223724999999999952e+01 1.437895000000000039e+02 2.026065000000000055e+03
1.489999999999999936e-01 1.329279999999999906e-01 2.204534999999999911e+01 1.435370000000000061e+02 2.025900000000000091e+03
1.499999999999999944e-01 1.329179999999999806e-01 2.190700000000000003e+01 1.433840000000000146e+02 2.025779999999999973e+03
1.509999999999999953e-01 1.329100000000000004e-01 2.181470000000000198e+01 1.433125000000000000e+02 2.025684999999999945e+03
1.519999999999999962e-01 1.329044999999999810e-01 2.175999999999999801e+01 1.433040000000000020e+02 2.025625000000000000e+03
1.529999999999999971e-01 1.329015000000000057e-01 2.173474999999999824e+01 1.433419999999999845e+02 2.025585000000000036e+03
1.539999999999999980e-01 1.329000000000000181e-01 2.173094999999999999e+01 1.434074999999999989e+02 2.025565000000000055e+03
1.549999999999999989e-01 1.329000000000000181e-01 2.174105000000000132e+01 1.434875000000000114e+02 2.025554999999999836e+03
1.559999999999999998e-01 1.329000000000000181e-01 2.175815000000000055e+01 1.435674999999999955e+02 2.025555000000000064e+03
1.570000000000000007e-01 1.329004999999999770e-01 2.177624999999999744e+01 1.436370000000000005e+02 2.025559999999999945e+03
1.580000000000000016e-01 1.329009999999999914e-01 2.179039999999999822e+01 1.436875000000000000e+02 2.025565000000000055e+03
1.590000000000000024e-01 1.329015000000000057e-01 2.179664999999999964e+01 1.437135000000000105e+02 2.025565000000000055e+03
