# t [s], A [cm^2], U [cm/s], P [cPa], c [cm/s]
1.000000000000000021e-03 1.726949999999999874e-01 3.311632600000000148e-01 9.594355000000000189e+01 2.354670000000000073e+03
2.000000000000000042e-03 1.726354999999999973e-01 1.878359999999999808e+00 9.204259999999999309e+01 2.354095000000000255e+03
3.000000000000000062e-03 1.724995000000000001e-01 3.820231000000000599e+00 8.650305000000000177e+01 2.352835000000000036e+03
4.000000000000000083e-03 1.723304999999999976e-01 6.046486500000000319e+00 8.079054999999999609e+01 2.351295000000000073e+03
5.000000000000000104e-03 1.721639999999999837e-01 8.418074999999999974e+00 7.605545000000000755e+01 2.349789999999999964e+03
6.000000000000000125e-03 1.720114999999999839e-01 1.060139000000000031e+01 7.226645000000000607e+01 2.348444999999999709e+03
7.000000000000000146e-03 1.718724999999999836e-01 1.235843500000000006e+01 6.887415000000000020e+01 2.347244999999999891e+03
8.000000000000000167e-03 1.717529999999999890e-01 1.373902000000000001e+01 6.592300000000000182e+01 2.346224999999999909e+03
9.000000000000001055e-03 1.716559999999999753e-01 1.481050000000000111e+01 6.360079999999999956e+01 2.345420000000000073e+03
1.000000000000000194e-02 1.715814999999999979e-01 1.560280000000000022e+01 6.187734999999999275e+01 2.344805000000000291e+03
1.099999999999999936e-02 1.715269999999999850e-01 1.615295000000000059e+01 6.068155000000000143e+01 2.344359999999999673e+03
1.200000000000000025e-02 1.714875000000000149e-01 1.645964999999999989e+01 5.982269999999999754e+01 2.344050000000000182e+03
1.300000000000000114e-02 1.714555000000000107e-01 1.654059999999999775e+01 5.907269999999999754e+01 2.343804999999999836e+03
1.400000000000000203e-02 1.714340000000000031e-01 1.656015000000000015e+01 5.859839999999999804e+01 2.343644999999999982e+03
1.499999999999999944e-02 1.714350000000000041e-01 1.680089999999999861e+01 5.908070000000000022e+01 2.343670000000000073e+03
1.600000000000000033e-02 1.714749999999999885e-01 1.746755000000000280e+01 6.120250000000000057e+01 2.344005000000000109e+03
1.700000000000000122e-02 1.715575000000000017e-01 1.851745000000000019e+01 6.498990000000000578e+01 2.344694999999999709e+03
1.800000000000000211e-02 1.716679999999999873e-01 1.966009999999999991e+01 6.959870000000000800e+01 2.345625000000000000e+03
1.900000000000000300e-02 1.717785000000000006e-01 2.050929999999999964e+01 7.367824999999999136e+01 2.346579999999999927e+03
2.000000000000000042e-02 1.718594999999999984e-01 2.077619999999999933e+01 7.602585000000000548e+01 2.347304999999999836e+03
2.100000000000000130e-02 1.718935000000000046e-01 2.039585000000000292e+01 7.613495000000000346e+01 2.347635000000000218e+03
2.200000000000000219e-02 1.718799999999999772e-01 1.953179999999999694e+01 7.436095000000000255e+01 2.347564999999999600e+03
2.299999999999999961e-02 1.718355000000000021e-01 1.847149999999999892e+01 7.166075000000000728e+01 2.347204999999999927e+03
2.400000000000000050e-02 1.717805000000000026e-01 1.747950000000000159e+01 6.908545000000000869e+01 2.346744999999999891e+03
2.500000000000000139e-02 1.717334999999999834e-01 1.668635000000000090e+01 6.730875000000000341e+01 2.346329999999999927e+03
2.600000000000000228e-02 1.717020000000000213e-01 1.605805000000000149e+01 6.640484999999999616e+01 2.346050000000000182e+03
2.700000000000000316e-02 1.716810000000000003e-01 1.544449999999999967e+01 6.592980000000000018e+01 2.345859999999999673e+03
2.800000000000000058e-02 1.716579999999999773e-01 1.467220000000000013e+01 6.521674999999999045e+01 2.345664999999999964e+03
2.900000000000000147e-02 1.716219999999999968e-01 1.363959999999999972e+01 6.373704999999999643e+01 2.345364999999999782e+03
3.000000000000000236e-02 1.715659999999999963e-01 1.237910000000000110e+01 6.137995000000000090e+01 2.344900000000000091e+03
3.099999999999999978e-02 1.714959999999999818e-01 1.105964499999999973e+01 5.854164999999999708e+01 2.344309999999999945e+03
3.200000000000000067e-02 1.714259999999999950e-01 9.929854999999999876e+00 5.598829999999999529e+01 2.343715000000000146e+03
3.300000000000000155e-02 1.713760000000000006e-01 9.225439999999998975e+00 5.455639999999999645e+01 2.343269999999999982e+03
3.400000000000000244e-02 1.713614999999999999e-01 9.083019999999999428e+00 5.482479999999999620e+01 2.343114999999999782e+03
3.500000000000000333e-02 1.713895000000000002e-01 9.493425000000000225e+00 5.689699999999999847e+01 2.343319999999999709e+03
3.600000000000000422e-02 1.714569999999999983e-01 1.030751000000000062e+01 6.036455000000000126e+01 2.343864999999999782e+03
3.700000000000000511e-02 1.715490000000000070e-01 1.128314500000000109e+01 6.444039999999999679e+01 2.344635000000000218e+03
3.799999999999999906e-02 1.716455000000000064e-01 1.215139999999999887e+01 6.818895000000000550e+01 2.345454999999999927e+03
3.899999999999999994e-02 1.717249999999999888e-01 1.267919999999999980e+01 7.076720000000000255e+01 2.346140000000000327e+03
4.000000000000000083e-02 1.717700000000000060e-01 1.271174999999999855e+01 7.160580000000000211e+01 2.346550000000000182e+03
4.100000000000000172e-02 1.717704999999999926e-01 1.218984999999999985e+01 7.049295000000000755e+01 2.346579999999999927e+03
4.200000000000000261e-02 1.717235000000000011e-01 1.114092499999999930e+01 6.755600000000001160e+01 2.346204999999999927e+03
4.300000000000000350e-02 1.716345000000000232e-01 9.653729999999999478e+00 6.316684999999999661e+01 2.345465000000000146e+03
4.400000000000000439e-02 1.715114999999999834e-01 7.846569999999999823e+00 5.781284999999999741e+01 2.344434999999999945e+03
4.499999999999999833e-02 1.713669999999999916e-01 5.840514999999999901e+00 5.197780000000000200e+01 2.343210000000000036e+03
4.599999999999999922e-02 1.712110000000000021e-01 3.743064000000000391e+00 4.606350000000000477e+01 2.341880000000000109e+03
4.700000000000000011e-02 1.710530000000000106e-01 1.643820000000000059e+00 4.036355000000000359e+01 2.340524999999999636e+03
4.800000000000000100e-02 1.708995000000000097e-01 -3.809550000000001546e-01 3.507869999999999777e+01 2.339210000000000036e+03
4.900000000000000189e-02 1.707569999999999921e-01 -2.260454999999999881e+00 3.035529999999999973e+01 2.337980000000000018e+03
5.000000000000000278e-02 1.706290000000000029e-01 -3.922428000000000026e+00 2.632590000000000074e+01 2.336875000000000000e+03
5.100000000000000366e-02 1.705209999999999781e-01 -5.290680000000000049e+00 2.313530000000000086e+01 2.335935000000000400e+03
5.200000000000000455e-02 1.704375000000000195e-01 -6.287770000000000081e+00 2.094590000000000174e+01 2.335195000000000164e+03
5.300000000000000544e-02 1.703830000000000067e-01 -6.842050000000000409e+00 1.992304999999999993e+01 2.334704999999999927e+03
5.399999999999999939e-02 1.703620000000000134e-01 -6.896610000000000795e+00 2.020830000000000126e+01 2.334494999999999891e+03
5.500000000000000028e-02 1.703779999999999739e-01 -6.417505000000000237e+00 2.189029999999999987e+01 2.334595000000000255e+03
5.600000000000000117e-02 1.704320000000000002e-01 -5.399024999999999963e+00 2.498299999999999699e+01 2.335029999999999745e+03
5.700000000000000205e-02 1.705245000000000233e-01 -3.864914499999999808e+00 2.941734999999999900e+01 2.335784999999999854e+03
5.800000000000000294e-02 1.706529999999999991e-01 -1.865840000000000165e+00 3.504630000000000223e+01 2.336849999999999909e+03
5.900000000000000383e-02 1.708125000000000060e-01 5.258000000000002672e-01 4.166084999999999638e+01 2.338189999999999600e+03
6.000000000000000472e-02 1.709974999999999967e-01 3.222304999999999531e+00 4.901135000000000019e+01 2.339755000000000109e+03
6.099999999999999867e-02 1.712020000000000208e-01 6.127167000000000030e+00 5.682950000000000301e+01 2.341489999999999782e+03
6.199999999999999956e-02 1.714180000000000148e-01 9.141225000000000378e+00 6.484799999999999898e+01 2.343340000000000146e+03
6.300000000000000044e-02 1.716395000000000004e-01 1.216832000000000136e+01 7.281754999999999711e+01 2.345239999999999782e+03
6.400000000000000133e-02 1.718589999999999840e-01 1.512071999999999861e+01 8.052124999999999488e+01 2.347139999999999873e+03
6.500000000000000222e-02 1.720720000000000027e-01 1.792445000000000022e+01 8.778764999999999930e+01 2.348989999999999782e+03
6.600000000000000311e-02 1.722739999999999827e-01 2.052369999999999806e+01 9.450124999999999886e+01 2.350744999999999891e+03
6.700000000000000400e-02 1.724614999999999898e-01 2.288394999999999868e+01 1.006097000000000037e+02 2.352385000000000218e+03
6.800000000000000488e-02 1.726340000000000097e-01 2.499314999999999998e+01 1.061248999999999967e+02 2.353904999999999745e+03
6.900000000000000577e-02 1.727925000000000155e-01 2.686045000000000016e+01 1.111154999999999973e+02 2.355300000000000182e+03
7.000000000000000666e-02 1.729380000000000084e-01 2.851229999999999976e+01 1.156975000000000051e+02 2.356590000000000146e+03
7.100000000000000755e-02 1.730749999999999789e-01 2.998750000000000071e+01 1.200105000000000075e+02 2.357795000000000073e+03
7.200000000000000844e-02 1.732055000000000122e-01 3.133044999999999902e+01 1.242034999999999911e+02 2.358954999999999927e+03
7.300000000000000933e-02 1.733339999999999881e-01 3.258534999999999826e+01 1.284105000000000132e+02 2.360090000000000146e+03
7.399999999999999634e-02 1.734629999999999783e-01 3.379070000000000107e+01 1.327365000000000066e+02 2.361224999999999909e+03
7.499999999999999722e-02 1.735955000000000137e-01 3.497544999999999504e+01 1.372470000000000141e+02 2.362390000000000327e+03
7.599999999999999811e-02 1.737325000000000119e-01 3.615690000000000026e+01 1.419655000000000200e+02 2.363590000000000146e+03
7.699999999999999900e-02 1.738735000000000142e-01 3.734009999999999962e+01 1.468725000000000023e+02 2.364835000000000036e+03
7.799999999999999989e-02 1.740190000000000070e-01 3.851805000000000234e+01 1.519114999999999895e+02 2.366110000000000127e+03
7.900000000000000078e-02 1.741670000000000162e-01 3.967409999999999570e+01 1.570000000000000000e+02 2.367409999999999854e+03
8.000000000000000167e-02 1.743145000000000111e-01 4.078340000000000032e+01 1.620349999999999966e+02 2.368710000000000036e+03
8.100000000000000255e-02 1.744590000000000030e-01 4.181615000000000038e+01 1.669050000000000011e+02 2.369985000000000127e+03
8.200000000000000344e-02 1.745984999999999898e-01 4.273989999999999867e+01 1.714990000000000236e+02 2.371215000000000146e+03
8.300000000000000433e-02 1.747294999999999821e-01 4.352224999999999966e+01 1.757124999999999773e+02 2.372369999999999891e+03
8.400000000000000522e-02 1.748484999999999900e-01 4.413335000000000008e+01 1.794544999999999959e+02 2.373430000000000291e+03
8.500000000000000611e-02 1.749545000000000128e-01 4.454795000000000016e+01 1.826525000000000034e+02 2.374375000000000000e+03
8.600000000000000699e-02 1.750444999999999918e-01 4.474750000000000227e+01 1.852560000000000002e+02 2.375185000000000400e+03
8.700000000000000788e-02 1.751185000000000103e-01 4.472135000000000105e+01 1.872400000000000091e+02 2.375849999999999909e+03
8.800000000000000877e-02 1.751749999999999974e-01 4.446755000000000280e+01 1.886045000000000016e+02 2.376364999999999782e+03
8.899999999999999578e-02 1.752144999999999953e-01 4.399329999999999785e+01 1.893750000000000000e+02 2.376730000000000018e+03
8.999999999999999667e-02 1.752385000000000193e-01 4.331419999999999959e+01 1.895994999999999777e+02 2.376954999999999927e+03
9.099999999999999756e-02 1.752469999999999861e-01 4.245369999999999777e+01 1.893450000000000273e+02 2.377050000000000182e+03
9.199999999999999845e-02 1.752429999999999821e-01 4.144100000000000250e+01 1.886935000000000002e+02 2.377024999999999636e+03
9.299999999999999933e-02 1.752279999999999949e-01 4.030960000000000321e+01 1.877339999999999804e+02 2.376909999999999854e+03
9.400000000000000022e-02 1.752044999999999852e-01 3.909519999999999840e+01 1.865610000000000070e+02 2.376715000000000146e+03
9.500000000000000111e-02 1.751759999999999984e-01 3.783364999999999867e+01 1.852640000000000100e+02 2.376470000000000255e+03
9.600000000000000200e-02 1.751435000000000075e-01 3.655944999999999823e+01 1.839275000000000091e+02 2.376184999999999945e+03
9.700000000000000289e-02 1.751094999999999735e-01 3.530389999999999873e+01 1.826250000000000000e+02 2.375889999999999873e+03
9.800000000000000377e-02 1.750765000000000238e-01 3.409405000000000285e+01 1.814180000000000064e+02 2.375599999999999909e+03
9.900000000000000466e-02 1.750460000000000071e-01 3.295149999999999579e+01 1.803520000000000039e+02 2.375324999999999818e+03
1.000000000000000056e-01 1.750185000000000213e-01 3.189160000000000394e+01 1.794565000000000055e+02 2.375079999999999927e+03
1.010000000000000064e-01 1.749954999999999983e-01 3.092290000000000205e+01 1.787434999999999832e+02 2.374869999999999891e+03
1.020000000000000073e-01 1.749765000000000070e-01 3.004684999999999917e+01 1.782074999999999818e+02 2.374699999999999818e+03
1.030000000000000082e-01 1.749620000000000064e-01 2.925825000000000031e+01 1.778249999999999886e+02 2.374565000000000055e+03
1.040000000000000091e-01 1.749509999999999954e-01 2.854554999999999865e+01 1.775595000000000141e+02 2.374460000000000036e+03
1.050000000000000100e-01 1.749425000000000008e-01 2.789209999999999923e+01 1.773600000000000136e+02 2.374380000000000109e+03
1.059999999999999970e-01 1.749350000000000072e-01 2.727725000000000222e+01 1.771684999999999945e+02 2.374305000000000291e+03
1.069999999999999979e-01 1.749269999999999992e-01 2.667824999999999847e+01 1.769220000000000255e+02 2.374234999999999673e+03
1.079999999999999988e-01 1.749175000000000035e-01 2.607200000000000273e+01 1.765590000000000259e+02 2.374144999999999982e+03
1.089999999999999997e-01 1.749040000000000039e-01 2.543670000000000186e+01 1.760240000000000009e+02 2.374025000000000091e+03
1.100000000000000006e-01 1.748854999999999993e-01 2.475365000000000038e+01 1.752704999999999984e+02 2.373864999999999782e+03
1.110000000000000014e-01 1.748609999999999887e-01 2.400860000000000127e+01 1.742680000000000007e+02 2.373649999999999636e+03
1.120000000000000023e-01 1.748294999999999988e-01 2.319279999999999831e+01 1.730015000000000214e+02 2.373375000000000000e+03
1.130000000000000032e-01 1.747914999999999885e-01 2.230389999999999873e+01 1.714714999999999918e+02 2.373045000000000073e+03
1.140000000000000041e-01 1.747460000000000124e-01 2.134575000000000244e+01 1.697005000000000052e+02 2.372649999999999636e+03
1.150000000000000050e-01 1.746945000000000026e-01 2.032829999999999870e+01 1.677255000000000109e+02 2.372199999999999818e+03
1.160000000000000059e-01 1.746375000000000011e-01 1.926720000000000255e+01 1.655949999999999989e+02 2.371704999999999927e+03
1.170000000000000068e-01 1.745774999999999966e-01 1.818209999999999837e+01 1.633725000000000023e+02 2.371179999999999836e+03
1.180000000000000077e-01 1.745149999999999757e-01 1.709580000000000055e+01 1.611235000000000070e+02 2.370635000000000218e+03
1.190000000000000085e-01 1.744525000000000103e-01 1.603235000000000099e+01 1.589184999999999945e+02 2.370079999999999927e+03
1.200000000000000094e-01 1.743905000000000038e-01 1.501534999999999975e+01 1.568215000000000146e+02 2.369539999999999964e+03
1.209999999999999964e-01 1.743330000000000157e-01 1.406700000000000017e+01 1.548930000000000007e+02 2.369029999999999745e+03
1.219999999999999973e-01 1.742795000000000039e-01 1.320599999999999952e+01 1.531804999999999950e+02 2.368559999999999945e+03
1.229999999999999982e-01 1.742325000000000124e-01 1.244709999999999894e+01 1.517199999999999989e+02 2.368140000000000327e+03
1.239999999999999991e-01 1.741920000000000135e-01 1.180045000000000144e+01 1.505330000000000155e+02 2.367779999999999745e+03
1.250000000000000000e-01 1.741590000000000082e-01 1.127081499999999892e+01 1.496270000000000095e+02 2.367480000000000018e+03
1.260000000000000009e-01 1.741334999999999966e-01 1.085815000000000019e+01 1.489950000000000045e+02 2.367244999999999891e+03
1.270000000000000018e-01 1.741154999999999786e-01 1.055782999999999916e+01 1.486204999999999927e+02 2.367074999999999818e+03
1.280000000000000027e-01 1.741039999999999810e-01 1.036103499999999933e+01 1.484749999999999943e+02 2.366969999999999800e+03
1.290000000000000036e-01 1.740984999999999894e-01 1.025587499999999963e+01 1.485244999999999891e+02 2.366914999999999964e+03
1.300000000000000044e-01 1.740984999999999894e-01 1.022787999999999897e+01 1.487289999999999850e+02 2.366909999999999854e+03
1.310000000000000053e-01 1.741024999999999934e-01 1.026116999999999990e+01 1.490480000000000018e+02 2.366934999999999945e+03
1.320000000000000062e-01 1.741099999999999870e-01 1.033888499999999944e+01 1.494389999999999930e+02 2.366994999999999891e+03
1.330000000000000071e-01 1.741189999999999960e-01 1.044435000000000002e+01 1.498615000000000066e+02 2.367069999999999709e+03
1.340000000000000080e-01 1.741285000000000194e-01 1.056155000000000044e+01 1.502779999999999916e+02 2.367149999999999636e+03
1.350000000000000089e-01 1.741389999999999882e-01 1.067569999999999908e+01 1.506555000000000177e+02 2.367235000000000127e+03
1.360000000000000098e-01 1.741475000000000106e-01 1.077400000000000091e+01 1.509680000000000177e+02 2.367315000000000055e+03
1.370000000000000107e-01 1.741550000000000042e-01 1.084600000000000009e+01 1.511924999999999955e+02 2.367375000000000000e+03
1.380000000000000115e-01 1.741594999999999949e-01 1.088359999999999950e+01 1.513149999999999977e+02 2.367420000000000073e+03
1.390000000000000124e-01 1.741619999999999835e-01 1.088180000000000014e+01 1.513274999999999864e+02 2.367440000000000055e+03
1.400000000000000133e-01 1.741614999999999969e-01 1.083844999999999992e+01 1.512305000000000064e+02 2.367440000000000055e+03
1.410000000000000142e-01 1.741580000000000072e-01 1.075390000000000157e+01 1.510289999999999964e+02 2.367414999999999964e+03
1.420000000000000151e-01 1.741515000000000146e-01 1.063150000000000084e+01 1.507364999999999782e+02 2.367359999999999673e+03
1.430000000000000160e-01 1.741435000000000066e-01 1.047622000000000142e+01 1.503679999999999950e+02 2.367289999999999964e+03
1.440000000000000169e-01 1.741329999999999822e-01 1.029485000000000028e+01 1.499439999999999884e+02 2.367199999999999818e+03
1.450000000000000178e-01 1.741219999999999990e-01 1.009485000000000099e+01 1.494855000000000018e+02 2.367105000000000018e+03
1.459999999999999909e-01 1.741090000000000138e-01 9.884195000000000064e+00 1.490140000000000100e+02 2.367000000000000000e+03
1.469999999999999918e-01 1.740960000000000008e-01 9.670310000000000628e+00 1.485459999999999923e+02 2.366885000000000218e+03
1.479999999999999927e-01 1.740839999999999888e-01 9.459880000000000067e+00 1.480989999999999895e+02 2.366779999999999745e+03
1.489999999999999936e-01 1.740720000000000045e-01 9.258395000000000152e+00 1.476834999999999809e+02 2.366670000000000073e+03
1.499999999999999944e-01 1.740605000000000069e-01 9.069804999999998785e+00 1.473064999999999998e+02 2.366569999999999709e+03
1.509999999999999953e-01 1.740500000000000103e-01 8.896475000000000577e+00 1.469699999999999989e+02 2.366480000000000018e+03
1.519999999999999962e-01 1.740404999999999869e-01 8.739240000000000563e+00 1.466720000000000255e+02 2.366394999999999982e+03
1.529999999999999971e-01 1.740324999999999789e-01 8.597490000000000521e+00 1.464080000000000155e+02 2.366319999999999709e+03
1.539999999999999980e-01 1.740244999999999986e-01 8.469374999999999432e+00 1.461684999999999945e+02 2.366255000000000109e+03
1.549999999999999989e-01 1.740174999999999916e-01 8.352085000000000647e+00 1.459435000000000002e+02 2.366190000000000055e+03
1.559999999999999998e-01 1.740105000000000124e-01 8.242150000000000531e+00 1.457220000000000084e+02 2.366130000000000109e+03
1.570000000000000007e-01 1.740035000000000054e-01 8.135745000000000005e+00 1.454934999999999832e+02 2.366070000000000164e+03
1.580000000000000016e-01 1.739964999999999984e-01 8.029020000000000934e+00 1.452459999999999809e+02 2.366005000000000109e+03
1.590000000000000024e-01 1.739884999999999904e-01 7.918430000000000746e+00 1.449710000000000036e+02 2.365934999999999945e+03
