# t [s], A [cm^2], U [cm/s], P [cPa], c [cm/s]
1.000000000000000021e-03 1.866099999999999981e-01 4.791782750000000424e-01 1.013328500000000076e+02 2.209730000000000018e+03
2.000000000000000042e-03 1.865404999999999980e-01 2.268634500000000109e+00 9.704824999999999591e+01 2.209099999999999909e+03
3.000000000000000062e-03 1.863785000000000025e-01 4.434742500000000476e+00 9.128350000000000364e+01 2.207685000000000400e+03
4.000000000000000083e-03 1.861734999999999918e-01 6.872669999999999391e+00 8.552960000000000207e+01 2.205914999999999964e+03
5.000000000000000104e-03 1.859680000000000222e-01 9.432410000000000849e+00 8.082800000000000296e+01 2.204150000000000091e+03
6.000000000000000125e-03 1.857765000000000111e-01 1.179678499999999985e+01 7.706685000000000230e+01 2.202539999999999964e+03
7.000000000000000146e-03 1.856009999999999882e-01 1.375615499999999969e+01 7.371944999999999482e+01 2.201095000000000255e+03
8.000000000000000167e-03 1.854459999999999997e-01 1.534999999999999964e+01 7.077830000000000155e+01 2.199840000000000146e+03
9.000000000000001055e-03 1.853164999999999951e-01 1.664245000000000019e+01 6.840330000000000155e+01 2.198800000000000182e+03
1.000000000000000194e-02 1.852119999999999878e-01 1.765574999999999761e+01 6.656110000000001037e+01 2.197975000000000364e+03
1.099999999999999936e-02 1.851305000000000034e-01 1.841539999999999822e+01 6.516684999999999661e+01 2.197345000000000255e+03
1.200000000000000025e-02 1.850680000000000103e-01 1.892900000000000205e+01 6.407929999999998927e+01 2.196859999999999673e+03
1.300000000000000114e-02 1.850165000000000004e-01 1.921454999999999913e+01 6.312754999999999939e+01 2.196475000000000364e+03
1.400000000000000203e-02 1.849755000000000149e-01 1.939414999999999978e+01 6.239834999999999354e+01 2.196179999999999836e+03
1.499999999999999944e-02 1.849569999999999825e-01 1.969749999999999801e+01 6.238925000000000409e+01 2.196045000000000073e+03
1.600000000000000033e-02 1.849744999999999862e-01 2.032905000000000229e+01 6.370514999999999617e+01 2.196190000000000055e+03
1.700000000000000122e-02 1.850370000000000070e-01 2.131850000000000023e+01 6.654194999999999993e+01 2.196690000000000055e+03
1.800000000000000211e-02 1.851384999999999836e-01 2.248075000000000045e+01 7.040944999999999254e+01 2.197505000000000109e+03
1.900000000000000300e-02 1.852555000000000174e-01 2.350285000000000224e+01 7.428679999999999950e+01 2.198454999999999927e+03
2.000000000000000042e-02 1.853595000000000104e-01 2.409080000000000155e+01 7.707409999999998718e+01 2.199315000000000055e+03
2.100000000000000130e-02 1.854255000000000209e-01 2.409394999999999953e+01 7.806334999999999980e+01 2.199880000000000109e+03
2.200000000000000219e-02 1.854425000000000101e-01 2.355245000000000033e+01 7.719740000000000180e+01 2.200054999999999836e+03
2.299999999999999961e-02 1.854149999999999965e-01 2.265574999999999761e+01 7.501890000000000214e+01 2.199864999999999782e+03
2.400000000000000050e-02 1.853600000000000247e-01 2.164390000000000214e+01 7.236869999999998981e+01 2.199440000000000055e+03
2.500000000000000139e-02 1.852969999999999895e-01 2.070544999999999902e+01 7.000650000000000261e+01 2.198940000000000055e+03
2.600000000000000228e-02 1.852415000000000034e-01 1.991709999999999781e+01 6.833379999999999654e+01 2.198484999999999673e+03
2.700000000000000316e-02 1.851984999999999881e-01 1.924210000000000065e+01 6.731804999999999950e+01 2.198135000000000218e+03
2.800000000000000058e-02 1.851659999999999973e-01 1.857560000000000144e+01 6.660790000000000077e+01 2.197860000000000127e+03
2.900000000000000147e-02 1.851329999999999920e-01 1.781029999999999802e+01 6.575655000000000427e+01 2.197595000000000255e+03
3.000000000000000236e-02 1.850930000000000075e-01 1.689519999999999911e+01 6.445060000000000855e+01 2.197275000000000091e+03
3.099999999999999978e-02 1.850400000000000100e-01 1.586710000000000065e+01 6.266219999999999857e+01 2.196850000000000364e+03
3.200000000000000067e-02 1.849784999999999902e-01 1.484590000000000032e+01 6.067589999999999861e+01 2.196359999999999673e+03
3.300000000000000155e-02 1.849184999999999857e-01 1.399624999999999986e+01 5.898789999999999623e+01 2.195880000000000109e+03
3.400000000000000244e-02 1.848754999999999982e-01 1.347109999999999985e+01 5.812255000000000393e+01 2.195519999999999982e+03
3.500000000000000333e-02 1.848609999999999975e-01 1.335934999999999917e+01 5.843890000000000384e+01 2.195380000000000109e+03
3.600000000000000422e-02 1.848814999999999764e-01 1.365540000000000020e+01 5.999925000000000352e+01 2.195524999999999636e+03
3.700000000000000511e-02 1.849355000000000027e-01 1.425890000000000057e+01 6.253924999999999557e+01 2.195935000000000400e+03
3.799999999999999906e-02 1.850129999999999830e-01 1.500009999999999977e+01 6.553704999999999359e+01 2.196545000000000073e+03
3.899999999999999994e-02 1.850979999999999848e-01 1.568055000000000021e+01 6.834704999999999586e+01 2.197225000000000364e+03
4.000000000000000083e-02 1.851729999999999765e-01 1.611420000000000030e+01 7.035014999999999930e+01 2.197829999999999927e+03
4.100000000000000172e-02 1.852205000000000101e-01 1.616049999999999898e+01 7.107835000000000036e+01 2.198225000000000364e+03
4.200000000000000261e-02 1.852289999999999770e-01 1.574180000000000135e+01 7.028694999999999027e+01 2.198309999999999945e+03
4.300000000000000350e-02 1.851929999999999965e-01 1.484564999999999912e+01 6.796659999999999968e+01 2.198039999999999964e+03
4.400000000000000439e-02 1.851119999999999988e-01 1.351450000000000173e+01 6.430510000000001014e+01 2.197409999999999854e+03
4.499999999999999833e-02 1.849915000000000032e-01 1.182796000000000092e+01 5.961795000000000044e+01 2.196449999999999818e+03
4.599999999999999922e-02 1.848404999999999909e-01 9.884940000000000282e+00 5.427329999999999899e+01 2.195244999999999891e+03
4.700000000000000011e-02 1.846679999999999988e-01 7.788705000000000211e+00 4.863039999999999452e+01 2.193864999999999782e+03
4.800000000000000100e-02 1.844854999999999967e-01 5.638073999999999586e+00 4.300229999999999819e+01 2.192394999999999982e+03
4.900000000000000189e-02 1.843024999999999802e-01 3.524285000000000334e+00 3.764459999999999695e+01 2.190914999999999964e+03
5.000000000000000278e-02 1.841254999999999975e-01 1.531374999999999931e+00 3.276245000000000118e+01 2.189485000000000127e+03
5.100000000000000366e-02 1.839629999999999876e-01 -2.617949999999997779e-01 2.852649999999999864e+01 2.188164999999999964e+03
5.200000000000000455e-02 1.838204999999999978e-01 -1.780370000000000008e+00 2.508820000000000050e+01 2.187000000000000000e+03
5.300000000000000544e-02 1.837030000000000052e-01 -2.954259500000000038e+00 2.258774999999999977e+01 2.186045000000000073e+03
5.399999999999999939e-02 1.836180000000000034e-01 -3.721180000000000376e+00 2.115220000000000056e+01 2.185329999999999927e+03
5.500000000000000028e-02 1.835680000000000089e-01 -4.031304999999999694e+00 2.088539999999999708e+01 2.184899999999999636e+03
5.600000000000000117e-02 1.835565000000000113e-01 -3.852320000000000189e+00 2.185360000000000014e+01 2.184779999999999745e+03
5.700000000000000205e-02 1.835859999999999992e-01 -3.173595000000000166e+00 2.407164999999999822e+01 2.184989999999999782e+03
5.800000000000000294e-02 1.836575000000000013e-01 -2.008309500000000192e+00 2.749405000000000143e+01 2.185529999999999745e+03
5.900000000000000383e-02 1.837685000000000013e-01 -3.930050000000000487e-01 3.201444999999999652e+01 2.186395000000000437e+03
6.000000000000000472e-02 1.839155000000000095e-01 1.615280000000000049e+00 3.747225000000000250e+01 2.187554999999999836e+03
6.099999999999999867e-02 1.840944999999999943e-01 3.943753000000000508e+00 4.366694999999999993e+01 2.188969999999999800e+03
6.199999999999999956e-02 1.842980000000000174e-01 6.509464999999999613e+00 5.037475000000000591e+01 2.190595000000000255e+03
6.300000000000000044e-02 1.845189999999999886e-01 9.225144999999999484e+00 5.736655000000000371e+01 2.192369999999999891e+03
6.400000000000000133e-02 1.847509999999999986e-01 1.200431999999999988e+01 6.442340000000000089e+01 2.194239999999999782e+03
6.500000000000000222e-02 1.849864999999999982e-01 1.476603500000000047e+01 7.134914999999999452e+01 2.196154999999999745e+03
6.600000000000000311e-02 1.852199999999999958e-01 1.743880000000000052e+01 7.797990000000000066e+01 2.198054999999999836e+03
6.700000000000000400e-02 1.854454999999999854e-01 1.996334999999999837e+01 8.419075000000000841e+01 2.199894999999999982e+03
6.800000000000000488e-02 1.856594999999999773e-01 2.229565000000000197e+01 8.989990000000000236e+01 2.201649999999999636e+03
6.900000000000000577e-02 1.858584999999999821e-01 2.440825000000000244e+01 9.507120000000000459e+01 2.203289999999999964e+03
7.000000000000000666e-02 1.860414999999999985e-01 2.629079999999999728e+01 9.971340000000000714e+01 2.204810000000000400e+03
7.100000000000000755e-02 1.862084999999999990e-01 2.794980000000000331e+01 1.038764000000000038e+02 2.206199999999999818e+03
7.200000000000000844e-02 1.863615000000000133e-01 2.940625000000000000e+01 1.076444999999999936e+02 2.207474999999999909e+03
7.300000000000000933e-02 1.865025000000000155e-01 3.069280000000000186e+01 1.111280000000000001e+02 2.208654999999999745e+03
7.399999999999999634e-02 1.866349999999999953e-01 3.184975000000000023e+01 1.144484999999999957e+02 2.209760000000000218e+03
7.499999999999999722e-02 1.867624999999999980e-01 3.292050000000000409e+01 1.177284999999999968e+02 2.210824999999999818e+03
7.599999999999999811e-02 1.868885000000000129e-01 3.394709999999999894e+01 1.210794999999999959e+02 2.211880000000000109e+03
7.699999999999999900e-02 1.870169999999999888e-01 3.496634999999999849e+01 1.245889999999999986e+02 2.212945000000000164e+03
7.799999999999999989e-02 1.871494999999999964e-01 3.600639999999999930e+01 1.283170000000000073e+02 2.214050000000000182e+03
7.900000000000000078e-02 1.872884999999999966e-01 3.708490000000000464e+01 1.322864999999999895e+02 2.215199999999999818e+03
8.000000000000000167e-02 1.874339999999999895e-01 3.820754999999999768e+01 1.364869999999999948e+02 2.216404999999999745e+03
8.100000000000000255e-02 1.875859999999999750e-01 3.936844999999999573e+01 1.408754999999999882e+02 2.217664999999999964e+03
8.200000000000000344e-02 1.877429999999999932e-01 4.055140000000000100e+01 1.453815000000000168e+02 2.218970000000000255e+03
8.300000000000000433e-02 1.879029999999999867e-01 4.173109999999999786e+01 1.499134999999999991e+02 2.220295000000000073e+03
8.400000000000000522e-02 1.880630000000000079e-01 4.287640000000000384e+01 1.543665000000000020e+02 2.221619999999999891e+03
8.500000000000000611e-02 1.882189999999999974e-01 4.395225000000000648e+01 1.586324999999999932e+02 2.222925000000000182e+03
8.600000000000000699e-02 1.883690000000000087e-01 4.492289999999999850e+01 1.626059999999999945e+02 2.224170000000000073e+03
8.700000000000000788e-02 1.885084999999999955e-01 4.575430000000000064e+01 1.661914999999999907e+02 2.225340000000000146e+03
8.800000000000000877e-02 1.886349999999999971e-01 4.641644999999999754e+01 1.693100000000000023e+02 2.226404999999999745e+03
8.899999999999999578e-02 1.887459999999999971e-01 4.688514999999999588e+01 1.719010000000000105e+02 2.227340000000000146e+03
8.999999999999999667e-02 1.888389999999999791e-01 4.714360000000000639e+01 1.739275000000000091e+02 2.228135000000000218e+03
9.099999999999999756e-02 1.889139999999999986e-01 4.718325000000000102e+01 1.753750000000000000e+02 2.228769999999999982e+03
9.199999999999999845e-02 1.889695000000000125e-01 4.700410000000000110e+01 1.762529999999999859e+02 2.229250000000000000e+03
9.299999999999999933e-02 1.890060000000000073e-01 4.661449999999999960e+01 1.765904999999999916e+02 2.229574999999999818e+03
9.400000000000000022e-02 1.890249999999999986e-01 4.603050000000000352e+01 1.764385000000000048e+02 2.229744999999999891e+03
9.500000000000000111e-02 1.890270000000000006e-01 4.527485000000000070e+01 1.758600000000000136e+02 2.229779999999999745e+03
9.600000000000000200e-02 1.890149999999999886e-01 4.437539999999999907e+01 1.749314999999999998e+02 2.229690000000000055e+03
9.700000000000000289e-02 1.889905000000000057e-01 4.336364999999999981e+01 1.737344999999999970e+02 2.229505000000000109e+03
9.800000000000000377e-02 1.889564999999999995e-01 4.227295000000000158e+01 1.723520000000000039e+02 2.229230000000000018e+03
9.900000000000000466e-02 1.889160000000000006e-01 4.113694999999999879e+01 1.708670000000000186e+02 2.228899999999999636e+03
1.000000000000000056e-01 1.888710000000000111e-01 3.998770000000000380e+01 1.693539999999999850e+02 2.228529999999999745e+03
1.010000000000000064e-01 1.888239999999999919e-01 3.885444999999999993e+01 1.678810000000000002e+02 2.228150000000000091e+03
1.020000000000000073e-01 1.887785000000000157e-01 3.776239999999999952e+01 1.665020000000000095e+02 2.227760000000000218e+03
1.030000000000000082e-01 1.887340000000000129e-01 3.673170000000000357e+01 1.652595000000000027e+02 2.227394999999999982e+03
1.040000000000000091e-01 1.886940000000000006e-01 3.577669999999999817e+01 1.641804999999999950e+02 2.227050000000000182e+03
1.050000000000000100e-01 1.886579999999999924e-01 3.490555000000000518e+01 1.632754999999999939e+02 2.226750000000000000e+03
1.059999999999999970e-01 1.886269999999999891e-01 3.412024999999999864e+01 1.625414999999999850e+02 2.226484999999999673e+03
1.069999999999999979e-01 1.886010000000000186e-01 3.341684999999999661e+01 1.619604999999999961e+02 2.226265000000000327e+03
1.079999999999999988e-01 1.885795000000000110e-01 3.278575000000000017e+01 1.615015000000000214e+02 2.226074999999999818e+03
1.089999999999999997e-01 1.885610000000000064e-01 3.221289999999999765e+01 1.611240000000000236e+02 2.225920000000000073e+03
1.100000000000000006e-01 1.885455000000000048e-01 3.168074999999999619e+01 1.607794999999999845e+02 2.225779999999999745e+03
1.110000000000000014e-01 1.885304999999999898e-01 3.116935000000000144e+01 1.604164999999999850e+02 2.225650000000000091e+03
1.120000000000000023e-01 1.885140000000000149e-01 3.065764999999999674e+01 1.599809999999999945e+02 2.225515000000000327e+03
1.130000000000000032e-01 1.884959999999999969e-01 3.012534999999999741e+01 1.594234999999999900e+02 2.225355000000000018e+03
1.140000000000000041e-01 1.884735000000000160e-01 2.955364999999999753e+01 1.586984999999999957e+02 2.225170000000000073e+03
1.150000000000000050e-01 1.884454999999999880e-01 2.892694999999999794e+01 1.577719999999999914e+02 2.224934999999999945e+03
1.160000000000000059e-01 1.884109999999999951e-01 2.823349999999999937e+01 1.566204999999999927e+02 2.224650000000000091e+03
1.170000000000000068e-01 1.883690000000000087e-01 2.746649999999999991e+01 1.552330000000000041e+02 2.224305000000000291e+03
1.180000000000000077e-01 1.883195000000000008e-01 2.662444999999999951e+01 1.536134999999999877e+02 2.223899999999999636e+03
1.190000000000000085e-01 1.882635000000000003e-01 2.571124999999999972e+01 1.517805000000000177e+02 2.223430000000000291e+03
1.200000000000000094e-01 1.881995000000000196e-01 2.473604999999999876e+01 1.497644999999999982e+02 2.222909999999999854e+03
1.209999999999999964e-01 1.881300000000000194e-01 2.371265000000000001e+01 1.476084999999999923e+02 2.222335000000000036e+03
1.219999999999999973e-01 1.880560000000000009e-01 2.265859999999999985e+01 1.453634999999999877e+02 2.221720000000000255e+03
1.229999999999999982e-01 1.879790000000000072e-01 2.159450000000000003e+01 1.430865000000000009e+02 2.221085000000000036e+03
1.239999999999999991e-01 1.879014999999999991e-01 2.054214999999999947e+01 1.408369999999999891e+02 2.220445000000000164e+03
1.250000000000000000e-01 1.878249999999999920e-01 1.952380000000000138e+01 1.386734999999999900e+02 2.219804999999999836e+03
1.260000000000000009e-01 1.877504999999999868e-01 1.856085000000000207e+01 1.366504999999999939e+02 2.219190000000000055e+03
1.270000000000000018e-01 1.876805000000000001e-01 1.767235000000000156e+01 1.348145000000000095e+02 2.218605000000000018e+03
1.280000000000000027e-01 1.876170000000000060e-01 1.687440000000000140e+01 1.332044999999999959e+02 2.218074999999999818e+03
1.290000000000000036e-01 1.875605000000000189e-01 1.617940000000000111e+01 1.318474999999999966e+02 2.217605000000000018e+03
1.300000000000000044e-01 1.875120000000000120e-01 1.559529999999999994e+01 1.307590000000000146e+02 2.217195000000000164e+03
1.310000000000000053e-01 1.874724999999999864e-01 1.512555000000000049e+01 1.299424999999999955e+02 2.216859999999999673e+03
1.320000000000000062e-01 1.874414999999999831e-01 1.476924999999999955e+01 1.293909999999999911e+02 2.216595000000000255e+03
1.330000000000000071e-01 1.874194999999999889e-01 1.452134999999999998e+01 1.290879999999999939e+02 2.216400000000000091e+03
1.340000000000000080e-01 1.874055000000000026e-01 1.437310000000000088e+01 1.290060000000000002e+02 2.216279999999999745e+03
1.350000000000000089e-01 1.873989999999999823e-01 1.431259999999999977e+01 1.291129999999999995e+02 2.216215000000000146e+03
1.360000000000000098e-01 1.873990000000000100e-01 1.432580000000000098e+01 1.293725000000000023e+02 2.216210000000000036e+03
1.370000000000000107e-01 1.874040000000000150e-01 1.439700000000000024e+01 1.297435000000000116e+02 2.216244999999999891e+03
1.380000000000000115e-01 1.874129999999999963e-01 1.450999999999999979e+01 1.301875000000000000e+02 2.216315000000000055e+03
1.390000000000000124e-01 1.874255000000000226e-01 1.464835000000000065e+01 1.306644999999999754e+02 2.216404999999999745e+03
1.400000000000000133e-01 1.874379999999999935e-01 1.479645000000000010e+01 1.311394999999999982e+02 2.216510000000000218e+03
1.410000000000000142e-01 1.874520000000000075e-01 1.494020000000000081e+01 1.315799999999999841e+02 2.216619999999999891e+03
1.420000000000000151e-01 1.874649999999999928e-01 1.506719999999999970e+01 1.319610000000000127e+02 2.216730000000000018e+03
1.430000000000000160e-01 1.874759999999999760e-01 1.516730000000000089e+01 1.322615000000000123e+02 2.216819999999999709e+03
1.440000000000000169e-01 1.874850000000000128e-01 1.523295000000000066e+01 1.324679999999999893e+02 2.216895000000000437e+03
1.450000000000000178e-01 1.874915000000000054e-01 1.525929999999999964e+01 1.325735000000000241e+02 2.216949999999999818e+03
1.459999999999999909e-01 1.874945000000000084e-01 1.524415000000000120e+01 1.325774999999999864e+02 2.216980000000000018e+03
1.469999999999999918e-01 1.874945000000000084e-01 1.518809999999999860e+01 1.324855000000000018e+02 2.216980000000000018e+03
1.479999999999999927e-01 1.874914999999999776e-01 1.509394999999999953e+01 1.323079999999999927e+02 2.216960000000000036e+03
1.489999999999999936e-01 1.874865000000000004e-01 1.496649999999999991e+01 1.320604999999999905e+02 2.216914999999999964e+03
1.499999999999999944e-01 1.874784999999999924e-01 1.481240000000000023e+01 1.317615000000000123e+02 2.216860000000000127e+03
1.509999999999999953e-01 1.874695000000000111e-01 1.463915000000000077e+01 1.314304999999999950e+02 2.216784999999999854e+03
1.519999999999999962e-01 1.874589999999999868e-01 1.445504999999999995e+01 1.310885000000000105e+02 2.216699999999999818e+03
1.529999999999999971e-01 1.874480000000000035e-01 1.426805000000000057e+01 1.307564999999999884e+02 2.216609999999999673e+03
1.539999999999999980e-01 1.874379999999999935e-01 1.408595000000000041e+01 1.304504999999999768e+02 2.216529999999999745e+03
1.549999999999999989e-01 1.874284999999999979e-01 1.391544999999999987e+01 1.301864999999999952e+02 2.216449999999999818e+03
1.559999999999999998e-01 1.874200000000000033e-01 1.376205000000000034e+01 1.299755000000000109e+02 2.216375000000000000e+03
1.570000000000000007e-01 1.874129999999999963e-01 1.362959999999999994e+01 1.298230000000000075e+02 2.216319999999999709e+03
1.580000000000000016e-01 1.874079999999999913e-01 1.352050000000000018e+01 1.297325000000000159e+02 2.216274999999999636e+03
1.590000000000000024e-01 1.874045000000000016e-01 1.343524999999999991e+01 1.297015000000000100e+02 2.216250000000000000e+03
