# t [s], A [cm^2], U [cm/s], P [cPa], c [cm/s]
1.000000000000000021e-03 7.025580000000000158e-01 5.277999999999997971e-03 1.066185000000000116e+02 1.755250000000000000e+03
2.000000000000000042e-03 7.025554999999999994e-01 1.429519999999999923e-02 1.065964999999999918e+02 1.755244999999999891e+03
3.000000000000000062e-03 7.026410000000000711e-01 1.716198499999999905e-01 1.067839999999999918e+02 1.755285000000000082e+03
4.000000000000000083e-03 7.026594999999999924e-01 2.312649999999999983e-01 1.068474999999999966e+02 1.755300000000000182e+03
5.000000000000000104e-03 7.025755000000000194e-01 1.139499999999999957e-01 1.065884999999999962e+02 1.755250000000000000e+03
6.000000000000000125e-03 7.024880000000000013e-01 -2.365099999999997760e-02 1.061809999999999974e+02 1.755164999999999964e+03
7.000000000000000146e-03 7.023649999999999061e-01 -2.399350000000000094e-01 1.055844999999999914e+02 1.755034999999999854e+03
8.000000000000000167e-03 7.021465000000000067e-01 -6.471299999999999830e-01 1.046189999999999998e+02 1.754825000000000045e+03
9.000000000000001055e-03 7.018330000000000402e-01 -1.238854999999999817e+00 1.032230500000000006e+02 1.754525000000000091e+03
1.000000000000000194e-02 7.013975000000000071e-01 -2.041835000000000289e+00 1.012973999999999961e+02 1.754099999999999909e+03
1.099999999999999936e-02 7.008240000000000025e-01 -3.054945000000000022e+00 9.876929999999998699e+01 1.753535000000000082e+03
1.200000000000000025e-02 7.001829999999999998e-01 -4.115815000000000445e+00 9.580289999999999395e+01 1.752855000000000018e+03
1.300000000000000114e-02 6.995994999999999298e-01 -4.949072499999999764e+00 9.279939999999999145e+01 1.752134999999999991e+03
1.400000000000000203e-02 6.991665000000000241e-01 -5.334826999999999764e+00 9.016974999999999341e+01 1.751465000000000146e+03
1.499999999999999944e-02 6.988955000000000028e-01 -5.216995000000000715e+00 8.812720000000000198e+01 1.750900000000000091e+03
1.600000000000000033e-02 6.987265000000000281e-01 -4.698820000000000441e+00 8.662344999999999118e+01 1.750434999999999945e+03
1.700000000000000122e-02 6.985665000000000902e-01 -3.969375000000000320e+00 8.541530000000000200e+01 1.750039999999999964e+03
1.800000000000000211e-02 6.983375000000000554e-01 -3.212171999999999805e+00 8.419759999999999422e+01 1.749650000000000091e+03
1.900000000000000300e-02 6.980040000000000688e-01 -2.532529999999999948e+00 8.274000000000000909e+01 1.749224999999999909e+03
2.000000000000000042e-02 6.975819999999999244e-01 -1.932250000000000245e+00 8.097030000000000882e+01 1.748735000000000127e+03
2.100000000000000130e-02 6.971190000000000442e-01 -1.340305000000000302e+00 7.896760000000000446e+01 1.748194999999999936e+03
2.200000000000000219e-02 6.966639999999999500e-01 -6.763000000000003453e-01 7.688249999999999318e+01 1.747625000000000000e+03
2.299999999999999961e-02 6.962399999999999700e-01 9.156500000000011852e-02 7.483760000000000900e+01 1.747065000000000055e+03
2.400000000000000050e-02 6.958344999999999114e-01 9.192600000000004101e-01 7.285705000000000098e+01 1.746509999999999991e+03
2.500000000000000139e-02 6.954059999999999686e-01 1.693985000000000074e+00 7.084655000000000769e+01 1.745944999999999936e+03
2.600000000000000228e-02 6.948959999999999582e-01 2.266369999999999774e+00 6.862090000000000600e+01 1.745335000000000036e+03
2.700000000000000316e-02 6.942535000000000789e-01 2.495089999999999808e+00 6.596524999999999750e+01 1.744644999999999982e+03
2.800000000000000058e-02 6.934489999999999821e-01 2.290704999999999991e+00 6.271139999999999759e+01 1.743824999999999818e+03
2.900000000000000147e-02 6.924915000000000376e-01 1.644985000000000142e+00 5.880310000000000059e+01 1.742865000000000009e+03
3.000000000000000236e-02 6.914219999999999811e-01 6.348499999999992482e-01 5.432869999999999777e+01 1.741779999999999973e+03
3.099999999999999978e-02 6.903114999999999668e-01 -5.983000000000000540e-01 4.950939999999999941e+01 1.740605000000000018e+03
3.200000000000000067e-02 6.892355000000000009e-01 -1.884860000000000646e+00 4.465229999999999677e+01 1.739400000000000091e+03
3.300000000000000155e-02 6.882675000000000320e-01 -3.062860000000000138e+00 4.008890000000000242e+01 1.738240000000000009e+03
3.400000000000000244e-02 6.874620000000000175e-01 -4.003745000000000331e+00 3.611820000000000164e+01 1.737200000000000045e+03
3.500000000000000333e-02 6.868529999999999358e-01 -4.624064999999999870e+00 3.296815000000000140e+01 1.736335000000000036e+03
3.600000000000000422e-02 6.864540000000000086e-01 -4.884209500000000759e+00 3.077740000000000009e+01 1.735679999999999836e+03
3.700000000000000511e-02 6.862645000000000550e-01 -4.779094999999999871e+00 2.959810000000000230e+01 1.735264999999999873e+03
3.799999999999999906e-02 6.862719999999999931e-01 -4.324374999999999858e+00 2.941225000000000023e+01 1.735090000000000146e+03
3.899999999999999994e-02 6.864604999999999180e-01 -3.543645999999999852e+00 3.015655000000000285e+01 1.735144999999999982e+03
4.000000000000000083e-02 6.868134999999999657e-01 -2.459699999999999775e+00 3.174515000000000242e+01 1.735425000000000182e+03
4.100000000000000172e-02 6.873135000000000217e-01 -1.091800000000000104e+00 3.408700000000000330e+01 1.735900000000000091e+03
4.200000000000000261e-02 6.879480000000000040e-01 5.417349999999996335e-01 3.709275000000000233e+01 1.736559999999999945e+03
4.300000000000000350e-02 6.886995000000000200e-01 2.417954999999999632e+00 4.067329999999999757e+01 1.737369999999999891e+03
4.400000000000000439e-02 6.895495000000000374e-01 4.504014999999998992e+00 4.473534999999999684e+01 1.738319999999999936e+03
4.499999999999999833e-02 6.904744999999999910e-01 6.754469999999999530e+00 4.917549999999999955e+01 1.739380000000000109e+03
4.599999999999999922e-02 6.914484999999999104e-01 9.112131999999999010e+00 5.387919999999999732e+01 1.740519999999999982e+03
4.700000000000000011e-02 6.924445000000000183e-01 1.151233500000000021e+01 5.872404999999999831e+01 1.741715000000000146e+03
4.800000000000000100e-02 6.934350000000000236e-01 1.388888500000000015e+01 6.358660000000000423e+01 1.742930000000000064e+03
4.900000000000000189e-02 6.943970000000000420e-01 1.618074000000000012e+01 6.835235000000000127e+01 1.744144999999999982e+03
5.000000000000000278e-02 6.953125000000000000e-01 1.833715000000000117e+01 7.292470000000000141e+01 1.745329999999999927e+03
5.100000000000000366e-02 6.961690000000000378e-01 2.032150000000000034e+01 7.723264999999999247e+01 1.746465000000000146e+03
5.200000000000000455e-02 6.969620000000000815e-01 2.211224999999999952e+01 8.123454999999999870e+01 1.747539999999999964e+03
5.300000000000000544e-02 6.976925000000000487e-01 2.370264999999999844e+01 8.491855000000001041e+01 1.748549999999999955e+03
5.399999999999999939e-02 6.983669999999999600e-01 2.509825000000000017e+01 8.829999999999999716e+01 1.749485000000000127e+03
5.500000000000000028e-02 6.989944999999999631e-01 2.631449999999999889e+01 9.141604999999999848e+01 1.750355000000000018e+03
5.600000000000000117e-02 6.995875000000000288e-01 2.737359999999999971e+01 9.432015000000001237e+01 1.751170000000000073e+03
5.700000000000000205e-02 7.001589999999999758e-01 2.830245000000000033e+01 9.707480000000001041e+01 1.751950000000000045e+03
5.800000000000000294e-02 7.007220000000000670e-01 2.913005000000000067e+01 9.974690000000001078e+01 1.752704999999999927e+03
5.900000000000000383e-02 7.012905000000000388e-01 2.988589999999999947e+01 1.024019499999999994e+02 1.753445000000000164e+03
6.000000000000000472e-02 7.018739999999999979e-01 3.059769999999999968e+01 1.050999999999999943e+02 1.754190000000000055e+03
6.099999999999999867e-02 7.024829999999999686e-01 3.128970000000000340e+01 1.078890000000000100e+02 1.754954999999999927e+03
6.199999999999999956e-02 7.031225000000000946e-01 3.198044999999999760e+01 1.108040000000000020e+02 1.755744999999999891e+03
6.300000000000000044e-02 7.037930000000000019e-01 3.268140000000000356e+01 1.138609999999999900e+02 1.756555000000000064e+03
6.400000000000000133e-02 7.044930000000000359e-01 3.339560000000000173e+01 1.170564999999999998e+02 1.757409999999999854e+03
6.500000000000000222e-02 7.052164999999999129e-01 3.411760000000000304e+01 1.203675000000000068e+02 1.758289999999999964e+03
6.600000000000000311e-02 7.059515000000000651e-01 3.483400000000000318e+01 1.237529999999999859e+02 1.759190000000000055e+03
6.700000000000000400e-02 7.066859999999999253e-01 3.552495000000000402e+01 1.271564999999999941e+02 1.760095000000000027e+03
6.800000000000000488e-02 7.074050000000000615e-01 3.616629999999999967e+01 1.305105000000000075e+02 1.760990000000000009e+03
6.900000000000000577e-02 7.080929999999999724e-01 3.673194999999999766e+01 1.337434999999999832e+02 1.761869999999999891e+03
7.000000000000000666e-02 7.087360000000000326e-01 3.719594999999999629e+01 1.367835000000000036e+02 1.762695000000000164e+03
7.100000000000000755e-02 7.093199999999999505e-01 3.753499999999999659e+01 1.395654999999999859e+02 1.763470000000000027e+03
7.200000000000000844e-02 7.098355000000000636e-01 3.773010000000000019e+01 1.420345000000000084e+02 1.764164999999999964e+03
7.300000000000000933e-02 7.102749999999999897e-01 3.776760000000000161e+01 1.441490000000000009e+02 1.764784999999999854e+03
7.399999999999999634e-02 7.106339999999999879e-01 3.764005000000000223e+01 1.458829999999999814e+02 1.765305000000000064e+03
7.499999999999999722e-02 7.109125000000000583e-01 3.734664999999999679e+01 1.472274999999999920e+02 1.765724999999999909e+03
7.599999999999999811e-02 7.111125000000000362e-01 3.689294999999999902e+01 1.481875000000000000e+02 1.766045000000000073e+03
7.699999999999999900e-02 7.112395000000000245e-01 3.629039999999999822e+01 1.487860000000000014e+02 1.766269999999999982e+03
7.799999999999999989e-02 7.113015000000000310e-01 3.555584999999999951e+01 1.490564999999999998e+02 1.766414999999999964e+03
7.900000000000000078e-02 7.113069999999999116e-01 3.471020000000000039e+01 1.490434999999999945e+02 1.766474999999999909e+03
8.000000000000000167e-02 7.112674999999999415e-01 3.377759999999999962e+01 1.487975000000000136e+02 1.766470000000000027e+03
8.100000000000000255e-02 7.111955000000000915e-01 3.278405000000000058e+01 1.483750000000000000e+02 1.766414999999999964e+03
8.200000000000000344e-02 7.111005000000000242e-01 3.175594999999999857e+01 1.478325000000000102e+02 1.766309999999999945e+03
8.300000000000000433e-02 7.109950000000000436e-01 3.071905000000000285e+01 1.472255000000000109e+02 1.766190000000000055e+03
8.400000000000000522e-02 7.108889999999999931e-01 2.969689999999999941e+01 1.466039999999999850e+02 1.766049999999999955e+03
8.500000000000000611e-02 7.107900000000000329e-01 2.871000000000000085e+01 1.460104999999999791e+02 1.765910000000000082e+03
8.600000000000000699e-02 7.107045000000000723e-01 2.777465000000000117e+01 1.454795000000000016e+02 1.765779999999999973e+03
8.700000000000000788e-02 7.106365000000000043e-01 2.690254999999999797e+01 1.450355000000000132e+02 1.765664999999999964e+03
8.800000000000000877e-02 7.105879999999999974e-01 2.610020000000000095e+01 1.446914999999999907e+02 1.765569999999999936e+03
8.899999999999999578e-02 7.105589999999999407e-01 2.536915000000000120e+01 1.444505000000000052e+02 1.765494999999999891e+03
8.999999999999999667e-02 7.105474999999999985e-01 2.470609999999999928e+01 1.443040000000000020e+02 1.765440000000000055e+03
9.099999999999999756e-02 7.105479999999999574e-01 2.410345000000000226e+01 1.442355000000000018e+02 1.765414999999999964e+03
9.199999999999999845e-02 7.105574999999999530e-01 2.355015000000000214e+01 1.442219999999999800e+02 1.765394999999999982e+03
9.299999999999999933e-02 7.105680000000000884e-01 2.303229999999999933e+01 1.442330000000000041e+02 1.765380000000000109e+03
9.400000000000000022e-02 7.105725000000000513e-01 2.253439999999999799e+01 1.442370000000000232e+02 1.765369999999999891e+03
9.500000000000000111e-02 7.105650000000000022e-01 2.204035000000000011e+01 1.441999999999999886e+02 1.765355000000000018e+03
9.600000000000000200e-02 7.105390000000000317e-01 2.153430000000000177e+01 1.440889999999999986e+02 1.765325000000000045e+03
9.700000000000000289e-02 7.104885000000000783e-01 2.100175000000000125e+01 1.438754999999999882e+02 1.765264999999999873e+03
9.800000000000000377e-02 7.104090000000000682e-01 2.043059999999999832e+01 1.435355000000000132e+02 1.765184999999999945e+03
9.900000000000000466e-02 7.102975000000000261e-01 1.981174999999999997e+01 1.430494999999999948e+02 1.765069999999999936e+03
1.000000000000000056e-01 7.101530000000000342e-01 1.913974999999999937e+01 1.424105000000000132e+02 1.764914999999999964e+03
1.010000000000000064e-01 7.099759999999999405e-01 1.841324999999999790e+01 1.416150000000000091e+02 1.764720000000000027e+03
1.020000000000000073e-01 7.097685000000000244e-01 1.763504999999999967e+01 1.406715000000000089e+02 1.764490000000000009e+03
1.030000000000000082e-01 7.095350000000000268e-01 1.681194999999999951e+01 1.395969999999999800e+02 1.764230000000000018e+03
1.040000000000000091e-01 7.092810000000000503e-01 1.595449999999999946e+01 1.384139999999999873e+02 1.763934999999999945e+03
1.050000000000000100e-01 7.090134999999999632e-01 1.507632499999999887e+01 1.371530000000000200e+02 1.763619999999999891e+03
1.059999999999999970e-01 7.087395000000000778e-01 1.419352499999999928e+01 1.358495000000000061e+02 1.763289999999999964e+03
1.069999999999999979e-01 7.084675000000000278e-01 1.332347500000000018e+01 1.345405000000000086e+02 1.762950000000000045e+03
1.079999999999999988e-01 7.082049999999999734e-01 1.248405499999999968e+01 1.332649999999999864e+02 1.762619999999999891e+03
1.089999999999999997e-01 7.079604999999999926e-01 1.169264499999999884e+01 1.320610000000000070e+02 1.762305000000000064e+03
1.100000000000000006e-01 7.077400000000000357e-01 1.096505999999999936e+01 1.309615000000000009e+02 1.762005000000000109e+03
1.110000000000000014e-01 7.075495000000000534e-01 1.031462999999999930e+01 1.299945000000000164e+02 1.761734999999999900e+03
1.120000000000000023e-01 7.073914999999999509e-01 9.751810000000000755e+00 1.291829999999999927e+02 1.761505000000000109e+03
1.130000000000000032e-01 7.072700000000000653e-01 9.283310000000000173e+00 1.285409999999999968e+02 1.761309999999999945e+03
1.140000000000000041e-01 7.071849999999999525e-01 8.912145000000000650e+00 1.280740000000000123e+02 1.761160000000000082e+03
1.150000000000000050e-01 7.071350000000000691e-01 8.637525000000000119e+00 1.277800000000000011e+02 1.761054999999999836e+03
1.160000000000000059e-01 7.071180000000000243e-01 8.454924999999999358e+00 1.276500000000000057e+02 1.760990000000000009e+03
1.170000000000000068e-01 7.071300000000000363e-01 8.356825000000000614e+00 1.276675000000000040e+02 1.760960000000000036e+03
1.180000000000000077e-01 7.071650000000000436e-01 8.333004999999999995e+00 1.278114999999999952e+02 1.760974999999999909e+03
1.190000000000000085e-01 7.072199999999999598e-01 8.371299999999999741e+00 1.280554999999999950e+02 1.761009999999999991e+03
1.200000000000000094e-01 7.072864999999999291e-01 8.458285000000000053e+00 1.283725000000000023e+02 1.761065000000000055e+03
1.209999999999999964e-01 7.073610000000000175e-01 8.580004999999999882e+00 1.287355000000000018e+02 1.761139999999999873e+03
1.219999999999999973e-01 7.074365000000000236e-01 8.722599999999999909e+00 1.291165000000000020e+02 1.761220000000000027e+03
1.229999999999999982e-01 7.075089999999999435e-01 8.872965000000000657e+00 1.294904999999999973e+02 1.761309999999999945e+03
1.239999999999999991e-01 7.075734999999999664e-01 9.019200000000001438e+00 1.298360000000000127e+02 1.761389999999999873e+03
1.250000000000000000e-01 7.076275000000000759e-01 9.151044999999999874e+00 1.301349999999999909e+02 1.761465000000000146e+03
1.260000000000000009e-01 7.076685000000000336e-01 9.260189999999999699e+00 1.303735000000000070e+02 1.761525000000000091e+03
1.270000000000000018e-01 7.076949999999999630e-01 9.340399999999998926e+00 1.305439999999999827e+02 1.761575000000000045e+03
1.280000000000000027e-01 7.077065000000000161e-01 9.387630000000001473e+00 1.306410000000000196e+02 1.761605000000000018e+03
1.290000000000000036e-01 7.077029999999999710e-01 9.400055000000000049e+00 1.306655000000000086e+02 1.761619999999999891e+03
1.300000000000000044e-01 7.076864999999999961e-01 9.377860000000000085e+00 1.306220000000000141e+02 1.761619999999999891e+03
1.310000000000000053e-01 7.076580000000000092e-01 9.323095000000000354e+00 1.305165000000000077e+02 1.761599999999999909e+03
1.320000000000000062e-01 7.076204999999999856e-01 9.239395000000000024e+00 1.303605000000000018e+02 1.761570000000000164e+03
1.330000000000000071e-01 7.075759999999999827e-01 9.131689999999998975e+00 1.301659999999999968e+02 1.761525000000000091e+03
1.340000000000000080e-01 7.075274999999999759e-01 9.005890000000000839e+00 1.299459999999999980e+02 1.761480000000000018e+03
1.350000000000000089e-01 7.074785000000000101e-01 8.868344999999999700e+00 1.297144999999999868e+02 1.761425000000000182e+03
1.360000000000000098e-01 7.074314999999999909e-01 8.725704999999999600e+00 1.294850000000000136e+02 1.761369999999999891e+03
1.370000000000000107e-01 7.073879999999999058e-01 8.584294999999999121e+00 1.292699999999999818e+02 1.761319999999999936e+03
1.380000000000000115e-01 7.073510000000000630e-01 8.449835000000000207e+00 1.290794999999999959e+02 1.761269999999999982e+03
1.390000000000000124e-01 7.073220000000000063e-01 8.327149999999999608e+00 1.289219999999999970e+02 1.761230000000000018e+03
1.400000000000000133e-01 7.073009999999999575e-01 8.220040000000000902e+00 1.288034999999999854e+02 1.761195000000000164e+03
1.410000000000000142e-01 7.072895000000000154e-01 8.130934999999999135e+00 1.287270000000000039e+02 1.761170000000000073e+03
1.420000000000000151e-01 7.072860000000000813e-01 8.060964999999999492e+00 1.286915000000000191e+02 1.761159999999999854e+03
1.430000000000000160e-01 7.072910000000000030e-01 8.009975000000000733e+00 1.286955000000000098e+02 1.761154999999999973e+03
1.440000000000000169e-01 7.073024999999999451e-01 7.976614999999999789e+00 1.287330000000000041e+02 1.761160000000000082e+03
1.450000000000000178e-01 7.073184999999999611e-01 7.958560000000000301e+00 1.287975000000000136e+02 1.761170000000000073e+03
1.459999999999999909e-01 7.073380000000000223e-01 7.952749999999999986e+00 1.288809999999999718e+02 1.761190000000000055e+03
1.469999999999999918e-01 7.073585000000000012e-01 7.955655000000000143e+00 1.289735000000000014e+02 1.761210000000000036e+03
1.479999999999999927e-01 7.073784999999999101e-01 7.963540000000000063e+00 1.290670000000000073e+02 1.761224999999999909e+03
1.489999999999999936e-01 7.073954999999999549e-01 7.972754999999999370e+00 1.291529999999999916e+02 1.761250000000000000e+03
1.499999999999999944e-01 7.074095000000000244e-01 7.979960000000000164e+00 1.292230000000000132e+02 1.761269999999999982e+03
1.509999999999999953e-01 7.074179999999999913e-01 7.982305000000000206e+00 1.292724999999999795e+02 1.761280000000000200e+03
1.519999999999999962e-01 7.074214999999999254e-01 7.977610000000000312e+00 1.292969999999999970e+02 1.761285000000000082e+03
1.529999999999999971e-01 7.074190000000000200e-01 7.964430000000000121e+00 1.292950000000000159e+02 1.761289999999999964e+03
1.539999999999999980e-01 7.074100000000000943e-01 7.942089999999999428e+00 1.292649999999999864e+02 1.761284999999999854e+03
1.549999999999999989e-01 7.073964999999999836e-01 7.910740000000000549e+00 1.292094999999999914e+02 1.761269999999999982e+03
1.559999999999999998e-01 7.073784999999999101e-01 7.871249999999999858e+00 1.291314999999999884e+02 1.761255000000000109e+03
1.570000000000000007e-01 7.073575000000000834e-01 7.825174999999999770e+00 1.290370000000000061e+02 1.761235000000000127e+03
1.580000000000000016e-01 7.073340000000000183e-01 7.774639999999999773e+00 1.289314999999999998e+02 1.761210000000000036e+03
1.590000000000000024e-01 7.073104999999999531e-01 7.722210000000000463e+00 1.288220000000000027e+02 1.761180000000000064e+03
