# t [s], A [cm^2], U [cm/s], P [cPa], c [cm/s]
1.000000000000000021e-03 6.043214999999999559e-01 3.298599999999998755e-03 9.828755000000001019e+01 1.379224999999999909e+03
2.000000000000000042e-03 6.043129999999999891e-01 -2.268999999999968958e-05 9.827404999999998836e+01 1.379220000000000027e+03
3.000000000000000062e-03 6.043374999999999719e-01 3.518165000000000181e-02 9.830264999999999986e+01 1.379224999999999909e+03
4.000000000000000083e-03 6.043924999999999992e-01 1.164512000000000047e-01 9.839265000000000327e+01 1.379255000000000109e+03
5.000000000000000104e-03 6.044145000000000767e-01 1.541315499999999783e-01 9.843880000000000052e+01 1.379275000000000091e+03
6.000000000000000125e-03 6.043864999999999377e-01 1.196219500000000047e-01 9.838474999999999682e+01 1.379259999999999991e+03
7.000000000000000146e-03 6.043404999999999472e-01 5.396850000000000258e-02 9.825610000000000355e+01 1.379230000000000018e+03
8.000000000000000167e-03 6.042980000000000018e-01 -8.036999999999960842e-03 9.809250000000000114e+01 1.379195000000000164e+03
9.000000000000001055e-03 6.042399999999999993e-01 -9.965099999999998959e-02 9.786795000000000755e+01 1.379139999999999873e+03
1.000000000000000194e-02 6.041434999999999444e-01 -2.589645000000000419e-01 9.753540000000000987e+01 1.379059999999999945e+03
1.099999999999999936e-02 6.040030000000000676e-01 -4.941349999999998799e-01 9.706759999999999877e+01 1.378950000000000045e+03
1.200000000000000025e-02 6.038129999999999331e-01 -8.091450000000000031e-01 9.643969999999998777e+01 1.378799999999999955e+03
1.300000000000000114e-02 6.035614999999999730e-01 -1.213144999999999918e+00 9.562030000000000030e+01 1.378599999999999909e+03
1.400000000000000203e-02 6.032455000000001011e-01 -1.699529999999999985e+00 9.459225000000000705e+01 1.378335000000000036e+03
1.499999999999999944e-02 6.028810000000000002e-01 -2.227240000000000109e+00 9.337839999999999918e+01 1.378025000000000091e+03
1.600000000000000033e-02 6.025015000000000231e-01 -2.726045000000000051e+00 9.204474999999999341e+01 1.377674999999999955e+03
1.700000000000000122e-02 6.021404999999999674e-01 -3.120425000000000004e+00 9.067965000000000941e+01 1.377300000000000182e+03
1.800000000000000211e-02 6.018229999999999968e-01 -3.353930500000000148e+00 8.936449999999999250e+01 1.376924999999999955e+03
1.900000000000000300e-02 6.015554999999999097e-01 -3.402172999999999892e+00 8.815219999999999345e+01 1.376559999999999945e+03
2.000000000000000042e-02 6.013280000000000847e-01 -3.272844500000000156e+00 8.705915000000000248e+01 1.376220000000000027e+03
2.100000000000000130e-02 6.011234999999999218e-01 -2.997170000000000112e+00 8.606860000000000355e+01 1.375894999999999982e+03
2.200000000000000219e-02 6.009189999999999809e-01 -2.617698000000000302e+00 8.514180000000000348e+01 1.375579999999999927e+03
2.299999999999999961e-02 6.006960000000000077e-01 -2.176184999999999814e+00 8.423185000000000855e+01 1.375269999999999982e+03
2.400000000000000050e-02 6.004434999999999079e-01 -1.704080000000000261e+00 8.329795000000000016e+01 1.374949999999999818e+03
2.500000000000000139e-02 6.001579999999999693e-01 -1.217415000000000136e+00 8.231499999999999773e+01 1.374619999999999891e+03
2.600000000000000228e-02 5.998470000000000191e-01 -7.169900000000002382e-01 8.127799999999999159e+01 1.374275000000000091e+03
2.700000000000000316e-02 5.995209999999999706e-01 -1.934399999999998343e-01 8.019939999999999714e+01 1.373925000000000182e+03
2.800000000000000058e-02 5.991910000000000291e-01 3.650299999999999656e-01 7.910190000000000055e+01 1.373559999999999945e+03
2.900000000000000147e-02 5.988660000000000094e-01 9.648300000000000765e-01 7.800839999999999463e+01 1.373200000000000045e+03
3.000000000000000236e-02 5.985494999999999566e-01 1.601469999999999949e+00 7.693375000000000341e+01 1.372840000000000146e+03
3.099999999999999978e-02 5.982359999999999900e-01 2.257460000000000022e+00 7.587870000000000914e+01 1.372485000000000127e+03
3.200000000000000067e-02 5.979170000000000318e-01 2.903604999999999769e+00 7.482849999999999113e+01 1.372134999999999991e+03
3.300000000000000155e-02 5.975789999999999713e-01 3.503050000000000441e+00 7.375509999999999877e+01 1.371775000000000091e+03
3.400000000000000244e-02 5.972089999999999899e-01 4.016994999999999649e+00 7.262260000000000559e+01 1.371409999999999854e+03
3.500000000000000333e-02 5.967945000000000055e-01 4.410969999999999835e+00 7.139449999999999363e+01 1.371019999999999982e+03
3.600000000000000422e-02 5.963300000000000267e-01 4.660599999999999632e+00 7.004179999999999495e+01 1.370599999999999909e+03
3.700000000000000511e-02 5.958149999999999835e-01 4.755514999999999937e+00 6.854970000000000141e+01 1.370150000000000091e+03
3.799999999999999906e-02 5.952565000000000772e-01 4.701195000000000235e+00 6.692224999999999113e+01 1.369664999999999964e+03
3.899999999999999994e-02 5.946679999999999744e-01 4.517714999999999925e+00 6.518354999999999677e+01 1.369154999999999973e+03
4.000000000000000083e-02 5.940684999999999993e-01 4.236565000000000580e+00 6.337574999999999648e+01 1.368630000000000109e+03
4.100000000000000172e-02 5.934785000000000199e-01 3.895694999999999908e+00 6.155420000000000158e+01 1.368094999999999800e+03
4.200000000000000261e-02 5.929179999999999451e-01 3.534794999999999909e+00 5.978125000000000000e+01 1.367565000000000055e+03
4.300000000000000350e-02 5.924055000000000293e-01 3.190840000000000121e+00 5.811990000000000123e+01 1.367070000000000164e+03
4.400000000000000439e-02 5.919570000000000665e-01 2.895229999999999748e+00 5.662815000000000509e+01 1.366610000000000127e+03
4.499999999999999833e-02 5.915829999999999700e-01 2.672114999999999796e+00 5.535510000000000019e+01 1.366210000000000036e+03
4.599999999999999922e-02 5.912904999999999411e-01 2.538389999999999702e+00 5.433859999999999957e+01 1.365869999999999891e+03
4.700000000000000011e-02 5.910850000000000826e-01 2.504564999999999930e+00 5.360470000000000113e+01 1.365605000000000018e+03
4.800000000000000100e-02 5.909670000000000201e-01 2.576235050000000193e+00 5.316830000000000211e+01 1.365425000000000182e+03
4.900000000000000189e-02 5.909360000000000168e-01 2.755880000000000329e+00 5.303520000000000323e+01 1.365329999999999927e+03
5.000000000000000278e-02 5.909910000000000441e-01 3.044414999999999871e+00 5.320414999999999850e+01 1.365320000000000164e+03
5.100000000000000366e-02 5.911299999999999333e-01 3.442314999999999792e+00 5.366915000000000191e+01 1.365400000000000091e+03
5.200000000000000455e-02 5.913505000000000011e-01 3.950219999999999843e+00 5.442104999999999393e+01 1.365559999999999945e+03
5.300000000000000544e-02 5.916500000000000092e-01 4.568844999999999601e+00 5.544904999999999973e+01 1.365809999999999945e+03
5.399999999999999939e-02 5.920254999999999823e-01 5.298426499999999706e+00 5.674089999999999634e+01 1.366139999999999873e+03
5.500000000000000028e-02 5.924745000000000150e-01 6.137930500000000400e+00 5.828310000000000457e+01 1.366539999999999964e+03
5.600000000000000117e-02 5.929919999999999636e-01 7.084105000000000096e+00 6.005974999999999397e+01 1.367014999999999873e+03
5.700000000000000205e-02 5.935730000000000173e-01 8.130824999999999747e+00 6.205270000000000152e+01 1.367559999999999945e+03
5.800000000000000294e-02 5.942104999999999748e-01 9.268784999999999386e+00 6.424039999999999395e+01 1.368160000000000082e+03
5.900000000000000383e-02 5.948964999999999392e-01 1.048527499999999968e+01 6.659819999999999141e+01 1.368824999999999818e+03
6.000000000000000472e-02 5.956215000000000259e-01 1.176490499999999884e+01 6.909815000000000396e+01 1.369534999999999854e+03
6.099999999999999867e-02 5.963770000000000460e-01 1.308990000000000009e+01 7.170990000000000464e+01 1.370279999999999973e+03
6.199999999999999956e-02 5.971530000000000449e-01 1.444151500000000077e+01 7.440160000000000196e+01 1.371059999999999945e+03
6.300000000000000044e-02 5.979394999999999571e-01 1.580046000000000106e+01 7.714095000000000368e+01 1.371865000000000009e+03
6.400000000000000133e-02 5.987275000000000791e-01 1.714837999999999951e+01 7.989679999999999893e+01 1.372675000000000182e+03
6.500000000000000222e-02 5.995089999999999586e-01 1.846825000000000117e+01 8.263994999999999891e+01 1.373494999999999891e+03
6.600000000000000311e-02 6.002775000000000194e-01 1.974530000000000030e+01 8.534459999999999980e+01 1.374315000000000055e+03
6.700000000000000400e-02 6.010269999999999779e-01 2.096724999999999994e+01 8.798900000000000432e+01 1.375119999999999891e+03
6.800000000000000488e-02 6.017540000000000111e-01 2.212460000000000093e+01 9.055584999999999241e+01 1.375914999999999964e+03
6.900000000000000577e-02 6.024555000000000327e-01 2.321070000000000277e+01 9.303319999999999368e+01 1.376684999999999945e+03
7.000000000000000666e-02 6.031310000000000837e-01 2.422124999999999773e+01 9.541319999999998913e+01 1.377434999999999945e+03
7.100000000000000755e-02 6.037799999999999834e-01 2.515449999999999875e+01 9.769190000000000396e+01 1.378154999999999973e+03
7.200000000000000844e-02 6.044024999999999537e-01 2.601034999999999897e+01 9.987084999999999013e+01 1.378855000000000018e+03
7.300000000000000933e-02 6.050005000000000521e-01 2.679064999999999941e+01 1.019528999999999996e+02 1.379525000000000091e+03
7.399999999999999634e-02 6.055760000000000032e-01 2.749820000000000064e+01 1.039447499999999991e+02 1.380170000000000073e+03
7.499999999999999722e-02 6.061315000000000452e-01 2.813654999999999973e+01 1.058534999999999968e+02 1.380795000000000073e+03
7.599999999999999811e-02 6.066694999999999727e-01 2.870994999999999919e+01 1.076875000000000000e+02 1.381389999999999873e+03
7.699999999999999900e-02 6.071910000000000363e-01 2.922254999999999825e+01 1.094569999999999936e+02 1.381974999999999909e+03
7.799999999999999989e-02 6.076995000000000591e-01 2.967855000000000132e+01 1.111684999999999945e+02 1.382534999999999854e+03
7.900000000000000078e-02 6.081955000000000000e-01 3.008169999999999789e+01 1.128294999999999959e+02 1.383085000000000036e+03
8.000000000000000167e-02 6.086810000000000276e-01 3.043504999999999683e+01 1.144455000000000098e+02 1.383615000000000009e+03
8.100000000000000255e-02 6.091554999999999609e-01 3.074099999999999966e+01 1.160204999999999984e+02 1.384134999999999991e+03
8.200000000000000344e-02 6.096194999999999808e-01 3.100110000000000099e+01 1.175544999999999902e+02 1.384639999999999873e+03
8.300000000000000433e-02 6.100714999999999888e-01 3.121589999999999776e+01 1.190480000000000018e+02 1.385130000000000109e+03
8.400000000000000522e-02 6.105110000000000259e-01 3.138535000000000252e+01 1.204975000000000023e+02 1.385610000000000127e+03
8.500000000000000611e-02 6.109364999999999934e-01 3.150854999999999961e+01 1.218975000000000080e+02 1.386075000000000045e+03
8.600000000000000699e-02 6.113450000000000273e-01 3.158409999999999940e+01 1.232425000000000068e+02 1.386519999999999982e+03
8.700000000000000788e-02 6.117340000000000000e-01 3.161030000000000229e+01 1.245229999999999961e+02 1.386944999999999936e+03
8.800000000000000877e-02 6.121015000000000761e-01 3.158514999999999873e+01 1.257330000000000041e+02 1.387349999999999909e+03
8.899999999999999578e-02 6.124445000000000583e-01 3.150685000000000002e+01 1.268619999999999948e+02 1.387735000000000127e+03
8.999999999999999667e-02 6.127610000000000001e-01 3.137379999999999924e+01 1.279025000000000034e+02 1.388090000000000146e+03
9.099999999999999756e-02 6.130489999999999551e-01 3.118469999999999942e+01 1.288460000000000036e+02 1.388414999999999964e+03
9.199999999999999845e-02 6.133055000000000589e-01 3.093900000000000006e+01 1.296864999999999952e+02 1.388715000000000146e+03
9.299999999999999933e-02 6.135310000000000485e-01 3.063660000000000139e+01 1.304184999999999945e+02 1.388980000000000018e+03
9.400000000000000022e-02 6.137224999999999486e-01 3.027810000000000201e+01 1.310374999999999943e+02 1.389214999999999918e+03
9.500000000000000111e-02 6.138810000000000100e-01 2.986495000000000033e+01 1.315425000000000182e+02 1.389409999999999854e+03
9.600000000000000200e-02 6.140069999999999695e-01 2.939920000000000044e+01 1.319325000000000045e+02 1.389569999999999936e+03
9.700000000000000289e-02 6.140989999999999505e-01 2.888380000000000081e+01 1.322090000000000032e+02 1.389694999999999936e+03
9.800000000000000377e-02 6.141600000000000392e-01 2.832209999999999894e+01 1.323745000000000118e+02 1.389779999999999973e+03
9.900000000000000466e-02 6.141905000000000836e-01 2.771829999999999927e+01 1.324344999999999857e+02 1.389835000000000036e+03
1.000000000000000056e-01 6.141925000000000301e-01 2.707714999999999961e+01 1.323944999999999936e+02 1.389860000000000127e+03
1.010000000000000064e-01 6.141680000000000472e-01 2.640390000000000015e+01 1.322630000000000052e+02 1.389855000000000018e+03
1.020000000000000073e-01 6.141194999999999293e-01 2.570414999999999850e+01 1.320475000000000136e+02 1.389820000000000164e+03
1.030000000000000082e-01 6.140499999999999847e-01 2.498389999999999844e+01 1.317584999999999980e+02 1.389764999999999873e+03
1.040000000000000091e-01 6.139620000000000077e-01 2.424920000000000186e+01 1.314050000000000011e+02 1.389684999999999945e+03
1.050000000000000100e-01 6.138589999999999325e-01 2.350614999999999810e+01 1.309984999999999786e+02 1.389585000000000036e+03
1.059999999999999970e-01 6.137440000000000673e-01 2.276095000000000113e+01 1.305500000000000114e+02 1.389465000000000146e+03
1.069999999999999979e-01 6.136194999999999844e-01 2.201939999999999742e+01 1.300695000000000050e+02 1.389329999999999927e+03
1.079999999999999988e-01 6.134889999999999510e-01 2.128685000000000116e+01 1.295685000000000002e+02 1.389195000000000164e+03
1.089999999999999997e-01 6.133550000000000946e-01 2.056820000000000093e+01 1.290559999999999832e+02 1.389045000000000073e+03
1.100000000000000006e-01 6.132200000000000983e-01 1.986779999999999902e+01 1.285409999999999968e+02 1.388889999999999873e+03
1.110000000000000014e-01 6.130860000000000198e-01 1.918890000000000029e+01 1.280310000000000059e+02 1.388740000000000009e+03
1.120000000000000023e-01 6.129539999999999988e-01 1.853420000000000201e+01 1.275340000000000060e+02 1.388585000000000036e+03
1.130000000000000032e-01 6.128264999999999407e-01 1.790514999999999901e+01 1.270529999999999973e+02 1.388434999999999945e+03
1.140000000000000041e-01 6.127035000000000675e-01 1.730250000000000199e+01 1.265939999999999941e+02 1.388289999999999964e+03
1.150000000000000050e-01 6.125855000000000050e-01 1.672579999999999956e+01 1.261574999999999989e+02 1.388150000000000091e+03
1.160000000000000059e-01 6.124730000000000452e-01 1.617379999999999995e+01 1.257445000000000164e+02 1.388009999999999991e+03
1.170000000000000068e-01 6.123650000000000482e-01 1.564454999999999885e+01 1.253549999999999898e+02 1.387884999999999991e+03
1.180000000000000077e-01 6.122620000000000839e-01 1.513514999999999944e+01 1.249859999999999900e+02 1.387759999999999991e+03
1.190000000000000085e-01 6.121615000000000251e-01 1.464229999999999876e+01 1.246350000000000051e+02 1.387639999999999873e+03
1.200000000000000094e-01 6.120634999999999826e-01 1.416225000000000023e+01 1.242974999999999994e+02 1.387530000000000200e+03
1.209999999999999964e-01 6.119660000000000100e-01 1.369099999999999895e+01 1.239699999999999989e+02 1.387420000000000073e+03
1.219999999999999973e-01 6.118685000000000374e-01 1.322432999999999836e+01 1.236469999999999914e+02 1.387309999999999945e+03
1.229999999999999982e-01 6.117684999999999373e-01 1.275832000000000122e+01 1.233240000000000123e+02 1.387200000000000045e+03
1.239999999999999991e-01 6.116660000000000430e-01 1.228896499999999925e+01 1.229954999999999927e+02 1.387089999999999918e+03
1.250000000000000000e-01 6.115595000000000336e-01 1.181289500000000103e+01 1.226574999999999989e+02 1.386985000000000127e+03
1.260000000000000009e-01 6.114475000000000326e-01 1.132693499999999887e+01 1.223060000000000116e+02 1.386875000000000000e+03
1.270000000000000018e-01 6.113299999999999290e-01 1.082864000000000004e+01 1.219385000000000048e+02 1.386755000000000109e+03
1.280000000000000027e-01 6.112070000000000558e-01 1.031608500000000106e+01 1.215519999999999925e+02 1.386634999999999991e+03
1.290000000000000036e-01 6.110774999999999402e-01 9.788109999999999644e+00 1.211465000000000032e+02 1.386509999999999991e+03
1.300000000000000044e-01 6.109430000000000138e-01 9.244204999999999117e+00 1.207199999999999989e+02 1.386380000000000109e+03
1.310000000000000053e-01 6.108020000000000671e-01 8.684689999999999799e+00 1.202750000000000057e+02 1.386244999999999891e+03
1.320000000000000062e-01 6.106575000000000752e-01 8.110509999999999664e+00 1.198125000000000000e+02 1.386105000000000018e+03
1.330000000000000071e-01 6.105089999999999684e-01 7.523345000000000837e+00 1.193359999999999985e+02 1.385960000000000036e+03
1.340000000000000080e-01 6.103585000000000260e-01 6.925660000000000593e+00 1.188495000000000061e+02 1.385815000000000055e+03
1.350000000000000089e-01 6.102075000000000138e-01 6.320275000000000531e+00 1.183565000000000111e+02 1.385664999999999964e+03
1.360000000000000098e-01 6.100570000000000714e-01 5.710689999999999600e+00 1.178629999999999995e+02 1.385514999999999873e+03
1.370000000000000107e-01 6.099099999999999522e-01 5.100749999999999673e+00 1.173750000000000000e+02 1.385369999999999891e+03
1.380000000000000115e-01 6.097675000000000178e-01 4.494584999999999830e+00 1.168984999999999985e+02 1.385220000000000027e+03
1.390000000000000124e-01 6.096310000000000340e-01 3.896545000000000147e+00 1.164399999999999977e+02 1.385079999999999927e+03
1.400000000000000133e-01 6.095034999999999759e-01 3.310979999999999812e+00 1.160045000000000073e+02 1.384945000000000164e+03
1.410000000000000142e-01 6.093850000000000655e-01 2.742193999999999576e+00 1.155995000000000061e+02 1.384815000000000055e+03
1.420000000000000151e-01 6.092794999999999739e-01 2.194271500000000152e+00 1.152299999999999898e+02 1.384694999999999936e+03
1.430000000000000160e-01 6.091860000000000053e-01 1.670971499999999832e+00 1.149004999999999939e+02 1.384590000000000146e+03
1.440000000000000169e-01 6.091070000000000650e-01 1.175619500000000039e+00 1.146159999999999997e+02 1.384494999999999891e+03
1.450000000000000178e-01 6.090424999999999311e-01 7.110014999999999530e-01 1.143785000000000025e+02 1.384410000000000082e+03
1.459999999999999909e-01 6.089934999999999654e-01 2.792840000000000877e-01 1.141910000000000025e+02 1.384345000000000027e+03
1.469999999999999918e-01 6.089594999999999869e-01 -1.180230000000000168e-01 1.140540000000000020e+02 1.384295000000000073e+03
1.479999999999999927e-01 6.089404999999999957e-01 -4.801289999999999725e-01 1.139680000000000035e+02 1.384255000000000109e+03
1.489999999999999936e-01 6.089359999999999218e-01 -8.069479999999999986e-01 1.139300000000000068e+02 1.384230000000000018e+03
1.499999999999999944e-01 6.089449999999999585e-01 -1.099088000000000065e+00 1.139394999999999953e+02 1.384220000000000027e+03
1.509999999999999953e-01 6.089664999999999662e-01 -1.357804499999999859e+00 1.139920000000000044e+02 1.384220000000000027e+03
1.519999999999999962e-01 6.089990000000000681e-01 -1.584945500000000118e+00 1.140824999999999960e+02 1.384235000000000127e+03
1.529999999999999971e-01 6.090400000000000258e-01 -1.782856500000000066e+00 1.142059999999999889e+02 1.384259999999999991e+03
1.539999999999999980e-01 6.090884999999999216e-01 -1.954307999999999934e+00 1.143565000000000111e+02 1.384295000000000073e+03
1.549999999999999989e-01 6.091429999999999900e-01 -2.102357500000000101e+00 1.145285000000000082e+02 1.384335000000000036e+03
1.559999999999999998e-01 6.092005000000000337e-01 -2.230255000000000098e+00 1.147145000000000010e+02 1.384390000000000100e+03
1.570000000000000007e-01 6.092600000000000238e-01 -2.341355000000000075e+00 1.149080000000000013e+02 1.384440000000000055e+03
1.580000000000000016e-01 6.093189999999999440e-01 -2.438979999999999926e+00 1.151030000000000086e+02 1.384490000000000009e+03
1.590000000000000024e-01 6.093759999999999177e-01 -2.526329999999999742e+00 1.152930000000000064e+02 1.384545000000000073e+03
