# t [s], A [cm^2], U [cm/s], P [cPa], c [cm/s]
1.000000000000000021e-03 8.006419999999999648e-01 5.482500000000001261e-03 9.498509999999998854e+01 1.797159999999999854e+03
2.000000000000000042e-03 8.006379999999999608e-01 1.412955000000000114e-02 9.495834999999999582e+01 1.797154999999999973e+03
3.000000000000000062e-03 8.007360000000000033e-01 1.816934000000000049e-01 9.515749999999999886e+01 1.797190000000000055e+03
4.000000000000000083e-03 8.007509999999999906e-01 2.404474999999999807e-01 9.520965000000001055e+01 1.797204999999999927e+03
5.000000000000000104e-03 8.006415000000000060e-01 1.068379999999999885e-01 9.490315000000001078e+01 1.797144999999999982e+03
6.000000000000000125e-03 8.005385000000000417e-01 -3.546499999999996877e-02 9.446045000000000869e+01 1.797049999999999955e+03
7.000000000000000146e-03 8.003854999999999720e-01 -2.757600000000000051e-01 9.380570000000000164e+01 1.796914999999999964e+03
8.000000000000000167e-03 8.001179999999999959e-01 -7.259549999999999059e-01 9.274699999999999989e+01 1.796704999999999927e+03
9.000000000000001055e-03 7.997425000000000228e-01 -1.368904999999999816e+00 9.123754999999999882e+01 1.796400000000000091e+03
1.000000000000000194e-02 7.992215000000000291e-01 -2.243485000000000174e+00 8.916235000000000355e+01 1.795965000000000146e+03
1.099999999999999936e-02 7.985465000000000479e-01 -3.337105000000000210e+00 8.646094999999999686e+01 1.795405000000000200e+03
1.200000000000000025e-02 7.978220000000000312e-01 -4.440455000000000041e+00 8.337690000000000623e+01 1.794740000000000009e+03
1.300000000000000114e-02 7.972084999999999866e-01 -5.242455849999999806e+00 8.039530000000000598e+01 1.794065000000000055e+03
1.400000000000000203e-02 7.968020000000000103e-01 -5.533084999999999809e+00 7.794740000000000180e+01 1.793474999999999909e+03
1.499999999999999944e-02 7.965865000000000862e-01 -5.302470000000000461e+00 7.618930000000000291e+01 1.793005000000000109e+03
1.600000000000000033e-02 7.964649999999999785e-01 -4.707905000000000229e+00 7.497589999999999577e+01 1.792639999999999873e+03
1.700000000000000122e-02 7.963175000000000114e-01 -3.974800000000000111e+00 7.397489999999999100e+01 1.792320000000000164e+03
1.800000000000000211e-02 7.960580000000000434e-01 -3.289570000000000327e+00 7.284045000000000414e+01 1.791990000000000009e+03
1.900000000000000300e-02 7.956670000000000131e-01 -2.726578550000000156e+00 7.136730000000000018e+01 1.791605000000000018e+03
2.000000000000000042e-02 7.951880000000000059e-01 -2.241274999999999906e+00 6.955559999999999832e+01 1.791154999999999973e+03
2.100000000000000130e-02 7.946919999999999540e-01 -1.728375000000000217e+00 6.755965000000000487e+01 1.790659999999999854e+03
2.200000000000000219e-02 7.942350000000000243e-01 -1.103734999999999911e+00 6.556629999999999825e+01 1.790159999999999854e+03
2.299999999999999961e-02 7.938250000000000028e-01 -3.626800000000001134e-01 6.367830000000000013e+01 1.789679999999999836e+03
2.400000000000000050e-02 7.934244999999999770e-01 4.053900000000001391e-01 6.185360000000000014e+01 1.789199999999999818e+03
2.500000000000000139e-02 7.929614999999999858e-01 1.041479999999999961e+00 5.991015000000000157e+01 1.788704999999999927e+03
2.600000000000000228e-02 7.923580000000000068e-01 1.365939999999999710e+00 5.758494999999999919e+01 1.788134999999999991e+03
2.700000000000000316e-02 7.915550000000000086e-01 1.235875000000000057e+00 5.462529999999999575e+01 1.787440000000000055e+03
2.800000000000000058e-02 7.905385000000000328e-01 5.935349999999992576e-01 5.088469999999999516e+01 1.786595000000000027e+03
2.900000000000000147e-02 7.893449999999999633e-01 -5.123150000000000759e-01 4.638674999999999926e+01 1.785590000000000146e+03
3.000000000000000236e-02 7.880540000000000322e-01 -1.940369999999999706e+00 4.133364999999999867e+01 1.784460000000000036e+03
3.099999999999999978e-02 7.867660000000000764e-01 -3.498260000000000147e+00 3.605940000000000367e+01 1.783269999999999982e+03
3.200000000000000067e-02 7.855775000000000396e-01 -4.990175000000000693e+00 3.095240000000000080e+01 1.782085000000000036e+03
3.300000000000000155e-02 7.845659999999999856e-01 -6.254774999999999530e+00 2.637890000000000157e+01 1.781000000000000000e+03
3.400000000000000244e-02 7.837794999999999623e-01 -7.184318499999999830e+00 2.262619999999999720e+01 1.780065000000000055e+03
3.500000000000000333e-02 7.832384999999999486e-01 -7.726585000000000036e+00 1.987474999999999881e+01 1.779335000000000036e+03
3.600000000000000422e-02 7.829405000000000392e-01 -7.874100000000000321e+00 1.819640000000000057e+01 1.778835000000000036e+03
3.700000000000000511e-02 7.828699999999999548e-01 -7.647470000000000212e+00 1.757430000000000092e+01 1.778574999999999818e+03
3.799999999999999906e-02 7.830034999999999634e-01 -7.077659999999999840e+00 1.793349999999999866e+01 1.778535000000000082e+03
3.899999999999999994e-02 7.833200000000000163e-01 -6.193534999999999791e+00 1.917265000000000086e+01 1.778714999999999918e+03
4.000000000000000083e-02 7.837990000000000235e-01 -5.016697000000000628e+00 2.118734999999999857e+01 1.779085000000000036e+03
4.100000000000000172e-02 7.844254999999999978e-01 -3.564420000000000144e+00 2.388029999999999831e+01 1.779619999999999891e+03
4.200000000000000261e-02 7.851810000000000178e-01 -1.856945000000000068e+00 2.715954999999999941e+01 1.780305000000000064e+03
4.300000000000000350e-02 7.860460000000000225e-01 7.475499999999968281e-02 3.093009999999999948e+01 1.781115000000000009e+03
4.400000000000000439e-02 7.869939999999999714e-01 2.184239999999999959e+00 3.508539999999999992e+01 1.782025000000000091e+03
4.499999999999999833e-02 7.879944999999999311e-01 4.410135000000000360e+00 3.950384999999999991e+01 1.783014999999999873e+03
4.599999999999999922e-02 7.890139999999999931e-01 6.680699999999999861e+00 4.405150000000000432e+01 1.784050000000000182e+03
4.700000000000000011e-02 7.900184999999999569e-01 8.921675399999999811e+00 4.859109999999999729e+01 1.785099999999999909e+03
4.800000000000000100e-02 7.909800000000000164e-01 1.106415499999999952e+01 5.299384999999999479e+01 1.786134999999999991e+03
4.900000000000000189e-02 7.918754999999999544e-01 1.305154000000000103e+01 5.715144999999999698e+01 1.787134999999999991e+03
5.000000000000000278e-02 7.926925000000000221e-01 1.484408000000000172e+01 6.098570000000000135e+01 1.788075000000000045e+03
5.100000000000000366e-02 7.934254999999998947e-01 1.642004999999999981e+01 6.445324999999999704e+01 1.788940000000000055e+03
5.200000000000000455e-02 7.940774999999999917e-01 1.777479999999999905e+01 6.754595000000000482e+01 1.789730000000000018e+03
5.300000000000000544e-02 7.946575000000000166e-01 1.891794999999999760e+01 7.028685000000000116e+01 1.790444999999999936e+03
5.399999999999999939e-02 7.951799999999999979e-01 1.986995000000000289e+01 7.272425000000001205e+01 1.791090000000000146e+03
5.500000000000000028e-02 7.956604999999999928e-01 2.065885000000000105e+01 7.492400000000000659e+01 1.791674999999999955e+03
5.600000000000000117e-02 7.961160000000000458e-01 2.131759999999999877e+01 7.696295000000000641e+01 1.792215000000000146e+03
5.700000000000000205e-02 7.965644999999998976e-01 2.188159999999999883e+01 7.892194999999999538e+01 1.792740000000000009e+03
5.800000000000000294e-02 7.970239999999999547e-01 2.238680000000000092e+01 8.088054999999999950e+01 1.793250000000000000e+03
5.900000000000000383e-02 7.975090000000000234e-01 2.286719999999999686e+01 8.291114999999999213e+01 1.793769999999999982e+03
6.000000000000000472e-02 7.980309999999999349e-01 2.335255000000000081e+01 8.507384999999999309e+01 1.794320000000000164e+03
6.099999999999999867e-02 7.985974999999999602e-01 2.386560000000000059e+01 8.741120000000000800e+01 1.794894999999999982e+03
6.199999999999999956e-02 7.992120000000000335e-01 2.442020000000000124e+01 8.994435000000000002e+01 1.795509999999999991e+03
6.300000000000000044e-02 7.998705000000000398e-01 2.501964999999999861e+01 9.267029999999999745e+01 1.796170000000000073e+03
6.400000000000000133e-02 8.005640000000000533e-01 2.565670000000000073e+01 9.556190000000000850e+01 1.796869999999999891e+03
6.500000000000000222e-02 8.012790000000000745e-01 2.631470000000000198e+01 9.857005000000000905e+01 1.797595000000000027e+03
6.600000000000000311e-02 8.019990000000000174e-01 2.696925000000000239e+01 1.016278499999999951e+02 1.798335000000000036e+03
6.700000000000000400e-02 8.027050000000000018e-01 2.759154999999999802e+01 1.046569499999999948e+02 1.799075000000000045e+03
6.800000000000000488e-02 8.033775000000000777e-01 2.815075000000000216e+01 1.075745000000000005e+02 1.799795000000000073e+03
6.900000000000000577e-02 8.039994999999999781e-01 2.861710000000000065e+01 1.102994999999999948e+02 1.800474999999999909e+03
7.000000000000000666e-02 8.045554999999999790e-01 2.896430000000000149e+01 1.127609999999999957e+02 1.801099999999999909e+03
7.100000000000000755e-02 8.050334999999999575e-01 2.917150000000000176e+01 1.148994999999999891e+02 1.801654999999999973e+03
7.200000000000000844e-02 8.054255000000000164e-01 2.922419999999999973e+01 1.166719999999999970e+02 1.802130000000000109e+03
7.300000000000000933e-02 8.057290000000000285e-01 2.911514999999999986e+01 1.180564999999999998e+02 1.802519999999999982e+03
7.399999999999999634e-02 8.059435000000000349e-01 2.884470000000000312e+01 1.190469999999999970e+02 1.802809999999999945e+03
7.499999999999999722e-02 8.060739999999999572e-01 2.842014999999999958e+01 1.196570000000000107e+02 1.803019999999999982e+03
7.599999999999999811e-02 8.061285000000000256e-01 2.785535000000000139e+01 1.199164999999999992e+02 1.803139999999999873e+03
7.699999999999999900e-02 8.061165000000000136e-01 2.716969999999999885e+01 1.198684999999999974e+02 1.803184999999999945e+03
7.799999999999999989e-02 8.060525000000000606e-01 2.638694999999999879e+01 1.195649999999999977e+02 1.803154999999999973e+03
7.900000000000000078e-02 8.059484999999999566e-01 2.553385000000000105e+01 1.190674999999999955e+02 1.803085000000000036e+03
8.000000000000000167e-02 8.058195000000000219e-01 2.463844999999999885e+01 1.184380000000000024e+02 1.802970000000000027e+03
8.100000000000000255e-02 8.056790000000000340e-01 2.372879999999999967e+01 1.177394999999999925e+02 1.802829999999999927e+03
8.200000000000000344e-02 8.055394999999999639e-01 2.283125000000000071e+01 1.170300000000000011e+02 1.802679999999999836e+03
8.300000000000000433e-02 8.054120000000000168e-01 2.196900000000000119e+01 1.163615000000000066e+02 1.802529999999999973e+03
8.400000000000000522e-02 8.053044999999999787e-01 2.116125000000000256e+01 1.157750000000000057e+02 1.802394999999999982e+03
8.500000000000000611e-02 8.052235000000000920e-01 2.042190000000000083e+01 1.153010000000000019e+02 1.802275000000000091e+03
8.600000000000000699e-02 8.051714999999999289e-01 1.975955000000000084e+01 1.149585000000000008e+02 1.802184999999999945e+03
8.700000000000000788e-02 8.051485000000000447e-01 1.917694999999999794e+01 1.147524999999999977e+02 1.802119999999999891e+03
8.800000000000000877e-02 8.051530000000000076e-01 1.867145000000000010e+01 1.146779999999999973e+02 1.802085000000000036e+03
8.899999999999999578e-02 8.051800000000000068e-01 1.823540000000000205e+01 1.147170000000000130e+02 1.802079999999999927e+03
8.999999999999999667e-02 8.052224999999999522e-01 1.785689999999999955e+01 1.148435000000000059e+02 1.802095000000000027e+03
9.099999999999999756e-02 8.052725000000000577e-01 1.752064999999999984e+01 1.150254999999999939e+02 1.802125000000000000e+03
9.199999999999999845e-02 8.053224999999999412e-01 1.720909999999999940e+01 1.152249999999999943e+02 1.802159999999999854e+03
9.299999999999999933e-02 8.053620000000000223e-01 1.690360000000000085e+01 1.154014999999999986e+02 1.802195000000000164e+03
9.400000000000000022e-02 8.053835000000000299e-01 1.658555000000000135e+01 1.155169999999999959e+02 1.802215000000000146e+03
9.500000000000000111e-02 8.053784999999999972e-01 1.623754999999999882e+01 1.155349999999999966e+02 1.802219999999999800e+03
9.600000000000000200e-02 8.053415000000000434e-01 1.584479999999999933e+01 1.154240000000000066e+02 1.802200000000000045e+03
9.700000000000000289e-02 8.052675000000000249e-01 1.539589999999999925e+01 1.151614999999999895e+02 1.802144999999999982e+03
9.800000000000000377e-02 8.051550000000000651e-01 1.488380000000000081e+01 1.147334999999999923e+02 1.802054999999999836e+03
9.900000000000000466e-02 8.050034999999999830e-01 1.430620000000000047e+01 1.141359999999999957e+02 1.801924999999999955e+03
1.000000000000000056e-01 8.048159999999999759e-01 1.366572499999999835e+01 1.133755000000000024e+02 1.801759999999999991e+03
1.010000000000000064e-01 8.045970000000000066e-01 1.296999999999999886e+01 1.124695000000000107e+02 1.801559999999999945e+03
1.020000000000000073e-01 8.043545000000000833e-01 1.223085000000000022e+01 1.114445000000000050e+02 1.801329999999999927e+03
1.030000000000000082e-01 8.040955000000000741e-01 1.146389500000000083e+01 1.103354999999999961e+02 1.801075000000000045e+03
1.040000000000000091e-01 8.038305000000000033e-01 1.068726999999999983e+01 1.091819999999999879e+02 1.800809999999999945e+03
1.050000000000000100e-01 8.035700000000000065e-01 9.920795000000000030e+00 1.080270000000000010e+02 1.800539999999999964e+03
1.059999999999999970e-01 8.033230000000000093e-01 9.184454999999999814e+00 1.069145000000000039e+02 1.800269999999999982e+03
1.069999999999999979e-01 8.030985000000000484e-01 8.497455000000000425e+00 1.058859999999999957e+02 1.800025000000000091e+03
1.079999999999999988e-01 8.029049999999999798e-01 7.876834999999999809e+00 1.049796000000000049e+02 1.799795000000000073e+03
1.089999999999999997e-01 8.027480000000000171e-01 7.336660000000000181e+00 1.042240999999999929e+02 1.799599999999999909e+03
1.100000000000000006e-01 8.026325000000000820e-01 6.887294999999999945e+00 1.036419999999999959e+02 1.799440000000000055e+03
1.110000000000000014e-01 8.025590000000000224e-01 6.534765000000000157e+00 1.032459999999999951e+02 1.799325000000000045e+03
1.120000000000000023e-01 8.025284999999999780e-01 6.280800000000000161e+00 1.030390000000000015e+02 1.799250000000000000e+03
1.130000000000000032e-01 8.025379999999999736e-01 6.122849999999999682e+00 1.030150000000000006e+02 1.799215000000000146e+03
1.140000000000000041e-01 8.025835000000000052e-01 6.054439999999999600e+00 1.031585000000000036e+02 1.799224999999999909e+03
1.150000000000000050e-01 8.026599999999999291e-01 6.065820000000000434e+00 1.034490000000000123e+02 1.799269999999999982e+03
1.160000000000000059e-01 8.027604999999999880e-01 6.144594999999999807e+00 1.038580000000000041e+02 1.799340000000000146e+03
1.170000000000000068e-01 8.028775000000000217e-01 6.276564999999999728e+00 1.043555000000000064e+02 1.799445000000000164e+03
1.180000000000000077e-01 8.030040000000000511e-01 6.446529999999999205e+00 1.049095000000000084e+02 1.799554999999999836e+03
1.190000000000000085e-01 8.031334999999999447e-01 6.639065000000000438e+00 1.054879999999999995e+02 1.799679999999999836e+03
1.200000000000000094e-01 8.032589999999999453e-01 6.839249999999999829e+00 1.060614999999999952e+02 1.799809999999999945e+03
1.209999999999999964e-01 8.033749999999999503e-01 7.033310000000000173e+00 1.066024999999999920e+02 1.799934999999999945e+03
1.219999999999999973e-01 8.034769999999999968e-01 7.209115000000000606e+00 1.070885000000000105e+02 1.800050000000000182e+03
1.229999999999999982e-01 8.035609999999999697e-01 7.356614999999999682e+00 1.075014999999999930e+02 1.800150000000000091e+03
1.239999999999999991e-01 8.036250000000000338e-01 7.468085000000000306e+00 1.078290000000000077e+02 1.800235000000000127e+03
1.250000000000000000e-01 8.036680000000000490e-01 7.538310000000000954e+00 1.080645000000000095e+02 1.800295000000000073e+03
1.260000000000000009e-01 8.036905000000000854e-01 7.564614999999999867e+00 1.082060000000000031e+02 1.800339999999999918e+03
1.270000000000000018e-01 8.036925000000000319e-01 7.546794999999999476e+00 1.082560000000000002e+02 1.800365000000000009e+03
1.280000000000000027e-01 8.036769999999999747e-01 7.486944999999999517e+00 1.082224999999999966e+02 1.800369999999999891e+03
1.290000000000000036e-01 8.036470000000000002e-01 7.389190000000000147e+00 1.081165000000000020e+02 1.800355000000000018e+03
1.300000000000000044e-01 8.036050000000000137e-01 7.259355000000000224e+00 1.079525000000000006e+02 1.800325000000000045e+03
1.310000000000000053e-01 8.035555000000000891e-01 7.104529999999999568e+00 1.077460000000000093e+02 1.800289999999999964e+03
1.320000000000000062e-01 8.035019999999999385e-01 6.932640000000000136e+00 1.075134999999999934e+02 1.800244999999999891e+03
1.330000000000000071e-01 8.034485000000000099e-01 6.751924999999999955e+00 1.072719999999999914e+02 1.800190000000000055e+03
1.340000000000000080e-01 8.033980000000000565e-01 6.570454999999999046e+00 1.070384999999999991e+02 1.800139999999999873e+03
1.350000000000000089e-01 8.033540000000000125e-01 6.395690000000000097e+00 1.068259999999999934e+02 1.800090000000000146e+03
1.360000000000000098e-01 8.033190000000000053e-01 6.234054999999999680e+00 1.066460000000000008e+02 1.800049999999999955e+03
1.370000000000000107e-01 8.032934999999999937e-01 6.090579999999999217e+00 1.065074999999999932e+02 1.800014999999999873e+03
1.380000000000000115e-01 8.032794999999999241e-01 5.968759999999999621e+00 1.064145000000000039e+02 1.799990000000000009e+03
1.390000000000000124e-01 8.032759999999999900e-01 5.870369999999999422e+00 1.063689999999999998e+02 1.799974999999999909e+03
1.400000000000000133e-01 8.032814999999999817e-01 5.795550000000000423e+00 1.063679999999999950e+02 1.799970000000000027e+03
1.410000000000000142e-01 8.032960000000000100e-01 5.742905000000000371e+00 1.064055000000000035e+02 1.799974999999999909e+03
1.420000000000000151e-01 8.033164999999999889e-01 5.709775000000000489e+00 1.064749999999999943e+02 1.799985000000000127e+03
1.430000000000000160e-01 8.033405000000000129e-01 5.692504999999999704e+00 1.065660000000000025e+02 1.800005000000000109e+03
1.440000000000000169e-01 8.033660000000000245e-01 5.686804999999999666e+00 1.066670000000000016e+02 1.800025000000000091e+03
1.450000000000000178e-01 8.033905000000000074e-01 5.688095000000000567e+00 1.067674999999999983e+02 1.800045000000000073e+03
1.459999999999999909e-01 8.034109999999999863e-01 5.691835000000000200e+00 1.068575000000000017e+02 1.800065000000000055e+03
1.469999999999999918e-01 8.034259999999999735e-01 5.693799999999999528e+00 1.069265000000000043e+02 1.800079999999999927e+03
1.479999999999999927e-01 8.034335000000000226e-01 5.690329999999999444e+00 1.069685000000000059e+02 1.800090000000000146e+03
1.489999999999999936e-01 8.034330000000000638e-01 5.678494999999999848e+00 1.069780000000000086e+02 1.800095000000000027e+03
1.499999999999999944e-01 8.034240000000000270e-01 5.656229999999999869e+00 1.069505000000000052e+02 1.800090000000000146e+03
1.509999999999999953e-01 8.034069999999999823e-01 5.622415000000000163e+00 1.068870000000000005e+02 1.800075000000000045e+03
1.519999999999999962e-01 8.033814999999999706e-01 5.576864999999999739e+00 1.067879999999999967e+02 1.800054999999999836e+03
1.529999999999999971e-01 8.033485000000000209e-01 5.520390000000000796e+00 1.066580000000000013e+02 1.800025000000000091e+03
1.539999999999999980e-01 8.033109999999999973e-01 5.454699999999999882e+00 1.065020000000000095e+02 1.799990000000000009e+03
1.549999999999999989e-01 8.032699999999999285e-01 5.382355000000000445e+00 1.063284999999999911e+02 1.799954999999999927e+03
1.559999999999999998e-01 8.032269999999999133e-01 5.306649999999999423e+00 1.061454999999999984e+02 1.799914999999999964e+03
1.570000000000000007e-01 8.031850000000000378e-01 5.231429999999999580e+00 1.059625000000000057e+02 1.799869999999999891e+03
1.580000000000000016e-01 8.031464999999999854e-01 5.160940000000000083e+00 1.057905000000000086e+02 1.799829999999999927e+03
1.590000000000000024e-01 8.031135000000000357e-01 5.099554999999999616e+00 1.056405000000000030e+02 1.799789999999999964e+03
