# t [s], A [cm^2], U [cm/s], P [cPa], c [cm/s]
1.000000000000000021e-03 6.833024999999999238e-01 7.183000000000008822e-03 1.031419999999999959e+02 1.813264999999999873e+03
2.000000000000000042e-03 6.832960000000000145e-01 8.864350000000001742e-03 1.031089999999999947e+02 1.813255000000000109e+03
3.000000000000000062e-03 6.833765000000000533e-01 1.690356000000000081e-01 1.033034999999999997e+02 1.813295000000000073e+03
4.000000000000000083e-03 6.833955000000000446e-01 2.387414999999999954e-01 1.033735000000000070e+02 1.813305000000000064e+03
5.000000000000000104e-03 6.833050000000000512e-01 1.106300000000000061e-01 1.030790000000000077e+02 1.813255000000000109e+03
6.000000000000000125e-03 6.832195000000000906e-01 -2.325250000000006478e-02 1.026529999999999916e+02 1.813175000000000182e+03
7.000000000000000146e-03 6.831024999999999459e-01 -2.353550000000000919e-01 1.020469999999999970e+02 1.813059999999999945e+03
8.000000000000000167e-03 6.828909999999999147e-01 -6.509349999999999303e-01 1.010571500000000071e+02 1.812875000000000000e+03
9.000000000000001055e-03 6.825949999999999518e-01 -1.249325000000000241e+00 9.964114999999999611e+01 1.812615000000000009e+03
1.000000000000000194e-02 6.821835000000000537e-01 -2.066075000000000106e+00 9.768819999999999482e+01 1.812250000000000000e+03
1.099999999999999936e-02 6.816415000000000113e-01 -3.101445000000000007e+00 9.511645000000000039e+01 1.811755000000000109e+03
1.200000000000000025e-02 6.810499999999999332e-01 -4.163714999999999833e+00 9.213604999999999734e+01 1.811170000000000073e+03
1.300000000000000114e-02 6.805404999999999927e-01 -4.949754500000000057e+00 8.920704999999999529e+01 1.810569999999999936e+03
1.400000000000000203e-02 6.801939999999999653e-01 -5.246285000000000309e+00 8.674954999999999927e+01 1.810029999999999973e+03
1.499999999999999944e-02 6.799999999999999378e-01 -5.033919999999999284e+00 8.492135000000000389e+01 1.809585000000000036e+03
1.600000000000000033e-02 6.798794999999999700e-01 -4.458584999999999354e+00 8.358809999999999718e+01 1.809230000000000018e+03
1.700000000000000122e-02 6.797325000000000728e-01 -3.735195000000000043e+00 8.243439999999999657e+01 1.808910000000000082e+03
1.800000000000000211e-02 6.794899999999999274e-01 -3.043118499999999838e+00 8.113280000000000314e+01 1.808575000000000045e+03
1.900000000000000300e-02 6.791365000000000318e-01 -2.454037000000000024e+00 7.949405000000000143e+01 1.808184999999999945e+03
2.000000000000000042e-02 6.787110000000000642e-01 -1.923174999999999857e+00 7.753059999999999263e+01 1.807740000000000009e+03
2.100000000000000130e-02 6.782759999999999900e-01 -1.345055000000000112e+00 7.540680000000000405e+01 1.807255000000000109e+03
2.200000000000000219e-02 6.778785000000000505e-01 -6.346400000000000929e-01 7.331739999999999213e+01 1.806780000000000200e+03
2.299999999999999961e-02 6.775290000000000479e-01 2.133050000000000779e-01 7.137054999999999438e+01 1.806315000000000055e+03
2.400000000000000050e-02 6.771935000000000038e-01 1.108324999999999783e+00 6.952500000000000568e+01 1.805869999999999891e+03
2.500000000000000139e-02 6.768110000000000515e-01 1.887849999999999806e+00 6.759515000000000384e+01 1.805409999999999854e+03
2.600000000000000228e-02 6.763125000000000941e-01 2.366255000000000219e+00 6.531005000000000393e+01 1.804894999999999982e+03
2.700000000000000316e-02 6.756459999999999688e-01 2.393729999999999691e+00 6.240784999999999627e+01 1.804269999999999982e+03
2.800000000000000058e-02 6.747994999999999965e-01 1.906989999999999963e+00 5.873439999999999372e+01 1.803505000000000109e+03
2.900000000000000147e-02 6.738049999999999873e-01 9.524400000000001754e-01 5.431080000000000041e+01 1.802605000000000018e+03
3.000000000000000236e-02 6.727305000000000090e-01 -3.284000000000002473e-01 4.934134999999999849e+01 1.801585000000000036e+03
3.099999999999999978e-02 6.716630000000000100e-01 -1.742599999999999483e+00 4.416290000000000049e+01 1.800510000000000218e+03
3.200000000000000067e-02 6.706849999999999756e-01 -3.096350000000000158e+00 3.916340000000000288e+01 1.799454999999999927e+03
3.300000000000000155e-02 6.698574999999999946e-01 -4.233269999999999200e+00 3.470244999999999891e+01 1.798474999999999909e+03
3.400000000000000244e-02 6.692190000000000083e-01 -5.052704999999999558e+00 3.105564999999999998e+01 1.797644999999999982e+03
3.500000000000000333e-02 6.687814999999999177e-01 -5.509615999999999403e+00 2.838940000000000197e+01 1.796994999999999891e+03
3.600000000000000422e-02 6.685410000000000519e-01 -5.602389999999999759e+00 2.676299999999999812e+01 1.796554999999999836e+03
3.700000000000000511e-02 6.684829999999999384e-01 -5.353994999999999393e+00 2.615184999999999960e+01 1.796320000000000164e+03
3.799999999999999906e-02 6.685875000000000012e-01 -4.794024999999999537e+00 2.648024999999999807e+01 1.796295000000000073e+03
3.899999999999999994e-02 6.688389999999999613e-01 -3.945763499999999979e+00 2.765415000000000134e+01 1.796450000000000045e+03
4.000000000000000083e-02 6.692244999999999999e-01 -2.821930000000000049e+00 2.958359999999999701e+01 1.796775000000000091e+03
4.100000000000000172e-02 6.697349999999999692e-01 -1.428790000000000227e+00 3.219075000000000131e+01 1.797255000000000109e+03
4.200000000000000261e-02 6.703609999999999847e-01 2.247400000000001619e-01 3.540500000000000114e+01 1.797875000000000000e+03
4.300000000000000350e-02 6.710880000000000178e-01 2.117724999999999635e+00 3.915135000000000076e+01 1.798610000000000127e+03
4.400000000000000439e-02 6.718969999999999665e-01 4.211624999999999730e+00 4.333990000000000009e+01 1.799454999999999927e+03
4.499999999999999833e-02 6.727640000000000287e-01 6.450295000000000556e+00 4.786030000000000229e+01 1.800380000000000109e+03
4.599999999999999922e-02 6.736604999999999954e-01 8.764685999999999311e+00 5.258454999999999302e+01 1.801365000000000009e+03
4.700000000000000011e-02 6.745585000000000608e-01 1.108079999999999998e+01 5.737619999999999720e+01 1.802375000000000000e+03
4.800000000000000100e-02 6.754320000000000324e-01 1.332836999999999961e+01 6.210275000000000034e+01 1.803394999999999982e+03
4.900000000000000189e-02 6.762610000000000010e-01 1.544838000000000022e+01 6.664905000000000257e+01 1.804385000000000218e+03
5.000000000000000278e-02 6.770329999999999959e-01 1.739754999999999896e+01 7.092780000000000484e+01 1.805335000000000036e+03
5.100000000000000366e-02 6.777414999999999967e-01 1.915009999999999835e+01 7.488490000000000180e+01 1.806230000000000018e+03
5.200000000000000455e-02 6.783874999999999211e-01 2.069689999999999941e+01 7.850074999999999648e+01 1.807065000000000055e+03
5.300000000000000544e-02 6.789764999999999828e-01 2.204254999999999853e+01 8.178659999999999286e+01 1.807829999999999927e+03
5.399999999999999939e-02 6.795174999999999965e-01 2.320224999999999937e+01 8.477889999999999304e+01 1.808539999999999964e+03
5.500000000000000028e-02 6.800230000000000441e-01 2.419870000000000232e+01 8.753235000000000809e+01 1.809195000000000164e+03
5.600000000000000117e-02 6.805049999999999155e-01 2.505964999999999776e+01 9.011359999999999104e+01 1.809815000000000055e+03
5.700000000000000205e-02 6.809780000000000832e-01 2.581580000000000297e+01 9.259454999999999814e+01 1.810400000000000091e+03
5.800000000000000294e-02 6.814545000000000741e-01 2.649875000000000114e+01 9.504749999999999943e+01 1.810980000000000018e+03
5.900000000000000383e-02 6.819454999999999822e-01 2.713884999999999792e+01 9.753880000000000905e+01 1.811559999999999945e+03
6.000000000000000472e-02 6.824615000000000542e-01 2.776235000000000142e+01 1.001241500000000002e+02 1.812159999999999854e+03
6.099999999999999867e-02 6.830070000000000308e-01 2.838945000000000007e+01 1.028419999999999987e+02 1.812769999999999982e+03
6.199999999999999956e-02 6.835839999999999694e-01 2.903150000000000119e+01 1.057109999999999985e+02 1.813414999999999964e+03
6.300000000000000044e-02 6.841895000000000060e-01 2.969035000000000224e+01 1.087265000000000015e+02 1.814090000000000146e+03
6.400000000000000133e-02 6.848155000000000214e-01 3.035820000000000007e+01 1.118599999999999994e+02 1.814789999999999964e+03
6.500000000000000222e-02 6.854504999999999626e-01 3.101890000000000214e+01 1.150645000000000095e+02 1.815505000000000109e+03
6.600000000000000311e-02 6.860815000000000108e-01 3.165029999999999788e+01 1.182754999999999939e+02 1.816230000000000018e+03
6.700000000000000400e-02 6.866944999999999855e-01 3.222684999999999889e+01 1.214209999999999923e+02 1.816934999999999945e+03
6.800000000000000488e-02 6.872739999999999405e-01 3.272249999999999659e+01 1.244265000000000043e+02 1.817619999999999891e+03
6.900000000000000577e-02 6.878085000000000448e-01 3.311294999999999789e+01 1.272205000000000013e+02 1.818264999999999873e+03
7.000000000000000666e-02 6.882859999999999534e-01 3.337754999999999939e+01 1.297415000000000020e+02 1.818860000000000127e+03
7.100000000000000755e-02 6.886995000000000200e-01 3.350090000000000146e+01 1.319399999999999977e+02 1.819384999999999991e+03
7.200000000000000844e-02 6.890434999999999199e-01 3.347329999999999472e+01 1.337839999999999918e+02 1.819835000000000036e+03
7.300000000000000933e-02 6.893164999999999987e-01 3.329110000000000014e+01 1.352560000000000002e+02 1.820204999999999927e+03
7.399999999999999634e-02 6.895189999999999930e-01 3.295704999999999529e+01 1.363555000000000064e+02 1.820500000000000000e+03
7.499999999999999722e-02 6.896560000000000468e-01 3.247964999999999947e+01 1.370969999999999800e+02 1.820715000000000146e+03
7.599999999999999811e-02 6.897325000000000816e-01 3.187290000000000134e+01 1.375099999999999909e+02 1.820860000000000127e+03
7.699999999999999900e-02 6.897575000000000234e-01 3.115524999999999878e+01 1.376324999999999932e+02 1.820934999999999945e+03
7.799999999999999989e-02 6.897400000000000198e-01 3.034900000000000020e+01 1.375144999999999982e+02 1.820950000000000045e+03
7.900000000000000078e-02 6.896904999999999841e-01 2.947885000000000133e+01 1.372094999999999914e+02 1.820920000000000073e+03
8.000000000000000167e-02 6.896204999999999696e-01 2.857039999999999935e+01 1.367744999999999891e+02 1.820855000000000018e+03
8.100000000000000255e-02 6.895390000000000130e-01 2.764934999999999832e+01 1.362644999999999982e+02 1.820775000000000091e+03
8.200000000000000344e-02 6.894560000000000688e-01 2.673930000000000007e+01 1.357325000000000159e+02 1.820675000000000182e+03
8.300000000000000433e-02 6.893799999999999928e-01 2.586099999999999710e+01 1.352230000000000132e+02 1.820575000000000045e+03
8.400000000000000522e-02 6.893160000000000398e-01 2.503115000000000023e+01 1.347740000000000009e+02 1.820474999999999909e+03
8.500000000000000611e-02 6.892690000000000206e-01 2.426149999999999807e+01 1.344105000000000132e+02 1.820394999999999982e+03
8.600000000000000699e-02 6.892405000000000337e-01 2.355879999999999797e+01 1.341469999999999914e+02 1.820335000000000036e+03
8.700000000000000788e-02 6.892305000000000792e-01 2.292439999999999856e+01 1.339884999999999877e+02 1.820289999999999964e+03
8.800000000000000877e-02 6.892365000000000297e-01 2.235490000000000066e+01 1.339264999999999759e+02 1.820264999999999873e+03
8.899999999999999578e-02 6.892544999999999922e-01 2.184234999999999971e+01 1.339445000000000050e+02 1.820255000000000109e+03
8.999999999999999667e-02 6.892795000000000449e-01 2.137535000000000096e+01 1.340190000000000055e+02 1.820264999999999873e+03
9.099999999999999756e-02 6.893059999999999743e-01 2.093975000000000009e+01 1.341179999999999950e+02 1.820275000000000091e+03
9.199999999999999845e-02 6.893264999999999532e-01 2.051960000000000051e+01 1.342090000000000032e+02 1.820284999999999854e+03
9.299999999999999933e-02 6.893355000000001009e-01 2.009830000000000183e+01 1.342565000000000168e+02 1.820295000000000073e+03
9.400000000000000022e-02 6.893255000000000354e-01 1.965970000000000084e+01 1.342259999999999991e+02 1.820284999999999854e+03
9.500000000000000111e-02 6.892920000000000158e-01 1.918909999999999982e+01 1.340869999999999891e+02 1.820255000000000109e+03
9.600000000000000200e-02 6.892305000000000792e-01 1.867419999999999902e+01 1.338145000000000095e+02 1.820199999999999818e+03
9.700000000000000289e-02 6.891380000000000283e-01 1.810630000000000095e+01 1.333905000000000030e+02 1.820114999999999782e+03
9.800000000000000377e-02 6.890140000000000153e-01 1.748059999999999903e+01 1.328050000000000068e+02 1.820000000000000000e+03
9.900000000000000466e-02 6.888594999999999580e-01 1.679684999999999917e+01 1.320589999999999975e+02 1.819849999999999909e+03
1.000000000000000056e-01 6.886769999999999836e-01 1.605944999999999823e+01 1.311624999999999943e+02 1.819664999999999964e+03
1.010000000000000064e-01 6.884719999999999729e-01 1.527724999999999866e+01 1.301354999999999791e+02 1.819460000000000036e+03
1.020000000000000073e-01 6.882489999999999997e-01 1.446273500000000034e+01 1.290055000000000121e+02 1.819220000000000027e+03
1.030000000000000082e-01 6.880165000000000308e-01 1.363188500000000047e+01 1.278069999999999879e+02 1.818964999999999918e+03
1.040000000000000091e-01 6.877815000000000456e-01 1.280242999999999931e+01 1.265794999999999959e+02 1.818704999999999927e+03
1.050000000000000100e-01 6.875530000000000808e-01 1.199338999999999977e+01 1.253650000000000091e+02 1.818440000000000055e+03
1.059999999999999970e-01 6.873375000000000457e-01 1.122345999999999933e+01 1.242044999999999959e+02 1.818179999999999836e+03
1.069999999999999979e-01 6.871430000000000593e-01 1.051023499999999977e+01 1.231359999999999957e+02 1.817940000000000055e+03
1.079999999999999988e-01 6.869745000000000434e-01 9.868990000000000151e+00 1.221939999999999884e+02 1.817724999999999909e+03
1.089999999999999997e-01 6.868374999999999897e-01 9.311965000000000714e+00 1.214050000000000011e+02 1.817534999999999854e+03
1.100000000000000006e-01 6.867345000000000255e-01 8.847705000000001263e+00 1.207870000000000061e+02 1.817380000000000109e+03
1.110000000000000014e-01 6.866655000000000397e-01 8.480734999999999246e+00 1.203505000000000109e+02 1.817259999999999991e+03
1.120000000000000023e-01 6.866304999999999215e-01 8.211444999999999439e+00 1.200955000000000013e+02 1.817184999999999945e+03
1.130000000000000032e-01 6.866280000000000161e-01 8.036310000000000286e+00 1.200150000000000006e+02 1.817139999999999873e+03
1.140000000000000041e-01 6.866539999999999866e-01 7.948324999999999640e+00 1.200925000000000011e+02 1.817135000000000218e+03
1.150000000000000050e-01 6.867035000000000222e-01 7.937580000000000524e+00 1.203075000000000045e+02 1.817159999999999854e+03
1.160000000000000059e-01 6.867719999999999381e-01 7.991950000000000109e+00 1.206334999999999980e+02 1.817210000000000036e+03
1.170000000000000068e-01 6.868524999999999769e-01 8.097905000000000797e+00 1.210420000000000016e+02 1.817279999999999973e+03
1.180000000000000077e-01 6.869414999999999827e-01 8.241219999999998436e+00 1.215024999999999977e+02 1.817369999999999891e+03
1.190000000000000085e-01 6.870324999999999349e-01 8.407740000000000435e+00 1.219879999999999995e+02 1.817465000000000146e+03
1.200000000000000094e-01 6.871205000000000229e-01 8.583974999999998801e+00 1.224710000000000036e+02 1.817559999999999945e+03
1.209999999999999964e-01 6.872019999999999795e-01 8.757659999999999556e+00 1.229284999999999997e+02 1.817654999999999973e+03
1.219999999999999973e-01 6.872735000000000927e-01 8.918134999999999479e+00 1.233404999999999916e+02 1.817740000000000009e+03
1.229999999999999982e-01 6.873329999999999718e-01 9.056689999999999685e+00 1.236929999999999978e+02 1.817819999999999936e+03
1.239999999999999991e-01 6.873789999999999623e-01 9.166745000000000587e+00 1.239770000000000039e+02 1.817884999999999991e+03
1.250000000000000000e-01 6.874105000000000354e-01 9.243900000000000006e+00 1.241860000000000070e+02 1.817940000000000055e+03
1.260000000000000009e-01 6.874279999999999280e-01 9.285969999999998947e+00 1.243205000000000098e+02 1.817970000000000027e+03
1.270000000000000018e-01 6.874329999999999607e-01 9.292944999999999567e+00 1.243829999999999956e+02 1.817994999999999891e+03
1.280000000000000027e-01 6.874270000000000103e-01 9.266645000000000465e+00 1.243824999999999932e+02 1.818005000000000109e+03
1.290000000000000036e-01 6.874115000000000641e-01 9.210689999999999600e+00 1.243280000000000030e+02 1.818000000000000000e+03
1.300000000000000044e-01 6.873894999999999866e-01 9.129995000000000971e+00 1.242319999999999993e+02 1.817985000000000127e+03
1.310000000000000053e-01 6.873635000000000161e-01 9.030464999999999520e+00 1.241080000000000041e+02 1.817969999999999800e+03
1.320000000000000062e-01 6.873370000000000868e-01 8.918659999999999144e+00 1.239699999999999989e+02 1.817940000000000055e+03
1.330000000000000071e-01 6.873110000000000053e-01 8.801175000000000637e+00 1.238324999999999960e+02 1.817920000000000073e+03
1.340000000000000080e-01 6.872894999999999976e-01 8.684450000000000003e+00 1.237075000000000102e+02 1.817889999999999873e+03
1.350000000000000089e-01 6.872734999999999816e-01 8.574094999999999800e+00 1.236065000000000111e+02 1.817869999999999891e+03
1.360000000000000098e-01 6.872644999999999449e-01 8.474874999999999048e+00 1.235370000000000061e+02 1.817855000000000018e+03
1.370000000000000107e-01 6.872624999999999984e-01 8.390195000000000292e+00 1.235039999999999907e+02 1.817845000000000027e+03
1.380000000000000115e-01 6.872685000000000599e-01 8.322124999999999773e+00 1.235099999999999909e+02 1.817849999999999909e+03
1.390000000000000124e-01 6.872814999999999896e-01 8.271315000000001305e+00 1.235540000000000020e+02 1.817855000000000018e+03
1.400000000000000133e-01 6.873005000000000919e-01 8.237124999999998920e+00 1.236320000000000050e+02 1.817869999999999891e+03
1.410000000000000142e-01 6.873245000000000049e-01 8.217750000000000554e+00 1.237379999999999995e+02 1.817889999999999873e+03
1.420000000000000151e-01 6.873515000000000041e-01 8.210509999999999309e+00 1.238635000000000019e+02 1.817914999999999964e+03
1.430000000000000160e-01 6.873795000000000321e-01 8.212125000000000341e+00 1.240000000000000000e+02 1.817940000000000055e+03
1.440000000000000169e-01 6.874069999999999903e-01 8.219030000000000058e+00 1.241375000000000028e+02 1.817969999999999800e+03
1.450000000000000178e-01 6.874320000000000430e-01 8.227650000000000574e+00 1.242669999999999959e+02 1.818000000000000000e+03
1.459999999999999909e-01 6.874534999999999396e-01 8.234695000000000320e+00 1.243815000000000026e+02 1.818019999999999982e+03
1.469999999999999918e-01 6.874700000000000255e-01 8.237360000000000682e+00 1.244735000000000014e+02 1.818039999999999964e+03
1.479999999999999927e-01 6.874810000000000088e-01 8.233470000000000510e+00 1.245395000000000039e+02 1.818055000000000064e+03
1.489999999999999936e-01 6.874865000000000004e-01 8.221614999999999895e+00 1.245759999999999934e+02 1.818070000000000164e+03
1.499999999999999944e-01 6.874860000000000415e-01 8.201184999999998837e+00 1.245825000000000102e+02 1.818075000000000045e+03
1.509999999999999953e-01 6.874804999999999389e-01 8.172394999999999854e+00 1.245625000000000000e+02 1.818069999999999936e+03
1.519999999999999962e-01 6.874709999999999432e-01 8.136255000000000237e+00 1.245184999999999889e+02 1.818065000000000055e+03
1.529999999999999971e-01 6.874580000000000135e-01 8.094469999999999388e+00 1.244560000000000031e+02 1.818049999999999955e+03
1.539999999999999980e-01 6.874430000000000263e-01 8.049379999999999313e+00 1.243830000000000098e+02 1.818034999999999854e+03
1.549999999999999989e-01 6.874284999999999979e-01 8.003804999999999836e+00 1.243054999999999950e+02 1.818019999999999982e+03
1.559999999999999998e-01 6.874149999999999983e-01 7.960899999999999643e+00 1.242330000000000041e+02 1.818005000000000109e+03
1.570000000000000007e-01 6.874044999999999739e-01 7.924005000000000187e+00 1.241734999999999900e+02 1.817994999999999891e+03
1.580000000000000016e-01 6.873985000000000234e-01 7.896419999999999995e+00 1.241355000000000075e+02 1.817980000000000018e+03
1.590000000000000024e-01 6.873989999999999823e-01 7.881249999999999645e+00 1.241280000000000001e+02 1.817980000000000018e+03
