# t [s], A [cm^2], U [cm/s], P [cPa], c [cm/s]
1.000000000000000021e-03 1.736310000000000076e-01 3.371023000000000214e-01 9.383129999999999882e+01 2.170409999999999854e+03
2.000000000000000042e-03 1.735744999999999927e-01 1.891787499999999955e+00 9.026990000000000691e+01 2.169849999999999909e+03
3.000000000000000062e-03 1.734379999999999811e-01 3.816379500000000036e+00 8.526970000000000027e+01 2.168555000000000291e+03
4.000000000000000083e-03 1.732595000000000107e-01 5.998242000000000296e+00 8.000424999999999898e+01 2.166885000000000218e+03
5.000000000000000104e-03 1.730780000000000096e-01 8.335090000000000998e+00 7.551170000000000471e+01 2.165189999999999600e+03
6.000000000000000125e-03 1.729094999999999938e-01 1.056779500000000027e+01 7.193604999999999450e+01 2.163649999999999636e+03
7.000000000000000146e-03 1.727535000000000043e-01 1.244542000000000037e+01 6.882104999999999961e+01 2.162260000000000218e+03
8.000000000000000167e-03 1.726155000000000050e-01 1.395299999999999940e+01 6.602760000000000673e+01 2.161045000000000073e+03
9.000000000000001055e-03 1.724990000000000134e-01 1.516364999999999874e+01 6.372639999999999816e+01 2.160039999999999964e+03
1.000000000000000194e-02 1.724054999999999893e-01 1.610730000000000217e+01 6.194795000000000584e+01 2.159239999999999782e+03
1.099999999999999936e-02 1.723339999999999872e-01 1.681369999999999720e+01 6.063920000000000243e+01 2.158635000000000218e+03
1.200000000000000025e-02 1.722805000000000031e-01 1.730389999999999873e+01 5.971900000000000119e+01 2.158199999999999818e+03
1.300000000000000114e-02 1.722404999999999908e-01 1.757329999999999970e+01 5.900955000000000439e+01 2.157869999999999891e+03
1.400000000000000203e-02 1.722080000000000000e-01 1.766640000000000299e+01 5.839755000000000251e+01 2.157619999999999891e+03
1.499999999999999944e-02 1.721869999999999790e-01 1.774735000000000085e+01 5.811195000000000022e+01 2.157470000000000255e+03
1.600000000000000033e-02 1.721909999999999830e-01 1.804305000000000092e+01 5.869604999999999961e+01 2.157514999999999873e+03
1.700000000000000122e-02 1.722319999999999962e-01 1.869675000000000153e+01 6.061539999999999395e+01 2.157869999999999891e+03
1.800000000000000211e-02 1.723120000000000207e-01 1.966039999999999921e+01 6.384165000000000134e+01 2.158559999999999945e+03
1.900000000000000300e-02 1.724200000000000177e-01 2.070329999999999870e+01 6.773924999999999841e+01 2.159494999999999891e+03
2.000000000000000042e-02 1.725315000000000043e-01 2.151834999999999809e+01 7.130799999999999272e+01 2.160480000000000018e+03
2.100000000000000130e-02 1.726215000000000110e-01 2.185810000000000031e+01 7.360949999999999704e+01 2.161295000000000073e+03
2.200000000000000219e-02 1.726705000000000045e-01 2.163204999999999956e+01 7.414789999999999281e+01 2.161765000000000327e+03
2.299999999999999961e-02 1.726734999999999798e-01 2.092774999999999963e+01 7.303325000000000955e+01 2.161829999999999927e+03
2.400000000000000050e-02 1.726399999999999879e-01 1.995485000000000042e+01 7.087534999999999741e+01 2.161570000000000164e+03
2.500000000000000139e-02 1.725869999999999904e-01 1.894669999999999987e+01 6.848385000000000389e+01 2.161119999999999891e+03
2.600000000000000228e-02 1.725335000000000063e-01 1.806810000000000116e+01 6.653095000000000425e+01 2.160644999999999982e+03
2.700000000000000316e-02 1.724910000000000054e-01 1.736744999999999806e+01 6.532325000000000159e+01 2.160269999999999982e+03
2.800000000000000058e-02 1.724634999999999918e-01 1.678284999999999982e+01 6.475719999999999743e+01 2.160019999999999982e+03
2.900000000000000147e-02 1.724445000000000006e-01 1.619004999999999939e+01 6.443859999999999388e+01 2.159840000000000146e+03
3.000000000000000236e-02 1.724239999999999939e-01 1.546734999999999971e+01 6.389414999999999623e+01 2.159664999999999964e+03
3.099999999999999978e-02 1.723929999999999907e-01 1.455354999999999954e+01 6.278849999999999909e+01 2.159400000000000091e+03
3.200000000000000067e-02 1.723459999999999992e-01 1.348119999999999941e+01 6.107410000000000139e+01 2.159000000000000000e+03
3.300000000000000155e-02 1.722869999999999957e-01 1.237340000000000018e+01 5.902544999999999931e+01 2.158489999999999782e+03
3.400000000000000244e-02 1.722274999999999778e-01 1.140620000000000012e+01 5.714999999999999858e+01 2.157970000000000255e+03
3.500000000000000333e-02 1.721810000000000007e-01 1.075147000000000119e+01 5.601165000000000305e+01 2.157555000000000291e+03
3.600000000000000422e-02 1.721624999999999961e-01 1.052088000000000001e+01 5.603524999999999778e+01 2.157364999999999782e+03
3.700000000000000511e-02 1.721779999999999977e-01 1.073160000000000025e+01 5.736384999999999934e+01 2.157475000000000364e+03
3.799999999999999906e-02 1.722285000000000066e-01 1.130170000000000030e+01 5.981175000000000352e+01 2.157889999999999873e+03
3.899999999999999994e-02 1.723060000000000147e-01 1.207229999999999848e+01 6.291554999999999609e+01 2.158545000000000073e+03
4.000000000000000083e-02 1.723955000000000071e-01 1.284635000000000105e+01 6.605480000000000018e+01 2.159314999999999600e+03
4.100000000000000172e-02 1.724795000000000078e-01 1.343100000000000094e+01 6.859809999999998809e+01 2.160055000000000291e+03
4.200000000000000261e-02 1.725415000000000143e-01 1.367210000000000036e+01 7.003235000000000809e+01 2.160609999999999673e+03
4.300000000000000350e-02 1.725694999999999868e-01 1.347609999999999886e+01 7.004829999999999757e+01 2.160869999999999891e+03
4.400000000000000439e-02 1.725555000000000005e-01 1.281475000000000009e+01 6.856884999999999764e+01 2.160779999999999745e+03
4.499999999999999833e-02 1.724995000000000001e-01 1.171792999999999907e+01 6.572464999999999691e+01 2.160305000000000291e+03
4.599999999999999922e-02 1.724050000000000027e-01 1.025622500000000059e+01 6.179294999999999760e+01 2.159500000000000000e+03
4.700000000000000011e-02 1.722795000000000021e-01 8.522074999999999179e+00 5.712160000000000082e+01 2.158420000000000073e+03
4.800000000000000100e-02 1.721330000000000082e-01 6.612809999999999633e+00 5.206104999999999450e+01 2.157149999999999636e+03
4.900000000000000189e-02 1.719745000000000024e-01 4.619996949999999991e+00 4.691779999999999973e+01 2.155764999999999873e+03
5.000000000000000278e-02 1.718125000000000069e-01 2.625319999999999876e+00 4.193489999999999895e+01 2.154350000000000364e+03
5.100000000000000366e-02 1.716544999999999876e-01 7.012749999999998707e-01 3.729614999999999725e+01 2.152960000000000036e+03
5.200000000000000455e-02 1.715059999999999918e-01 -1.085390000000000077e+00 3.314305000000000234e+01 2.151649999999999636e+03
5.300000000000000544e-02 1.713719999999999966e-01 -2.670323499999999850e+00 2.959590000000000032e+01 2.150470000000000255e+03
5.399999999999999939e-02 1.712575000000000069e-01 -3.989984999999999893e+00 2.676959999999999695e+01 2.149449999999999818e+03
5.500000000000000028e-02 1.711659999999999848e-01 -4.982750000000000234e+00 2.477980000000000160e+01 2.148635000000000218e+03
5.600000000000000117e-02 1.711024999999999907e-01 -5.592534999999999812e+00 2.373809999999999931e+01 2.148054999999999836e+03
5.700000000000000205e-02 1.710705000000000142e-01 -5.773995000000000211e+00 2.373995000000000033e+01 2.147744999999999891e+03
5.800000000000000294e-02 1.710725000000000162e-01 -5.497790000000000177e+00 2.484825000000000017e+01 2.147734999999999673e+03
5.900000000000000383e-02 1.711104999999999987e-01 -4.754749999999999588e+00 2.707945000000000135e+01 2.148034999999999854e+03
6.000000000000000472e-02 1.711845000000000172e-01 -3.557700000000000085e+00 3.039515000000000100e+01 2.148644999999999982e+03
6.099999999999999867e-02 1.712930000000000008e-01 -1.940884999999999749e+00 3.470179999999999865e+01 2.149559999999999945e+03
6.199999999999999956e-02 1.714330000000000020e-01 4.298500000000027299e-02 3.985730000000000217e+01 2.150755000000000109e+03
6.300000000000000044e-02 1.715999999999999748e-01 2.327125000000000110e+00 4.568434999999999491e+01 2.152190000000000055e+03
6.400000000000000133e-02 1.717879999999999963e-01 4.835676499999999933e+00 5.198534999999999684e+01 2.153824999999999818e+03
6.500000000000000222e-02 1.719915000000000194e-01 7.488660000000000316e+00 5.855734999999999957e+01 2.155599999999999909e+03
6.600000000000000311e-02 1.722044999999999826e-01 1.020635500000000029e+01 6.520529999999999404e+01 2.157454999999999927e+03
6.700000000000000400e-02 1.724199999999999899e-01 1.291310499999999983e+01 7.175199999999999534e+01 2.159359999999999673e+03
6.800000000000000488e-02 1.726329999999999809e-01 1.554049999999999976e+01 7.804589999999998895e+01 2.161244999999999891e+03
6.900000000000000577e-02 1.728399999999999936e-01 1.803069999999999951e+01 8.396725000000000705e+01 2.163074999999999818e+03
7.000000000000000666e-02 1.730355000000000087e-01 2.033840000000000003e+01 8.943274999999999864e+01 2.164824999999999818e+03
7.100000000000000755e-02 1.732179999999999831e-01 2.243335000000000079e+01 9.439875000000000682e+01 2.166454999999999927e+03
7.200000000000000844e-02 1.733855000000000257e-01 2.430095000000000027e+01 9.886124999999999829e+01 2.167960000000000036e+03
7.300000000000000933e-02 1.735380000000000256e-01 2.594235000000000113e+01 1.028566000000000003e+02 2.169349999999999909e+03
7.399999999999999634e-02 1.736774999999999847e-01 2.737290000000000134e+01 1.064532000000000096e+02 2.170605000000000018e+03
7.499999999999999722e-02 1.738055000000000017e-01 2.861955000000000027e+01 1.097450000000000045e+02 2.171764999999999873e+03
7.599999999999999811e-02 1.739239999999999953e-01 2.971734999999999971e+01 1.128400000000000034e+02 2.172849999999999909e+03
7.699999999999999900e-02 1.740375000000000116e-01 3.070510000000000161e+01 1.158504999999999967e+02 2.173880000000000109e+03
7.799999999999999989e-02 1.741489999999999982e-01 3.162150000000000105e+01 1.188774999999999977e+02 2.174889999999999873e+03
7.900000000000000078e-02 1.742600000000000260e-01 3.250114999999999554e+01 1.220070000000000050e+02 2.175904999999999745e+03
8.000000000000000167e-02 1.743744999999999878e-01 3.337165000000000248e+01 1.252959999999999923e+02 2.176934999999999945e+03
8.100000000000000255e-02 1.744934999999999958e-01 3.425144999999999840e+01 1.287715000000000032e+02 2.178014999999999873e+03
8.200000000000000344e-02 1.746175000000000088e-01 3.514889999999999759e+01 1.324314999999999998e+02 2.179130000000000109e+03
8.300000000000000433e-02 1.747464999999999991e-01 3.606199999999999761e+01 1.362439999999999998e+02 2.180289999999999964e+03
8.400000000000000522e-02 1.748790000000000067e-01 3.697955000000000325e+01 1.401505000000000223e+02 2.181485000000000127e+03
8.500000000000000611e-02 1.750130000000000019e-01 3.788259999999999650e+01 1.440765000000000100e+02 2.182694999999999709e+03
8.600000000000000699e-02 1.751475000000000115e-01 3.874640000000000128e+01 1.479339999999999975e+02 2.183909999999999854e+03
8.700000000000000788e-02 1.752779999999999894e-01 3.954240000000000066e+01 1.516310000000000002e+02 2.185090000000000146e+03
8.800000000000000877e-02 1.754030000000000034e-01 4.024119999999999919e+01 1.550774999999999864e+02 2.186224999999999909e+03
8.899999999999999578e-02 1.755194999999999950e-01 4.081404999999999461e+01 1.581899999999999977e+02 2.187284999999999854e+03
8.999999999999999667e-02 1.756244999999999890e-01 4.123525000000000063e+01 1.608990000000000009e+02 2.188244999999999891e+03
9.099999999999999756e-02 1.757159999999999833e-01 4.148355000000000103e+01 1.631500000000000057e+02 2.189085000000000036e+03
9.199999999999999845e-02 1.757925000000000182e-01 4.154375000000000284e+01 1.649064999999999941e+02 2.189789999999999964e+03
9.299999999999999933e-02 1.758534999999999959e-01 4.140729999999999933e+01 1.661530000000000200e+02 2.190359999999999673e+03
9.400000000000000022e-02 1.758979999999999988e-01 4.107294999999999874e+01 1.668915000000000077e+02 2.190774999999999636e+03
9.500000000000000111e-02 1.759255000000000124e-01 4.054670000000000130e+01 1.671444999999999936e+02 2.191045000000000073e+03
9.600000000000000200e-02 1.759380000000000110e-01 3.984130000000000393e+01 1.669505000000000052e+02 2.191175000000000182e+03
9.700000000000000289e-02 1.759359999999999813e-01 3.897570000000000334e+01 1.663614999999999782e+02 2.191175000000000182e+03
9.800000000000000377e-02 1.759215000000000084e-01 3.797374999999999545e+01 1.654399999999999977e+02 2.191050000000000182e+03
9.900000000000000466e-02 1.758954999999999824e-01 3.686274999999999835e+01 1.642555000000000121e+02 2.190829999999999927e+03
1.000000000000000056e-01 1.758609999999999896e-01 3.567220000000000368e+01 1.628815000000000168e+02 2.190529999999999745e+03
1.010000000000000064e-01 1.758204999999999907e-01 3.443269999999999698e+01 1.613884999999999934e+02 2.190170000000000073e+03
1.020000000000000073e-01 1.757755000000000012e-01 3.317365000000000208e+01 1.598454999999999870e+02 2.189769999999999982e+03
1.030000000000000082e-01 1.757279999999999953e-01 3.192314999999999969e+01 1.583149999999999977e+02 2.189349999999999909e+03
1.040000000000000091e-01 1.756809999999999761e-01 3.070609999999999928e+01 1.568495000000000061e+02 2.188920000000000073e+03
1.050000000000000100e-01 1.756355000000000000e-01 2.954364999999999952e+01 1.554929999999999950e+02 2.188510000000000218e+03
1.059999999999999970e-01 1.755929999999999991e-01 2.845255000000000223e+01 1.542764999999999986e+02 2.188119999999999891e+03
1.069999999999999979e-01 1.755539999999999878e-01 2.744429999999999836e+01 1.532210000000000036e+02 2.187769999999999982e+03
1.079999999999999988e-01 1.755200000000000093e-01 2.652530000000000143e+01 1.523324999999999818e+02 2.187449999999999818e+03
1.089999999999999997e-01 1.754910000000000081e-01 2.569650000000000034e+01 1.516070000000000277e+02 2.187180000000000291e+03
1.100000000000000006e-01 1.754660000000000108e-01 2.495354999999999990e+01 1.510260000000000105e+02 2.186949999999999818e+03
1.110000000000000014e-01 1.754459999999999908e-01 2.428734999999999999e+01 1.505629999999999882e+02 2.186755000000000109e+03
1.120000000000000023e-01 1.754280000000000006e-01 2.368485000000000085e+01 1.501804999999999950e+02 2.186590000000000146e+03
1.130000000000000032e-01 1.754135000000000000e-01 2.312959999999999994e+01 1.498365000000000009e+02 2.186449999999999818e+03
1.140000000000000041e-01 1.753994999999999860e-01 2.260320000000000107e+01 1.494830000000000041e+02 2.186315000000000055e+03
1.150000000000000050e-01 1.753844999999999987e-01 2.208619999999999806e+01 1.490729999999999791e+02 2.186175000000000182e+03
1.160000000000000059e-01 1.753675000000000095e-01 2.155940000000000012e+01 1.485609999999999786e+02 2.186019999999999982e+03
1.170000000000000068e-01 1.753470000000000029e-01 2.100529999999999831e+01 1.479060000000000059e+02 2.185835000000000036e+03
1.180000000000000077e-01 1.753220000000000056e-01 2.040875000000000128e+01 1.470760000000000218e+02 2.185610000000000127e+03
1.190000000000000085e-01 1.752920000000000034e-01 1.975829999999999842e+01 1.460480000000000018e+02 2.185335000000000036e+03
1.200000000000000094e-01 1.752549999999999941e-01 1.904684999999999917e+01 1.448109999999999786e+02 2.185005000000000109e+03
1.209999999999999964e-01 1.752120000000000066e-01 1.827189999999999870e+01 1.433659999999999854e+02 2.184619999999999891e+03
1.219999999999999973e-01 1.751624999999999988e-01 1.743594999999999828e+01 1.417284999999999968e+02 2.184175000000000182e+03
1.229999999999999982e-01 1.751064999999999983e-01 1.654615000000000080e+01 1.399225000000000136e+02 2.183680000000000291e+03
1.239999999999999991e-01 1.750460000000000071e-01 1.561414999999999864e+01 1.379850000000000136e+02 2.183140000000000327e+03
1.250000000000000000e-01 1.749809999999999977e-01 1.465499999999999936e+01 1.359590000000000032e+02 2.182554999999999836e+03
1.260000000000000009e-01 1.749140000000000139e-01 1.368645000000000067e+01 1.338944999999999936e+02 2.181954999999999927e+03
1.270000000000000018e-01 1.748454999999999870e-01 1.272780000000000022e+01 1.318429999999999893e+02 2.181340000000000146e+03
1.280000000000000027e-01 1.747779999999999889e-01 1.179890999999999934e+01 1.298564999999999827e+02 2.180730000000000018e+03
1.290000000000000036e-01 1.747120000000000062e-01 1.091883999999999943e+01 1.279819999999999993e+02 2.180135000000000218e+03
1.300000000000000044e-01 1.746499999999999997e-01 1.010491999999999990e+01 1.262624999999999886e+02 2.179574999999999818e+03
1.310000000000000053e-01 1.745929999999999982e-01 9.372130000000000294e+00 1.247330000000000041e+02 2.179054999999999836e+03
1.320000000000000062e-01 1.745415000000000161e-01 8.731930000000000192e+00 1.234170000000000016e+02 2.178590000000000146e+03
1.330000000000000071e-01 1.744974999999999998e-01 8.192285000000000039e+00 1.223315000000000055e+02 2.178190000000000055e+03
1.340000000000000080e-01 1.744604999999999906e-01 7.757179999999999964e+00 1.214809999999999945e+02 2.177845000000000255e+03
1.350000000000000089e-01 1.744304999999999883e-01 7.426700000000000301e+00 1.208610000000000042e+02 2.177574999999999818e+03
1.360000000000000098e-01 1.744084999999999941e-01 7.197230000000000238e+00 1.204590000000000032e+02 2.177359999999999673e+03
1.370000000000000107e-01 1.743929999999999925e-01 7.061869999999999870e+00 1.202540000000000049e+02 2.177215000000000146e+03
1.380000000000000115e-01 1.743839999999999835e-01 7.010889999999999844e+00 1.202189999999999941e+02 2.177125000000000000e+03
1.390000000000000124e-01 1.743799999999999795e-01 7.032350000000000101e+00 1.203239999999999981e+02 2.177079999999999927e+03
1.400000000000000133e-01 1.743810000000000082e-01 7.112745000000000317e+00 1.205360000000000014e+02 2.177085000000000036e+03
1.410000000000000142e-01 1.743854999999999988e-01 7.237619999999999720e+00 1.208205000000000098e+02 2.177114999999999782e+03
1.420000000000000151e-01 1.743925000000000058e-01 7.392220000000000013e+00 1.211424999999999983e+02 2.177170000000000073e+03
1.430000000000000160e-01 1.744005000000000138e-01 7.562059999999999782e+00 1.214714999999999918e+02 2.177239999999999782e+03
1.440000000000000169e-01 1.744090000000000085e-01 7.733470000000000510e+00 1.217770000000000010e+02 2.177315000000000055e+03
1.450000000000000178e-01 1.744165000000000021e-01 7.894009999999999749e+00 1.220345000000000084e+02 2.177385000000000218e+03
1.459999999999999909e-01 1.744235000000000091e-01 8.032935000000000159e+00 1.222214999999999918e+02 2.177440000000000055e+03
1.469999999999999918e-01 1.744279999999999997e-01 8.141439999999999344e+00 1.223220000000000027e+02 2.177484999999999673e+03
1.479999999999999927e-01 1.744300000000000017e-01 8.212910000000000821e+00 1.223259999999999934e+02 2.177505000000000109e+03
1.489999999999999936e-01 1.744290000000000007e-01 8.243075000000001040e+00 1.222270000000000039e+02 2.177494999999999891e+03
1.499999999999999944e-01 1.744255000000000111e-01 8.230000000000000426e+00 1.220245000000000033e+02 2.177465000000000146e+03
1.509999999999999953e-01 1.744185000000000041e-01 8.174060000000000770e+00 1.217245000000000061e+02 2.177404999999999745e+03
1.519999999999999962e-01 1.744080000000000075e-01 8.077719999999999345e+00 1.213350000000000080e+02 2.177314999999999600e+03
1.529999999999999971e-01 1.743949999999999945e-01 7.945294999999999774e+00 1.208695000000000022e+02 2.177199999999999818e+03
1.539999999999999980e-01 1.743800000000000072e-01 7.782560000000000144e+00 1.203439999999999941e+02 2.177069999999999709e+03
1.549999999999999989e-01 1.743629999999999902e-01 7.596350000000000158e+00 1.197754999999999939e+02 2.176920000000000073e+03
1.559999999999999998e-01 1.743439999999999990e-01 7.394065000000000332e+00 1.191839999999999975e+02 2.176760000000000218e+03
1.570000000000000007e-01 1.743250000000000077e-01 7.183240000000000514e+00 1.185850000000000080e+02 2.176590000000000146e+03
1.580000000000000016e-01 1.743055000000000021e-01 6.971049999999999969e+00 1.179964999999999975e+02 2.176414999999999964e+03
1.590000000000000024e-01 1.742869999999999975e-01 6.763960000000000861e+00 1.174314999999999998e+02 2.176244999999999891e+03
