# t [s], A [cm^2], U [cm/s], P [cPa], c [cm/s]
1.000000000000000021e-03 6.536990000000000300e-01 6.485999999999998711e-03 9.812205000000000155e+01 1.724014999999999873e+03
2.000000000000000042e-03 6.536895000000000344e-01 1.786430000000000309e-03 9.808699999999998909e+01 1.724005000000000109e+03
3.000000000000000062e-03 6.537610000000000365e-01 1.406715500000000063e-01 9.824450000000000216e+01 1.724045000000000073e+03
4.000000000000000083e-03 6.537954999999999739e-01 2.305234999999999923e-01 9.834654999999999347e+01 1.724065000000000055e+03
5.000000000000000104e-03 6.537260000000000293e-01 1.396120000000000139e-01 9.814815000000000111e+01 1.724025000000000091e+03
6.000000000000000125e-03 6.536420000000000563e-01 9.626000000000023427e-03 9.779050000000000864e+01 1.723944999999999936e+03
7.000000000000000146e-03 6.535524999999999807e-01 -1.450199999999999267e-01 9.733009999999998740e+01 1.723840000000000146e+03
8.000000000000000167e-03 6.533869999999999401e-01 -4.630499999999999616e-01 9.658350000000000080e+01 1.723664999999999964e+03
9.000000000000001055e-03 6.531454999999999345e-01 -9.448300000000000587e-01 9.549360000000000070e+01 1.723420000000000073e+03
1.000000000000000194e-02 6.528175000000000505e-01 -1.595915000000000195e+00 9.400339999999999918e+01 1.723079999999999927e+03
1.099999999999999936e-02 6.523704999999999643e-01 -2.455314999999999692e+00 9.200249999999999773e+01 1.722610000000000127e+03
1.200000000000000025e-02 6.518300000000000205e-01 -3.446744999999999948e+00 8.952680000000000859e+01 1.722019999999999982e+03
1.300000000000000114e-02 6.512970000000000148e-01 -4.341727500000000184e+00 8.686369999999999436e+01 1.721365000000000009e+03
1.400000000000000203e-02 6.508754999999999402e-01 -4.893877499999999436e+00 8.440579999999999927e+01 1.720730000000000018e+03
1.499999999999999944e-02 6.506075000000000053e-01 -4.979404999999999859e+00 8.243000000000000682e+01 1.720179999999999836e+03
1.600000000000000033e-02 6.504604999999999970e-01 -4.636004999999999932e+00 8.098369999999999891e+01 1.719730000000000018e+03
1.700000000000000122e-02 6.503559999999999341e-01 -4.016684999999999839e+00 7.990274999999999750e+01 1.719365000000000009e+03
1.800000000000000211e-02 6.502109999999999834e-01 -3.308724999999999916e+00 7.891194999999999027e+01 1.719025000000000091e+03
1.900000000000000300e-02 6.499719999999999942e-01 -2.654723500000000236e+00 7.775280000000000769e+01 1.718654999999999973e+03
2.000000000000000042e-02 6.496325000000000571e-01 -2.103431500000000121e+00 7.628810000000000002e+01 1.718235000000000127e+03
2.100000000000000130e-02 6.492279999999999163e-01 -1.610125000000000250e+00 7.453915000000000646e+01 1.717740000000000009e+03
2.200000000000000219e-02 6.488125000000000142e-01 -1.082794999999999952e+00 7.264404999999999291e+01 1.717215000000000146e+03
2.299999999999999961e-02 6.484294999999999920e-01 -4.446249999999998259e-01 7.076740000000000919e+01 1.716684999999999945e+03
2.400000000000000050e-02 6.480924999999999603e-01 3.197950000000000514e-01 6.901415000000000077e+01 1.716175000000000182e+03
2.500000000000000139e-02 6.477800000000000225e-01 1.149454999999999893e+00 6.737949999999999307e+01 1.715690000000000055e+03
2.600000000000000228e-02 6.474454999999998961e-01 1.920934999999999837e+00 6.574495000000000289e+01 1.715199999999999818e+03
2.700000000000000316e-02 6.470325000000000104e-01 2.482134999999999536e+00 6.391290000000000049e+01 1.714680000000000064e+03
2.800000000000000058e-02 6.464924999999999145e-01 2.695504999999999818e+00 6.166904999999999859e+01 1.714074999999999818e+03
2.900000000000000147e-02 6.458004999999999995e-01 2.479410000000000558e+00 5.885385000000000133e+01 1.713344999999999800e+03
3.000000000000000236e-02 6.449679999999999858e-01 1.834279999999999688e+00 5.542244999999999777e+01 1.712474999999999909e+03
3.099999999999999978e-02 6.440390000000000281e-01 8.435400000000008447e-01 5.146909999999999741e+01 1.711480000000000018e+03
3.200000000000000067e-02 6.430789999999999562e-01 -3.502500000000008384e-01 4.721014999999999873e+01 1.710400000000000091e+03
3.300000000000000155e-02 6.421604999999999119e-01 -1.582510000000000083e+00 4.293444999999999823e+01 1.709299999999999955e+03
3.400000000000000244e-02 6.413459999999999717e-01 -2.701150000000000162e+00 3.894474999999999909e+01 1.708250000000000000e+03
3.500000000000000333e-02 6.406819999999999737e-01 -3.589739999999999931e+00 3.550695000000000334e+01 1.707304999999999836e+03
3.600000000000000422e-02 6.401939999999999298e-01 -4.176580000000000403e+00 3.281705000000000183e+01 1.706535000000000082e+03
3.700000000000000511e-02 6.398895000000000000e-01 -4.432516000000000567e+00 3.098814999999999742e+01 1.705965000000000146e+03
3.799999999999999906e-02 6.397639999999999993e-01 -4.360149999999999970e+00 3.005519999999999925e+01 1.705615000000000009e+03
3.899999999999999994e-02 6.398040000000000393e-01 -3.980360000000000120e+00 2.999179999999999779e+01 1.705484999999999900e+03
4.000000000000000083e-02 6.399924999999999642e-01 -3.318883999999999723e+00 3.073420000000000130e+01 1.705569999999999936e+03
4.100000000000000172e-02 6.403155000000000374e-01 -2.397079999999999878e+00 3.220414999999999850e+01 1.705849999999999909e+03
4.200000000000000261e-02 6.407610000000000250e-01 -1.228745000000000420e+00 3.432475000000000165e+01 1.706315000000000055e+03
4.300000000000000350e-02 6.413195000000000423e-01 1.771600000000002062e-01 3.702729999999999677e+01 1.706940000000000055e+03
4.400000000000000439e-02 6.419810000000000239e-01 1.810055000000000192e+00 4.024840000000000373e+01 1.707710000000000036e+03
4.499999999999999833e-02 6.427340000000000275e-01 3.650964999999999794e+00 4.392279999999999518e+01 1.708615000000000009e+03
4.599999999999999922e-02 6.435619999999999674e-01 5.667960000000000775e+00 4.797560000000000002e+01 1.709625000000000000e+03
4.700000000000000011e-02 6.444434999999999469e-01 7.815545000000000186e+00 5.231834999999999525e+01 1.710730000000000018e+03
4.800000000000000100e-02 6.453564999999999996e-01 1.003759900000000016e+01 5.684954999999999359e+01 1.711890000000000100e+03
4.900000000000000189e-02 6.462760000000000726e-01 1.227270499999999842e+01 6.146030000000000371e+01 1.713095000000000027e+03
5.000000000000000278e-02 6.471800000000000885e-01 1.446071500000000043e+01 6.604259999999999309e+01 1.714304999999999836e+03
5.100000000000000366e-02 6.480489999999999862e-01 1.654869499999999860e+01 7.049894999999999357e+01 1.715505000000000109e+03
5.200000000000000455e-02 6.488709999999999756e-01 1.849514999999999887e+01 7.475055000000000405e+01 1.716659999999999854e+03
5.300000000000000544e-02 6.496364999999999501e-01 2.027214999999999989e+01 7.874260000000001014e+01 1.717769999999999982e+03
5.399999999999999939e-02 6.503449999999999509e-01 2.186554999999999893e+01 8.244655000000000200e+01 1.718809999999999945e+03
5.500000000000000028e-02 6.509979999999999656e-01 2.327324999999999733e+01 8.585875000000000057e+01 1.719779999999999973e+03
5.600000000000000117e-02 6.516025000000000844e-01 2.450290000000000035e+01 8.899684999999999491e+01 1.720695000000000164e+03
5.700000000000000205e-02 6.521660000000000235e-01 2.556940000000000168e+01 9.189499999999999602e+01 1.721539999999999964e+03
5.800000000000000294e-02 6.526984999999999593e-01 2.649224999999999852e+01 9.459860000000000468e+01 1.722329999999999927e+03
5.900000000000000383e-02 6.532104999999999162e-01 2.729424999999999812e+01 9.715975000000000250e+01 1.723085000000000036e+03
6.000000000000000472e-02 6.537140000000000173e-01 2.799980000000000047e+01 9.963294999999999391e+01 1.723805000000000064e+03
6.099999999999999867e-02 6.542160000000000197e-01 2.863335000000000008e+01 1.020708999999999946e+02 1.724514999999999873e+03
6.199999999999999956e-02 6.547274999999999068e-01 2.921804999999999808e+01 1.045210000000000008e+02 1.725224999999999909e+03
6.300000000000000044e-02 6.552540000000000031e-01 2.977384999999999948e+01 1.070219999999999914e+02 1.725934999999999945e+03
6.400000000000000133e-02 6.557999999999999385e-01 3.031589999999999918e+01 1.096004999999999967e+02 1.726664999999999964e+03
6.500000000000000222e-02 6.563655000000000461e-01 3.085300000000000153e+01 1.122669999999999959e+02 1.727409999999999854e+03
6.600000000000000311e-02 6.569479999999999764e-01 3.138684999999999903e+01 1.150169999999999959e+02 1.728180000000000064e+03
6.700000000000000400e-02 6.575415000000000010e-01 3.191170000000000329e+01 1.178280000000000030e+02 1.728960000000000036e+03
6.800000000000000488e-02 6.581369999999999720e-01 3.241544999999999987e+01 1.206645000000000039e+02 1.729750000000000000e+03
6.900000000000000577e-02 6.587229999999999475e-01 3.288089999999999691e+01 1.234765000000000015e+02 1.730539999999999964e+03
7.000000000000000666e-02 6.592875000000000263e-01 3.328780000000000427e+01 1.262074999999999960e+02 1.731309999999999945e+03
7.100000000000000755e-02 6.598190000000000444e-01 3.361514999999999986e+01 1.287990000000000066e+02 1.732045000000000073e+03
7.200000000000000844e-02 6.603054999999999897e-01 3.384274999999999523e+01 1.311935000000000002e+02 1.732735000000000127e+03
7.300000000000000933e-02 6.607380000000000475e-01 3.395340000000000202e+01 1.333394999999999868e+02 1.733360000000000127e+03
7.399999999999999634e-02 6.611089999999999467e-01 3.393370000000000175e+01 1.351949999999999932e+02 1.733914999999999964e+03
7.499999999999999722e-02 6.614139999999999464e-01 3.377530000000000143e+01 1.367314999999999827e+02 1.734389999999999873e+03
7.599999999999999811e-02 6.616505000000000303e-01 3.347509999999999764e+01 1.379314999999999998e+02 1.734775000000000091e+03
7.699999999999999900e-02 6.618189999999999351e-01 3.303515000000000157e+01 1.387920000000000016e+02 1.735065000000000055e+03
7.799999999999999989e-02 6.619230000000000391e-01 3.246269999999999811e+01 1.393234999999999957e+02 1.735275000000000091e+03
7.900000000000000078e-02 6.619669999999999721e-01 3.176959999999999695e+01 1.395470000000000255e+02 1.735394999999999982e+03
8.000000000000000167e-02 6.619574999999999765e-01 3.097160000000000224e+01 1.394945000000000164e+02 1.735434999999999945e+03
8.100000000000000255e-02 6.619045000000000067e-01 3.008769999999999811e+01 1.392044999999999959e+02 1.735409999999999854e+03
8.200000000000000344e-02 6.618155000000000010e-01 2.913905000000000101e+01 1.387230000000000132e+02 1.735329999999999927e+03
8.300000000000000433e-02 6.617005000000000248e-01 2.814809999999999945e+01 1.380974999999999966e+02 1.735195000000000164e+03
8.400000000000000522e-02 6.615694999999999215e-01 2.713739999999999952e+01 1.373754999999999882e+02 1.735029999999999973e+03
8.500000000000000611e-02 6.614305000000000323e-01 2.612875000000000014e+01 1.366055000000000064e+02 1.734845000000000027e+03
8.600000000000000699e-02 6.612934999999999786e-01 2.514199999999999946e+01 1.358299999999999841e+02 1.734650000000000091e+03
8.700000000000000788e-02 6.611635000000000151e-01 2.419429999999999836e+01 1.350865000000000009e+02 1.734460000000000036e+03
8.800000000000000877e-02 6.610464999999999813e-01 2.329925000000000068e+01 1.344045000000000130e+02 1.734275000000000091e+03
8.899999999999999578e-02 6.609464999999999923e-01 2.246640000000000015e+01 1.338070000000000164e+02 1.734105000000000018e+03
8.999999999999999667e-02 6.608650000000000357e-01 2.170110000000000028e+01 1.333059999999999832e+02 1.733960000000000036e+03
9.099999999999999756e-02 6.608024999999999594e-01 2.100444999999999851e+01 1.329060000000000059e+02 1.733835000000000036e+03
9.199999999999999845e-02 6.607570000000000388e-01 2.037349999999999994e+01 1.326034999999999968e+02 1.733740000000000009e+03
9.299999999999999933e-02 6.607264999999999944e-01 1.980165000000000219e+01 1.323870000000000005e+02 1.733659999999999854e+03
9.400000000000000022e-02 6.607060000000000155e-01 1.927935000000000088e+01 1.322375000000000114e+02 1.733605000000000018e+03
9.500000000000000111e-02 6.606909999999999172e-01 1.879459999999999908e+01 1.321334999999999980e+02 1.733559999999999945e+03
9.600000000000000200e-02 6.606764999999999999e-01 1.833384999999999820e+01 1.320484999999999900e+02 1.733519999999999982e+03
9.700000000000000289e-02 6.606564999999999799e-01 1.788289999999999935e+01 1.319549999999999841e+02 1.733480000000000018e+03
9.800000000000000377e-02 6.606259999999999355e-01 1.742729999999999890e+01 1.318249999999999886e+02 1.733440000000000055e+03
9.900000000000000466e-02 6.605805000000000149e-01 1.695374999999999943e+01 1.316334999999999980e+02 1.733384999999999991e+03
1.000000000000000056e-01 6.605149999999999633e-01 1.645025000000000048e+01 1.313569999999999993e+02 1.733309999999999945e+03
1.010000000000000064e-01 6.604274999999999451e-01 1.590744999999999898e+01 1.309784999999999968e+02 1.733215000000000146e+03
1.020000000000000073e-01 6.603149999999999853e-01 1.531859999999999999e+01 1.304850000000000136e+02 1.733085000000000036e+03
1.030000000000000082e-01 6.601779999999999315e-01 1.468060000000000009e+01 1.298710000000000093e+02 1.732924999999999955e+03
1.040000000000000091e-01 6.600179999999999936e-01 1.399378000000000100e+01 1.291384999999999934e+02 1.732740000000000009e+03
1.050000000000000100e-01 6.598364999999999370e-01 1.326212500000000105e+01 1.282959999999999923e+02 1.732525000000000091e+03
1.059999999999999970e-01 6.596374999999999877e-01 1.249302499999999938e+01 1.273594999999999970e+02 1.732284999999999854e+03
1.069999999999999979e-01 6.594254999999999978e-01 1.169686999999999877e+01 1.263500000000000085e+02 1.732025000000000091e+03
1.079999999999999988e-01 6.592074999999999463e-01 1.088645499999999977e+01 1.252944999999999993e+02 1.731739999999999782e+03
1.089999999999999997e-01 6.589895000000000058e-01 1.007636499999999913e+01 1.242219999999999942e+02 1.731460000000000036e+03
1.100000000000000006e-01 6.587769999999999460e-01 9.281905000000000072e+00 1.231655000000000086e+02 1.731174999999999955e+03
1.110000000000000014e-01 6.585769999999999680e-01 8.518525000000000347e+00 1.221550000000000011e+02 1.730900000000000091e+03
1.120000000000000023e-01 6.583954999999999114e-01 7.800829999999999487e+00 1.212205000000000013e+02 1.730640000000000100e+03
1.130000000000000032e-01 6.582369999999999610e-01 7.141815000000000246e+00 1.203880000000000052e+02 1.730404999999999973e+03
1.140000000000000041e-01 6.581049999999999400e-01 6.552125000000000199e+00 1.196790000000000020e+02 1.730195000000000164e+03
1.150000000000000050e-01 6.580025000000000457e-01 6.039724999999999788e+00 1.191094999999999970e+02 1.730019999999999982e+03
1.160000000000000059e-01 6.579300000000000148e-01 5.609404999999999752e+00 1.186875000000000000e+02 1.729884999999999991e+03
1.170000000000000068e-01 6.578880000000000283e-01 5.262719999999999843e+00 1.184149999999999920e+02 1.729785000000000082e+03
1.180000000000000077e-01 6.578740000000000698e-01 4.998054999999999914e+00 1.182874999999999943e+02 1.729724999999999909e+03
1.190000000000000085e-01 6.578859999999999708e-01 4.810869999999999536e+00 1.182944999999999993e+02 1.729704999999999927e+03
1.200000000000000094e-01 6.579200000000000603e-01 4.694055000000000533e+00 1.184200000000000017e+02 1.729710000000000036e+03
1.209999999999999964e-01 6.579725000000000712e-01 4.638505000000000322e+00 1.186440000000000055e+02 1.729750000000000000e+03
1.219999999999999973e-01 6.580375000000000529e-01 4.633580000000000254e+00 1.189440000000000026e+02 1.729809999999999945e+03
1.229999999999999982e-01 6.581110000000000015e-01 4.667785000000000295e+00 1.192965000000000089e+02 1.729889999999999873e+03
1.239999999999999991e-01 6.581879999999999953e-01 4.729245000000000587e+00 1.196759999999999877e+02 1.729974999999999909e+03
1.250000000000000000e-01 6.582635000000000014e-01 4.806280000000000108e+00 1.200600000000000023e+02 1.730069999999999936e+03
1.260000000000000009e-01 6.583339999999999748e-01 4.887845000000000439e+00 1.204265000000000043e+02 1.730164999999999964e+03
1.270000000000000018e-01 6.583955000000000224e-01 4.963905000000000456e+00 1.207574999999999932e+02 1.730250000000000000e+03
1.280000000000000027e-01 6.584459999999999757e-01 5.025750000000000384e+00 1.210374999999999943e+02 1.730319999999999936e+03
1.290000000000000036e-01 6.584829999999999295e-01 5.066205000000000069e+00 1.212535000000000025e+02 1.730384999999999991e+03
1.300000000000000044e-01 6.585054999999999659e-01 5.079774999999999707e+00 1.213990000000000009e+02 1.730429999999999836e+03
1.310000000000000053e-01 6.585119999999999862e-01 5.062714999999999854e+00 1.214679999999999893e+02 1.730454999999999927e+03
1.320000000000000062e-01 6.585039999999999782e-01 5.013009999999999522e+00 1.214604999999999961e+02 1.730460000000000036e+03
1.330000000000000071e-01 6.584809999999999830e-01 4.930360000000000298e+00 1.213780000000000001e+02 1.730445000000000164e+03
1.340000000000000080e-01 6.584445000000000991e-01 4.816015000000000157e+00 1.212259999999999991e+02 1.730414999999999964e+03
1.350000000000000089e-01 6.583965000000000511e-01 4.672634999999999650e+00 1.210120000000000005e+02 1.730369999999999891e+03
1.360000000000000098e-01 6.583390000000000075e-01 4.504059999999999953e+00 1.207439999999999998e+02 1.730304999999999836e+03
1.370000000000000107e-01 6.582745000000000957e-01 4.315069999999999517e+00 1.204344999999999999e+02 1.730235000000000127e+03
1.380000000000000115e-01 6.582045000000000812e-01 4.111094999999999722e+00 1.200945000000000107e+02 1.730150000000000091e+03
1.390000000000000124e-01 6.581325000000000092e-01 3.897899999999999920e+00 1.197344999999999970e+02 1.730059999999999945e+03
1.400000000000000133e-01 6.580595000000000194e-01 3.681270000000000486e+00 1.193669999999999902e+02 1.729960000000000036e+03
1.410000000000000142e-01 6.579880000000000173e-01 3.466709999999999958e+00 1.190014999999999930e+02 1.729865000000000009e+03
1.420000000000000151e-01 6.579199999999999493e-01 3.259165000000000312e+00 1.186465000000000032e+02 1.729769999999999982e+03
1.430000000000000160e-01 6.578554999999999264e-01 3.062800000000000189e+00 1.183089999999999975e+02 1.729680000000000064e+03
1.440000000000000169e-01 6.577960000000000473e-01 2.880800000000000249e+00 1.179945000000000022e+02 1.729594999999999800e+03
1.450000000000000178e-01 6.577420000000000488e-01 2.715310000000000112e+00 1.177040000000000077e+02 1.729509999999999991e+03
1.459999999999999909e-01 6.576929999999999721e-01 2.567395000000000316e+00 1.174395000000000095e+02 1.729440000000000055e+03
1.469999999999999918e-01 6.576480000000000103e-01 2.437085000000000168e+00 1.171980000000000075e+02 1.729369999999999891e+03
1.479999999999999927e-01 6.576070000000000526e-01 2.323545000000000194e+00 1.169759999999999991e+02 1.729299999999999955e+03
1.489999999999999936e-01 6.575679999999999303e-01 2.225175000000000125e+00 1.167690000000000055e+02 1.729240000000000009e+03
1.499999999999999944e-01 6.575299999999999478e-01 2.139879999999999782e+00 1.165709999999999980e+02 1.729184999999999945e+03
1.509999999999999953e-01 6.574919999999999654e-01 2.065260000000000318e+00 1.163760000000000048e+02 1.729130000000000109e+03
1.519999999999999962e-01 6.574530000000000651e-01 1.998845000000000205e+00 1.161775000000000091e+02 1.729065000000000055e+03
1.529999999999999971e-01 6.574109999999999676e-01 1.938250000000000028e+00 1.159714999999999918e+02 1.729009999999999991e+03
1.539999999999999980e-01 6.573659999999998949e-01 1.881404999999999994e+00 1.157524999999999977e+02 1.728944999999999936e+03
1.549999999999999989e-01 6.573174999999999990e-01 1.826626500000000153e+00 1.155180000000000007e+02 1.728880000000000109e+03
1.559999999999999998e-01 6.572655000000000580e-01 1.772728499999999929e+00 1.152659999999999911e+02 1.728809999999999945e+03
1.570000000000000007e-01 6.572089999999999321e-01 1.719069500000000028e+00 1.149969999999999999e+02 1.728739999999999782e+03
1.580000000000000016e-01 6.571500000000000119e-01 1.665561499999999917e+00 1.147115000000000009e+02 1.728659999999999854e+03
1.590000000000000024e-01 6.570880000000000054e-01 1.612649500000000069e+00 1.144134999999999991e+02 1.728575000000000045e+03
