# t [s], A [cm^2], U [cm/s], P [cPa], c [cm/s]
1.000000000000000021e-03 5.326770000000000671e-01 4.167850000000000721e-03 1.088354999999999961e+02 1.421069999999999936e+03
2.000000000000000042e-03 5.326684999999999892e-01 -6.197025000000000320e-04 1.088170000000000073e+02 1.421070000000000164e+03
3.000000000000000062e-03 5.327014999999999390e-01 5.635785000000000100e-02 1.088689999999999998e+02 1.421085000000000036e+03
4.000000000000000083e-03 5.327520000000000033e-01 1.460249499999999867e-01 1.089729999999999990e+02 1.421119999999999891e+03
5.000000000000000104e-03 5.327585000000000237e-01 1.639919999999999989e-01 1.089939999999999998e+02 1.421130000000000109e+03
6.000000000000000125e-03 5.327184999999999837e-01 1.002630000000000049e-01 1.088849999999999909e+02 1.421105000000000018e+03
7.000000000000000146e-03 5.326714999999999645e-01 2.017350000000001087e-02 1.087019999999999982e+02 1.421054999999999836e+03
8.000000000000000167e-03 5.326224999999999987e-01 -6.904700000000002502e-02 1.084634999999999962e+02 1.421000000000000000e+03
9.000000000000001055e-03 5.325410000000000421e-01 -2.253359999999999808e-01 1.081094999999999970e+02 1.420904999999999973e+03
1.000000000000000194e-02 5.324139999999999429e-01 -4.734750000000000902e-01 1.075910000000000082e+02 1.420769999999999982e+03
1.099999999999999936e-02 5.322390000000000176e-01 -8.118750000000000133e-01 1.068824999999999932e+02 1.420579999999999927e+03
1.200000000000000025e-02 5.320055000000000200e-01 -1.249730000000000008e+00 1.059455000000000098e+02 1.420324999999999818e+03
1.300000000000000114e-02 5.317024999999999668e-01 -1.791584999999999983e+00 1.047439999999999998e+02 1.419990000000000009e+03
1.400000000000000203e-02 5.313390000000000057e-01 -2.400890000000000413e+00 1.032881000000000000e+02 1.419579999999999927e+03
1.499999999999999944e-02 5.309500000000000330e-01 -2.992145000000000277e+00 1.016531999999999982e+02 1.419105000000000018e+03
1.600000000000000033e-02 5.305770000000000763e-01 -3.460059999999999469e+00 9.996365000000000123e+01 1.418590000000000146e+03
1.700000000000000122e-02 5.302520000000000566e-01 -3.719534499999999966e+00 9.834174999999999045e+01 1.418079999999999927e+03
1.800000000000000211e-02 5.299860000000000682e-01 -3.730991500000000016e+00 9.687190000000001078e+01 1.417590000000000146e+03
1.900000000000000300e-02 5.297700000000000742e-01 -3.504196000000000311e+00 9.558010000000000161e+01 1.417134999999999991e+03
2.000000000000000042e-02 5.295805000000000096e-01 -3.086338000000000026e+00 9.443845000000000312e+01 1.416710000000000036e+03
2.100000000000000130e-02 5.293894999999999573e-01 -2.542723500000000136e+00 9.338200000000000500e+01 1.416305000000000064e+03
2.200000000000000219e-02 5.291710000000000580e-01 -1.936734999999999651e+00 9.233305000000000007e+01 1.415900000000000091e+03
2.299999999999999961e-02 5.289135000000000364e-01 -1.313935000000000075e+00 9.122520000000000095e+01 1.415480000000000018e+03
2.400000000000000050e-02 5.286129999999999995e-01 -6.939200000000000923e-01 9.002070000000000505e+01 1.415039999999999964e+03
2.500000000000000139e-02 5.282795000000000130e-01 -7.187499999999991118e-02 8.871635000000000559e+01 1.414565000000000055e+03
2.600000000000000228e-02 5.279285000000000228e-01 5.717750000000001442e-01 8.733774999999999977e+01 1.414069999999999936e+03
2.700000000000000316e-02 5.275750000000000162e-01 1.257810000000000095e+00 8.592449999999999477e+01 1.413565000000000055e+03
2.800000000000000058e-02 5.272274999999999601e-01 1.995989999999999709e+00 8.451359999999999673e+01 1.413059999999999945e+03
2.900000000000000147e-02 5.268889999999999407e-01 2.777554999999999552e+00 8.312545000000000073e+01 1.412549999999999955e+03
3.000000000000000236e-02 5.265520000000000200e-01 3.573780000000000179e+00 8.175669999999999504e+01 1.412045000000000073e+03
3.099999999999999978e-02 5.262029999999999763e-01 4.339845000000000397e+00 8.037930000000000064e+01 1.411545000000000073e+03
3.200000000000000067e-02 5.258260000000000156e-01 5.022409999999999819e+00 7.894694999999998686e+01 1.411025000000000091e+03
3.300000000000000155e-02 5.254050000000000109e-01 5.569504999999999484e+00 7.740514999999999191e+01 1.410480000000000018e+03
3.400000000000000244e-02 5.249280000000000612e-01 5.939969999999999750e+00 7.570425000000000182e+01 1.409900000000000091e+03
3.500000000000000333e-02 5.243919999999999693e-01 6.111369999999999969e+00 7.381200000000001182e+01 1.409264999999999873e+03
3.600000000000000422e-02 5.238019999999999898e-01 6.084249999999999936e+00 7.172284999999999400e+01 1.408579999999999927e+03
3.700000000000000511e-02 5.231719999999999704e-01 5.882179999999999964e+00 6.946245000000000402e+01 1.407844999999999800e+03
3.799999999999999906e-02 5.225219999999999310e-01 5.547470000000000567e+00 6.708605000000000018e+01 1.407085000000000036e+03
3.899999999999999994e-02 5.218770000000000353e-01 5.134050000000000225e+00 6.467179999999999040e+01 1.406305000000000064e+03
4.000000000000000083e-02 5.212624999999999620e-01 4.699634999999999785e+00 6.231074999999999875e+01 1.405529999999999973e+03
4.100000000000000172e-02 5.207009999999999694e-01 4.298634999999999096e+00 6.009675000000000011e+01 1.404795000000000073e+03
4.200000000000000261e-02 5.202120000000000077e-01 3.977009999999999934e+00 5.811634999999999707e+01 1.404119999999999891e+03
4.300000000000000350e-02 5.198085000000000067e-01 3.769550000000000178e+00 5.644235000000000468e+01 1.403530000000000200e+03
4.400000000000000439e-02 5.195005000000000317e-01 3.699479999999999436e+00 5.512930000000000064e+01 1.403045000000000073e+03
4.499999999999999833e-02 5.192915000000000170e-01 3.779649500000000106e+00 5.421240000000000236e+01 1.402674999999999955e+03
4.599999999999999922e-02 5.191820000000000324e-01 4.014909999999999535e+00 5.370884999999999820e+01 1.402429999999999836e+03
4.700000000000000011e-02 5.191710000000000491e-01 4.404930000000000234e+00 5.362075000000000102e+01 1.402315000000000055e+03
4.800000000000000100e-02 5.192539999999999933e-01 4.946775000000000588e+00 5.393880000000000052e+01 1.402329999999999927e+03
4.900000000000000189e-02 5.194275000000000420e-01 5.636784999999999712e+00 5.464665000000000106e+01 1.402464999999999918e+03
5.000000000000000278e-02 5.196874999999999689e-01 6.471560000000000201e+00 5.572384999999999877e+01 1.402735000000000127e+03
5.100000000000000366e-02 5.200290000000000745e-01 7.447869999999999990e+00 5.714784999999999826e+01 1.403115000000000009e+03
5.200000000000000455e-02 5.204480000000000217e-01 8.561914999999999054e+00 5.889504999999999768e+01 1.403610000000000127e+03
5.300000000000000544e-02 5.209380000000000122e-01 9.808025000000000659e+00 6.094059999999999633e+01 1.404204999999999927e+03
5.399999999999999939e-02 5.214944999999999720e-01 1.117753499999999889e+01 6.325764999999999816e+01 1.404889999999999873e+03
5.500000000000000028e-02 5.221084999999999754e-01 1.265804999999999936e+01 6.581634999999999991e+01 1.405670000000000073e+03
5.600000000000000117e-02 5.227724999999999733e-01 1.423307499999999948e+01 6.858350000000000080e+01 1.406519999999999982e+03
5.700000000000000205e-02 5.234760000000000524e-01 1.588237499999999969e+01 7.152249999999999375e+01 1.407440000000000055e+03
5.800000000000000294e-02 5.242094999999999949e-01 1.758304499999999848e+01 7.459405000000000996e+01 1.408409999999999854e+03
5.900000000000000383e-02 5.249624999999999986e-01 1.931064999999999898e+01 7.775740000000000407e+01 1.409425000000000182e+03
6.000000000000000472e-02 5.257249999999999979e-01 2.104070000000000107e+01 8.097199999999999420e+01 1.410460000000000036e+03
6.099999999999999867e-02 5.264874999999999972e-01 2.275005000000000166e+01 8.419944999999999879e+01 1.411514999999999873e+03
6.199999999999999956e-02 5.272425000000000583e-01 2.441805000000000092e+01 8.740494999999999948e+01 1.412579999999999927e+03
6.300000000000000044e-02 5.279840000000000089e-01 2.602765000000000128e+01 9.055959999999998900e+01 1.413634999999999991e+03
6.400000000000000133e-02 5.287070000000000380e-01 2.756550000000000011e+01 9.364070000000000960e+01 1.414674999999999955e+03
6.500000000000000222e-02 5.294095000000000883e-01 2.902239999999999753e+01 9.663094999999999857e+01 1.415699999999999818e+03
6.600000000000000311e-02 5.300894999999999913e-01 3.039294999999999902e+01 9.952254999999999541e+01 1.416699999999999818e+03
6.700000000000000400e-02 5.307479999999999976e-01 3.167520000000000380e+01 1.023121000000000009e+02 1.417670000000000073e+03
6.800000000000000488e-02 5.313860000000000250e-01 3.287014999999999532e+01 1.050026500000000027e+02 1.418615000000000009e+03
6.900000000000000577e-02 5.320055000000000200e-01 3.398100000000000165e+01 1.076019000000000005e+02 1.419539999999999964e+03
7.000000000000000666e-02 5.326100000000000279e-01 3.501279999999999859e+01 1.101200000000000045e+02 1.420430000000000064e+03
7.100000000000000755e-02 5.332019999999999538e-01 3.597145000000000437e+01 1.125699999999999932e+02 1.421299999999999955e+03
7.200000000000000844e-02 5.337849999999999540e-01 3.686370000000000147e+01 1.149664999999999964e+02 1.422160000000000082e+03
7.300000000000000933e-02 5.343614999999999338e-01 3.769624999999999915e+01 1.173220000000000027e+02 1.423000000000000000e+03
7.399999999999999634e-02 5.349349999999999383e-01 3.847554999999999836e+01 1.196509999999999962e+02 1.423835000000000036e+03
7.499999999999999722e-02 5.355069999999999553e-01 3.920720000000000027e+01 1.219629999999999939e+02 1.424654999999999973e+03
7.599999999999999811e-02 5.360780000000000545e-01 3.989580000000000126e+01 1.242660000000000053e+02 1.425474999999999909e+03
7.699999999999999900e-02 5.366504999999999193e-01 4.054444999999999766e+01 1.265655000000000001e+02 1.426289999999999964e+03
7.799999999999999989e-02 5.372230000000000061e-01 4.115465000000000373e+01 1.288605000000000018e+02 1.427110000000000127e+03
7.900000000000000078e-02 5.377939999999999943e-01 4.172610000000000241e+01 1.311490000000000009e+02 1.427920000000000073e+03
8.000000000000000167e-02 5.383609999999999784e-01 4.225685000000000002e+01 1.334240000000000066e+02 1.428730000000000018e+03
8.100000000000000255e-02 5.389220000000000121e-01 4.274329999999999785e+01 1.356739999999999782e+02 1.429529999999999973e+03
8.200000000000000344e-02 5.394725000000000215e-01 4.318049999999999500e+01 1.378845000000000027e+02 1.430315000000000055e+03
8.300000000000000433e-02 5.400079999999999325e-01 4.356250000000000000e+01 1.400405000000000086e+02 1.431089999999999918e+03
8.400000000000000522e-02 5.405249999999999222e-01 4.388269999999999982e+01 1.421235000000000070e+02 1.431840000000000146e+03
8.500000000000000611e-02 5.410189999999999166e-01 4.413459999999999894e+01 1.441144999999999925e+02 1.432565000000000055e+03
8.600000000000000699e-02 5.414844999999999242e-01 4.431159999999999854e+01 1.459954999999999927e+02 1.433250000000000000e+03
8.700000000000000788e-02 5.419180000000000108e-01 4.440820000000000078e+01 1.477500000000000000e+02 1.433900000000000091e+03
8.800000000000000877e-02 5.423164999999999791e-01 4.441955000000000098e+01 1.493625000000000114e+02 1.434500000000000000e+03
8.899999999999999578e-02 5.426769999999999650e-01 4.434239999999999782e+01 1.508199999999999932e+02 1.435054999999999836e+03
8.999999999999999667e-02 5.429979999999999807e-01 4.417480000000000473e+01 1.521140000000000043e+02 1.435554999999999836e+03
9.099999999999999756e-02 5.432780000000000387e-01 4.391644999999999754e+01 1.532379999999999995e+02 1.436000000000000000e+03
9.199999999999999845e-02 5.435170000000000279e-01 4.356884999999999764e+01 1.541889999999999930e+02 1.436384999999999991e+03
9.299999999999999933e-02 5.437144999999999895e-01 4.313485000000000014e+01 1.549689999999999941e+02 1.436720000000000027e+03
9.400000000000000022e-02 5.438730000000000508e-01 4.261915000000000475e+01 1.555819999999999936e+02 1.436990000000000009e+03
9.500000000000000111e-02 5.439944999999999364e-01 4.202785000000000082e+01 1.560360000000000014e+02 1.437210000000000036e+03
9.600000000000000200e-02 5.440800000000000081e-01 4.136814999999999998e+01 1.563410000000000082e+02 1.437375000000000000e+03
9.700000000000000289e-02 5.441350000000000353e-01 4.064860000000000184e+01 1.565095000000000027e+02 1.437490000000000009e+03
9.800000000000000377e-02 5.441614999999999647e-01 3.987829999999999586e+01 1.565570000000000164e+02 1.437559999999999945e+03
9.900000000000000466e-02 5.441629999999999523e-01 3.906714999999999804e+01 1.564995000000000118e+02 1.437590000000000146e+03
1.000000000000000056e-01 5.441449999999999898e-01 3.822540000000000049e+01 1.563539999999999850e+02 1.437585000000000036e+03
1.010000000000000064e-01 5.441099999999999826e-01 3.736315000000000452e+01 1.561370000000000005e+02 1.437554999999999836e+03
1.020000000000000073e-01 5.440629999999999633e-01 3.649044999999999561e+01 1.558659999999999854e+02 1.437494999999999891e+03
1.030000000000000082e-01 5.440064999999999484e-01 3.561670000000000158e+01 1.555579999999999927e+02 1.437420000000000073e+03
1.040000000000000091e-01 5.439460000000000406e-01 3.475065000000000026e+01 1.552264999999999873e+02 1.437329999999999927e+03
1.050000000000000100e-01 5.438825000000000465e-01 3.389970000000000283e+01 1.548865000000000123e+02 1.437230000000000018e+03
1.059999999999999970e-01 5.438190000000000524e-01 3.307025000000000148e+01 1.545490000000000066e+02 1.437130000000000109e+03
1.069999999999999979e-01 5.437579999999999636e-01 3.226724999999999710e+01 1.542230000000000132e+02 1.437025000000000091e+03
1.079999999999999988e-01 5.436999999999999611e-01 3.149394999999999811e+01 1.539139999999999873e+02 1.436925000000000182e+03
1.089999999999999997e-01 5.436465000000000325e-01 3.075215000000000032e+01 1.536274999999999977e+02 1.436829999999999927e+03
1.100000000000000006e-01 5.435969999999999969e-01 3.004200000000000159e+01 1.533634999999999877e+02 1.436735000000000127e+03
1.110000000000000014e-01 5.435510000000000064e-01 2.936220000000000141e+01 1.531220000000000141e+02 1.436650000000000091e+03
1.120000000000000023e-01 5.435079999999999911e-01 2.871010000000000062e+01 1.528985000000000127e+02 1.436565000000000055e+03
1.130000000000000032e-01 5.434660000000000046e-01 2.808189999999999742e+01 1.526875000000000000e+02 1.436485000000000127e+03
1.140000000000000041e-01 5.434234999999999483e-01 2.747305000000000064e+01 1.524830000000000041e+02 1.436404999999999973e+03
1.150000000000000050e-01 5.433780000000000276e-01 2.687819999999999965e+01 1.522750000000000057e+02 1.436329999999999927e+03
1.160000000000000059e-01 5.433274999999999633e-01 2.629165000000000063e+01 1.520564999999999998e+02 1.436250000000000000e+03
1.170000000000000068e-01 5.432710000000000594e-01 2.570774999999999721e+01 1.518170000000000073e+02 1.436164999999999964e+03
1.180000000000000077e-01 5.432055000000000078e-01 2.512089999999999890e+01 1.515484999999999900e+02 1.436070000000000164e+03
1.190000000000000085e-01 5.431295000000000428e-01 2.452599999999999980e+01 1.512425000000000068e+02 1.435965000000000146e+03
1.200000000000000094e-01 5.430414999999999548e-01 2.391850000000000165e+01 1.508919999999999959e+02 1.435849999999999909e+03
1.209999999999999964e-01 5.429410000000000069e-01 2.329485000000000028e+01 1.504925000000000068e+02 1.435710000000000036e+03
1.219999999999999973e-01 5.428264999999999896e-01 2.265210000000000079e+01 1.500389999999999873e+02 1.435565000000000055e+03
1.229999999999999982e-01 5.426980000000000137e-01 2.198879999999999768e+01 1.495300000000000011e+02 1.435394999999999982e+03
1.239999999999999991e-01 5.425560000000000382e-01 2.130444999999999922e+01 1.489655000000000200e+02 1.435215000000000146e+03
1.250000000000000000e-01 5.424010000000000220e-01 2.059965000000000046e+01 1.483474999999999966e+02 1.435014999999999873e+03
1.260000000000000009e-01 5.422344999999999526e-01 1.987615000000000265e+01 1.476795000000000186e+02 1.434795000000000073e+03
1.270000000000000018e-01 5.420584999999999987e-01 1.913704999999999856e+01 1.469675000000000011e+02 1.434559999999999945e+03
1.280000000000000027e-01 5.418739999999999668e-01 1.838609999999999900e+01 1.462185000000000059e+02 1.434315000000000055e+03
1.290000000000000036e-01 5.416829999999999146e-01 1.762825000000000131e+01 1.454420000000000073e+02 1.434059999999999945e+03
1.300000000000000044e-01 5.414894999999999570e-01 1.686899999999999977e+01 1.446474999999999795e+02 1.433795000000000073e+03
1.310000000000000053e-01 5.412950000000000816e-01 1.611439999999999984e+01 1.438455000000000155e+02 1.433525000000000091e+03
1.320000000000000062e-01 5.411030000000000006e-01 1.537085000000000079e+01 1.430475000000000136e+02 1.433250000000000000e+03
1.330000000000000071e-01 5.409150000000000347e-01 1.464496000000000109e+01 1.422644999999999982e+02 1.432985000000000127e+03
1.340000000000000080e-01 5.407349999999999657e-01 1.394319000000000131e+01 1.415079999999999814e+02 1.432724999999999909e+03
1.350000000000000089e-01 5.405649999999999622e-01 1.327167500000000011e+01 1.407880000000000109e+02 1.432474999999999909e+03
1.360000000000000098e-01 5.404065000000000119e-01 1.263621000000000016e+01 1.401150000000000091e+02 1.432235000000000127e+03
1.370000000000000107e-01 5.402620000000000200e-01 1.204171999999999976e+01 1.394959999999999809e+02 1.432014999999999873e+03
1.380000000000000115e-01 5.401329999999999742e-01 1.149249499999999991e+01 1.389384999999999764e+02 1.431809999999999945e+03
1.390000000000000124e-01 5.400205000000000144e-01 1.099173000000000044e+01 1.384474999999999909e+02 1.431625000000000000e+03
1.400000000000000133e-01 5.399249999999999883e-01 1.054166000000000025e+01 1.380264999999999986e+02 1.431465000000000146e+03
1.410000000000000142e-01 5.398459999999999370e-01 1.014345499999999944e+01 1.376765000000000043e+02 1.431325000000000045e+03
1.420000000000000151e-01 5.397845000000000004e-01 9.797145000000000437e+00 1.373979999999999961e+02 1.431204999999999927e+03
1.430000000000000160e-01 5.397395000000000387e-01 9.501844999999999430e+00 1.371879999999999882e+02 1.431115000000000009e+03
1.440000000000000169e-01 5.397089999999999943e-01 9.255469999999998976e+00 1.370434999999999945e+02 1.431039999999999964e+03
1.450000000000000178e-01 5.396919999999999495e-01 9.055324999999999847e+00 1.369590000000000032e+02 1.430985000000000127e+03
1.459999999999999909e-01 5.396879999999999455e-01 8.897729999999999251e+00 1.369279999999999973e+02 1.430954999999999927e+03
1.469999999999999918e-01 5.396935000000000482e-01 8.778570000000000206e+00 1.369429999999999836e+02 1.430934999999999945e+03
1.479999999999999927e-01 5.397075000000000067e-01 8.693194999999999339e+00 1.369970000000000141e+02 1.430934999999999945e+03
1.489999999999999936e-01 5.397279999999999855e-01 8.636794999999999334e+00 1.370809999999999889e+02 1.430940000000000055e+03
1.499999999999999944e-01 5.397529999999999273e-01 8.604364999999999597e+00 1.371865000000000236e+02 1.430960000000000036e+03
1.509999999999999953e-01 5.397799999999999265e-01 8.590989999999999682e+00 1.373064999999999998e+02 1.430984999999999900e+03
1.519999999999999962e-01 5.398089999999999833e-01 8.591899999999998983e+00 1.374325000000000045e+02 1.431019999999999982e+03
1.529999999999999971e-01 5.398359999999999825e-01 8.602660000000000196e+00 1.375585000000000093e+02 1.431045000000000073e+03
1.539999999999999980e-01 5.398620000000000640e-01 8.619225000000000136e+00 1.376784999999999854e+02 1.431079999999999927e+03
1.549999999999999989e-01 5.398840000000000305e-01 8.638010000000001298e+00 1.377864999999999895e+02 1.431109999999999900e+03
1.559999999999999998e-01 5.399030000000000218e-01 8.655969999999999942e+00 1.378799999999999955e+02 1.431139999999999873e+03
1.570000000000000007e-01 5.399175000000000502e-01 8.670605000000000118e+00 1.379549999999999841e+02 1.431160000000000082e+03
1.580000000000000016e-01 5.399275000000000047e-01 8.679970000000000852e+00 1.380105000000000075e+02 1.431174999999999955e+03
1.590000000000000024e-01 5.399319999999999675e-01 8.682674999999999699e+00 1.380449999999999875e+02 1.431190000000000055e+03
