# t [s], A [cm^2], U [cm/s], P [cPa], c [cm/s]
1.000000000000000021e-03 5.412265000000000548e-01 2.862499999999996991e-03 9.684159999999999968e+01 1.410784999999999854e+03
2.000000000000000042e-03 5.412185000000000468e-01 1.030499999999999299e-04 9.682165000000000532e+01 1.410775000000000091e+03
3.000000000000000062e-03 5.412670000000000536e-01 8.846765000000000878e-02 9.689865000000000350e+01 1.410805000000000064e+03
4.000000000000000083e-03 5.413169999999999371e-01 1.824174999999999824e-01 9.700220000000000198e+01 1.410839999999999918e+03
5.000000000000000104e-03 5.413034999999999375e-01 1.700278499999999804e-01 9.697644999999999982e+01 1.410835000000000036e+03
6.000000000000000125e-03 5.412464999999999637e-01 7.516900000000001358e-02 9.680355000000000132e+01 1.410795000000000073e+03
7.000000000000000146e-03 5.411875000000000435e-01 -3.019299999999996986e-02 9.655185000000000173e+01 1.410724999999999909e+03
8.000000000000000167e-03 5.411070000000000046e-01 -1.821650000000000214e-01 9.619579999999999131e+01 1.410619999999999891e+03
9.000000000000001055e-03 5.409715000000000495e-01 -4.439449999999999230e-01 9.565420000000000300e+01 1.410469999999999800e+03
1.000000000000000194e-02 5.407769999999999522e-01 -8.176850000000001062e-01 9.488980000000000814e+01 1.410259999999999991e+03
1.099999999999999936e-02 5.405214999999999881e-01 -1.297999999999999821e+00 9.387715000000000032e+01 1.409965000000000146e+03
1.200000000000000025e-02 5.401865000000000139e-01 -1.898330000000000073e+00 9.257189999999999941e+01 1.409579999999999927e+03
1.300000000000000114e-02 5.397695000000000132e-01 -2.607694999999999652e+00 9.095239999999999725e+01 1.409094999999999800e+03
1.400000000000000203e-02 5.392974999999999852e-01 -3.348555000000000170e+00 8.907794999999998709e+01 1.408509999999999991e+03
1.499999999999999944e-02 5.388290000000000024e-01 -3.989014999999999755e+00 8.709559999999999036e+01 1.407880000000000109e+03
1.600000000000000033e-02 5.384185000000000221e-01 -4.397194500000000339e+00 8.518805000000000405e+01 1.407244999999999891e+03
1.700000000000000122e-02 5.380970000000000475e-01 -4.492311250000000200e+00 8.350509999999999877e+01 1.406650000000000091e+03
1.800000000000000211e-02 5.378644999999999676e-01 -4.265867000000000075e+00 8.211879999999999313e+01 1.406119999999999891e+03
1.900000000000000300e-02 5.376919999999999478e-01 -3.773710499999999968e+00 8.101200000000000045e+01 1.405664999999999964e+03
2.000000000000000042e-02 5.375399999999999068e-01 -3.110775999999999986e+00 8.009614999999999441e+01 1.405259999999999991e+03
2.100000000000000130e-02 5.373660000000000103e-01 -2.379625000000000323e+00 7.924580000000000268e+01 1.404875000000000000e+03
2.200000000000000219e-02 5.371405000000000207e-01 -1.661710000000000020e+00 7.833910000000000196e+01 1.404485000000000127e+03
2.299999999999999961e-02 5.368515000000000370e-01 -9.991449999999997278e-01 7.729219999999999402e+01 1.404059999999999945e+03
2.400000000000000050e-02 5.365090000000000137e-01 -3.922900000000000276e-01 7.607630000000000337e+01 1.403590000000000146e+03
2.500000000000000139e-02 5.361304999999999543e-01 1.874299999999999855e-01 7.471375000000000455e+01 1.403085000000000036e+03
2.600000000000000228e-02 5.357399999999999940e-01 7.764499999999996405e-01 7.325719999999999743e+01 1.402545000000000073e+03
2.700000000000000316e-02 5.353520000000000501e-01 1.398734999999999840e+00 7.176285000000000025e+01 1.401985000000000127e+03
2.800000000000000058e-02 5.349720000000000031e-01 2.052844999999999587e+00 7.026720000000000255e+01 1.401424999999999955e+03
2.900000000000000147e-02 5.345929999999999849e-01 2.708470000000000155e+00 6.877344999999999686e+01 1.400855000000000018e+03
3.000000000000000236e-02 5.341964999999999630e-01 3.311539999999999484e+00 6.724944999999999595e+01 1.400275000000000091e+03
3.099999999999999978e-02 5.337610000000000410e-01 3.795119999999999827e+00 6.563495000000000346e+01 1.399674999999999955e+03
3.200000000000000067e-02 5.332645000000000302e-01 4.093290000000000539e+00 6.385689999999999600e+01 1.399030000000000200e+03
3.300000000000000155e-02 5.326904999999999557e-01 4.154935000000000045e+00 6.184734999999999161e+01 1.398315000000000055e+03
3.400000000000000244e-02 5.320340000000000069e-01 3.955060000000000020e+00 5.956250000000000000e+01 1.397525000000000091e+03
3.500000000000000333e-02 5.313014999999999821e-01 3.500450000000000284e+00 5.699604999999999677e+01 1.396654999999999973e+03
3.600000000000000422e-02 5.305124999999999424e-01 2.829295000000000115e+00 5.418565000000000254e+01 1.395710000000000036e+03
3.700000000000000511e-02 5.296950000000000269e-01 2.005365000000000286e+00 5.121065000000000111e+01 1.394710000000000036e+03
3.799999999999999906e-02 5.288824999999999221e-01 1.107515000000000249e+00 4.818254999999999910e+01 1.393690000000000055e+03
3.899999999999999994e-02 5.281120000000000259e-01 2.191000000000000725e-01 4.523085000000000377e+01 1.392674999999999955e+03
4.000000000000000083e-02 5.274149999999999672e-01 -5.821550000000002001e-01 4.248805000000000121e+01 1.391715000000000146e+03
4.100000000000000172e-02 5.268184999999999674e-01 -1.231219999999999981e+00 4.007560000000000144e+01 1.390839999999999918e+03
4.200000000000000261e-02 5.263419999999999765e-01 -1.679534999999999556e+00 3.809394999999999953e+01 1.390090000000000146e+03
4.300000000000000350e-02 5.259979999999999656e-01 -1.895985000000000031e+00 3.661610000000000298e+01 1.389490000000000009e+03
4.400000000000000439e-02 5.257929999999999549e-01 -1.865334999999999965e+00 3.568534999999999968e+01 1.389065000000000055e+03
4.499999999999999833e-02 5.257255000000000678e-01 -1.585037500000000099e+00 3.531719999999999970e+01 1.388809999999999945e+03
4.599999999999999922e-02 5.257904999999999385e-01 -1.061549000000000076e+00 3.550350000000000250e+01 1.388750000000000000e+03
4.700000000000000011e-02 5.259804999999999620e-01 -3.067750000000000199e-01 3.621804999999999808e+01 1.388860000000000127e+03
4.800000000000000100e-02 5.262860000000000316e-01 6.645399999999999086e-01 3.742260000000000275e+01 1.389144999999999982e+03
4.900000000000000189e-02 5.266959999999999420e-01 1.836254999999999971e+00 3.907169999999999987e+01 1.389594999999999800e+03
5.000000000000000278e-02 5.272000000000000020e-01 3.190999999999999837e+00 4.111610000000000298e+01 1.390184999999999945e+03
5.100000000000000366e-02 5.277860000000000884e-01 4.709524999999999295e+00 4.350459999999999638e+01 1.390904999999999973e+03
5.200000000000000455e-02 5.284420000000000783e-01 6.369744999999999990e+00 4.618424999999999869e+01 1.391735000000000127e+03
5.300000000000000544e-02 5.291544999999999721e-01 8.145866999999999081e+00 4.910065000000000168e+01 1.392664999999999964e+03
5.399999999999999939e-02 5.299099999999999921e-01 1.000831299999999935e+01 5.219749999999999801e+01 1.393670000000000073e+03
5.500000000000000028e-02 5.306930000000000813e-01 1.192395999999999923e+01 5.541684999999999661e+01 1.394734999999999900e+03
5.600000000000000117e-02 5.314894999999999481e-01 1.385768500000000003e+01 5.870055000000000689e+01 1.395835000000000036e+03
5.700000000000000205e-02 5.322839999999999794e-01 1.577398499999999970e+01 6.199119999999999919e+01 1.396954999999999927e+03
5.800000000000000294e-02 5.330639999999999823e-01 1.763888999999999996e+01 6.523524999999999352e+01 1.398075000000000045e+03
5.900000000000000383e-02 5.338184999999999736e-01 1.942194999999999894e+01 6.838474999999999682e+01 1.399184999999999945e+03
6.000000000000000472e-02 5.345379999999999576e-01 2.109785000000000110e+01 7.140004999999999313e+01 1.400259999999999991e+03
6.099999999999999867e-02 5.352169999999999428e-01 2.264764999999999873e+01 7.425149999999999295e+01 1.401295000000000073e+03
6.199999999999999956e-02 5.358515000000000361e-01 2.405920000000000059e+01 7.692034999999999911e+01 1.402279999999999973e+03
6.300000000000000044e-02 5.364420000000000854e-01 2.532714999999999961e+01 7.939934999999999832e+01 1.403210000000000036e+03
6.400000000000000133e-02 5.369904999999999262e-01 2.645260000000000034e+01 8.169214999999999804e+01 1.404085000000000036e+03
6.500000000000000222e-02 5.375014999999999654e-01 2.744194999999999851e+01 8.381194999999999595e+01 1.404904999999999973e+03
6.600000000000000311e-02 5.379804999999999726e-01 2.830604999999999905e+01 8.577984999999999616e+01 1.405675000000000182e+03
6.700000000000000400e-02 5.384340000000000792e-01 2.905919999999999703e+01 8.762289999999998713e+01 1.406394999999999982e+03
6.800000000000000488e-02 5.388705000000000300e-01 2.971760000000000090e+01 8.937189999999999657e+01 1.407090000000000146e+03
6.900000000000000577e-02 5.392970000000000264e-01 3.029899999999999949e+01 9.105949999999999989e+01 1.407755000000000109e+03
7.000000000000000666e-02 5.397220000000000351e-01 3.082155000000000200e+01 9.271844999999999004e+01 1.408404999999999973e+03
7.100000000000000755e-02 5.401515000000000066e-01 3.130304999999999893e+01 9.437989999999999213e+01 1.409054999999999836e+03
7.200000000000000844e-02 5.405925000000000313e-01 3.176044999999999874e+01 9.607214999999999350e+01 1.409704999999999927e+03
7.300000000000000933e-02 5.410500000000000309e-01 3.220909999999999940e+01 9.781924999999999670e+01 1.410365000000000009e+03
7.399999999999999634e-02 5.415280000000000094e-01 3.266214999999999691e+01 9.964119999999999777e+01 1.411054999999999836e+03
7.499999999999999722e-02 5.420294999999999419e-01 3.312989999999999924e+01 1.015502500000000055e+02 1.411759999999999991e+03
7.599999999999999811e-02 5.425554999999999684e-01 3.361934999999999718e+01 1.035534999999999997e+02 1.412500000000000000e+03
7.699999999999999900e-02 5.431050000000000599e-01 3.413344999999999629e+01 1.056510000000000105e+02 1.413264999999999873e+03
7.799999999999999989e-02 5.436745000000000605e-01 3.467130000000000223e+01 1.078335000000000008e+02 1.414059999999999945e+03
7.900000000000000078e-02 5.442605000000000359e-01 3.522775000000000034e+01 1.100870000000000033e+02 1.414880000000000109e+03
8.000000000000000167e-02 5.448565000000000769e-01 3.579384999999999906e+01 1.123900000000000006e+02 1.415715000000000146e+03
8.100000000000000255e-02 5.454554999999999820e-01 3.635739999999999839e+01 1.147129999999999939e+02 1.416559999999999945e+03
8.200000000000000344e-02 5.460490000000000066e-01 3.690359999999999729e+01 1.170270000000000010e+02 1.417404999999999973e+03
8.300000000000000433e-02 5.466280000000000028e-01 3.741590000000000060e+01 1.192944999999999993e+02 1.418244999999999891e+03
8.400000000000000522e-02 5.471840000000000037e-01 3.787729999999999819e+01 1.214805000000000064e+02 1.419059999999999945e+03
8.500000000000000611e-02 5.477080000000000837e-01 3.827089999999999748e+01 1.235504999999999995e+02 1.419835000000000036e+03
8.600000000000000699e-02 5.481925000000000825e-01 3.858095000000000141e+01 1.254710000000000036e+02 1.420574999999999818e+03
8.700000000000000788e-02 5.486305000000000209e-01 3.879394999999999527e+01 1.272129999999999939e+02 1.421250000000000000e+03
8.800000000000000877e-02 5.490174999999999361e-01 3.889889999999999759e+01 1.287529999999999859e+02 1.421865000000000009e+03
8.899999999999999578e-02 5.493494999999999351e-01 3.888800000000000523e+01 1.300745000000000005e+02 1.422400000000000091e+03
8.999999999999999667e-02 5.496240000000000014e-01 3.875679999999999836e+01 1.311659999999999968e+02 1.422865000000000009e+03
9.099999999999999756e-02 5.498414999999999830e-01 3.850439999999999685e+01 1.320235000000000127e+02 1.423250000000000000e+03
9.199999999999999845e-02 5.500019999999999909e-01 3.813340000000000174e+01 1.326504999999999939e+02 1.423549999999999955e+03
9.299999999999999933e-02 5.501095000000000290e-01 3.764950000000000330e+01 1.330569999999999879e+02 1.423779999999999973e+03
9.400000000000000022e-02 5.501679999999999904e-01 3.706154999999999688e+01 1.332574999999999932e+02 1.423924999999999955e+03
9.500000000000000111e-02 5.501819999999999489e-01 3.638080000000000069e+01 1.332719999999999914e+02 1.424005000000000109e+03
9.600000000000000200e-02 5.501574999999999660e-01 3.562064999999999770e+01 1.331254999999999882e+02 1.424029999999999973e+03
9.700000000000000289e-02 5.501015000000000210e-01 3.479594999999999771e+01 1.328439999999999941e+02 1.423990000000000009e+03
9.800000000000000377e-02 5.500215000000000520e-01 3.392269999999999897e+01 1.324555000000000007e+02 1.423909999999999854e+03
9.900000000000000466e-02 5.499235000000000095e-01 3.301729999999999876e+01 1.319904999999999973e+02 1.423795000000000073e+03
1.000000000000000056e-01 5.498140000000000249e-01 3.209595000000000198e+01 1.314765000000000157e+02 1.423650000000000091e+03
1.010000000000000064e-01 5.497009999999999952e-01 3.117445000000000022e+01 1.309414999999999907e+02 1.423494999999999891e+03
1.020000000000000073e-01 5.495894999999999531e-01 3.026724999999999710e+01 1.304094999999999800e+02 1.423329999999999927e+03
1.030000000000000082e-01 5.494835000000000136e-01 2.938719999999999999e+01 1.299039999999999964e+02 1.423164999999999964e+03
1.040000000000000091e-01 5.493894999999999751e-01 2.854524999999999935e+01 1.294415000000000191e+02 1.423009999999999991e+03
1.050000000000000100e-01 5.493084999999999773e-01 2.774990000000000023e+01 1.290370000000000061e+02 1.422864999999999782e+03
1.059999999999999970e-01 5.492434999999999956e-01 2.700715000000000288e+01 1.286995000000000005e+02 1.422735000000000127e+03
1.069999999999999979e-01 5.491949999999999887e-01 2.632034999999999769e+01 1.284335000000000093e+02 1.422634999999999991e+03
1.079999999999999988e-01 5.491630000000000678e-01 2.569035000000000224e+01 1.282409999999999854e+02 1.422549999999999955e+03
1.089999999999999997e-01 5.491459999999999120e-01 2.511524999999999963e+01 1.281165000000000020e+02 1.422485000000000127e+03
1.100000000000000006e-01 5.491420000000000190e-01 2.459114999999999895e+01 1.280525000000000091e+02 1.422444999999999936e+03
1.110000000000000014e-01 5.491479999999999695e-01 2.411179999999999879e+01 1.280384999999999991e+02 1.422420000000000073e+03
1.120000000000000023e-01 5.491610000000000102e-01 2.366959999999999908e+01 1.280604999999999905e+02 1.422409999999999854e+03
1.130000000000000032e-01 5.491759999999999975e-01 2.325544999999999973e+01 1.281014999999999873e+02 1.422409999999999854e+03
1.140000000000000041e-01 5.491900000000000670e-01 2.285970000000000013e+01 1.281460000000000150e+02 1.422409999999999854e+03
1.150000000000000050e-01 5.491975000000000051e-01 2.247214999999999918e+01 1.281765000000000043e+02 1.422410000000000082e+03
1.160000000000000059e-01 5.491960000000000175e-01 2.208275000000000077e+01 1.281754999999999995e+02 1.422400000000000091e+03
1.170000000000000068e-01 5.491805000000000714e-01 2.168185000000000073e+01 1.281274999999999977e+02 1.422385000000000218e+03
1.180000000000000077e-01 5.491479999999999695e-01 2.126095000000000113e+01 1.280175000000000125e+02 1.422340000000000146e+03
1.190000000000000085e-01 5.490970000000000573e-01 2.081244999999999834e+01 1.278344999999999914e+02 1.422285000000000082e+03
1.200000000000000094e-01 5.490245000000000264e-01 2.033050000000000068e+01 1.275695000000000050e+02 1.422195000000000164e+03
1.209999999999999964e-01 5.489294999999999591e-01 1.981094999999999828e+01 1.272154999999999916e+02 1.422079999999999927e+03
1.219999999999999973e-01 5.488119999999999665e-01 1.925155000000000172e+01 1.267715000000000032e+02 1.421934999999999945e+03
1.229999999999999982e-01 5.486725000000000074e-01 1.865200000000000102e+01 1.262369999999999948e+02 1.421759999999999991e+03
1.239999999999999991e-01 5.485115000000000407e-01 1.801409999999999911e+01 1.256165000000000020e+02 1.421555000000000064e+03
1.250000000000000000e-01 5.483325000000000005e-01 1.734140000000000015e+01 1.249180000000000064e+02 1.421324999999999818e+03
1.260000000000000009e-01 5.481380000000000141e-01 1.663940000000000197e+01 1.241519999999999868e+02 1.421065000000000055e+03
1.270000000000000018e-01 5.479304999999999870e-01 1.591520000000000046e+01 1.233310000000000031e+02 1.420784999999999854e+03
1.280000000000000027e-01 5.477150000000000629e-01 1.517726000000000042e+01 1.224699999999999989e+02 1.420494999999999891e+03
1.290000000000000036e-01 5.474950000000000649e-01 1.443492499999999978e+01 1.215859999999999985e+02 1.420184999999999945e+03
1.300000000000000044e-01 5.472749999999999559e-01 1.369838000000000022e+01 1.206970000000000027e+02 1.419875000000000000e+03
1.310000000000000053e-01 5.470599999999999907e-01 1.297809999999999953e+01 1.198209999999999980e+02 1.419565000000000055e+03
1.320000000000000062e-01 5.468539999999999512e-01 1.228448000000000029e+01 1.189749999999999943e+02 1.419259999999999991e+03
1.330000000000000071e-01 5.466610000000000635e-01 1.162739499999999992e+01 1.181765000000000043e+02 1.418965000000000146e+03
1.340000000000000080e-01 5.464845000000000397e-01 1.101607500000000073e+01 1.174410000000000025e+02 1.418694999999999936e+03
1.350000000000000089e-01 5.463270000000000071e-01 1.045845000000000091e+01 1.167814999999999941e+02 1.418440000000000055e+03
1.360000000000000098e-01 5.461924999999999697e-01 9.961050000000000182e+00 1.162075000000000102e+02 1.418219999999999800e+03
1.370000000000000107e-01 5.460810000000000386e-01 9.528814999999999813e+00 1.157289999999999992e+02 1.418019999999999982e+03
1.380000000000000115e-01 5.459939999999999793e-01 9.164809999999999235e+00 1.153489999999999895e+02 1.417860000000000127e+03
1.390000000000000124e-01 5.459324999999999317e-01 8.870345000000000368e+00 1.150699999999999932e+02 1.417730000000000018e+03
1.400000000000000133e-01 5.458939999999999904e-01 8.644815000000001248e+00 1.148905000000000030e+02 1.417630000000000109e+03
1.410000000000000142e-01 5.458785000000000442e-01 8.485870000000000246e+00 1.148054999999999950e+02 1.417570000000000164e+03
1.420000000000000151e-01 5.458840000000000359e-01 8.389534999999998632e+00 1.148085000000000093e+02 1.417535000000000082e+03
1.430000000000000160e-01 5.459070000000000311e-01 8.350474999999999426e+00 1.148905000000000030e+02 1.417534999999999854e+03
1.440000000000000169e-01 5.459460000000000424e-01 8.362149999999999750e+00 1.150395000000000039e+02 1.417559999999999945e+03
1.450000000000000178e-01 5.459975000000000245e-01 8.417130000000000223e+00 1.152439999999999998e+02 1.417605000000000018e+03
1.459999999999999909e-01 5.460575000000000845e-01 8.507369999999999877e+00 1.154899999999999949e+02 1.417660000000000082e+03
1.469999999999999918e-01 5.461234999999999840e-01 8.624539999999999651e+00 1.157644999999999982e+02 1.417740000000000009e+03
1.479999999999999927e-01 5.461920000000000108e-01 8.760259999999998826e+00 1.160540000000000020e+02 1.417820000000000164e+03
1.489999999999999936e-01 5.462595000000000089e-01 8.906385000000000218e+00 1.163455000000000013e+02 1.417914999999999964e+03
1.499999999999999944e-01 5.463240000000000318e-01 9.055244999999999322e+00 1.166280000000000001e+02 1.418000000000000000e+03
1.509999999999999953e-01 5.463835000000000219e-01 9.199854999999999450e+00 1.168905000000000030e+02 1.418085000000000036e+03
1.519999999999999962e-01 5.464355000000000739e-01 9.334039999999999893e+00 1.171250000000000000e+02 1.418164999999999964e+03
1.529999999999999971e-01 5.464780000000000193e-01 9.452700000000000102e+00 1.173249999999999886e+02 1.418234999999999900e+03
1.539999999999999980e-01 5.465109999999999690e-01 9.551664999999999850e+00 1.174849999999999994e+02 1.418295000000000073e+03
1.549999999999999989e-01 5.465339999999999643e-01 9.627919999999999590e+00 1.176024999999999920e+02 1.418339999999999918e+03
1.559999999999999998e-01 5.465459999999999763e-01 9.679590000000001027e+00 1.176760000000000019e+02 1.418375000000000000e+03
1.570000000000000007e-01 5.465474999999999639e-01 9.705885000000000318e+00 1.177065000000000055e+02 1.418394999999999982e+03
1.580000000000000016e-01 5.465404999999999847e-01 9.706974999999999909e+00 1.176965000000000003e+02 1.418400000000000091e+03
1.590000000000000024e-01 5.465240000000000098e-01 9.683930000000000149e+00 1.176484999999999985e+02 1.418394999999999982e+03
