# t [s], A [cm^2], U [cm/s], P [cPa], c [cm/s]
1.000000000000000021e-03 1.301229999999999887e-01 4.553946499999999564e-01 8.686750000000000682e+01 1.955365000000000009e+03
2.000000000000000042e-03 1.300874999999999948e-01 2.029399999999999871e+00 8.343885000000000218e+01 1.954925000000000182e+03
3.000000000000000062e-03 1.299929999999999974e-01 3.888023499999999633e+00 7.903005000000000280e+01 1.953780000000000200e+03
4.000000000000000083e-03 1.298650000000000082e-01 5.943272499999999958e+00 7.458565000000000111e+01 1.952255000000000109e+03
5.000000000000000104e-03 1.297294999999999976e-01 8.116709999999999425e+00 7.087475000000000591e+01 1.950644999999999982e+03
6.000000000000000125e-03 1.295985000000000054e-01 1.021583000000000041e+01 6.796070000000000277e+01 1.949110000000000127e+03
7.000000000000000146e-03 1.294759999999999800e-01 1.205560499999999990e+01 6.547509999999999764e+01 1.947694999999999936e+03
8.000000000000000167e-03 1.293624999999999914e-01 1.360417999999999950e+01 6.322760000000000247e+01 1.946414999999999964e+03
9.000000000000001055e-03 1.292630000000000168e-01 1.491349999999999909e+01 6.129914999999999736e+01 1.945289999999999964e+03
1.000000000000000194e-02 1.291775000000000007e-01 1.600769999999999982e+01 5.972665000000000646e+01 1.944349999999999909e+03
1.099999999999999936e-02 1.291059999999999985e-01 1.689399999999999835e+01 5.845055000000000689e+01 1.943559999999999945e+03
1.200000000000000025e-02 1.290465000000000084e-01 1.758510000000000062e+01 5.740709999999999980e+01 1.942920000000000073e+03
1.300000000000000114e-02 1.289974999999999872e-01 1.808885000000000076e+01 5.652195000000000391e+01 1.942394999999999982e+03
1.400000000000000203e-02 1.289559999999999873e-01 1.842324999999999946e+01 5.572305000000000064e+01 1.941960000000000036e+03
1.499999999999999944e-02 1.289210000000000078e-01 1.865845000000000198e+01 5.505729999999999791e+01 1.941599999999999909e+03
1.600000000000000033e-02 1.288960000000000106e-01 1.892430000000000234e+01 5.476810000000000400e+01 1.941349999999999909e+03
1.700000000000000122e-02 1.288880000000000026e-01 1.935779999999999745e+01 5.519749999999999801e+01 1.941275000000000091e+03
1.800000000000000211e-02 1.289029999999999898e-01 2.002640000000000242e+01 5.656479999999999819e+01 1.941450000000000045e+03
1.900000000000000300e-02 1.289420000000000011e-01 2.088454999999999728e+01 5.878714999999999691e+01 1.941885000000000218e+03
2.000000000000000042e-02 1.290004999999999902e-01 2.178699999999999903e+01 6.145810000000000173e+01 1.942534999999999854e+03
2.100000000000000130e-02 1.290670000000000150e-01 2.254574999999999818e+01 6.398460000000000036e+01 1.943275000000000091e+03
2.200000000000000219e-02 1.291275000000000062e-01 2.299900000000000233e+01 6.579914999999999736e+01 1.943970000000000027e+03
2.299999999999999961e-02 1.291714999999999947e-01 2.306334999999999980e+01 6.654814999999999259e+01 1.944480000000000018e+03
2.400000000000000050e-02 1.291924999999999879e-01 2.275169999999999959e+01 6.618630000000000280e+01 1.944740000000000009e+03
2.500000000000000139e-02 1.291895000000000127e-01 2.215630000000000166e+01 6.495340000000000202e+01 1.944735000000000127e+03
2.600000000000000228e-02 1.291685000000000194e-01 2.140670000000000073e+01 6.325645000000000095e+01 1.944514999999999873e+03
2.700000000000000316e-02 1.291360000000000008e-01 2.062420000000000186e+01 6.151489999999999725e+01 1.944170000000000073e+03
2.800000000000000058e-02 1.291010000000000213e-01 1.988730000000000331e+01 6.002949999999999875e+01 1.943789999999999964e+03
2.900000000000000147e-02 1.290685000000000027e-01 1.921934999999999860e+01 5.891644999999999754e+01 1.943429999999999836e+03
3.000000000000000236e-02 1.290409999999999890e-01 1.859750000000000014e+01 5.811669999999999447e+01 1.943125000000000000e+03
3.099999999999999978e-02 1.290175000000000072e-01 1.797520000000000095e+01 5.746130000000000138e+01 1.942860000000000127e+03
3.200000000000000067e-02 1.289945000000000119e-01 1.730890000000000128e+01 5.676084999999999781e+01 1.942605000000000018e+03
3.300000000000000155e-02 1.289694999999999869e-01 1.658044999999999902e+01 5.588759999999999906e+01 1.942329999999999927e+03
3.400000000000000244e-02 1.289410000000000001e-01 1.580839999999999890e+01 5.482750000000000057e+01 1.942019999999999982e+03
3.500000000000000333e-02 1.289095000000000102e-01 1.504689999999999905e+01 5.368930000000000291e+01 1.941664999999999964e+03
3.600000000000000422e-02 1.288779999999999926e-01 1.437245000000000061e+01 5.267334999999999923e+01 1.941315000000000055e+03
3.700000000000000511e-02 1.288509999999999933e-01 1.386340000000000039e+01 5.201054999999999495e+01 1.941019999999999982e+03
3.799999999999999906e-02 1.288344999999999907e-01 1.357835000000000036e+01 5.189224999999999710e+01 1.940825000000000045e+03
3.899999999999999994e-02 1.288320000000000021e-01 1.353934999999999889e+01 5.241129999999999711e+01 1.940784999999999854e+03
4.000000000000000083e-02 1.288445000000000007e-01 1.372475000000000023e+01 5.353139999999999787e+01 1.940914999999999964e+03
4.100000000000000172e-02 1.288714999999999999e-01 1.407205000000000084e+01 5.508849999999999625e+01 1.941200000000000045e+03
4.200000000000000261e-02 1.289095000000000102e-01 1.448915000000000042e+01 5.682264999999999588e+01 1.941605000000000018e+03
4.300000000000000350e-02 1.289509999999999823e-01 1.487085000000000079e+01 5.842790000000000106e+01 1.942059999999999945e+03
4.400000000000000439e-02 1.289895000000000069e-01 1.511524999999999963e+01 5.960734999999999673e+01 1.942484999999999900e+03
4.499999999999999833e-02 1.290175000000000072e-01 1.513840000000000074e+01 6.011970000000000169e+01 1.942795000000000073e+03
4.599999999999999922e-02 1.290300000000000058e-01 1.488330000000000020e+01 5.981114999999999782e+01 1.942934999999999945e+03
4.700000000000000011e-02 1.290209999999999968e-01 1.432365000000000066e+01 5.862664999999999793e+01 1.942849999999999909e+03
4.800000000000000100e-02 1.289905000000000079e-01 1.346249999999999858e+01 5.660450000000000159e+01 1.942519999999999982e+03
4.900000000000000189e-02 1.289379999999999971e-01 1.232741499999999846e+01 5.385665000000000191e+01 1.941950000000000045e+03
5.000000000000000278e-02 1.288654999999999939e-01 1.096341999999999928e+01 5.054344999999999999e+01 1.941150000000000091e+03
5.100000000000000366e-02 1.287764999999999882e-01 9.426610000000000156e+00 4.684799999999999898e+01 1.940174999999999955e+03
5.200000000000000455e-02 1.286754999999999982e-01 7.778050000000000352e+00 4.295454999999999757e+01 1.939065000000000055e+03
5.300000000000000544e-02 1.285665000000000002e-01 6.080055000000000653e+00 3.903549999999999898e+01 1.937865000000000009e+03
5.399999999999999939e-02 1.284550000000000136e-01 4.393533500000000203e+00 3.524439999999999884e+01 1.936625000000000000e+03
5.500000000000000028e-02 1.283445000000000003e-01 2.777184999999999793e+00 3.171555000000000035e+01 1.935400000000000091e+03
5.600000000000000117e-02 1.282389999999999919e-01 1.286984999999999824e+00 2.856624999999999659e+01 1.934230000000000018e+03
5.700000000000000205e-02 1.281430000000000069e-01 -2.414500000000008306e-02 2.590090000000000003e+01 1.933154999999999973e+03
5.800000000000000294e-02 1.280584999999999918e-01 -1.106990000000000141e+00 2.381255000000000166e+01 1.932215000000000146e+03
5.900000000000000383e-02 1.279895000000000060e-01 -1.917268500000000042e+00 2.238320000000000221e+01 1.931445000000000164e+03
6.000000000000000472e-02 1.279385000000000105e-01 -2.417455000000000354e+00 2.168130000000000024e+01 1.930865000000000009e+03
6.099999999999999867e-02 1.279080000000000217e-01 -2.578784999999999883e+00 2.175779999999999959e+01 1.930509999999999991e+03
6.199999999999999956e-02 1.278994999999999993e-01 -2.383284999999999876e+00 2.264085000000000036e+01 1.930394999999999982e+03
6.300000000000000044e-02 1.279139999999999999e-01 -1.825312499999999893e+00 2.433164999999999978e+01 1.930529999999999973e+03
6.400000000000000133e-02 1.279520000000000102e-01 -9.123715000000001130e-01 2.680209999999999937e+01 1.930934999999999945e+03
6.500000000000000222e-02 1.280135000000000023e-01 3.350649999999999462e-01 2.999454999999999671e+01 1.931579999999999927e+03
6.600000000000000311e-02 1.280965000000000020e-01 1.884699999999999820e+00 3.382439999999999714e+01 1.932474999999999909e+03
6.700000000000000400e-02 1.281984999999999930e-01 3.694350550000000233e+00 3.818554999999999922e+01 1.933590000000000146e+03
6.800000000000000488e-02 1.283179999999999876e-01 5.714545000000000208e+00 4.295694999999999908e+01 1.934894999999999982e+03
6.900000000000000577e-02 1.284504999999999952e-01 7.891354999999999897e+00 4.801054999999999495e+01 1.936355000000000018e+03
7.000000000000000666e-02 1.285939999999999861e-01 1.016940499999999936e+01 5.321860000000000213e+01 1.937930000000000064e+03
7.100000000000000755e-02 1.287439999999999973e-01 1.249428999999999945e+01 5.846090000000000231e+01 1.939599999999999909e+03
7.200000000000000844e-02 1.288980000000000126e-01 1.481530000000000058e+01 6.363015000000000043e+01 1.941305000000000064e+03
7.300000000000000933e-02 1.290520000000000000e-01 1.708719999999999928e+01 6.863635000000000730e+01 1.943025000000000091e+03
7.399999999999999634e-02 1.292034999999999989e-01 1.927185000000000059e+01 7.340970000000000084e+01 1.944720000000000027e+03
7.499999999999999722e-02 1.293499999999999928e-01 2.133944999999999936e+01 7.790250000000000341e+01 1.946369999999999891e+03
7.599999999999999811e-02 1.294910000000000228e-01 2.326939999999999742e+01 8.208950000000000102e+01 1.947960000000000036e+03
7.699999999999999900e-02 1.296240000000000170e-01 2.505019999999999669e+01 8.596760000000000446e+01 1.949469999999999800e+03
7.799999999999999989e-02 1.297494999999999898e-01 2.667985000000000184e+01 8.955410000000000537e+01 1.950900000000000091e+03
7.900000000000000078e-02 1.298679999999999835e-01 2.816469999999999985e+01 9.288419999999999277e+01 1.952244999999999891e+03
8.000000000000000167e-02 1.299790000000000112e-01 2.951854999999999762e+01 9.600739999999998986e+01 1.953514999999999873e+03
8.100000000000000255e-02 1.300844999999999918e-01 3.076069999999999993e+01 9.898339999999998895e+01 1.954724999999999909e+03
8.200000000000000344e-02 1.301859999999999962e-01 3.191460000000000008e+01 1.018759000000000015e+02 1.955884999999999991e+03
8.300000000000000433e-02 1.302844999999999975e-01 3.300534999999999997e+01 1.047494999999999976e+02 1.957014999999999873e+03
8.400000000000000522e-02 1.303814999999999835e-01 3.405805000000000149e+01 1.076634999999999991e+02 1.958134999999999991e+03
8.500000000000000611e-02 1.304794999999999983e-01 3.509525000000000006e+01 1.106670000000000016e+02 1.959255000000000109e+03
8.600000000000000699e-02 1.305790000000000006e-01 3.613595000000000113e+01 1.137964999999999947e+02 1.960400000000000091e+03
8.700000000000000788e-02 1.306820000000000204e-01 3.719379999999999598e+01 1.170730000000000075e+02 1.961575000000000045e+03
8.800000000000000877e-02 1.307875000000000010e-01 3.827649999999999864e+01 1.205020000000000095e+02 1.962789999999999964e+03
8.899999999999999578e-02 1.308970000000000133e-01 3.938519999999999754e+01 1.240695000000000050e+02 1.964045000000000073e+03
8.999999999999999667e-02 1.310105000000000020e-01 4.051494999999999891e+01 1.277485000000000070e+02 1.965340000000000146e+03
9.099999999999999756e-02 1.311265000000000069e-01 4.165479999999999450e+01 1.314970000000000141e+02 1.966674999999999955e+03
9.199999999999999845e-02 1.312444999999999862e-01 4.278905000000000314e+01 1.352640000000000100e+02 1.968025000000000091e+03
9.299999999999999933e-02 1.313624999999999932e-01 4.389799999999999613e+01 1.389904999999999973e+02 1.969384999999999991e+03
9.400000000000000022e-02 1.314799999999999858e-01 4.495974999999999966e+01 1.426134999999999877e+02 1.970735000000000127e+03
9.500000000000000111e-02 1.315945000000000031e-01 4.595120000000000005e+01 1.460724999999999909e+02 1.972049999999999955e+03
9.600000000000000200e-02 1.317045000000000021e-01 4.684950000000000614e+01 1.493085000000000093e+02 1.973324999999999818e+03
9.700000000000000289e-02 1.318084999999999951e-01 4.763329999999999842e+01 1.522685000000000173e+02 1.974530000000000200e+03
9.800000000000000377e-02 1.319049999999999945e-01 4.828395000000000437e+01 1.549094999999999800e+02 1.975650000000000091e+03
9.900000000000000466e-02 1.319925000000000126e-01 4.878625000000000256e+01 1.571984999999999957e+02 1.976674999999999955e+03
1.000000000000000056e-01 1.320705000000000073e-01 4.912930000000000064e+01 1.591134999999999877e+02 1.977579999999999927e+03
1.010000000000000064e-01 1.321374999999999911e-01 4.930660000000000309e+01 1.606435000000000173e+02 1.978369999999999891e+03
1.020000000000000073e-01 1.321934999999999916e-01 4.931689999999999685e+01 1.617905000000000086e+02 1.979025000000000091e+03
1.030000000000000082e-01 1.322385000000000088e-01 4.916355000000000075e+01 1.625674999999999955e+02 1.979559999999999945e+03
1.040000000000000091e-01 1.322720000000000007e-01 4.885460000000000491e+01 1.629975000000000023e+02 1.979965000000000146e+03
1.050000000000000100e-01 1.322955000000000103e-01 4.840229999999999677e+01 1.631119999999999948e+02 1.980244999999999891e+03
1.059999999999999970e-01 1.323090000000000099e-01 4.782240000000000180e+01 1.629495000000000005e+02 1.980420000000000073e+03
1.069999999999999979e-01 1.323139999999999872e-01 4.713349999999999795e+01 1.625550000000000068e+02 1.980490000000000009e+03
1.079999999999999988e-01 1.323114999999999986e-01 4.635634999999999906e+01 1.619739999999999895e+02 1.980470000000000027e+03
1.089999999999999997e-01 1.323024999999999896e-01 4.551250000000000284e+01 1.612554999999999836e+02 1.980380000000000109e+03
1.100000000000000006e-01 1.322885000000000033e-01 4.462394999999999357e+01 1.604470000000000027e+02 1.980224999999999909e+03
1.110000000000000014e-01 1.322705000000000131e-01 4.371200000000000330e+01 1.595925000000000011e+02 1.980025000000000091e+03
1.120000000000000023e-01 1.322504999999999931e-01 4.279640000000000555e+01 1.587314999999999827e+02 1.979800000000000182e+03
1.130000000000000032e-01 1.322289999999999854e-01 4.189484999999999815e+01 1.579000000000000057e+02 1.979555000000000064e+03
1.140000000000000041e-01 1.322079999999999922e-01 4.102224999999999966e+01 1.571245000000000118e+02 1.979309999999999945e+03
1.150000000000000050e-01 1.321864999999999846e-01 4.019025000000000603e+01 1.564250000000000114e+02 1.979065000000000055e+03
1.160000000000000059e-01 1.321670000000000067e-01 3.940720000000000312e+01 1.558139999999999930e+02 1.978840000000000146e+03
1.170000000000000068e-01 1.321489999999999887e-01 3.867775000000000318e+01 1.552950000000000159e+02 1.978630000000000109e+03
1.180000000000000077e-01 1.321335000000000148e-01 3.800294999999999845e+01 1.548654999999999973e+02 1.978444999999999936e+03
1.190000000000000085e-01 1.321195000000000008e-01 3.738079999999999359e+01 1.545144999999999982e+02 1.978284999999999854e+03
1.200000000000000094e-01 1.321075000000000166e-01 3.680594999999999573e+01 1.542264999999999873e+02 1.978139999999999873e+03
1.209999999999999964e-01 1.320975000000000066e-01 3.627065000000000339e+01 1.539784999999999968e+02 1.978014999999999873e+03
1.219999999999999973e-01 1.320880000000000110e-01 3.576510000000000389e+01 1.537470000000000141e+02 1.977904999999999973e+03
1.229999999999999982e-01 1.320794999999999886e-01 3.527814999999999657e+01 1.535045000000000073e+02 1.977800000000000182e+03
1.239999999999999991e-01 1.320704999999999796e-01 3.479779999999999518e+01 1.532239999999999895e+02 1.977690000000000055e+03
1.250000000000000000e-01 1.320604999999999973e-01 3.431199999999999761e+01 1.528774999999999977e+02 1.977569999999999936e+03
1.260000000000000009e-01 1.320485000000000131e-01 3.380924999999999869e+01 1.524420000000000073e+02 1.977430000000000064e+03
1.270000000000000018e-01 1.320344999999999991e-01 3.327909999999999968e+01 1.518954999999999984e+02 1.977264999999999873e+03
1.280000000000000027e-01 1.320169999999999955e-01 3.271280000000000143e+01 1.512219999999999800e+02 1.977065000000000055e+03
1.290000000000000036e-01 1.319970000000000032e-01 3.210385000000000133e+01 1.504099999999999966e+02 1.976829999999999927e+03
1.300000000000000044e-01 1.319724999999999926e-01 3.144805000000000206e+01 1.494555000000000007e+02 1.976549999999999955e+03
1.310000000000000053e-01 1.319440000000000057e-01 3.074385000000000190e+01 1.483595000000000255e+02 1.976224999999999909e+03
1.320000000000000062e-01 1.319114999999999871e-01 2.999260000000000304e+01 1.471289999999999907e+02 1.975849999999999909e+03
1.330000000000000071e-01 1.318749999999999922e-01 2.919825000000000159e+01 1.457789999999999964e+02 1.975434999999999945e+03
1.340000000000000080e-01 1.318354999999999944e-01 2.836730000000000018e+01 1.443290000000000077e+02 1.974980000000000018e+03
1.350000000000000089e-01 1.317924999999999791e-01 2.750869999999999749e+01 1.428019999999999925e+02 1.974489999999999782e+03
1.360000000000000098e-01 1.317470000000000030e-01 2.663289999999999935e+01 1.412264999999999873e+02 1.973969999999999800e+03
1.370000000000000107e-01 1.317004999999999981e-01 2.575195000000000078e+01 1.396315000000000168e+02 1.973424999999999955e+03
1.380000000000000115e-01 1.316525000000000056e-01 2.487865000000000038e+01 1.380490000000000066e+02 1.972880000000000109e+03
1.390000000000000124e-01 1.316045000000000131e-01 2.402590000000000003e+01 1.365095000000000027e+02 1.972325000000000045e+03
1.400000000000000133e-01 1.315574999999999939e-01 2.320640000000000214e+01 1.350409999999999968e+02 1.971784999999999854e+03
1.410000000000000142e-01 1.315119999999999900e-01 2.243189999999999884e+01 1.336705000000000041e+02 1.971264999999999873e+03
1.420000000000000151e-01 1.314690000000000025e-01 2.171289999999999765e+01 1.324205000000000041e+02 1.970764999999999873e+03
1.430000000000000160e-01 1.314294999999999769e-01 2.105799999999999983e+01 1.313079999999999927e+02 1.970305000000000064e+03
1.440000000000000169e-01 1.313930000000000098e-01 2.047379999999999711e+01 1.303464999999999918e+02 1.969884999999999991e+03
1.450000000000000178e-01 1.313610000000000055e-01 1.996459999999999724e+01 1.295425000000000182e+02 1.969505000000000109e+03
1.459999999999999909e-01 1.313330000000000053e-01 1.953260000000000218e+01 1.288974999999999795e+02 1.969184999999999945e+03
1.469999999999999918e-01 1.313094999999999957e-01 1.917730000000000246e+01 1.284089999999999918e+02 1.968909999999999854e+03
1.479999999999999927e-01 1.312909999999999910e-01 1.889630000000000010e+01 1.280685000000000002e+02 1.968690000000000055e+03
1.489999999999999936e-01 1.312760000000000038e-01 1.868524999999999991e+01 1.278634999999999877e+02 1.968514999999999873e+03
1.499999999999999944e-01 1.312659999999999938e-01 1.853790000000000049e+01 1.277779999999999916e+02 1.968389999999999873e+03
1.509999999999999953e-01 1.312589999999999868e-01 1.844685000000000130e+01 1.277955000000000041e+02 1.968304999999999836e+03
1.519999999999999962e-01 1.312559999999999838e-01 1.840370000000000061e+01 1.278960000000000150e+02 1.968259999999999991e+03
1.529999999999999971e-01 1.312550000000000106e-01 1.839930000000000021e+01 1.280585000000000093e+02 1.968244999999999891e+03
1.539999999999999980e-01 1.312564999999999982e-01 1.842439999999999856e+01 1.282644999999999982e+02 1.968259999999999991e+03
1.549999999999999989e-01 1.312595000000000012e-01 1.846995000000000076e+01 1.284939999999999998e+02 1.968289999999999964e+03
1.559999999999999998e-01 1.312639999999999918e-01 1.852714999999999890e+01 1.287305000000000064e+02 1.968335000000000036e+03
1.570000000000000007e-01 1.312685000000000102e-01 1.858809999999999718e+01 1.289574999999999818e+02 1.968384999999999991e+03
1.580000000000000016e-01 1.312740000000000018e-01 1.864565000000000339e+01 1.291630000000000109e+02 1.968444999999999936e+03
1.590000000000000024e-01 1.312790000000000068e-01 1.869389999999999930e+01 1.293365000000000009e+02 1.968500000000000000e+03
