# t [s], A [cm^2], U [cm/s], P [cPa], c [cm/s]
1.000000000000000021e-03 6.159204999999999819e-01 4.085300000000000042e-03 1.093034999999999997e+02 1.548960000000000036e+03
2.000000000000000042e-03 6.159129999999999328e-01 1.203450000000000006e-03 1.092829999999999870e+02 1.548960000000000036e+03
3.000000000000000062e-03 6.159639999999999560e-01 8.631194999999998452e-02 1.093714999999999975e+02 1.548980000000000018e+03
4.000000000000000083e-03 6.160124999999999629e-01 1.730758000000000019e-01 1.094825000000000017e+02 1.549009999999999991e+03
5.000000000000000104e-03 6.159980000000000455e-01 1.579677999999999916e-01 1.094539999999999935e+02 1.549005000000000109e+03
6.000000000000000125e-03 6.159455000000000346e-01 7.491700000000001136e-02 1.092839999999999918e+02 1.548974999999999909e+03
7.000000000000000146e-03 6.158945000000000114e-01 -1.080300000000000704e-02 1.090450000000000017e+02 1.548925000000000182e+03
8.000000000000000167e-03 6.158204999999999929e-01 -1.446324999999999417e-01 1.086980000000000075e+02 1.548845000000000027e+03
9.000000000000001055e-03 6.156919999999999060e-01 -3.836800000000000210e-01 1.081585000000000036e+02 1.548730000000000018e+03
1.000000000000000194e-02 6.155024999999999524e-01 -7.378049999999999331e-01 1.073785000000000025e+02 1.548549999999999955e+03
1.099999999999999936e-02 6.152390000000000914e-01 -1.217439999999999856e+00 1.063104999999999905e+02 1.548309999999999945e+03
1.200000000000000025e-02 6.148895000000000888e-01 -1.828699999999999992e+00 1.049060000000000059e+02 1.547985000000000127e+03
1.300000000000000114e-02 6.144674999999999443e-01 -2.526889999999999858e+00 1.031802500000000009e+02 1.547569999999999936e+03
1.400000000000000203e-02 6.140174999999999939e-01 -3.206360000000000099e+00 1.012410500000000013e+02 1.547095000000000027e+03
1.499999999999999944e-02 6.135924999999999851e-01 -3.741490000000000204e+00 9.925469999999999970e+01 1.546590000000000146e+03
1.600000000000000033e-02 6.132305000000000117e-01 -4.038691999999999283e+00 9.737919999999999732e+01 1.546085000000000036e+03
1.700000000000000122e-02 6.129385000000000527e-01 -4.064382999999999413e+00 9.570904999999999063e+01 1.545615000000000009e+03
1.800000000000000211e-02 6.127004999999999812e-01 -3.843387499999999957e+00 9.426075000000000159e+01 1.545184999999999945e+03
1.900000000000000300e-02 6.124840000000000284e-01 -3.438493300000000197e+00 9.298300000000000409e+01 1.544779999999999973e+03
2.000000000000000042e-02 6.122589999999999977e-01 -2.923809499999999950e+00 9.178794999999999504e+01 1.544394999999999982e+03
2.100000000000000130e-02 6.120004999999999473e-01 -2.360859999999999737e+00 9.058565000000000111e+01 1.544005000000000109e+03
2.200000000000000219e-02 6.117015000000000091e-01 -1.783665000000000056e+00 8.931334999999999980e+01 1.543599999999999909e+03
2.299999999999999961e-02 6.113675000000000637e-01 -1.196559999999999846e+00 8.794970000000000709e+01 1.543179999999999836e+03
2.400000000000000050e-02 6.110130000000000283e-01 -5.839449999999997143e-01 8.651130000000000564e+01 1.542740000000000009e+03
2.500000000000000139e-02 6.106540000000000301e-01 7.319499999999967699e-02 8.503494999999999493e+01 1.542295000000000073e+03
2.600000000000000228e-02 6.102994999999999948e-01 7.814799999999997304e-01 8.355500000000000682e+01 1.541840000000000146e+03
2.700000000000000316e-02 6.099485000000000046e-01 1.525560000000000027e+00 8.208455000000000723e+01 1.541389999999999873e+03
2.800000000000000058e-02 6.095900000000000762e-01 2.266824999999999868e+00 8.060620000000000118e+01 1.540934999999999945e+03
2.900000000000000147e-02 6.092055000000000664e-01 2.949580000000000091e+00 7.907300000000000750e+01 1.540460000000000036e+03
3.000000000000000236e-02 6.087739999999999263e-01 3.512005000000000265e+00 7.741960000000000264e+01 1.539970000000000027e+03
3.099999999999999978e-02 6.082790000000000141e-01 3.899169999999999803e+00 7.557820000000000960e+01 1.539430000000000064e+03
3.200000000000000067e-02 6.077099999999999724e-01 4.074680000000000746e+00 7.349719999999999231e+01 1.538849999999999909e+03
3.300000000000000155e-02 6.070710000000000273e-01 4.028515000000000512e+00 7.115654999999999575e+01 1.538200000000000045e+03
3.400000000000000244e-02 6.063745000000000385e-01 3.779154999999999820e+00 6.857699999999999818e+01 1.537494999999999891e+03
3.500000000000000333e-02 6.056440000000000712e-01 3.369864999999999444e+00 6.582030000000000314e+01 1.536755000000000109e+03
3.600000000000000422e-02 6.049094999999999889e-01 2.860079999999999956e+00 6.298125000000000284e+01 1.535985000000000127e+03
3.700000000000000511e-02 6.042020000000000168e-01 2.315475000000000172e+00 6.017460000000000520e+01 1.535214999999999918e+03
3.799999999999999906e-02 6.035494999999999610e-01 1.798600000000000421e+00 5.751980000000000359e+01 1.534474999999999909e+03
3.899999999999999994e-02 6.029765000000000263e-01 1.362039999999999917e+00 5.512749999999999773e+01 1.533789999999999964e+03
4.000000000000000083e-02 6.024990000000000068e-01 1.045234999999999914e+00 5.308984999999999843e+01 1.533190000000000055e+03
4.100000000000000172e-02 6.021289999999999143e-01 8.739950000000002994e-01 5.147469999999999857e+01 1.532690000000000055e+03
4.200000000000000261e-02 6.018704999999999750e-01 8.625800000000001244e-01 5.032500000000000284e+01 1.532305000000000064e+03
4.300000000000000350e-02 6.017244999999999955e-01 1.016925000000000079e+00 4.966084999999999638e+01 1.532050000000000182e+03
4.400000000000000439e-02 6.016909999999999759e-01 1.338057000000000052e+00 4.948429999999999751e+01 1.531909999999999854e+03
4.499999999999999833e-02 6.017649999999999944e-01 1.824930000000000163e+00 4.978485000000000582e+01 1.531914999999999964e+03
4.599999999999999922e-02 6.019434999999999647e-01 2.476006499999999999e+00 5.054370000000000118e+01 1.532034999999999854e+03
4.700000000000000011e-02 6.022214999999999652e-01 3.289537300000000108e+00 5.173765000000000214e+01 1.532275000000000091e+03
4.800000000000000100e-02 6.025940000000000740e-01 4.262694999999999901e+00 5.334014999999999418e+01 1.532639999999999873e+03
4.900000000000000189e-02 6.030550000000000077e-01 5.390102500000000241e+00 5.532165000000000532e+01 1.533109999999999900e+03
5.000000000000000278e-02 6.035969999999999391e-01 6.662441199999999952e+00 5.764874999999999972e+01 1.533674999999999955e+03
5.100000000000000366e-02 6.042110000000000536e-01 8.065270999999999191e+00 6.028305000000000291e+01 1.534335000000000036e+03
5.200000000000000455e-02 6.048854999999999649e-01 9.578924999999999912e+00 6.318085000000000662e+01 1.535074999999999818e+03
5.300000000000000544e-02 6.056084999999999940e-01 1.117904500000000034e+01 6.629314999999999714e+01 1.535880000000000109e+03
5.399999999999999939e-02 6.063659999999999606e-01 1.283781499999999909e+01 6.956725000000000136e+01 1.536744999999999891e+03
5.500000000000000028e-02 6.071455000000000046e-01 1.452595499999999973e+01 7.294859999999999900e+01 1.537650000000000091e+03
5.600000000000000117e-02 6.079339999999999744e-01 1.621430999999999756e+01 7.638349999999999795e+01 1.538574999999999818e+03
5.700000000000000205e-02 6.087200000000000388e-01 1.787608499999999978e+01 7.982185000000001196e+01 1.539519999999999982e+03
5.800000000000000294e-02 6.094939999999999802e-01 1.948780000000000001e+01 8.321969999999998890e+01 1.540464999999999918e+03
5.900000000000000383e-02 6.102495000000000003e-01 2.103064999999999785e+01 8.654095000000000937e+01 1.541400000000000091e+03
6.000000000000000472e-02 6.109815000000000662e-01 2.249084999999999823e+01 8.975955000000000439e+01 1.542320000000000164e+03
6.099999999999999867e-02 6.116865000000000219e-01 2.385970000000000013e+01 9.285779999999999745e+01 1.543210000000000036e+03
6.199999999999999956e-02 6.123650000000000482e-01 2.513299999999999912e+01 9.582930000000000348e+01 1.544079999999999927e+03
6.300000000000000044e-02 6.130174999999999930e-01 2.631074999999999875e+01 9.867459999999999809e+01 1.544914999999999964e+03
6.400000000000000133e-02 6.136470000000000535e-01 2.739594999999999914e+01 1.014020000000000010e+02 1.545724999999999909e+03
6.500000000000000222e-02 6.142570000000000530e-01 2.839430000000000121e+01 1.040250499999999931e+02 1.546505000000000109e+03
6.600000000000000311e-02 6.148514999999999953e-01 2.931264999999999787e+01 1.065598499999999973e+02 1.547269999999999982e+03
6.700000000000000400e-02 6.154344999999999954e-01 3.015895000000000081e+01 1.090254999999999939e+02 1.548009999999999991e+03
6.800000000000000488e-02 6.160094999999999876e-01 3.094089999999999918e+01 1.114399999999999977e+02 1.548735000000000127e+03
6.900000000000000577e-02 6.165800000000000169e-01 3.166559999999999775e+01 1.138195000000000050e+02 1.549445000000000164e+03
7.000000000000000666e-02 6.171484999999999888e-01 3.233915000000000362e+01 1.161760000000000019e+02 1.550154999999999973e+03
7.100000000000000755e-02 6.177159999999999318e-01 3.296569999999999823e+01 1.185199999999999960e+02 1.550860000000000127e+03
7.200000000000000844e-02 6.182825000000000681e-01 3.354775000000000063e+01 1.208529999999999944e+02 1.551550000000000182e+03
7.300000000000000933e-02 6.188469999999999249e-01 3.408565000000000111e+01 1.231744999999999948e+02 1.552250000000000000e+03
7.399999999999999634e-02 6.194070000000000409e-01 3.457770000000000010e+01 1.254774999999999920e+02 1.552934999999999945e+03
7.499999999999999722e-02 6.199594999999999967e-01 3.502049999999999841e+01 1.277489999999999952e+02 1.553610000000000127e+03
7.599999999999999811e-02 6.204994999999999816e-01 3.540919999999999845e+01 1.299735000000000014e+02 1.554279999999999973e+03
7.699999999999999900e-02 6.210229999999999917e-01 3.573789999999999623e+01 1.321310000000000002e+02 1.554934999999999945e+03
7.799999999999999989e-02 6.215245000000000353e-01 3.600015000000000498e+01 1.342024999999999864e+02 1.555559999999999945e+03
7.900000000000000078e-02 6.219989999999999686e-01 3.618975000000000364e+01 1.361650000000000205e+02 1.556160000000000082e+03
8.000000000000000167e-02 6.224425000000000097e-01 3.630065000000000452e+01 1.379995000000000118e+02 1.556724999999999909e+03
8.100000000000000255e-02 6.228500000000000147e-01 3.632789999999999964e+01 1.396845000000000141e+02 1.557250000000000000e+03
8.200000000000000344e-02 6.232185000000000086e-01 3.626769999999999783e+01 1.412065000000000055e+02 1.557735000000000127e+03
8.300000000000000433e-02 6.235450000000000159e-01 3.611780000000000257e+01 1.425509999999999877e+02 1.558170000000000073e+03
8.400000000000000522e-02 6.238280000000000491e-01 3.587740000000000151e+01 1.437099999999999795e+02 1.558554999999999836e+03
8.500000000000000611e-02 6.240669999999999273e-01 3.554755000000000109e+01 1.446790000000000020e+02 1.558885000000000218e+03
8.600000000000000699e-02 6.242609999999999548e-01 3.513124999999999432e+01 1.454575000000000102e+02 1.559164999999999964e+03
8.700000000000000788e-02 6.244119999999999671e-01 3.463280000000000314e+01 1.460484999999999900e+02 1.559389999999999873e+03
8.800000000000000877e-02 6.245225000000000914e-01 3.405834999999999724e+01 1.464604999999999961e+02 1.559559999999999945e+03
8.899999999999999578e-02 6.245935000000000237e-01 3.341544999999999987e+01 1.467055000000000007e+02 1.559684999999999945e+03
8.999999999999999667e-02 6.246300000000000185e-01 3.271285000000000309e+01 1.467964999999999804e+02 1.559764999999999873e+03
9.099999999999999756e-02 6.246355000000000102e-01 3.196025000000000205e+01 1.467500000000000000e+02 1.559800000000000182e+03
9.199999999999999845e-02 6.246140000000000025e-01 3.116815000000000069e+01 1.465860000000000127e+02 1.559795000000000073e+03
9.299999999999999933e-02 6.245704999999999174e-01 3.034729999999999706e+01 1.463235000000000241e+02 1.559759999999999991e+03
9.400000000000000022e-02 6.245089999999999808e-01 2.950854999999999961e+01 1.459830000000000041e+02 1.559699999999999818e+03
9.500000000000000111e-02 6.244339999999999336e-01 2.866250000000000142e+01 1.455844999999999914e+02 1.559615000000000009e+03
9.600000000000000200e-02 6.243505000000000305e-01 2.781900000000000261e+01 1.451465000000000032e+02 1.559514999999999873e+03
9.700000000000000289e-02 6.242619999999999836e-01 2.698689999999999856e+01 1.446870000000000118e+02 1.559400000000000091e+03
9.800000000000000377e-02 6.241714999999999902e-01 2.617379999999999995e+01 1.442219999999999800e+02 1.559280000000000200e+03
9.900000000000000466e-02 6.240820000000000256e-01 2.538575000000000159e+01 1.437640000000000100e+02 1.559159999999999854e+03
1.000000000000000056e-01 6.239945000000000075e-01 2.462715000000000032e+01 1.433215000000000146e+02 1.559039999999999964e+03
1.010000000000000064e-01 6.239124999999999810e-01 2.390040000000000120e+01 1.429035000000000082e+02 1.558920000000000073e+03
1.020000000000000073e-01 6.238345000000000695e-01 2.320635000000000048e+01 1.425115000000000123e+02 1.558804999999999836e+03
1.030000000000000082e-01 6.237605000000000510e-01 2.254400000000000048e+01 1.421460000000000150e+02 1.558699999999999818e+03
1.040000000000000091e-01 6.236909999999999954e-01 2.191089999999999804e+01 1.418050000000000068e+02 1.558590000000000146e+03
1.050000000000000100e-01 6.236230000000000384e-01 2.130310000000000059e+01 1.414825000000000159e+02 1.558494999999999891e+03
1.059999999999999970e-01 6.235555000000000403e-01 2.071589999999999776e+01 1.411715000000000089e+02 1.558394999999999982e+03
1.069999999999999979e-01 6.234865000000000546e-01 2.014359999999999928e+01 1.408629999999999995e+02 1.558299999999999955e+03
1.079999999999999988e-01 6.234135000000000648e-01 1.958034999999999926e+01 1.405480000000000018e+02 1.558200000000000045e+03
1.089999999999999997e-01 6.233355000000000423e-01 1.902015000000000100e+01 1.402169999999999845e+02 1.558099999999999909e+03
1.100000000000000006e-01 6.232485000000000941e-01 1.845714999999999861e+01 1.398594999999999970e+02 1.557994999999999891e+03
1.110000000000000014e-01 6.231524999999999981e-01 1.788629999999999853e+01 1.394680000000000177e+02 1.557880000000000109e+03
1.120000000000000023e-01 6.230450000000000710e-01 1.730295000000000272e+01 1.390360000000000014e+02 1.557759999999999991e+03
1.130000000000000032e-01 6.229264999999999386e-01 1.670380000000000109e+01 1.385579999999999927e+02 1.557625000000000000e+03
1.140000000000000041e-01 6.227955000000000574e-01 1.608644999999999925e+01 1.380300000000000011e+02 1.557474999999999909e+03
1.150000000000000050e-01 6.226525000000000531e-01 1.544989999999999952e+01 1.374524999999999864e+02 1.557315000000000055e+03
1.160000000000000059e-01 6.224979999999999958e-01 1.479434999999999967e+01 1.368265000000000100e+02 1.557139999999999873e+03
1.170000000000000068e-01 6.223334999999999839e-01 1.412136000000000102e+01 1.361564999999999941e+02 1.556954999999999927e+03
1.180000000000000077e-01 6.221609999999999641e-01 1.343379499999999993e+01 1.354484999999999957e+02 1.556755000000000109e+03
1.190000000000000085e-01 6.219820000000000348e-01 1.273554999999999993e+01 1.347110000000000127e+02 1.556555000000000064e+03
1.200000000000000094e-01 6.217989999999999906e-01 1.203175999999999846e+01 1.339540000000000077e+02 1.556345000000000027e+03
1.209999999999999964e-01 6.216159999999999464e-01 1.132807000000000031e+01 1.331885000000000048e+02 1.556130000000000109e+03
1.219999999999999973e-01 6.214345000000000008e-01 1.063109000000000037e+01 1.324275000000000091e+02 1.555914999999999964e+03
1.229999999999999982e-01 6.212584999999999358e-01 9.947485000000000355e+00 1.316839999999999975e+02 1.555699999999999818e+03
1.239999999999999991e-01 6.210915000000000186e-01 9.284224999999999284e+00 1.309710000000000036e+02 1.555494999999999891e+03
1.250000000000000000e-01 6.209355000000000846e-01 8.647990000000000066e+00 1.302994999999999948e+02 1.555299999999999955e+03
1.260000000000000009e-01 6.207924999999999693e-01 8.045220000000000482e+00 1.296829999999999927e+02 1.555114999999999782e+03
1.270000000000000018e-01 6.206665000000000099e-01 7.481484999999999275e+00 1.291310000000000002e+02 1.554944999999999936e+03
1.280000000000000027e-01 6.205579999999999430e-01 6.961619999999999919e+00 1.286514999999999986e+02 1.554799999999999955e+03
1.290000000000000036e-01 6.204685000000000894e-01 6.489370000000000083e+00 1.282515000000000214e+02 1.554664999999999964e+03
1.300000000000000044e-01 6.203989999999999227e-01 6.067330000000000112e+00 1.279339999999999975e+02 1.554559999999999945e+03
1.310000000000000053e-01 6.203494999999999981e-01 5.696839999999999904e+00 1.277015000000000100e+02 1.554474999999999909e+03
1.320000000000000062e-01 6.203195000000000237e-01 5.377995000000000303e+00 1.275540000000000020e+02 1.554414999999999964e+03
1.330000000000000071e-01 6.203085000000000404e-01 5.109674999999999301e+00 1.274869999999999948e+02 1.554375000000000000e+03
1.340000000000000080e-01 6.203149999999999498e-01 4.889619999999999855e+00 1.274964999999999975e+02 1.554355000000000018e+03
1.350000000000000089e-01 6.203364999999999574e-01 4.714590000000000281e+00 1.275745000000000005e+02 1.554360000000000127e+03
1.360000000000000098e-01 6.203720000000000345e-01 4.580505000000000493e+00 1.277135000000000105e+02 1.554380000000000109e+03
1.370000000000000107e-01 6.204180000000000250e-01 4.482649999999999579e+00 1.279029999999999916e+02 1.554410000000000082e+03
1.380000000000000115e-01 6.204724999999999824e-01 4.415890000000000093e+00 1.281335000000000264e+02 1.554460000000000036e+03
1.390000000000000124e-01 6.205340000000000300e-01 4.374840000000000728e+00 1.283944999999999936e+02 1.554519999999999982e+03
1.400000000000000133e-01 6.205990000000000117e-01 4.354099999999999859e+00 1.286750000000000114e+02 1.554585000000000036e+03
1.410000000000000142e-01 6.206659999999999400e-01 4.348404999999999632e+00 1.289660000000000082e+02 1.554659999999999854e+03
1.420000000000000151e-01 6.207325000000000204e-01 4.352784999999999904e+00 1.292574999999999932e+02 1.554735000000000127e+03
1.430000000000000160e-01 6.207964999999999733e-01 4.362695000000000434e+00 1.295425000000000182e+02 1.554809999999999945e+03
1.440000000000000169e-01 6.208575000000000621e-01 4.374130000000000074e+00 1.298134999999999764e+02 1.554880000000000109e+03
1.450000000000000178e-01 6.209139999999999660e-01 4.383649999999999380e+00 1.300649999999999977e+02 1.554950000000000045e+03
1.459999999999999909e-01 6.209644999999999193e-01 4.388460000000000250e+00 1.302934999999999945e+02 1.555014999999999873e+03
1.469999999999999918e-01 6.210094999999999921e-01 4.386415000000000397e+00 1.304954999999999927e+02 1.555069999999999936e+03
1.479999999999999927e-01 6.210485000000000033e-01 4.375980000000000203e+00 1.306700000000000159e+02 1.555125000000000000e+03
1.489999999999999936e-01 6.210804999999999243e-01 4.356234999999999857e+00 1.308164999999999907e+02 1.555170000000000073e+03
1.499999999999999944e-01 6.211070000000000757e-01 4.326824999999999477e+00 1.309359999999999786e+02 1.555210000000000036e+03
1.509999999999999953e-01 6.211279999999999024e-01 4.287865000000000038e+00 1.310294999999999845e+02 1.555240000000000009e+03
1.519999999999999962e-01 6.211439999999999184e-01 4.239894999999999747e+00 1.310995000000000061e+02 1.555265000000000100e+03
1.529999999999999971e-01 6.211554999999999715e-01 4.183805000000000440e+00 1.311490000000000009e+02 1.555284999999999854e+03
1.539999999999999980e-01 6.211634999999999796e-01 4.120730000000000004e+00 1.311800000000000068e+02 1.555299999999999955e+03
1.549999999999999989e-01 6.211685000000000123e-01 4.051989999999999981e+00 1.311970000000000027e+02 1.555309999999999945e+03
1.559999999999999998e-01 6.211714999999999876e-01 3.978975000000000151e+00 1.312015000000000100e+02 1.555315000000000055e+03
1.570000000000000007e-01 6.211725000000000163e-01 3.903090000000000170e+00 1.311970000000000027e+02 1.555319999999999936e+03
1.580000000000000016e-01 6.211720000000000574e-01 3.825664999999999871e+00 1.311864999999999952e+02 1.555319999999999936e+03
1.590000000000000024e-01 6.211709999999999177e-01 3.747910000000000075e+00 1.311705000000000041e+02 1.555319999999999936e+03
