# t [s], A [cm^2], U [cm/s], P [cPa], c [cm/s]
1.000000000000000021e-03 6.062710000000000043e-01 3.155150000000002397e-03 9.864310000000000400e+01 1.407469999999999800e+03
2.000000000000000042e-03 6.062640000000000251e-01 7.710549999999998742e-04 9.863079999999999359e+01 1.407469999999999800e+03
3.000000000000000062e-03 6.062844999999998929e-01 3.033480000000000204e-02 9.865545000000000186e+01 1.407474999999999909e+03
4.000000000000000083e-03 6.063354999999999162e-01 1.057833500000000121e-01 9.874205000000000609e+01 1.407505000000000109e+03
5.000000000000000104e-03 6.063594999999999402e-01 1.453006399999999809e-01 9.879370000000000118e+01 1.407519999999999982e+03
6.000000000000000125e-03 6.063395000000000312e-01 1.193176999999999988e-01 9.875454999999999472e+01 1.407519999999999982e+03
7.000000000000000146e-03 6.062994999999999912e-01 6.188499999999999557e-02 9.864375000000001137e+01 1.407490000000000009e+03
8.000000000000000167e-03 6.062629999999999963e-01 8.296499999999984443e-03 9.850055000000000405e+01 1.407454999999999927e+03
9.000000000000001055e-03 6.062170000000000059e-01 -6.587599999999999012e-02 9.830719999999999459e+01 1.407394999999999982e+03
1.000000000000000194e-02 6.061389999999999834e-01 -1.969869999999999677e-01 9.802070000000000505e+01 1.407325000000000045e+03
1.099999999999999936e-02 6.060214999999999907e-01 -3.976300000000000390e-01 9.761169999999999902e+01 1.407214999999999918e+03
1.200000000000000025e-02 6.058580000000000076e-01 -6.746499999999998609e-01 9.705375000000000796e+01 1.407059999999999945e+03
1.300000000000000114e-02 6.056379999999998986e-01 -1.037984999999999935e+00 9.631504999999999939e+01 1.406855000000000018e+03
1.400000000000000203e-02 6.053579999999999517e-01 -1.482825000000000060e+00 9.537739999999999441e+01 1.406585000000000036e+03
1.499999999999999944e-02 6.050324999999999731e-01 -1.972990000000000022e+00 9.425915000000000532e+01 1.406259999999999991e+03
1.600000000000000033e-02 6.046899999999999498e-01 -2.445460000000000189e+00 9.301834999999999809e+01 1.405880000000000109e+03
1.700000000000000122e-02 6.043604999999999672e-01 -2.831680000000000419e+00 9.173375000000000057e+01 1.405485000000000127e+03
1.800000000000000211e-02 6.040665000000000617e-01 -3.079418500000000058e+00 9.047870000000000346e+01 1.405079999999999927e+03
1.900000000000000300e-02 6.038129999999999331e-01 -3.164409500000000097e+00 8.930150000000000432e+01 1.404684999999999945e+03
2.000000000000000042e-02 6.035939999999999639e-01 -3.090540499999999913e+00 8.821854999999999336e+01 1.404299999999999955e+03
2.100000000000000130e-02 6.033919999999999284e-01 -2.882360499999999881e+00 8.721694999999999709e+01 1.403934999999999945e+03
2.200000000000000219e-02 6.031904999999999628e-01 -2.574472000000000094e+00 8.626475000000000648e+01 1.403575000000000045e+03
2.299999999999999961e-02 6.029720000000000635e-01 -2.201189999999999980e+00 8.532274999999999920e+01 1.403214999999999918e+03
2.400000000000000050e-02 6.027270000000000127e-01 -1.788620000000000321e+00 8.435620000000000118e+01 1.402845000000000027e+03
2.500000000000000139e-02 6.024534999999999751e-01 -1.350490000000000190e+00 8.334319999999999595e+01 1.402460000000000036e+03
2.600000000000000228e-02 6.021560000000000246e-01 -8.881600000000002826e-01 8.227824999999999989e+01 1.402059999999999945e+03
2.700000000000000316e-02 6.018419999999999881e-01 -3.944399999999999018e-01 8.117074999999999818e+01 1.401644999999999982e+03
2.800000000000000058e-02 6.015220000000000011e-01 1.403799999999999493e-01 8.003909999999999059e+01 1.401220000000000027e+03
2.900000000000000147e-02 6.012030000000000429e-01 7.223449999999997928e-01 7.890324999999999989e+01 1.400795000000000073e+03
3.000000000000000236e-02 6.008885000000000476e-01 1.349164999999999726e+00 7.777740000000000009e+01 1.400369999999999891e+03
3.099999999999999978e-02 6.005759999999999987e-01 2.008169999999999789e+00 7.666530000000000200e+01 1.399940000000000055e+03
3.200000000000000067e-02 6.002589999999999870e-01 2.676954999999999973e+00 7.555834999999999013e+01 1.399514999999999873e+03
3.300000000000000155e-02 5.999280000000000168e-01 3.326315000000000133e+00 7.443710000000000093e+01 1.399090000000000146e+03
3.400000000000000244e-02 5.995725000000000637e-01 3.924595000000000056e+00 7.327494999999998981e+01 1.398650000000000091e+03
3.500000000000000333e-02 5.991839999999999389e-01 4.442705000000000126e+00 7.204415000000000191e+01 1.398195000000000164e+03
3.600000000000000422e-02 5.987569999999999837e-01 4.858634999999999593e+00 7.072184999999998922e+01 1.397715000000000146e+03
3.700000000000000511e-02 5.982914999999999761e-01 5.161084999999999923e+00 6.929574999999999818e+01 1.397210000000000036e+03
3.799999999999999906e-02 5.977919999999999900e-01 5.350864999999999760e+00 6.776805000000000234e+01 1.396675000000000182e+03
3.899999999999999994e-02 5.972695000000000087e-01 5.440599999999999881e+00 6.615645000000000664e+01 1.396119999999999891e+03
4.000000000000000083e-02 5.967369999999999619e-01 5.452294999999999447e+00 6.449354999999999905e+01 1.395550000000000182e+03
4.100000000000000172e-02 5.962115000000000054e-01 5.413919999999999177e+00 6.282280000000000086e+01 1.394974999999999909e+03
4.200000000000000261e-02 5.957084999999999742e-01 5.355430000000000135e+00 6.119415000000000049e+01 1.394410000000000082e+03
4.300000000000000350e-02 5.952444999999999542e-01 5.305555000000000021e+00 5.965895000000000437e+01 1.393875000000000000e+03
4.400000000000000439e-02 5.948309999999999986e-01 5.289289999999999381e+00 5.826550000000000296e+01 1.393375000000000000e+03
4.499999999999999833e-02 5.944785000000000208e-01 5.326433999999999891e+00 5.705590000000000117e+01 1.392929999999999836e+03
4.599999999999999922e-02 5.941935000000000411e-01 5.431679664999999879e+00 5.606425000000000125e+01 1.392554999999999836e+03
4.700000000000000011e-02 5.939809999999999812e-01 5.614984999999999893e+00 5.531579999999999586e+01 1.392255000000000109e+03
4.800000000000000100e-02 5.938434999999999686e-01 5.882875000000000298e+00 5.482784999999999798e+01 1.392029999999999973e+03
4.900000000000000189e-02 5.937814999999999621e-01 6.239589999999999748e+00 5.461050000000000182e+01 1.391900000000000091e+03
5.000000000000000278e-02 5.937970000000000192e-01 6.688419999999999810e+00 5.466885000000000616e+01 1.391855000000000018e+03
5.100000000000000366e-02 5.938890000000000002e-01 7.232470000000000176e+00 5.500399999999999778e+01 1.391905000000000200e+03
5.200000000000000455e-02 5.940579999999999750e-01 7.875010000000000510e+00 5.561475000000000080e+01 1.392049999999999955e+03
5.300000000000000544e-02 5.943030000000000257e-01 8.619360000000000355e+00 5.649799999999999756e+01 1.392285000000000082e+03
5.399999999999999939e-02 5.946245000000000003e-01 9.468379999999999797e+00 5.764914999999999878e+01 1.392610000000000127e+03
5.500000000000000028e-02 5.950199999999999934e-01 1.042370999999999981e+01 5.906165000000000020e+01 1.393025000000000091e+03
5.600000000000000117e-02 5.954869999999999886e-01 1.148484000000000016e+01 6.072675000000000267e+01 1.393539999999999964e+03
5.700000000000000205e-02 5.960225000000000106e-01 1.264879999999999960e+01 6.263244999999999862e+01 1.394125000000000000e+03
5.800000000000000294e-02 5.966215000000000268e-01 1.390939999999999976e+01 6.476335000000000264e+01 1.394799999999999955e+03
5.900000000000000383e-02 5.972785000000000455e-01 1.525737499999999969e+01 6.710035000000000593e+01 1.395545000000000073e+03
6.000000000000000472e-02 5.979845000000000299e-01 1.668065999999999960e+01 6.962080000000000268e+01 1.396360000000000127e+03
6.099999999999999867e-02 5.987339999999999884e-01 1.816489500000000135e+01 7.229874999999999829e+01 1.397230000000000018e+03
6.199999999999999956e-02 5.995160000000000489e-01 1.969420000000000215e+01 7.510634999999999195e+01 1.398160000000000082e+03
6.300000000000000044e-02 6.003235000000000099e-01 2.125179999999999936e+01 7.801439999999999486e+01 1.399125000000000000e+03
6.400000000000000133e-02 6.011484999999999745e-01 2.282130000000000081e+01 8.099365000000000236e+01 1.400130000000000109e+03
6.500000000000000222e-02 6.019824999999999759e-01 2.438685000000000258e+01 8.401609999999999445e+01 1.401150000000000091e+03
6.600000000000000311e-02 6.028189999999999937e-01 2.593415000000000248e+01 8.705590000000000828e+01 1.402194999999999936e+03
6.700000000000000400e-02 6.036519999999999664e-01 2.745084999999999908e+01 9.008990000000000009e+01 1.403240000000000009e+03
6.800000000000000488e-02 6.044779999999999598e-01 2.892645000000000266e+01 9.309895000000000209e+01 1.404295000000000073e+03
6.900000000000000577e-02 6.052925000000000111e-01 3.035275000000000034e+01 9.606745000000000800e+01 1.405340000000000146e+03
7.000000000000000666e-02 6.060929999999999929e-01 3.172334999999999638e+01 9.898365000000001146e+01 1.406375000000000000e+03
7.100000000000000755e-02 6.068789999999999463e-01 3.303385000000000105e+01 1.018399000000000001e+02 1.407394999999999982e+03
7.200000000000000844e-02 6.076489999999999947e-01 3.428130000000000166e+01 1.046313499999999976e+02 1.408394999999999982e+03
7.300000000000000933e-02 6.084030000000000271e-01 3.546424999999999983e+01 1.073557500000000005e+02 1.409384999999999991e+03
7.399999999999999634e-02 6.091415000000000024e-01 3.658180000000000121e+01 1.100139999999999958e+02 1.410349999999999909e+03
7.499999999999999722e-02 6.098645000000000316e-01 3.763389999999999702e+01 1.126069999999999993e+02 1.411300000000000182e+03
7.599999999999999811e-02 6.105730000000000324e-01 3.862089999999999890e+01 1.151374999999999886e+02 1.412230000000000018e+03
7.699999999999999900e-02 6.112679999999999225e-01 3.954314999999999714e+01 1.176084999999999923e+02 1.413144999999999982e+03
7.799999999999999989e-02 6.119489999999999652e-01 4.040085000000000548e+01 1.200215000000000032e+02 1.414034999999999854e+03
7.900000000000000078e-02 6.126165000000000083e-01 4.119420000000000215e+01 1.223790000000000049e+02 1.414909999999999854e+03
8.000000000000000167e-02 6.132705000000000517e-01 4.192289999999999850e+01 1.246809999999999974e+02 1.415765000000000100e+03
8.100000000000000255e-02 6.139095000000001079e-01 4.258639999999999759e+01 1.269265000000000043e+02 1.416605000000000018e+03
8.200000000000000344e-02 6.145329999999999959e-01 4.318365000000000009e+01 1.291140000000000043e+02 1.417424999999999955e+03
8.300000000000000433e-02 6.151394999999999502e-01 4.371340000000000003e+01 1.312394999999999925e+02 1.418224999999999909e+03
8.400000000000000522e-02 6.157285000000000119e-01 4.417425000000000068e+01 1.332984999999999900e+02 1.418994999999999891e+03
8.500000000000000611e-02 6.162959999999999550e-01 4.456450000000000244e+01 1.352845000000000084e+02 1.419750000000000000e+03
8.600000000000000699e-02 6.168420000000000014e-01 4.488269999999999982e+01 1.371920000000000073e+02 1.420480000000000018e+03
8.700000000000000788e-02 6.173634999999999540e-01 4.512765000000000271e+01 1.390144999999999982e+02 1.421175000000000182e+03
8.800000000000000877e-02 6.178595000000000059e-01 4.529810000000000514e+01 1.407434999999999832e+02 1.421845000000000027e+03
8.899999999999999578e-02 6.183269999999999600e-01 4.539360000000000639e+01 1.423750000000000000e+02 1.422474999999999909e+03
8.999999999999999667e-02 6.187659999999999272e-01 4.541400000000000148e+01 1.439019999999999868e+02 1.423070000000000164e+03
9.099999999999999756e-02 6.191744999999999610e-01 4.535970000000000368e+01 1.453199999999999932e+02 1.423630000000000109e+03
9.199999999999999845e-02 6.195515000000000327e-01 4.523170000000000357e+01 1.466239999999999952e+02 1.424154999999999973e+03
9.299999999999999933e-02 6.198960000000000026e-01 4.503154999999999575e+01 1.478129999999999882e+02 1.424634999999999991e+03
9.400000000000000022e-02 6.202084999999999404e-01 4.476135000000000019e+01 1.488845000000000027e+02 1.425075000000000045e+03
9.500000000000000111e-02 6.204884999999999984e-01 4.442385000000000161e+01 1.498385000000000105e+02 1.425470000000000027e+03
9.600000000000000200e-02 6.207370000000000942e-01 4.402205000000000013e+01 1.506759999999999877e+02 1.425825000000000045e+03
9.700000000000000289e-02 6.209540000000000060e-01 4.355964999999999776e+01 1.513994999999999891e+02 1.426139999999999873e+03
9.800000000000000377e-02 6.211404999999999843e-01 4.304070000000000107e+01 1.520109999999999957e+02 1.426414999999999964e+03
9.900000000000000466e-02 6.212969999999999882e-01 4.246965000000000146e+01 1.525155000000000030e+02 1.426644999999999982e+03
1.000000000000000056e-01 6.214264999999999928e-01 4.185150000000000148e+01 1.529180000000000064e+02 1.426845000000000027e+03
1.010000000000000064e-01 6.215289999999999981e-01 4.119129999999999825e+01 1.532244999999999777e+02 1.427000000000000000e+03
1.020000000000000073e-01 6.216074999999999795e-01 4.049460000000000548e+01 1.534420000000000073e+02 1.427130000000000109e+03
1.030000000000000082e-01 6.216634999999999245e-01 3.976725000000000421e+01 1.535780000000000030e+02 1.427215000000000146e+03
1.040000000000000091e-01 6.216990000000000016e-01 3.901494999999999891e+01 1.536399999999999864e+02 1.427280000000000200e+03
1.050000000000000100e-01 6.217170000000000751e-01 3.824380000000000024e+01 1.536370000000000005e+02 1.427319999999999936e+03
1.059999999999999970e-01 6.217189999999999106e-01 3.745960000000000178e+01 1.535769999999999982e+02 1.427329999999999927e+03
1.069999999999999979e-01 6.217084999999999972e-01 3.666809999999999548e+01 1.534689999999999941e+02 1.427324999999999818e+03
1.079999999999999988e-01 6.216859999999999609e-01 3.587474999999999881e+01 1.533209999999999980e+02 1.427299999999999955e+03
1.089999999999999997e-01 6.216554999999999165e-01 3.508435000000000059e+01 1.531405000000000030e+02 1.427255000000000109e+03
1.100000000000000006e-01 6.216170000000000861e-01 3.430145000000000266e+01 1.529354999999999905e+02 1.427204999999999927e+03
1.110000000000000014e-01 6.215735000000000010e-01 3.352965000000000373e+01 1.527124999999999773e+02 1.427139999999999873e+03
1.120000000000000023e-01 6.215254999999999530e-01 3.277179999999999893e+01 1.524764999999999873e+02 1.427070000000000164e+03
1.130000000000000032e-01 6.214744999999999298e-01 3.202994999999999948e+01 1.522309999999999945e+02 1.426990000000000009e+03
1.140000000000000041e-01 6.214210000000000012e-01 3.130539999999999878e+01 1.519805000000000064e+02 1.426905000000000200e+03
1.150000000000000050e-01 6.213644999999999863e-01 3.059835000000000349e+01 1.517255000000000109e+02 1.426825000000000045e+03
1.160000000000000059e-01 6.213060000000000249e-01 2.990834999999999866e+01 1.514669999999999845e+02 1.426734999999999900e+03
1.170000000000000068e-01 6.212444999999999773e-01 2.923414999999999964e+01 1.512044999999999959e+02 1.426639999999999873e+03
1.180000000000000077e-01 6.211800000000000654e-01 2.857385000000000019e+01 1.509345000000000141e+02 1.426545000000000073e+03
1.190000000000000085e-01 6.211109999999999687e-01 2.792510000000000048e+01 1.506564999999999941e+02 1.426444999999999936e+03
1.200000000000000094e-01 6.210364999999999913e-01 2.728509999999999991e+01 1.503659999999999854e+02 1.426340000000000146e+03
1.209999999999999964e-01 6.209554999999999936e-01 2.665095000000000169e+01 1.500600000000000023e+02 1.426224999999999909e+03
1.219999999999999973e-01 6.208679999999999755e-01 2.601954999999999885e+01 1.497339999999999804e+02 1.426109999999999900e+03
1.229999999999999982e-01 6.207715000000000316e-01 2.538785000000000025e+01 1.493845000000000027e+02 1.425990000000000009e+03
1.239999999999999991e-01 6.206659999999999400e-01 2.475305000000000177e+01 1.490070000000000050e+02 1.425855000000000018e+03
1.250000000000000000e-01 6.205514999999999226e-01 2.411249999999999716e+01 1.485989999999999895e+02 1.425710000000000036e+03
1.260000000000000009e-01 6.204255000000000742e-01 2.346410000000000196e+01 1.481580000000000155e+02 1.425554999999999836e+03
1.270000000000000018e-01 6.202890000000000903e-01 2.280604999999999905e+01 1.476814999999999998e+02 1.425389999999999873e+03
1.280000000000000027e-01 6.201415000000000122e-01 2.213710000000000022e+01 1.471694999999999993e+02 1.425210000000000036e+03
1.290000000000000036e-01 6.199840000000000906e-01 2.145655000000000001e+01 1.466215000000000259e+02 1.425025000000000091e+03
1.300000000000000044e-01 6.198159999999999226e-01 2.076419999999999888e+01 1.460369999999999777e+02 1.424820000000000164e+03
1.310000000000000053e-01 6.196379999999999111e-01 2.006054999999999922e+01 1.454189999999999827e+02 1.424605000000000018e+03
1.320000000000000062e-01 6.194520000000000026e-01 1.934645000000000081e+01 1.447699999999999818e+02 1.424380000000000109e+03
1.330000000000000071e-01 6.192575000000000163e-01 1.862344999999999828e+01 1.440919999999999845e+02 1.424144999999999982e+03
1.340000000000000080e-01 6.190569999999999684e-01 1.789355000000000118e+01 1.433910000000000196e+02 1.423900000000000091e+03
1.350000000000000089e-01 6.188519999999999577e-01 1.715919999999999845e+01 1.426705000000000041e+02 1.423650000000000091e+03
1.360000000000000098e-01 6.186430000000000540e-01 1.642329999999999757e+01 1.419354999999999905e+02 1.423389999999999873e+03
1.370000000000000107e-01 6.184330000000000105e-01 1.568884999999999863e+01 1.411924999999999955e+02 1.423130000000000109e+03
1.380000000000000115e-01 6.182225000000000081e-01 1.495942499999999953e+01 1.404470000000000027e+02 1.422869999999999891e+03
1.390000000000000124e-01 6.180140000000000633e-01 1.423850000000000016e+01 1.397055000000000007e+02 1.422610000000000127e+03
1.400000000000000133e-01 6.178090000000000526e-01 1.352985999999999933e+01 1.389735000000000014e+02 1.422345000000000027e+03
1.410000000000000142e-01 6.176090000000000746e-01 1.283704499999999982e+01 1.382580000000000098e+02 1.422090000000000146e+03
1.420000000000000151e-01 6.174165000000000347e-01 1.216369499999999881e+01 1.375635000000000048e+02 1.421835000000000036e+03
1.430000000000000160e-01 6.172320000000000029e-01 1.151311499999999910e+01 1.368960000000000150e+02 1.421595000000000027e+03
1.440000000000000169e-01 6.170569999999999666e-01 1.088841000000000037e+01 1.362605000000000075e+02 1.421360000000000127e+03
1.450000000000000178e-01 6.168919999999999959e-01 1.029221499999999878e+01 1.356610000000000014e+02 1.421140000000000100e+03
1.459999999999999909e-01 6.167389999999999262e-01 9.726855000000000473e+00 1.350995000000000061e+02 1.420929999999999836e+03
1.469999999999999918e-01 6.165974999999999095e-01 9.194095000000000795e+00 1.345804999999999723e+02 1.420724999999999909e+03
1.479999999999999927e-01 6.164684999999999748e-01 8.695104999999999862e+00 1.341034999999999968e+02 1.420545000000000073e+03
1.489999999999999936e-01 6.163514999999999411e-01 8.230555000000000732e+00 1.336714999999999804e+02 1.420375000000000000e+03
1.499999999999999944e-01 6.162469999999999892e-01 7.800570000000000448e+00 1.332819999999999823e+02 1.420224999999999909e+03
1.509999999999999953e-01 6.161540000000000905e-01 7.404605000000000103e+00 1.329345000000000141e+02 1.420085000000000036e+03
1.519999999999999962e-01 6.160714999999999941e-01 7.041684999999999306e+00 1.326270000000000095e+02 1.419954999999999927e+03
1.529999999999999971e-01 6.159984999999998934e-01 6.710335000000000605e+00 1.323559999999999945e+02 1.419840000000000146e+03
1.539999999999999980e-01 6.159345000000000514e-01 6.408669999999999867e+00 1.321184999999999832e+02 1.419740000000000009e+03
1.549999999999999989e-01 6.158779999999999255e-01 6.134494999999999365e+00 1.319110000000000014e+02 1.419650000000000091e+03
1.559999999999999998e-01 6.158280000000000420e-01 5.885355000000000558e+00 1.317280000000000086e+02 1.419565000000000055e+03
1.570000000000000007e-01 6.157829999999999693e-01 5.658654999999999546e+00 1.315649999999999977e+02 1.419500000000000000e+03
1.580000000000000016e-01 6.157420000000000115e-01 5.451729999999999521e+00 1.314184999999999945e+02 1.419424999999999955e+03
1.590000000000000024e-01 6.157030000000000003e-01 5.261949999999999683e+00 1.312824999999999989e+02 1.419369999999999891e+03
