# t [s], A [cm^2], U [cm/s], P [cPa], c [cm/s]
1.000000000000000021e-03 1.610499999999999987e-01 1.603112500000000162e-01 9.440985000000000582e+01 1.772089999999999918e+03
2.000000000000000042e-03 1.610344999999999971e-01 1.433084500000000094e+00 9.200164999999999793e+01 1.771934999999999945e+03
3.000000000000000062e-03 1.609510000000000107e-01 3.049760500000000096e+00 8.888519999999999754e+01 1.771174999999999955e+03
4.000000000000000083e-03 1.608149999999999857e-01 4.856904999999999362e+00 8.521950000000001069e+01 1.769970000000000027e+03
5.000000000000000104e-03 1.606500000000000150e-01 6.810287000000000646e+00 8.152510000000000900e+01 1.768514999999999873e+03
6.000000000000000125e-03 1.604734999999999912e-01 8.849399999999999267e+00 7.818229999999999791e+01 1.766974999999999909e+03
7.000000000000000146e-03 1.602989999999999970e-01 1.086967000000000105e+01 7.530924999999999159e+01 1.765465000000000146e+03
8.000000000000000167e-03 1.601305000000000089e-01 1.275562000000000040e+01 7.281685000000000230e+01 1.764025000000000091e+03
9.000000000000001055e-03 1.599710000000000021e-01 1.443957499999999960e+01 7.057999999999999829e+01 1.762679999999999836e+03
1.000000000000000194e-02 1.598239999999999938e-01 1.591615000000000002e+01 6.856515000000000271e+01 1.761454999999999927e+03
1.099999999999999936e-02 1.596914999999999862e-01 1.720424999999999827e+01 6.680225000000000080e+01 1.760365000000000009e+03
1.200000000000000025e-02 1.595749999999999946e-01 1.831779999999999831e+01 6.530799999999999272e+01 1.759414999999999964e+03
1.300000000000000114e-02 1.594744999999999913e-01 1.926494999999999891e+01 6.406759999999999877e+01 1.758610000000000127e+03
1.400000000000000203e-02 1.593890000000000029e-01 2.005140000000000100e+01 6.304795000000000016e+01 1.757924999999999955e+03
1.499999999999999944e-02 1.593175000000000008e-01 2.068039999999999878e+01 6.220234999999999559e+01 1.757359999999999900e+03
1.600000000000000033e-02 1.592564999999999953e-01 2.115630000000000166e+01 6.147699999999999676e+01 1.756884999999999991e+03
1.700000000000000122e-02 1.592049999999999854e-01 2.149725000000000108e+01 6.083859999999999957e+01 1.756490000000000009e+03
1.800000000000000211e-02 1.591615000000000113e-01 2.174484999999999957e+01 6.030904999999999916e+01 1.756159999999999854e+03
1.900000000000000300e-02 1.591285000000000061e-01 2.196215000000000117e+01 5.997624999999999318e+01 1.755914999999999964e+03
2.000000000000000042e-02 1.591090000000000004e-01 2.221569999999999823e+01 5.996564999999999657e+01 1.755775000000000091e+03
2.100000000000000130e-02 1.591069999999999984e-01 2.255429999999999779e+01 6.038564999999999827e+01 1.755775000000000091e+03
2.200000000000000219e-02 1.591239999999999877e-01 2.299264999999999759e+01 6.127554999999999552e+01 1.755925000000000182e+03
2.299999999999999961e-02 1.591599999999999959e-01 2.350785000000000124e+01 6.257954999999999757e+01 1.756224999999999909e+03
2.400000000000000050e-02 1.592115000000000058e-01 2.404800000000000182e+01 6.415475000000000705e+01 1.756650000000000091e+03
2.500000000000000139e-02 1.592729999999999979e-01 2.454804999999999993e+01 6.580649999999999977e+01 1.757154999999999973e+03
2.600000000000000228e-02 1.593370000000000064e-01 2.494760000000000133e+01 6.733545000000000869e+01 1.757690000000000055e+03
2.700000000000000316e-02 1.593974999999999975e-01 2.520434999999999803e+01 6.858209999999999695e+01 1.758200000000000045e+03
2.800000000000000058e-02 1.594495000000000218e-01 2.530174999999999841e+01 6.945564999999999145e+01 1.758644999999999982e+03
2.900000000000000147e-02 1.594899999999999929e-01 2.524849999999999994e+01 6.994304999999999950e+01 1.758994999999999891e+03
3.000000000000000236e-02 1.595179999999999931e-01 2.507215000000000060e+01 7.009819999999999141e+01 1.759240000000000009e+03
3.099999999999999978e-02 1.595349999999999824e-01 2.480964999999999776e+01 7.001725000000000421e+01 1.759400000000000091e+03
3.200000000000000067e-02 1.595439999999999914e-01 2.449629999999999797e+01 6.980760000000000787e+01 1.759485000000000127e+03
3.300000000000000155e-02 1.595469999999999944e-01 2.415820000000000078e+01 6.956005000000000393e+01 1.759519999999999982e+03
3.400000000000000244e-02 1.595475000000000088e-01 2.380790000000000006e+01 6.933055000000000234e+01 1.759529999999999973e+03
3.500000000000000333e-02 1.595464999999999800e-01 2.344444999999999979e+01 6.913389999999999702e+01 1.759525000000000091e+03
3.600000000000000422e-02 1.595440000000000191e-01 2.305734999999999957e+01 6.894935000000000969e+01 1.759509999999999991e+03
3.700000000000000511e-02 1.595389999999999864e-01 2.263240000000000052e+01 6.873499999999999943e+01 1.759474999999999909e+03
3.799999999999999906e-02 1.595314999999999928e-01 2.215805000000000291e+01 6.844585000000000719e+01 1.759414999999999964e+03
3.899999999999999994e-02 1.595199999999999951e-01 2.163084999999999880e+01 6.805109999999999104e+01 1.759329999999999927e+03
4.000000000000000083e-02 1.595040000000000069e-01 2.105870000000000175e+01 6.754714999999998781e+01 1.759199999999999818e+03
4.100000000000000172e-02 1.594835000000000003e-01 2.046114999999999995e+01 6.696274999999999977e+01 1.759045000000000073e+03
4.200000000000000261e-02 1.594605000000000050e-01 1.986719999999999686e+01 6.635635000000000616e+01 1.758860000000000127e+03
4.300000000000000350e-02 1.594379999999999964e-01 1.931054999999999922e+01 6.580600000000001160e+01 1.758674999999999955e+03
4.400000000000000439e-02 1.594174999999999898e-01 1.882410000000000139e+01 6.539485000000000525e+01 1.758509999999999991e+03
4.499999999999999833e-02 1.594025000000000025e-01 1.843420000000000059e+01 6.519519999999999982e+01 1.758384999999999991e+03
4.599999999999999922e-02 1.593959999999999821e-01 1.815625000000000000e+01 6.525440000000000396e+01 1.758324999999999818e+03
4.700000000000000011e-02 1.593990000000000129e-01 1.799269999999999925e+01 6.558644999999999925e+01 1.758340000000000146e+03
4.800000000000000100e-02 1.594119999999999981e-01 1.793249999999999744e+01 6.616925000000000523e+01 1.758440000000000055e+03
4.900000000000000189e-02 1.594344999999999790e-01 1.795340000000000202e+01 6.694804999999999495e+01 1.758610000000000127e+03
5.000000000000000278e-02 1.594635000000000080e-01 1.802534999999999954e+01 6.784424999999998818e+01 1.758839999999999918e+03
5.100000000000000366e-02 1.594975000000000143e-01 1.811455000000000126e+01 6.876650000000000773e+01 1.759119999999999891e+03
5.200000000000000455e-02 1.595329999999999804e-01 1.818735000000000213e+01 6.962299999999999045e+01 1.759400000000000091e+03
5.300000000000000544e-02 1.595659999999999856e-01 1.821410000000000196e+01 7.033189999999999031e+01 1.759675000000000182e+03
5.399999999999999939e-02 1.595945000000000003e-01 1.817114999999999725e+01 7.082909999999999684e+01 1.759910000000000082e+03
5.500000000000000028e-02 1.596160000000000079e-01 1.804220000000000113e+01 7.107274999999999920e+01 1.760079999999999927e+03
5.600000000000000117e-02 1.596275000000000055e-01 1.781839999999999691e+01 7.104384999999999195e+01 1.760184999999999945e+03
5.700000000000000205e-02 1.596290000000000209e-01 1.749765000000000015e+01 7.074439999999999884e+01 1.760199999999999818e+03
5.800000000000000294e-02 1.596200000000000119e-01 1.708324999999999960e+01 7.019280000000000541e+01 1.760134999999999991e+03
5.900000000000000383e-02 1.596005000000000063e-01 1.658239999999999981e+01 6.941899999999999693e+01 1.759980000000000018e+03
6.000000000000000472e-02 1.595714999999999772e-01 1.600495000000000090e+01 6.845955000000000723e+01 1.759750000000000000e+03
6.099999999999999867e-02 1.595344999999999958e-01 1.536234999999999928e+01 6.735325000000000273e+01 1.759450000000000045e+03
6.199999999999999956e-02 1.594904999999999795e-01 1.466704999999999970e+01 6.613849999999999341e+01 1.759090000000000146e+03
6.300000000000000044e-02 1.594404999999999850e-01 1.393195000000000050e+01 6.485220000000001050e+01 1.758684999999999945e+03
6.400000000000000133e-02 1.593870000000000009e-01 1.317120000000000068e+01 6.352915000000000134e+01 1.758250000000000000e+03
6.500000000000000222e-02 1.593304999999999860e-01 1.239951500000000095e+01 6.220350000000000534e+01 1.757789999999999964e+03
6.600000000000000311e-02 1.592729999999999979e-01 1.163334500000000027e+01 6.090940000000000509e+01 1.757320000000000164e+03
6.700000000000000400e-02 1.592155000000000098e-01 1.089046499999999895e+01 5.968234999999999957e+01 1.756849999999999909e+03
6.800000000000000488e-02 1.591605000000000103e-01 1.019006500000000059e+01 5.856019999999999470e+01 1.756394999999999982e+03
6.900000000000000577e-02 1.591090000000000004e-01 9.552735000000000198e+00 5.758294999999999675e+01 1.755970000000000027e+03
7.000000000000000666e-02 1.590630000000000099e-01 8.999724999999999753e+00 5.679240000000000066e+01 1.755595000000000027e+03
7.100000000000000755e-02 1.590249999999999997e-01 8.552395000000000636e+00 5.623075000000000045e+01 1.755275000000000091e+03
7.200000000000000844e-02 1.589964999999999851e-01 8.231114999999999071e+00 5.593900000000000006e+01 1.755034999999999854e+03
7.300000000000000933e-02 1.589789999999999814e-01 8.054690000000000794e+00 5.595485000000000042e+01 1.754884999999999991e+03
7.399999999999999634e-02 1.589745000000000186e-01 8.039220000000000255e+00 5.631055000000000632e+01 1.754835000000000036e+03
7.499999999999999722e-02 1.589840000000000142e-01 8.197404999999999831e+00 5.703114999999999668e+01 1.754904999999999973e+03
7.599999999999999811e-02 1.590099999999999847e-01 8.537914999999999921e+00 5.813264999999999816e+01 1.755105000000000018e+03
7.699999999999999900e-02 1.590515000000000123e-01 9.064994999999999692e+00 5.962160000000000082e+01 1.755430000000000064e+03
7.799999999999999989e-02 1.591110000000000024e-01 9.778235000000000454e+00 6.149394999999999811e+01 1.755904999999999973e+03
7.900000000000000078e-02 1.591869999999999952e-01 1.067279500000000070e+01 6.373610000000000042e+01 1.756509999999999991e+03
8.000000000000000167e-02 1.592795000000000183e-01 1.173963499999999982e+01 6.632495000000000118e+01 1.757255000000000109e+03
8.100000000000000255e-02 1.593880000000000019e-01 1.296582000000000079e+01 6.922974999999999568e+01 1.758125000000000000e+03
8.200000000000000344e-02 1.595104999999999995e-01 1.433545000000000158e+01 7.241344999999999743e+01 1.759125000000000000e+03
8.300000000000000433e-02 1.596469999999999834e-01 1.583014999999999972e+01 7.583469999999999800e+01 1.760234999999999900e+03
8.400000000000000522e-02 1.597950000000000204e-01 1.743005000000000138e+01 7.944984999999999786e+01 1.761440000000000055e+03
8.500000000000000611e-02 1.599530000000000118e-01 1.911444999999999794e+01 8.321469999999999345e+01 1.762735000000000127e+03
8.600000000000000699e-02 1.601190000000000113e-01 2.086260000000000048e+01 8.708669999999999334e+01 1.764099999999999909e+03
8.700000000000000788e-02 1.602914999999999757e-01 2.265440000000000254e+01 9.102615000000000123e+01 1.765525000000000091e+03
8.800000000000000877e-02 1.604690000000000005e-01 2.447100000000000009e+01 9.499770000000000891e+01 1.766990000000000009e+03
8.899999999999999578e-02 1.606489999999999863e-01 2.629530000000000101e+01 9.897129999999999939e+01 1.768485000000000127e+03
8.999999999999999667e-02 1.608310000000000017e-01 2.811205000000000354e+01 1.029222500000000053e+02 1.769994999999999891e+03
9.099999999999999756e-02 1.610130000000000172e-01 2.990834999999999866e+01 1.068316999999999979e+02 1.771514999999999873e+03
9.199999999999999845e-02 1.611950000000000049e-01 3.167329999999999757e+01 1.106864999999999952e+02 1.773034999999999854e+03
9.299999999999999933e-02 1.613755000000000051e-01 3.339815000000000111e+01 1.144774999999999920e+02 1.774549999999999955e+03
9.400000000000000022e-02 1.615550000000000042e-01 3.507594999999999885e+01 1.182009999999999934e+02 1.776055000000000064e+03
9.500000000000000111e-02 1.617315000000000003e-01 3.670144999999999413e+01 1.218534999999999968e+02 1.777545000000000073e+03
9.600000000000000200e-02 1.619059999999999944e-01 3.827039999999999509e+01 1.254369999999999976e+02 1.779014999999999873e+03
9.700000000000000289e-02 1.620779999999999998e-01 3.977980000000000160e+01 1.289509999999999934e+02 1.780474999999999909e+03
9.800000000000000377e-02 1.622480000000000033e-01 4.122710000000000008e+01 1.323969999999999914e+02 1.781909999999999854e+03
9.900000000000000466e-02 1.624140000000000028e-01 4.261005000000000109e+01 1.357754999999999939e+02 1.783325000000000045e+03
1.000000000000000056e-01 1.625780000000000003e-01 4.392669999999999675e+01 1.390844999999999914e+02 1.784715000000000146e+03
1.010000000000000064e-01 1.627389999999999948e-01 4.517510000000000048e+01 1.423220000000000027e+02 1.786085000000000036e+03
1.020000000000000073e-01 1.628964999999999996e-01 4.635325000000000273e+01 1.454834999999999923e+02 1.787434999999999945e+03
1.030000000000000082e-01 1.630510000000000015e-01 4.745879999999999654e+01 1.485634999999999764e+02 1.788755000000000109e+03
1.040000000000000091e-01 1.632020000000000137e-01 4.848949999999999960e+01 1.515554999999999950e+02 1.790049999999999955e+03
1.050000000000000100e-01 1.633479999999999932e-01 4.944294999999999618e+01 1.544495000000000005e+02 1.791309999999999945e+03
1.059999999999999970e-01 1.634904999999999831e-01 5.031659999999999400e+01 1.572379999999999995e+02 1.792534999999999854e+03
1.069999999999999979e-01 1.636285000000000101e-01 5.110804999999999865e+01 1.599114999999999895e+02 1.793715000000000146e+03
1.079999999999999988e-01 1.637609999999999899e-01 5.181494999999999607e+01 1.624605000000000246e+02 1.794865000000000009e+03
1.089999999999999997e-01 1.638879999999999781e-01 5.243489999999999895e+01 1.648754999999999882e+02 1.795960000000000036e+03
1.100000000000000006e-01 1.640095000000000025e-01 5.296600000000000108e+01 1.671485000000000127e+02 1.797009999999999991e+03
1.110000000000000014e-01 1.641239999999999921e-01 5.340640000000000498e+01 1.692715000000000032e+02 1.798005000000000109e+03
1.120000000000000023e-01 1.642319999999999891e-01 5.375459999999999638e+01 1.712359999999999900e+02 1.798944999999999936e+03
1.130000000000000032e-01 1.643330000000000068e-01 5.400945000000000107e+01 1.730364999999999895e+02 1.799819999999999936e+03
1.140000000000000041e-01 1.644264999999999755e-01 5.417034999999999911e+01 1.746674999999999898e+02 1.800630000000000109e+03
1.150000000000000050e-01 1.645115000000000050e-01 5.423704999999999643e+01 1.761254999999999882e+02 1.801384999999999991e+03
1.160000000000000059e-01 1.645900000000000141e-01 5.420994999999999919e+01 1.774064999999999941e+02 1.802065000000000055e+03
1.170000000000000068e-01 1.646589999999999998e-01 5.409014999999999418e+01 1.785099999999999909e+02 1.802674999999999955e+03
1.180000000000000077e-01 1.647204999999999919e-01 5.387935000000000230e+01 1.794364999999999952e+02 1.803220000000000027e+03
1.190000000000000085e-01 1.647744999999999904e-01 5.358015000000000327e+01 1.801885000000000048e+02 1.803690000000000055e+03
1.200000000000000094e-01 1.648189999999999933e-01 5.319589999999999463e+01 1.807685000000000173e+02 1.804090000000000146e+03
1.209999999999999964e-01 1.648565000000000169e-01 5.273090000000000543e+01 1.811839999999999975e+02 1.804425000000000182e+03
1.219999999999999973e-01 1.648854999999999904e-01 5.219020000000000437e+01 1.814424999999999955e+02 1.804684999999999945e+03
1.229999999999999982e-01 1.649079999999999990e-01 5.157979999999999876e+01 1.815545000000000186e+02 1.804884999999999991e+03
1.239999999999999991e-01 1.649224999999999997e-01 5.090625000000000000e+01 1.815305000000000177e+02 1.805025000000000091e+03
1.250000000000000000e-01 1.649304999999999799e-01 5.017685000000000173e+01 1.813845000000000027e+02 1.805105000000000018e+03
1.260000000000000009e-01 1.649325000000000097e-01 4.939920000000000044e+01 1.811295000000000073e+02 1.805130000000000109e+03
1.270000000000000018e-01 1.649295000000000067e-01 4.858119999999999550e+01 1.807810000000000059e+02 1.805110000000000127e+03
1.280000000000000027e-01 1.649209999999999843e-01 4.773099999999999454e+01 1.803530000000000086e+02 1.805045000000000073e+03
1.290000000000000036e-01 1.649085000000000134e-01 4.685639999999999361e+01 1.798605000000000018e+02 1.804940000000000055e+03
1.300000000000000044e-01 1.648924999999999974e-01 4.596495000000000175e+01 1.793174999999999955e+02 1.804809999999999945e+03
1.310000000000000053e-01 1.648735000000000062e-01 4.506374999999999886e+01 1.787355000000000018e+02 1.804650000000000091e+03
1.320000000000000062e-01 1.648519999999999985e-01 4.415919999999999845e+01 1.781279999999999859e+02 1.804465000000000146e+03
1.330000000000000071e-01 1.648284999999999889e-01 4.325704999999999956e+01 1.775029999999999859e+02 1.804264999999999873e+03
1.340000000000000080e-01 1.648034999999999917e-01 4.236189999999999856e+01 1.768684999999999832e+02 1.804049999999999955e+03
1.350000000000000089e-01 1.647770000000000068e-01 4.147759999999999536e+01 1.762305000000000064e+02 1.803825000000000045e+03
1.360000000000000098e-01 1.647504999999999942e-01 4.060694999999999766e+01 1.755919999999999845e+02 1.803590000000000146e+03
1.370000000000000107e-01 1.647230000000000083e-01 3.975185000000000457e+01 1.749555000000000007e+02 1.803360000000000127e+03
1.380000000000000115e-01 1.646950000000000081e-01 3.891325000000000500e+01 1.743209999999999980e+02 1.803115000000000009e+03
1.390000000000000124e-01 1.646664999999999934e-01 3.809109999999999729e+01 1.736860000000000070e+02 1.802869999999999891e+03
1.400000000000000133e-01 1.646380000000000066e-01 3.728470000000000084e+01 1.730480000000000018e+02 1.802619999999999891e+03
1.410000000000000142e-01 1.646090000000000053e-01 3.649259999999999593e+01 1.724024999999999750e+02 1.802365000000000009e+03
1.420000000000000151e-01 1.645790000000000031e-01 3.571294999999999931e+01 1.717454999999999927e+02 1.802110000000000127e+03
1.430000000000000160e-01 1.645484999999999864e-01 3.494315000000000282e+01 1.710690000000000168e+02 1.801840000000000146e+03
1.440000000000000169e-01 1.645169999999999966e-01 3.418059999999999832e+01 1.703689999999999998e+02 1.801570000000000164e+03
1.450000000000000178e-01 1.644849999999999923e-01 3.342234999999999445e+01 1.696394999999999982e+02 1.801289999999999964e+03
1.459999999999999909e-01 1.644510000000000138e-01 3.266554999999999609e+01 1.688734999999999786e+02 1.800994999999999891e+03
1.469999999999999918e-01 1.644149999999999778e-01 3.190720000000000312e+01 1.680665000000000191e+02 1.800684999999999945e+03
1.479999999999999927e-01 1.643775000000000097e-01 3.114464999999999861e+01 1.672130000000000223e+02 1.800359999999999900e+03
1.489999999999999936e-01 1.643379999999999841e-01 3.037549999999999883e+01 1.663100000000000023e+02 1.800014999999999873e+03
1.499999999999999944e-01 1.642959999999999976e-01 2.959774999999999778e+01 1.653534999999999968e+02 1.799660000000000082e+03
1.509999999999999953e-01 1.642524999999999957e-01 2.880975000000000108e+01 1.643425000000000011e+02 1.799279999999999973e+03
1.519999999999999962e-01 1.642055000000000042e-01 2.801040000000000063e+01 1.632755000000000223e+02 1.798884999999999991e+03
1.529999999999999971e-01 1.641569999999999974e-01 2.719930000000000092e+01 1.621539999999999964e+02 1.798460000000000036e+03
1.539999999999999980e-01 1.641050000000000009e-01 2.637655000000000172e+01 1.609784999999999968e+02 1.798019999999999982e+03
1.549999999999999989e-01 1.640515000000000168e-01 2.554285000000000139e+01 1.597529999999999859e+02 1.797559999999999945e+03
1.559999999999999998e-01 1.639950000000000019e-01 2.469964999999999833e+01 1.584819999999999993e+02 1.797074999999999818e+03
1.570000000000000007e-01 1.639364999999999850e-01 2.384895000000000209e+01 1.571700000000000159e+02 1.796574999999999818e+03
1.580000000000000016e-01 1.638764999999999805e-01 2.299334999999999951e+01 1.558254999999999768e+02 1.796054999999999836e+03
1.590000000000000024e-01 1.638145000000000018e-01 2.213615000000000066e+01 1.544544999999999959e+02 1.795525000000000091e+03
