# t [s], A [cm^2], U [cm/s], P [cPa], c [cm/s]
1.000000000000000021e-03 8.037829999999999142e-01 5.376699999999998147e-03 1.033269999999999982e+02 1.643650000000000091e+03
2.000000000000000042e-03 8.037695000000000256e-01 -3.025359999999999942e-03 1.033015000000000043e+02 1.643644999999999982e+03
3.000000000000000062e-03 8.038194999999999091e-01 6.321259999999999379e-02 1.033755000000000024e+02 1.643664999999999964e+03
4.000000000000000083e-03 8.038834999999999731e-01 1.565533000000000063e-01 1.034989999999999952e+02 1.643694999999999936e+03
5.000000000000000104e-03 8.038775000000000226e-01 1.641720000000000124e-01 1.035000000000000000e+02 1.643694999999999936e+03
6.000000000000000125e-03 8.038134999999999586e-01 9.143399999999998751e-02 1.033474999999999966e+02 1.643664999999999964e+03
7.000000000000000146e-03 8.037559999999999150e-01 2.325900000000002965e-02 1.031415000000000077e+02 1.643615000000000009e+03
8.000000000000000167e-03 8.036889999999999867e-01 -6.589349999999999374e-02 1.028719999999999999e+02 1.643555000000000064e+03
9.000000000000001055e-03 8.035695000000000476e-01 -2.416170000000000262e-01 1.024530000000000030e+02 1.643460000000000036e+03
1.000000000000000194e-02 8.033855000000000857e-01 -5.233200000000000074e-01 1.018344999999999914e+02 1.643319999999999936e+03
1.099999999999999936e-02 8.031220000000000026e-01 -9.279600000000000071e-01 1.009619500000000016e+02 1.643115000000000009e+03
1.200000000000000025e-02 8.027600000000000291e-01 -1.471239999999999881e+00 9.977670000000000528e+01 1.642835000000000036e+03
1.300000000000000114e-02 8.023134999999999017e-01 -2.117329999999999934e+00 9.828340000000000032e+01 1.642485000000000127e+03
1.400000000000000203e-02 8.018374999999999808e-01 -2.765539999999999665e+00 9.658480000000000132e+01 1.642070000000000164e+03
1.499999999999999944e-02 8.013959999999999972e-01 -3.294371500000000008e+00 9.484104999999999563e+01 1.641625000000000000e+03
1.600000000000000033e-02 8.010284999999999211e-01 -3.616191500000000225e+00 9.319485000000000241e+01 1.641190000000000055e+03
1.700000000000000122e-02 8.007385000000000197e-01 -3.703279500000000279e+00 9.172204999999999586e+01 1.640779999999999973e+03
1.800000000000000211e-02 8.004999999999999893e-01 -3.582017000000000007e+00 9.041984999999999673e+01 1.640400000000000091e+03
1.900000000000000300e-02 8.002730000000000121e-01 -3.309603000000000073e+00 8.922809999999999775e+01 1.640034999999999854e+03
2.000000000000000042e-02 8.000214999999999410e-01 -2.947744999999999838e+00 8.806334999999999980e+01 1.639679999999999836e+03
2.100000000000000130e-02 7.997239999999999904e-01 -2.542079500000000269e+00 8.685179999999999723e+01 1.639304999999999836e+03
2.200000000000000219e-02 7.993780000000000330e-01 -2.111790000000000056e+00 8.555269999999998731e+01 1.638914999999999964e+03
2.299999999999999961e-02 7.989960000000000395e-01 -1.650744999999999907e+00 8.416620000000000346e+01 1.638494999999999891e+03
2.400000000000000050e-02 7.985984999999999889e-01 -1.138259999999999827e+00 8.272450000000000614e+01 1.638065000000000055e+03
2.500000000000000139e-02 7.982050000000000534e-01 -5.545249999999999346e-01 8.127285000000000537e+01 1.637634999999999991e+03
2.600000000000000228e-02 7.978255000000000763e-01 1.056499999999997996e-01 7.984739999999999327e+01 1.637204999999999927e+03
2.700000000000000316e-02 7.974565000000000126e-01 8.252099999999999991e-01 7.845900000000000318e+01 1.636779999999999973e+03
2.800000000000000058e-02 7.970829999999999860e-01 1.564940000000000220e+00 7.708635000000001014e+01 1.636355000000000018e+03
2.900000000000000147e-02 7.966815000000000424e-01 2.270125000000000171e+00 7.567974999999999852e+01 1.635920000000000073e+03
3.000000000000000236e-02 7.962285000000000057e-01 2.881509999999999572e+00 7.417329999999999757e+01 1.635474999999999909e+03
3.099999999999999978e-02 7.957035000000000080e-01 3.347710000000000186e+00 7.250204999999999700e+01 1.634985000000000127e+03
3.200000000000000067e-02 7.950995000000000701e-01 3.636134999999999451e+00 7.062014999999999532e+01 1.634454999999999927e+03
3.300000000000000155e-02 7.944219999999999615e-01 3.739600000000000257e+00 6.851460000000000150e+01 1.633875000000000000e+03
3.400000000000000244e-02 7.936885000000000190e-01 3.676689999999999792e+00 6.621219999999999573e+01 1.633250000000000000e+03
3.500000000000000333e-02 7.929294999999999538e-01 3.486725000000000296e+00 6.377575000000000216e+01 1.632585000000000036e+03
3.600000000000000422e-02 7.921759999999999913e-01 3.220220000000000304e+00 6.129410000000000025e+01 1.631910000000000082e+03
3.700000000000000511e-02 7.914609999999999701e-01 2.929285000000000583e+00 5.886730000000000018e+01 1.631244999999999891e+03
3.799999999999999906e-02 7.908100000000000129e-01 2.659810000000000230e+00 5.659244999999999948e+01 1.630605000000000018e+03
3.899999999999999994e-02 7.902420000000000000e-01 2.446680000000000188e+00 5.455319999999999681e+01 1.630025000000000091e+03
4.000000000000000083e-02 7.897689999999999433e-01 2.312809999999999810e+00 5.281320000000000192e+01 1.629519999999999982e+03
4.100000000000000172e-02 7.893965000000000565e-01 2.270875000000000199e+00 5.141509999999999536e+01 1.629094999999999800e+03
4.200000000000000261e-02 7.891254999999999242e-01 2.326544999999999863e+00 5.038230000000000075e+01 1.628759999999999991e+03
4.300000000000000350e-02 7.889555000000000318e-01 2.482243999999999673e+00 4.972395000000000209e+01 1.628530000000000200e+03
4.400000000000000439e-02 7.888850000000000584e-01 2.740375000000000227e+00 4.944034999999999513e+01 1.628394999999999982e+03
4.499999999999999833e-02 7.889135000000000453e-01 3.105290000000000106e+00 4.952759999999999962e+01 1.628365000000000009e+03
4.599999999999999922e-02 7.890409999999999924e-01 3.583685000000000009e+00 4.998054999999999382e+01 1.628429999999999836e+03
4.700000000000000011e-02 7.892680000000000806e-01 4.183605000000000018e+00 5.079444999999999766e+01 1.628595000000000027e+03
4.800000000000000100e-02 7.895944999999999769e-01 4.912415000000000198e+00 5.196349999999999625e+01 1.628859999999999900e+03
4.900000000000000189e-02 7.900184999999999569e-01 5.774564999999999948e+00 5.347889999999999588e+01 1.629224999999999909e+03
5.000000000000000278e-02 7.905355000000000576e-01 6.769629999999999370e+00 5.532685000000000741e+01 1.629675000000000182e+03
5.100000000000000366e-02 7.911384999999999668e-01 7.891090000000000160e+00 5.748605000000000587e+01 1.630220000000000027e+03
5.200000000000000455e-02 7.918184999999999807e-01 9.126345000000000596e+00 5.992704999999999416e+01 1.630845000000000027e+03
5.300000000000000544e-02 7.925614999999999188e-01 1.045731499999999947e+01 6.261280000000000001e+01 1.631534999999999854e+03
5.399999999999999939e-02 7.933550000000000324e-01 1.186197499999999927e+01 6.549980000000000757e+01 1.632289999999999964e+03
5.500000000000000028e-02 7.941849999999999188e-01 1.331627500000000097e+01 6.854075000000000273e+01 1.633099999999999909e+03
5.600000000000000117e-02 7.950374999999999526e-01 1.479593999999999987e+01 7.168784999999999741e+01 1.633944999999999936e+03
5.700000000000000205e-02 7.959005000000000107e-01 1.627843000000000018e+01 7.489515000000000100e+01 1.634815000000000055e+03
5.800000000000000294e-02 7.967634999999999579e-01 1.774409999999999954e+01 7.812170000000000414e+01 1.635699999999999818e+03
5.900000000000000383e-02 7.976194999999999258e-01 1.917699999999999960e+01 8.133334999999999582e+01 1.636589999999999918e+03
6.000000000000000472e-02 7.984624999999999639e-01 2.056514999999999915e+01 8.450384999999999991e+01 1.637480000000000018e+03
6.099999999999999867e-02 7.992894999999999861e-01 2.190044999999999931e+01 8.761520000000000152e+01 1.638355000000000018e+03
6.199999999999999956e-02 8.000990000000000046e-01 2.317810000000000059e+01 9.065690000000000737e+01 1.639224999999999909e+03
6.300000000000000044e-02 8.008914999999999784e-01 2.439590000000000103e+01 9.362465000000000259e+01 1.640070000000000164e+03
6.400000000000000133e-02 8.016685000000000061e-01 2.555360000000000298e+01 9.652065000000000339e+01 1.640904999999999973e+03
6.500000000000000222e-02 8.024314999999999642e-01 2.665220000000000056e+01 9.935004999999999598e+01 1.641730000000000018e+03
6.600000000000000311e-02 8.031829999999999803e-01 2.769304999999999950e+01 1.021189500000000123e+02 1.642534999999999854e+03
6.700000000000000400e-02 8.039240000000000830e-01 2.867755000000000010e+01 1.048357499999999902e+02 1.643319999999999936e+03
6.800000000000000488e-02 8.046554999999999680e-01 2.960665000000000191e+01 1.075056500000000028e+02 1.644105000000000018e+03
6.900000000000000577e-02 8.053779999999999273e-01 3.048039999999999949e+01 1.101334999999999980e+02 1.644869999999999891e+03
7.000000000000000666e-02 8.060920000000000307e-01 3.129789999999999850e+01 1.127210000000000036e+02 1.645630000000000109e+03
7.100000000000000755e-02 8.067954999999999988e-01 3.205729999999999791e+01 1.152659999999999911e+02 1.646375000000000000e+03
7.200000000000000844e-02 8.074859999999999260e-01 3.275565000000000282e+01 1.177625000000000028e+02 1.647105000000000018e+03
7.300000000000000933e-02 8.081610000000000182e-01 3.338954999999999984e+01 1.202035000000000053e+02 1.647829999999999927e+03
7.399999999999999634e-02 8.088170000000000082e-01 3.395499999999999829e+01 1.225775000000000006e+02 1.648530000000000200e+03
7.499999999999999722e-02 8.094505000000000727e-01 3.444814999999999827e+01 1.248725000000000023e+02 1.649215000000000146e+03
7.599999999999999811e-02 8.100574999999999859e-01 3.486534999999999940e+01 1.270759999999999934e+02 1.649869999999999891e+03
7.699999999999999900e-02 8.106355000000000643e-01 3.520349999999999824e+01 1.291734999999999900e+02 1.650500000000000000e+03
7.799999999999999989e-02 8.111809999999999299e-01 3.546030000000000371e+01 1.311550000000000011e+02 1.651099999999999909e+03
7.900000000000000078e-02 8.116909999999999403e-01 3.563429999999999609e+01 1.330079999999999814e+02 1.651664999999999964e+03
8.000000000000000167e-02 8.121639999999999970e-01 3.572494999999999976e+01 1.347249999999999943e+02 1.652194999999999936e+03
8.100000000000000255e-02 8.125979999999999315e-01 3.573255000000000337e+01 1.362980000000000018e+02 1.652679999999999836e+03
8.200000000000000344e-02 8.129914999999999781e-01 3.565834999999999866e+01 1.377225000000000250e+02 1.653130000000000109e+03
8.300000000000000433e-02 8.133455000000000545e-01 3.550419999999999732e+01 1.389959999999999809e+02 1.653539999999999964e+03
8.400000000000000522e-02 8.136579999999999924e-01 3.527285000000000537e+01 1.401184999999999832e+02 1.653900000000000091e+03
8.500000000000000611e-02 8.139309999999999601e-01 3.496779999999999688e+01 1.410889999999999986e+02 1.654220000000000027e+03
8.600000000000000699e-02 8.141639999999999988e-01 3.459324999999999761e+01 1.419130000000000109e+02 1.654494999999999891e+03
8.700000000000000788e-02 8.143595000000000139e-01 3.415429999999999922e+01 1.425939999999999941e+02 1.654735000000000127e+03
8.800000000000000877e-02 8.145189999999999930e-01 3.365680000000000405e+01 1.431404999999999745e+02 1.654929999999999836e+03
8.899999999999999578e-02 8.146455000000000224e-01 3.310739999999999839e+01 1.435600000000000023e+02 1.655090000000000146e+03
8.999999999999999667e-02 8.147415000000000074e-01 3.251350000000000051e+01 1.438640000000000043e+02 1.655214999999999918e+03
9.099999999999999756e-02 8.148100000000000342e-01 3.188305000000000078e+01 1.440635000000000048e+02 1.655304999999999836e+03
9.199999999999999845e-02 8.148549999999999960e-01 3.122440000000000282e+01 1.441730000000000018e+02 1.655369999999999891e+03
9.299999999999999933e-02 8.148804999999998966e-01 3.054599999999999937e+01 1.442044999999999959e+02 1.655404999999999973e+03
9.400000000000000022e-02 8.148900000000000032e-01 2.985600000000000165e+01 1.441725000000000136e+02 1.655424999999999955e+03
9.500000000000000111e-02 8.148865000000000691e-01 2.916214999999999691e+01 1.440910000000000082e+02 1.655424999999999955e+03
9.600000000000000200e-02 8.148739999999999872e-01 2.847120000000000317e+01 1.439719999999999800e+02 1.655404999999999973e+03
9.700000000000000289e-02 8.148539999999999672e-01 2.778904999999999959e+01 1.438265000000000100e+02 1.655380000000000109e+03
9.800000000000000377e-02 8.148294999999999844e-01 2.712010000000000076e+01 1.436634999999999991e+02 1.655345000000000027e+03
9.900000000000000466e-02 8.148014999999999564e-01 2.646755000000000280e+01 1.434900000000000091e+02 1.655299999999999955e+03
1.000000000000000056e-01 8.147709999999999120e-01 2.583299999999999841e+01 1.433095000000000141e+02 1.655259999999999991e+03
1.010000000000000064e-01 8.147375000000000034e-01 2.521674999999999756e+01 1.431254999999999882e+02 1.655204999999999927e+03
1.020000000000000073e-01 8.147014999999999674e-01 2.461785000000000068e+01 1.429364999999999952e+02 1.655160000000000082e+03
1.030000000000000082e-01 8.146605000000000096e-01 2.403440000000000154e+01 1.427404999999999973e+02 1.655105000000000018e+03
1.040000000000000091e-01 8.146154999999999369e-01 2.346354999999999791e+01 1.425335000000000036e+02 1.655045000000000073e+03
1.050000000000000100e-01 8.145625000000000782e-01 2.290194999999999936e+01 1.423110000000000070e+02 1.654980000000000018e+03
1.059999999999999970e-01 8.145020000000000593e-01 2.234580000000000055e+01 1.420664999999999907e+02 1.654909999999999854e+03
1.069999999999999979e-01 8.144314999999999749e-01 2.179135000000000133e+01 1.417944999999999993e+02 1.654829999999999927e+03
1.079999999999999988e-01 8.143495000000000594e-01 2.123474999999999824e+01 1.414889999999999759e+02 1.654750000000000000e+03
1.089999999999999997e-01 8.142549999999999510e-01 2.067269999999999897e+01 1.411454999999999984e+02 1.654650000000000091e+03
1.100000000000000006e-01 8.141475000000000239e-01 2.010215000000000174e+01 1.407590000000000146e+02 1.654545000000000073e+03
1.110000000000000014e-01 8.140264999999999862e-01 1.952094999999999914e+01 1.403280000000000030e+02 1.654424999999999955e+03
1.120000000000000023e-01 8.138914999999999900e-01 1.892755000000000010e+01 1.398500000000000227e+02 1.654295000000000073e+03
1.130000000000000032e-01 8.137429999999999941e-01 1.832130000000000081e+01 1.393255000000000052e+02 1.654150000000000091e+03
1.140000000000000041e-01 8.135824999999999863e-01 1.770260000000000034e+01 1.387574999999999932e+02 1.653994999999999891e+03
1.150000000000000050e-01 8.134109999999999951e-01 1.707274999999999920e+01 1.381500000000000057e+02 1.653829999999999927e+03
1.160000000000000059e-01 8.132304999999999673e-01 1.643404999999999916e+01 1.375084999999999980e+02 1.653650000000000091e+03
1.170000000000000068e-01 8.130429999999999602e-01 1.578950000000000031e+01 1.368394999999999868e+02 1.653465000000000146e+03
1.180000000000000077e-01 8.128520000000000190e-01 1.514325000000000010e+01 1.361535000000000082e+02 1.653269999999999982e+03
1.190000000000000085e-01 8.126605000000000079e-01 1.449975000000000058e+01 1.354590000000000032e+02 1.653079999999999927e+03
1.200000000000000094e-01 8.124704999999999844e-01 1.386410000000000053e+01 1.347685000000000173e+02 1.652884999999999991e+03
1.209999999999999964e-01 8.122860000000000635e-01 1.324167999999999878e+01 1.340914999999999964e+02 1.652690000000000055e+03
1.219999999999999973e-01 8.121095000000000397e-01 1.263787999999999911e+01 1.334399999999999977e+02 1.652505000000000109e+03
1.229999999999999982e-01 8.119449999999999168e-01 1.205795499999999976e+01 1.328245000000000005e+02 1.652329999999999927e+03
1.239999999999999991e-01 8.117935000000000567e-01 1.150689000000000028e+01 1.322549999999999955e+02 1.652159999999999854e+03
1.250000000000000000e-01 8.116589999999999083e-01 1.098899999999999899e+01 1.317400000000000091e+02 1.652000000000000000e+03
1.260000000000000009e-01 8.115415000000000267e-01 1.050790500000000094e+01 1.312870000000000061e+02 1.651865000000000009e+03
1.270000000000000018e-01 8.114434999999999842e-01 1.006637500000000074e+01 1.309014999999999986e+02 1.651744999999999891e+03
1.280000000000000027e-01 8.113650000000000029e-01 9.666305000000001257e+00 1.305865000000000009e+02 1.651640000000000100e+03
1.290000000000000036e-01 8.113064999999999305e-01 9.308405000000000484e+00 1.303430000000000177e+02 1.651555000000000064e+03
1.300000000000000044e-01 8.112669999999999604e-01 8.992539999999999978e+00 1.301705000000000041e+02 1.651494999999999891e+03
1.310000000000000053e-01 8.112460000000000226e-01 8.717715000000000103e+00 1.300674999999999955e+02 1.651449999999999818e+03
1.320000000000000062e-01 8.112414999999999488e-01 8.481854999999999478e+00 1.300285000000000082e+02 1.651420000000000073e+03
1.330000000000000071e-01 8.112520000000000842e-01 8.282395000000001062e+00 1.300480000000000018e+02 1.651414999999999964e+03
1.340000000000000080e-01 8.112759999999999971e-01 8.116134999999999877e+00 1.301195000000000164e+02 1.651414999999999964e+03
1.350000000000000089e-01 8.113110000000000044e-01 7.979469999999999175e+00 1.302340000000000089e+02 1.651434999999999945e+03
1.360000000000000098e-01 8.113544999999999785e-01 7.868589999999999307e+00 1.303859999999999957e+02 1.651464999999999918e+03
1.370000000000000107e-01 8.114045000000000840e-01 7.779614999999999725e+00 1.305645000000000095e+02 1.651509999999999991e+03
1.380000000000000115e-01 8.114590000000000414e-01 7.708709999999999951e+00 1.307640000000000100e+02 1.651549999999999955e+03
1.390000000000000124e-01 8.115164999999999740e-01 7.652240000000000819e+00 1.309759999999999991e+02 1.651605000000000018e+03
1.400000000000000133e-01 8.115750000000000464e-01 7.606799999999999784e+00 1.311949999999999932e+02 1.651660000000000082e+03
1.410000000000000142e-01 8.116335000000000077e-01 7.569340000000000401e+00 1.314139999999999873e+02 1.651715000000000146e+03
1.420000000000000151e-01 8.116904999999999815e-01 7.537160000000000082e+00 1.316290000000000191e+02 1.651775000000000091e+03
1.430000000000000160e-01 8.117445000000000910e-01 7.507939999999999614e+00 1.318365000000000009e+02 1.651824999999999818e+03
1.440000000000000169e-01 8.117959999999999621e-01 7.479729999999999990e+00 1.320330000000000155e+02 1.651880000000000109e+03
1.450000000000000178e-01 8.118440000000000101e-01 7.450974999999999682e+00 1.322169999999999845e+02 1.651930000000000064e+03
1.459999999999999909e-01 8.118890000000000828e-01 7.420479999999999521e+00 1.323870000000000005e+02 1.651985000000000127e+03
1.469999999999999918e-01 8.119290000000000118e-01 7.387370000000000658e+00 1.325425000000000182e+02 1.652025000000000091e+03
1.479999999999999927e-01 8.119670000000001053e-01 7.351090000000000124e+00 1.326839999999999975e+02 1.652069999999999936e+03
1.489999999999999936e-01 8.120005000000000139e-01 7.311370000000000147e+00 1.328114999999999952e+02 1.652105000000000018e+03
1.499999999999999944e-01 8.120309999999999473e-01 7.268174999999999386e+00 1.329265000000000043e+02 1.652139999999999873e+03
1.509999999999999953e-01 8.120589999999999753e-01 7.221690000000000609e+00 1.330294999999999845e+02 1.652170000000000073e+03
1.519999999999999962e-01 8.120845000000000979e-01 7.172264999999999446e+00 1.331225000000000023e+02 1.652204999999999927e+03
1.529999999999999971e-01 8.121080000000000521e-01 7.120384999999999742e+00 1.332060000000000173e+02 1.652230000000000018e+03
1.539999999999999980e-01 8.121300000000000185e-01 7.066605000000000025e+00 1.332830000000000155e+02 1.652250000000000000e+03
1.549999999999999989e-01 8.121499999999999275e-01 7.011525000000000674e+00 1.333534999999999968e+02 1.652275000000000091e+03
1.559999999999999998e-01 8.121700000000000585e-01 6.955735000000000667e+00 1.334194999999999993e+02 1.652295000000000073e+03
1.570000000000000007e-01 8.121890000000000498e-01 6.899795000000000122e+00 1.334819999999999993e+02 1.652315000000000055e+03
1.580000000000000016e-01 8.122070000000000123e-01 6.844174999999999898e+00 1.335409999999999968e+02 1.652335000000000036e+03
1.590000000000000024e-01 8.122245000000000159e-01 6.789250000000000007e+00 1.335974999999999966e+02 1.652355000000000018e+03
