# t [s], A [cm^2], U [cm/s], P [cPa], c [cm/s]
1.000000000000000021e-03 8.044340000000000934e-01 5.761900000000000355e-03 1.076015000000000015e+02 1.654280000000000200e+03
2.000000000000000042e-03 8.044204999999999828e-01 -2.974533500000000295e-03 1.075764999999999958e+02 1.654280000000000200e+03
3.000000000000000062e-03 8.044660000000000144e-01 5.719994999999999941e-02 1.076450000000000102e+02 1.654295000000000073e+03
4.000000000000000083e-03 8.045305000000000373e-01 1.490170000000000106e-01 1.077690000000000055e+02 1.654320000000000164e+03
5.000000000000000104e-03 8.045295000000000085e-01 1.619889999999999941e-01 1.077800000000000011e+02 1.654325000000000045e+03
6.000000000000000125e-03 8.044679999999999609e-01 9.358649999999998914e-02 1.076375000000000028e+02 1.654299999999999955e+03
7.000000000000000146e-03 8.044130000000000447e-01 2.913999999999999924e-02 1.074420000000000073e+02 1.654259999999999991e+03
8.000000000000000167e-03 8.043529999999999847e-01 -4.809599999999997211e-02 1.071935000000000002e+02 1.654210000000000036e+03
9.000000000000001055e-03 8.042465000000000863e-01 -2.043669999999999654e-01 1.068100000000000023e+02 1.654134999999999991e+03
1.000000000000000194e-02 8.040780000000000705e-01 -4.625350000000000295e-01 1.062374999999999972e+02 1.654019999999999982e+03
1.099999999999999936e-02 8.038339999999999375e-01 -8.389749999999999153e-01 1.054244999999999948e+02 1.653860000000000127e+03
1.200000000000000025e-02 8.034974999999999756e-01 -1.349524999999999864e+00 1.043125000000000000e+02 1.653630000000000109e+03
1.300000000000000114e-02 8.030779999999999585e-01 -1.963615000000000110e+00 1.028992499999999950e+02 1.653339999999999918e+03
1.400000000000000203e-02 8.026250000000000329e-01 -2.589240000000000208e+00 1.012754500000000064e+02 1.653000000000000000e+03
1.499999999999999944e-02 8.021979999999999666e-01 -3.112159999999999815e+00 9.958635000000001014e+01 1.652625000000000000e+03
1.600000000000000033e-02 8.018354999999999233e-01 -3.447191999999999812e+00 9.796719999999999118e+01 1.652259999999999991e+03
1.700000000000000122e-02 8.015419999999999767e-01 -3.563740449999999615e+00 9.649074999999999136e+01 1.651909999999999854e+03
1.800000000000000211e-02 8.012950000000000905e-01 -3.481308499999999917e+00 9.515935000000000343e+01 1.651575000000000045e+03
1.900000000000000300e-02 8.010585000000000067e-01 -3.248606499999999730e+00 9.392324999999999591e+01 1.651250000000000000e+03
2.000000000000000042e-02 8.008014999999999439e-01 -2.919829449999999937e+00 9.271010000000001128e+01 1.650929999999999836e+03
2.100000000000000130e-02 8.005024999999998947e-01 -2.536175000000000068e+00 9.145515000000000327e+01 1.650594999999999800e+03
2.200000000000000219e-02 8.001595000000000235e-01 -2.116249999999999964e+00 9.012199999999999989e+01 1.650250000000000000e+03
2.299999999999999961e-02 7.997829999999999107e-01 -1.656390000000000029e+00 8.871025000000000205e+01 1.649880000000000109e+03
2.400000000000000050e-02 7.993905000000000038e-01 -1.139720000000000066e+00 8.724835000000000207e+01 1.649500000000000000e+03
2.500000000000000139e-02 7.990005000000000024e-01 -5.497699999999998699e-01 8.577705000000000268e+01 1.649115000000000009e+03
2.600000000000000228e-02 7.986219999999999430e-01 1.168800000000000949e-01 8.432880000000000109e+01 1.648735000000000127e+03
2.700000000000000316e-02 7.982515000000000027e-01 8.433049999999999713e-01 8.291329999999999245e+01 1.648360000000000127e+03
2.800000000000000058e-02 7.978750000000000009e-01 1.592054999999999776e+00 8.151050000000000750e+01 1.647980000000000018e+03
2.900000000000000147e-02 7.974725000000000286e-01 2.311180000000000234e+00 8.007404999999999973e+01 1.647599999999999909e+03
3.000000000000000236e-02 7.970194999999999919e-01 2.944374999999999964e+00 7.854274999999999807e+01 1.647200000000000045e+03
3.099999999999999978e-02 7.964990000000000681e-01 3.442495000000000083e+00 7.685620000000000118e+01 1.646775000000000091e+03
3.200000000000000067e-02 7.959045000000000147e-01 3.773659999999999570e+00 7.497175000000000011e+01 1.646315000000000055e+03
3.300000000000000155e-02 7.952399999999999469e-01 3.929304999999999826e+00 7.287729999999999109e+01 1.645804999999999836e+03
3.400000000000000244e-02 7.945240000000000080e-01 3.924995000000000456e+00 7.059690000000000509e+01 1.645259999999999991e+03
3.500000000000000333e-02 7.937814999999999177e-01 3.795300000000000118e+00 6.818845000000000312e+01 1.644695000000000164e+03
3.600000000000000422e-02 7.930440000000000822e-01 3.585579999999999767e+00 6.573364999999999725e+01 1.644105000000000018e+03
3.700000000000000511e-02 7.923394999999999744e-01 3.342919999999999892e+00 6.332470000000000709e+01 1.643529999999999973e+03
3.799999999999999906e-02 7.916929999999999801e-01 3.108694999999999986e+00 6.105129999999999768e+01 1.642980000000000018e+03
3.899999999999999994e-02 7.911215000000000330e-01 2.914254999999999818e+00 5.899020000000000152e+01 1.642470000000000027e+03
4.000000000000000083e-02 7.906355000000000466e-01 2.780219999999999914e+00 5.720009999999999906e+01 1.642019999999999982e+03
4.100000000000000172e-02 7.902400000000000535e-01 2.718014999999999848e+00 5.572015000000000384e+01 1.641630000000000109e+03
4.200000000000000261e-02 7.899359999999999715e-01 2.733109999999999928e+00 5.457264999999999588e+01 1.641319999999999936e+03
4.300000000000000350e-02 7.897235000000000227e-01 2.828638999999999903e+00 5.376760000000000161e+01 1.641085000000000036e+03
4.400000000000000439e-02 7.896020000000000261e-01 3.008405999999999914e+00 5.330764999999999532e+01 1.640930000000000064e+03
4.499999999999999833e-02 7.895715000000000927e-01 3.278634999999999966e+00 5.319249999999999545e+01 1.640855000000000018e+03
4.599999999999999922e-02 7.896345000000000169e-01 3.648204999999999920e+00 5.342190000000000083e+01 1.640864999999999782e+03
4.700000000000000011e-02 7.897925000000000084e-01 4.127530000000000143e+00 5.399575000000000102e+01 1.640960000000000036e+03
4.800000000000000100e-02 7.900460000000000260e-01 4.726469999999999949e+00 5.491360000000000241e+01 1.641135000000000218e+03
4.900000000000000189e-02 7.903955000000000286e-01 5.452079999999999593e+00 5.617170000000000130e+01 1.641389999999999873e+03
5.000000000000000278e-02 7.908370000000000122e-01 6.306589999999999918e+00 5.776115000000000066e+01 1.641730000000000018e+03
5.100000000000000366e-02 7.913654999999999440e-01 7.286179999999999879e+00 5.966519999999999868e+01 1.642139999999999873e+03
5.200000000000000455e-02 7.919719999999998983e-01 8.380850000000000577e+00 6.185880000000000223e+01 1.642625000000000000e+03
5.300000000000000544e-02 7.926450000000000440e-01 9.575034999999999741e+00 6.430854999999999677e+01 1.643170000000000073e+03
5.399999999999999939e-02 7.933719999999999661e-01 1.084882999999999953e+01 6.697399999999998954e+01 1.643775000000000091e+03
5.500000000000000028e-02 7.941394999999999982e-01 1.217999499999999991e+01 6.981029999999999802e+01 1.644424999999999955e+03
5.600000000000000117e-02 7.949344999999999883e-01 1.354567499999999924e+01 7.277094999999999914e+01 1.645115000000000009e+03
5.700000000000000205e-02 7.957444999999999657e-01 1.492421000000000042e+01 7.581064999999999543e+01 1.645819999999999936e+03
5.800000000000000294e-02 7.965595000000000869e-01 1.629624499999999898e+01 7.888819999999999766e+01 1.646554999999999836e+03
5.900000000000000383e-02 7.973710000000000520e-01 1.764590000000000103e+01 8.196815000000000850e+01 1.647295000000000073e+03
6.000000000000000472e-02 7.981735000000000912e-01 1.896065000000000111e+01 8.502240000000000464e+01 1.648034999999999854e+03
6.099999999999999867e-02 7.989634999999999376e-01 2.023185000000000144e+01 8.803020000000000778e+01 1.648769999999999982e+03
6.199999999999999956e-02 7.997384999999999078e-01 2.145364999999999966e+01 9.097905000000000086e+01 1.649494999999999891e+03
6.300000000000000044e-02 8.004979999999999318e-01 2.262279999999999802e+01 9.386135000000000161e+01 1.650204999999999927e+03
6.400000000000000133e-02 8.012424999999999686e-01 2.373795000000000144e+01 9.667589999999999861e+01 1.650909999999999854e+03
6.500000000000000222e-02 8.019735000000000058e-01 2.479885000000000161e+01 9.942454999999999643e+01 1.651605000000000018e+03
6.600000000000000311e-02 8.026915000000000022e-01 2.580590000000000117e+01 1.021124499999999955e+02 1.652275000000000091e+03
6.700000000000000400e-02 8.033985000000000154e-01 2.675935000000000130e+01 1.047439500000000123e+02 1.652940000000000055e+03
6.800000000000000488e-02 8.040950000000000042e-01 2.765925000000000011e+01 1.073238000000000056e+02 1.653595000000000027e+03
6.900000000000000577e-02 8.047805000000000097e-01 2.850509999999999877e+01 1.098545000000000016e+02 1.654235000000000127e+03
7.000000000000000666e-02 8.054559999999999498e-01 2.929540000000000077e+01 1.123385000000000105e+02 1.654869999999999891e+03
7.100000000000000755e-02 8.061184999999999601e-01 3.002805000000000035e+01 1.147720000000000056e+02 1.655490000000000009e+03
7.200000000000000844e-02 8.067670000000000119e-01 3.070015000000000072e+01 1.171520000000000010e+02 1.656095000000000027e+03
7.300000000000000933e-02 8.073989999999999778e-01 3.130850000000000222e+01 1.194699999999999989e+02 1.656690000000000055e+03
7.399999999999999634e-02 8.080114999999999936e-01 3.184955000000000069e+01 1.217175000000000011e+02 1.657269999999999982e+03
7.499999999999999722e-02 8.086014999999999731e-01 3.232000000000000028e+01 1.238855000000000075e+02 1.657825000000000045e+03
7.599999999999999811e-02 8.091665000000000108e-01 3.271705000000000041e+01 1.259615000000000009e+02 1.658365000000000009e+03
7.699999999999999900e-02 8.097030000000000616e-01 3.303840000000000288e+01 1.279364999999999952e+02 1.658880000000000109e+03
7.799999999999999989e-02 8.102095000000000269e-01 3.328270000000000550e+01 1.298000000000000114e+02 1.659369999999999891e+03
7.900000000000000078e-02 8.106845000000000301e-01 3.344935000000000258e+01 1.315444999999999993e+02 1.659835000000000036e+03
8.000000000000000167e-02 8.111245000000000260e-01 3.353860000000000241e+01 1.331634999999999991e+02 1.660269999999999982e+03
8.100000000000000255e-02 8.115305000000000435e-01 3.355140000000000100e+01 1.346514999999999986e+02 1.660670000000000073e+03
8.200000000000000344e-02 8.119009999999999838e-01 3.348945000000000505e+01 1.360049999999999955e+02 1.661034999999999854e+03
8.300000000000000433e-02 8.122350000000000403e-01 3.335470000000000113e+01 1.372230000000000132e+02 1.661369999999999891e+03
8.400000000000000522e-02 8.125335000000000196e-01 3.314990000000000236e+01 1.383029999999999973e+02 1.661674999999999955e+03
8.500000000000000611e-02 8.127960000000000740e-01 3.287794999999999845e+01 1.392485000000000070e+02 1.661945000000000164e+03
8.600000000000000699e-02 8.130230000000000512e-01 3.254254999999999853e+01 1.400600000000000023e+02 1.662174999999999955e+03
8.700000000000000788e-02 8.132159999999999389e-01 3.214789999999999992e+01 1.407415000000000020e+02 1.662380000000000109e+03
8.800000000000000877e-02 8.133759999999999879e-01 3.169875000000000043e+01 1.412980000000000018e+02 1.662550000000000182e+03
8.899999999999999578e-02 8.135044999999999638e-01 3.120060000000000144e+01 1.417355000000000018e+02 1.662684999999999945e+03
8.999999999999999667e-02 8.136039999999999939e-01 3.065975000000000250e+01 1.420634999999999764e+02 1.662800000000000182e+03
9.099999999999999756e-02 8.136779999999999013e-01 3.008285000000000053e+01 1.422900000000000205e+02 1.662885000000000218e+03
9.199999999999999845e-02 8.137285000000000768e-01 2.947724999999999795e+01 1.424269999999999925e+02 1.662944999999999936e+03
9.299999999999999933e-02 8.137585000000000512e-01 2.885034999999999883e+01 1.424844999999999970e+02 1.662980000000000018e+03
9.400000000000000022e-02 8.137720000000000509e-01 2.820949999999999847e+01 1.424755000000000109e+02 1.663000000000000000e+03
9.500000000000000111e-02 8.137719999999999398e-01 2.756179999999999808e+01 1.424114999999999895e+02 1.663005000000000109e+03
9.600000000000000200e-02 8.137604999999999977e-01 2.691359999999999886e+01 1.423050000000000068e+02 1.662994999999999891e+03
9.700000000000000289e-02 8.137410000000000476e-01 2.627049999999999841e+01 1.421649999999999920e+02 1.662974999999999909e+03
9.800000000000000377e-02 8.137149999999999661e-01 2.563689999999999714e+01 1.420009999999999764e+02 1.662940000000000055e+03
9.900000000000000466e-02 8.136839999999999629e-01 2.501599999999999824e+01 1.418195000000000050e+02 1.662904999999999973e+03
1.000000000000000056e-01 8.136489999999999556e-01 2.440984999999999872e+01 1.416265000000000214e+02 1.662865000000000009e+03
1.010000000000000064e-01 8.136105000000000143e-01 2.381925000000000026e+01 1.414234999999999900e+02 1.662819999999999936e+03
1.020000000000000073e-01 8.135679999999999579e-01 2.324385000000000190e+01 1.412125000000000057e+02 1.662769999999999982e+03
1.030000000000000082e-01 8.135209999999999386e-01 2.268234999999999957e+01 1.409925000000000068e+02 1.662714999999999918e+03
1.040000000000000091e-01 8.134694999999999565e-01 2.213269999999999982e+01 1.407604999999999791e+02 1.662654999999999973e+03
1.050000000000000100e-01 8.134114999999999540e-01 2.159230000000000160e+01 1.405144999999999982e+02 1.662599999999999909e+03
1.059999999999999970e-01 8.133459999999999024e-01 2.105815000000000126e+01 1.402495000000000118e+02 1.662534999999999854e+03
1.069999999999999979e-01 8.132719999999999949e-01 2.052700000000000102e+01 1.399604999999999961e+02 1.662465000000000146e+03
1.079999999999999988e-01 8.131889999999999397e-01 1.999569999999999936e+01 1.396434999999999889e+02 1.662384999999999991e+03
1.089999999999999997e-01 8.130949999999999012e-01 1.946130000000000138e+01 1.392950000000000159e+02 1.662295000000000073e+03
1.100000000000000006e-01 8.129899999999999904e-01 1.892109999999999914e+01 1.389114999999999895e+02 1.662210000000000036e+03
1.110000000000000014e-01 8.128735000000000266e-01 1.837304999999999922e+01 1.384900000000000091e+02 1.662105000000000018e+03
1.120000000000000023e-01 8.127450000000000507e-01 1.781540000000000035e+01 1.380294999999999845e+02 1.661994999999999891e+03
1.130000000000000032e-01 8.126050000000000217e-01 1.724745000000000061e+01 1.375300000000000011e+02 1.661875000000000000e+03
1.140000000000000041e-01 8.124549999999999272e-01 1.666900000000000048e+01 1.369935000000000116e+02 1.661744999999999891e+03
1.150000000000000050e-01 8.122955000000000592e-01 1.608079999999999998e+01 1.364230000000000018e+02 1.661605000000000018e+03
1.160000000000000059e-01 8.121275000000000022e-01 1.548450000000000060e+01 1.358230000000000075e+02 1.661464999999999918e+03
1.170000000000000068e-01 8.119539999999999536e-01 1.488240000000000052e+01 1.351990000000000123e+02 1.661309999999999945e+03
1.180000000000000077e-01 8.117769999999999708e-01 1.427767500000000034e+01 1.345589999999999975e+02 1.661154999999999973e+03
1.190000000000000085e-01 8.115989999999999593e-01 1.367410999999999888e+01 1.339120000000000061e+02 1.661000000000000000e+03
1.200000000000000094e-01 8.114220000000000876e-01 1.307601999999999975e+01 1.332665000000000077e+02 1.660840000000000146e+03
1.209999999999999964e-01 8.112500000000000266e-01 1.248815499999999901e+01 1.326330000000000098e+02 1.660684999999999945e+03
1.219999999999999973e-01 8.110850000000000559e-01 1.191534500000000030e+01 1.320210000000000150e+02 1.660530000000000200e+03
1.229999999999999982e-01 8.109300000000000397e-01 1.136252999999999957e+01 1.314410000000000025e+02 1.660384999999999991e+03
1.239999999999999991e-01 8.107874999999999943e-01 1.083438999999999908e+01 1.309029999999999916e+02 1.660250000000000000e+03
1.250000000000000000e-01 8.106605000000000061e-01 1.033528000000000091e+01 1.304149999999999920e+02 1.660119999999999891e+03
1.260000000000000009e-01 8.105489999999999640e-01 9.868985000000000340e+00 1.299850000000000136e+02 1.660009999999999991e+03
1.270000000000000018e-01 8.104569999999999830e-01 9.438494999999999635e+00 1.296179999999999950e+02 1.659909999999999854e+03
1.280000000000000027e-01 8.103830000000000755e-01 9.046174999999999855e+00 1.293199999999999932e+02 1.659824999999999818e+03
1.290000000000000036e-01 8.103285000000000071e-01 8.693294999999999106e+00 1.290919999999999845e+02 1.659759999999999991e+03
1.300000000000000044e-01 8.102934999999999999e-01 8.380404999999999660e+00 1.289345000000000141e+02 1.659710000000000036e+03
1.310000000000000053e-01 8.102770000000000250e-01 8.106965000000000643e+00 1.288474999999999966e+02 1.659674999999999955e+03
1.320000000000000062e-01 8.102784999999999016e-01 7.871764999999999901e+00 1.288265000000000100e+02 1.659654999999999973e+03
1.330000000000000071e-01 8.102949999999999875e-01 7.672745000000000815e+00 1.288675000000000068e+02 1.659655000000000200e+03
1.340000000000000080e-01 8.103264999999999496e-01 7.507265000000000299e+00 1.289650000000000034e+02 1.659664999999999964e+03
1.350000000000000089e-01 8.103704999999999936e-01 7.372195000000000498e+00 1.291109999999999900e+02 1.659690000000000055e+03
1.360000000000000098e-01 8.104244999999999921e-01 7.264084999999999681e+00 1.292984999999999900e+02 1.659720000000000027e+03
1.370000000000000107e-01 8.104864999999999986e-01 7.179305000000000270e+00 1.295199999999999818e+02 1.659769999999999982e+03
1.380000000000000115e-01 8.105545000000000666e-01 7.114184999999999981e+00 1.297674999999999841e+02 1.659820000000000164e+03
1.390000000000000124e-01 8.106269999999999865e-01 7.065129999999999910e+00 1.300335000000000036e+02 1.659875000000000000e+03
1.400000000000000133e-01 8.107014999999999638e-01 7.028715000000000046e+00 1.303104999999999905e+02 1.659934999999999945e+03
1.410000000000000142e-01 8.107765000000000111e-01 7.001784999999999926e+00 1.305925000000000011e+02 1.660000000000000000e+03
1.420000000000000151e-01 8.108520000000000172e-01 6.981479999999999464e+00 1.308745000000000118e+02 1.660065000000000055e+03
1.430000000000000160e-01 8.109245000000000481e-01 6.965270000000000294e+00 1.311510000000000105e+02 1.660134999999999991e+03
1.440000000000000169e-01 8.109954999999999803e-01 6.951010000000000133e+00 1.314184999999999945e+02 1.660195000000000164e+03
1.450000000000000178e-01 8.110625000000000195e-01 6.936890000000000001e+00 1.316744999999999948e+02 1.660255000000000109e+03
1.459999999999999909e-01 8.111264999999999725e-01 6.921479999999999855e+00 1.319164999999999850e+02 1.660320000000000164e+03
1.469999999999999918e-01 8.111865000000000325e-01 6.903674999999999784e+00 1.321430000000000007e+02 1.660375000000000000e+03
1.479999999999999927e-01 8.112420000000000186e-01 6.882710000000000328e+00 1.323545000000000016e+02 1.660429999999999836e+03
1.489999999999999936e-01 8.112939999999999596e-01 6.858114999999999739e+00 1.325500000000000114e+02 1.660474999999999909e+03
1.499999999999999944e-01 8.113429999999999254e-01 6.829679999999999751e+00 1.327299999999999898e+02 1.660525000000000091e+03
1.509999999999999953e-01 8.113874999999999282e-01 6.797425000000000495e+00 1.328960000000000150e+02 1.660570000000000164e+03
1.519999999999999962e-01 8.114289999999999559e-01 6.761560000000000237e+00 1.330480000000000018e+02 1.660605000000000018e+03
1.529999999999999971e-01 8.114669999999999384e-01 6.722434999999999938e+00 1.331875000000000000e+02 1.660644999999999982e+03
1.539999999999999980e-01 8.115034999999999332e-01 6.680495000000000516e+00 1.333165000000000191e+02 1.660680000000000064e+03
1.549999999999999989e-01 8.115369999999999528e-01 6.636229999999999407e+00 1.334359999999999786e+02 1.660710000000000036e+03
1.559999999999999998e-01 8.115689999999999849e-01 6.590144999999999698e+00 1.335464999999999804e+02 1.660740000000000009e+03
1.570000000000000007e-01 8.115989999999999593e-01 6.542709999999999582e+00 1.336490000000000009e+02 1.660769999999999982e+03
1.580000000000000016e-01 8.116269999999999873e-01 6.494345000000000034e+00 1.337450000000000045e+02 1.660795000000000073e+03
1.590000000000000024e-01 8.116535000000000277e-01 6.445380000000000109e+00 1.338340000000000032e+02 1.660819999999999936e+03
