# t [s], A [cm^2], U [cm/s], P [cPa], c [cm/s]
1.000000000000000021e-03 5.324185000000000167e-01 5.093849999999996991e-03 9.919380000000001019e+01 1.623849999999999909e+03
2.000000000000000042e-03 5.324105000000000087e-01 -5.187499999999983791e-05 9.916585000000000605e+01 1.623844999999999800e+03
3.000000000000000062e-03 5.324614999999999210e-01 1.093831999999999999e-01 9.928284999999999627e+01 1.623869999999999891e+03
4.000000000000000083e-03 5.324995000000000145e-01 2.032033000000000034e-01 9.939730000000000132e+01 1.623900000000000091e+03
5.000000000000000104e-03 5.324679999999999414e-01 1.597413500000000042e-01 9.930734999999999957e+01 1.623884999999999991e+03
6.000000000000000125e-03 5.324069999999999636e-01 4.812450000000001449e-02 9.905065000000000452e+01 1.623829999999999927e+03
7.000000000000000146e-03 5.323515000000000885e-01 -6.325100000000000167e-02 9.872294999999999732e+01 1.623755000000000109e+03
8.000000000000000167e-03 5.322580000000000089e-01 -2.680150000000000032e-01 9.822374999999999545e+01 1.623639999999999873e+03
9.000000000000001055e-03 5.321069999999999967e-01 -6.110800000000000676e-01 9.746455000000000268e+01 1.623469999999999800e+03
1.000000000000000194e-02 5.318979999999999819e-01 -1.088565000000000005e+00 9.640655000000000996e+01 1.623230000000000018e+03
1.099999999999999936e-02 5.316125000000000433e-01 -1.723689999999999944e+00 9.497854999999999848e+01 1.622900000000000091e+03
1.200000000000000025e-02 5.312434999999999796e-01 -2.511124999999999829e+00 9.313734999999999786e+01 1.622465000000000146e+03
1.300000000000000114e-02 5.308275000000000077e-01 -3.346575000000000522e+00 9.097454999999999359e+01 1.621945000000000164e+03
1.400000000000000203e-02 5.304294999999999982e-01 -4.053655999999999260e+00 8.871635000000000559e+01 1.621380000000000109e+03
1.499999999999999944e-02 5.301044999999999785e-01 -4.475058999999999898e+00 8.661554999999999893e+01 1.620824999999999818e+03
1.600000000000000033e-02 5.298709999999999809e-01 -4.541327500000000406e+00 8.483879999999999200e+01 1.620329999999999927e+03
1.700000000000000122e-02 5.297095000000000553e-01 -4.282445000000000057e+00 8.341615000000000180e+01 1.619894999999999982e+03
1.800000000000000211e-02 5.295775000000000343e-01 -3.797335000000000349e+00 8.225569999999999027e+01 1.619514999999999873e+03
1.900000000000000300e-02 5.294294999999999973e-01 -3.206777499999999836e+00 8.119785000000000252e+01 1.619159999999999854e+03
2.000000000000000042e-02 5.292339999999999822e-01 -2.608575984999999875e+00 8.008329999999999416e+01 1.618799999999999955e+03
2.100000000000000130e-02 5.289820000000000633e-01 -2.048589999999999911e+00 7.881020000000000891e+01 1.618409999999999854e+03
2.200000000000000219e-02 5.286859999999999893e-01 -1.516899999999999915e+00 7.736109999999999332e+01 1.617985000000000127e+03
2.299999999999999961e-02 5.283720000000000638e-01 -9.686200000000000365e-01 7.579054999999999609e+01 1.617529999999999973e+03
2.400000000000000050e-02 5.280635000000000190e-01 -3.572899999999998855e-01 7.418484999999999729e+01 1.617059999999999945e+03
2.500000000000000139e-02 5.277739999999999654e-01 3.355150000000000077e-01 7.261455000000000837e+01 1.616595000000000027e+03
2.600000000000000228e-02 5.274989999999999402e-01 1.084999999999999742e+00 7.109969999999999857e+01 1.616139999999999873e+03
2.700000000000000316e-02 5.272179999999999644e-01 1.824615000000000098e+00 6.959714999999999918e+01 1.615684999999999945e+03
2.800000000000000058e-02 5.269030000000000102e-01 2.460735000000000561e+00 6.800924999999999443e+01 1.615215000000000146e+03
2.900000000000000147e-02 5.265239999999999920e-01 2.895109999999999850e+00 6.620985000000000298e+01 1.614694999999999936e+03
3.000000000000000236e-02 5.260590000000000543e-01 3.049250000000000238e+00 6.408029999999999404e+01 1.614115000000000009e+03
3.099999999999999978e-02 5.255014999999999548e-01 2.884780000000000122e+00 6.154520000000000124e+01 1.613440000000000055e+03
3.200000000000000067e-02 5.248610000000000220e-01 2.413534999999999986e+00 5.859924999999999784e+01 1.612670000000000073e+03
3.300000000000000155e-02 5.241649999999999920e-01 1.694899999999999629e+00 5.531504999999999939e+01 1.611820000000000164e+03
3.400000000000000244e-02 5.234505000000000408e-01 8.217599999999993798e-01 5.183214999999999861e+01 1.610914999999999964e+03
3.500000000000000333e-02 5.227585000000000148e-01 -9.974999999999933920e-02 4.833174999999999955e+01 1.609994999999999891e+03
3.600000000000000422e-02 5.221249999999999503e-01 -9.688600000000002765e-01 4.500594999999999857e+01 1.609099999999999909e+03
3.700000000000000511e-02 5.215794999999999737e-01 -1.703890000000000349e+00 4.203014999999999901e+01 1.608275000000000091e+03
3.799999999999999906e-02 5.211409999999999654e-01 -2.248639999999999972e+00 3.954375000000000284e+01 1.607565000000000055e+03
3.899999999999999994e-02 5.208190000000000319e-01 -2.572319999999999940e+00 3.764014999999999844e+01 1.606985000000000127e+03
4.000000000000000083e-02 5.206140000000000212e-01 -2.665084999999999926e+00 3.636645000000000039e+01 1.606559999999999945e+03
4.100000000000000172e-02 5.205239999999999867e-01 -2.530879999999999797e+00 3.573004999999999853e+01 1.606295000000000073e+03
4.200000000000000261e-02 5.205414999999999903e-01 -2.180105000000000182e+00 3.570974999999999966e+01 1.606195000000000164e+03
4.300000000000000350e-02 5.206589999999999829e-01 -1.623777000000000026e+00 3.626754999999999995e+01 1.606250000000000000e+03
4.400000000000000439e-02 5.208694999999999853e-01 -8.704349999999998477e-01 3.735895000000000010e+01 1.606449999999999818e+03
4.499999999999999833e-02 5.211664999999999770e-01 7.398999999999977817e-02 3.893914999999999793e+01 1.606785000000000082e+03
4.599999999999999922e-02 5.215440000000000076e-01 1.203845000000000276e+00 4.096444999999999936e+01 1.607255000000000109e+03
4.700000000000000011e-02 5.219955000000000567e-01 2.510315000000000296e+00 4.339114999999999611e+01 1.607835000000000036e+03
4.800000000000000100e-02 5.225124999999999353e-01 3.978265000000000384e+00 4.617199999999999704e+01 1.608514999999999873e+03
4.900000000000000189e-02 5.230839999999999934e-01 5.584395000000000664e+00 4.925310000000000343e+01 1.609284999999999854e+03
5.000000000000000278e-02 5.236969999999999681e-01 7.297274999999999956e+00 5.257265000000000299e+01 1.610130000000000109e+03
5.100000000000000366e-02 5.243375000000000119e-01 9.079049499999999995e+00 5.606165000000000020e+01 1.611034999999999854e+03
5.200000000000000455e-02 5.249914999999999443e-01 1.088847499999999968e+01 5.964674999999999727e+01 1.611974999999999909e+03
5.300000000000000544e-02 5.256440000000000001e-01 1.268433000000000099e+01 6.325475000000000136e+01 1.612930000000000064e+03
5.399999999999999939e-02 5.262835000000000152e-01 1.442867000000000033e+01 6.681744999999999379e+01 1.613894999999999982e+03
5.500000000000000028e-02 5.268995000000000761e-01 1.608979499999999874e+01 7.027625000000000455e+01 1.614845000000000027e+03
5.600000000000000117e-02 5.274860000000000104e-01 1.764365000000000094e+01 7.358585000000000775e+01 1.615764999999999873e+03
5.700000000000000205e-02 5.280389999999999251e-01 1.907469999999999999e+01 7.671614999999999895e+01 1.616650000000000091e+03
5.800000000000000294e-02 5.285575000000000134e-01 2.037549999999999883e+01 7.965285000000000082e+01 1.617490000000000009e+03
5.900000000000000383e-02 5.290440000000000698e-01 2.154570000000000007e+01 8.239609999999998990e+01 1.618289999999999964e+03
6.000000000000000472e-02 5.295009999999999994e-01 2.259100000000000108e+01 8.495879999999999654e+01 1.619039999999999964e+03
6.099999999999999867e-02 5.299344999999999750e-01 2.352134999999999820e+01 8.736384999999999934e+01 1.619755000000000109e+03
6.199999999999999956e-02 5.303489999999999593e-01 2.434989999999999810e+01 8.964079999999999870e+01 1.620429999999999836e+03
6.300000000000000044e-02 5.307524999999999604e-01 2.509169999999999945e+01 9.182330000000000325e+01 1.621085000000000036e+03
6.400000000000000133e-02 5.311489999999999823e-01 2.576245000000000118e+01 9.394615000000000293e+01 1.621710000000000036e+03
6.500000000000000222e-02 5.315450000000000452e-01 2.637770000000000081e+01 9.604265000000000896e+01 1.622329999999999927e+03
6.600000000000000311e-02 5.319464999999999888e-01 2.695154999999999745e+01 9.814199999999999591e+01 1.622950000000000045e+03
6.700000000000000400e-02 5.323544999999999527e-01 2.749584999999999724e+01 1.002678499999999957e+02 1.623569999999999936e+03
6.800000000000000488e-02 5.327735000000000110e-01 2.801930000000000121e+01 1.024351000000000056e+02 1.624200000000000045e+03
6.900000000000000577e-02 5.332019999999999538e-01 2.852680000000000149e+01 1.046500000000000057e+02 1.624835000000000036e+03
7.000000000000000666e-02 5.336389999999999745e-01 2.901920000000000144e+01 1.069099999999999966e+02 1.625485000000000127e+03
7.100000000000000755e-02 5.340804999999999580e-01 2.949305000000000021e+01 1.092009999999999934e+02 1.626134999999999991e+03
7.200000000000000844e-02 5.345235000000000403e-01 2.994160000000000110e+01 1.115020000000000095e+02 1.626795000000000073e+03
7.300000000000000933e-02 5.349604999999999499e-01 3.035495000000000232e+01 1.137845000000000084e+02 1.627450000000000045e+03
7.399999999999999634e-02 5.353844999999999299e-01 3.072129999999999939e+01 1.160139999999999958e+02 1.628094999999999800e+03
7.499999999999999722e-02 5.357905000000000584e-01 3.102805000000000035e+01 1.181554999999999893e+02 1.628719999999999800e+03
7.599999999999999811e-02 5.361704999999999943e-01 3.126265000000000072e+01 1.201730000000000018e+02 1.629309999999999945e+03
7.699999999999999900e-02 5.365195000000000380e-01 3.141380000000000194e+01 1.220330000000000013e+02 1.629860000000000127e+03
7.799999999999999989e-02 5.368319999999999759e-01 3.147194999999999965e+01 1.237055000000000007e+02 1.630369999999999891e+03
7.900000000000000078e-02 5.371044999999999847e-01 3.142994999999999806e+01 1.251670000000000016e+02 1.630820000000000164e+03
8.000000000000000167e-02 5.373344999999999372e-01 3.128340000000000032e+01 1.264009999999999962e+02 1.631210000000000036e+03
8.100000000000000255e-02 5.375199999999999978e-01 3.103110000000000213e+01 1.273969999999999914e+02 1.631539999999999964e+03
8.200000000000000344e-02 5.376615000000000144e-01 3.067475000000000307e+01 1.281539999999999964e+02 1.631804999999999836e+03
8.300000000000000433e-02 5.377610000000000445e-01 3.021914999999999907e+01 1.286775000000000091e+02 1.632005000000000109e+03
8.400000000000000522e-02 5.378205000000000346e-01 2.967174999999999940e+01 1.289780000000000086e+02 1.632139999999999873e+03
8.500000000000000611e-02 5.378435000000000299e-01 2.904264999999999830e+01 1.290749999999999886e+02 1.632220000000000027e+03
8.600000000000000699e-02 5.378349999999999520e-01 2.834380000000000166e+01 1.289915000000000020e+02 1.632240000000000009e+03
8.700000000000000788e-02 5.377994999999999859e-01 2.758899999999999864e+01 1.287529999999999859e+02 1.632220000000000027e+03
8.800000000000000877e-02 5.377425000000000122e-01 2.679294999999999760e+01 1.283899999999999864e+02 1.632159999999999854e+03
8.899999999999999578e-02 5.376689999999999525e-01 2.597095000000000198e+01 1.279320000000000164e+02 1.632065000000000055e+03
8.999999999999999667e-02 5.375860000000000083e-01 2.513810000000000144e+01 1.274104999999999990e+02 1.631950000000000045e+03
9.099999999999999756e-02 5.374970000000000026e-01 2.430879999999999797e+01 1.268545000000000016e+02 1.631819999999999936e+03
9.199999999999999845e-02 5.374075000000000379e-01 2.349605000000000032e+01 1.262909999999999968e+02 1.631680000000000064e+03
9.299999999999999933e-02 5.373215000000000074e-01 2.271105000000000018e+01 1.257434999999999974e+02 1.631535000000000082e+03
9.400000000000000022e-02 5.372419999999999973e-01 2.196269999999999811e+01 1.252305000000000064e+02 1.631394999999999982e+03
9.500000000000000111e-02 5.371704999999999952e-01 2.125724999999999909e+01 1.247664999999999935e+02 1.631264999999999873e+03
9.600000000000000200e-02 5.371090000000000586e-01 2.059819999999999851e+01 1.243594999999999970e+02 1.631144999999999982e+03
9.700000000000000289e-02 5.370580000000000354e-01 1.998635000000000161e+01 1.240134999999999934e+02 1.631045000000000073e+03
9.800000000000000377e-02 5.370159999999999378e-01 1.941969999999999885e+01 1.237265000000000015e+02 1.630954999999999927e+03
9.900000000000000466e-02 5.369810000000000416e-01 1.889414999999999978e+01 1.234915000000000020e+02 1.630875000000000000e+03
1.000000000000000056e-01 5.369519999999999849e-01 1.840329999999999799e+01 1.232974999999999994e+02 1.630809999999999945e+03
1.010000000000000064e-01 5.369260000000000144e-01 1.793939999999999912e+01 1.231310000000000002e+02 1.630750000000000000e+03
1.020000000000000073e-01 5.368994999999999740e-01 1.749360000000000070e+01 1.229770000000000039e+02 1.630695000000000164e+03
1.030000000000000082e-01 5.368694999999999995e-01 1.705640000000000001e+01 1.228165000000000049e+02 1.630640000000000100e+03
1.040000000000000091e-01 5.368334999999999635e-01 1.661834999999999951e+01 1.226334999999999980e+02 1.630585000000000036e+03
1.050000000000000100e-01 5.367889999999999606e-01 1.617054999999999865e+01 1.224110000000000014e+02 1.630514999999999873e+03
1.059999999999999970e-01 5.367319999999999869e-01 1.570490000000000030e+01 1.221350000000000051e+02 1.630445000000000164e+03
1.069999999999999979e-01 5.366619999999999724e-01 1.521470000000000056e+01 1.217934999999999945e+02 1.630349999999999909e+03
1.079999999999999988e-01 5.365774999999999295e-01 1.469504999999999839e+01 1.213774999999999977e+02 1.630235000000000127e+03
1.089999999999999997e-01 5.364775000000000515e-01 1.414314999999999856e+01 1.208830000000000098e+02 1.630105000000000018e+03
1.100000000000000006e-01 5.363634999999999931e-01 1.355808000000000035e+01 1.203089999999999975e+02 1.629954999999999927e+03
1.110000000000000014e-01 5.362350000000000172e-01 1.294149499999999975e+01 1.196595000000000084e+02 1.629784999999999854e+03
1.120000000000000023e-01 5.360955000000000581e-01 1.229703999999999908e+01 1.189430000000000121e+02 1.629594999999999800e+03
1.130000000000000032e-01 5.359470000000000622e-01 1.163054999999999950e+01 1.181700000000000017e+02 1.629389999999999873e+03
1.140000000000000041e-01 5.357914999999999761e-01 1.094951999999999970e+01 1.173569999999999993e+02 1.629170000000000073e+03
1.150000000000000050e-01 5.356339999999999435e-01 1.026290499999999994e+01 1.165220000000000056e+02 1.628950000000000045e+03
1.160000000000000059e-01 5.354775000000000507e-01 9.580830000000000624e+00 1.156844999999999999e+02 1.628720000000000027e+03
1.170000000000000068e-01 5.353265000000000384e-01 8.913745000000000474e+00 1.148644999999999925e+02 1.628494999999999891e+03
1.180000000000000077e-01 5.351839999999999931e-01 8.272300000000001319e+00 1.140840000000000032e+02 1.628275000000000091e+03
1.190000000000000085e-01 5.350544999999999884e-01 7.666570000000000107e+00 1.133615000000000066e+02 1.628070000000000164e+03
1.200000000000000094e-01 5.349395000000000122e-01 7.105850000000000222e+00 1.127164999999999964e+02 1.627880000000000109e+03
1.209999999999999964e-01 5.348435000000000272e-01 6.597995000000000054e+00 1.121620000000000061e+02 1.627714999999999918e+03
1.219999999999999973e-01 5.347674999999999512e-01 6.149235000000000007e+00 1.117115000000000009e+02 1.627574999999999818e+03
1.229999999999999982e-01 5.347115000000000062e-01 5.763849999999999696e+00 1.113719999999999999e+02 1.627464999999999918e+03
1.239999999999999991e-01 5.346779999999999866e-01 5.444065000000000154e+00 1.111469999999999914e+02 1.627380000000000109e+03
1.250000000000000000e-01 5.346644999999999870e-01 5.190015000000000711e+00 1.110365000000000038e+02 1.627324999999999818e+03
1.260000000000000009e-01 5.346714999999999662e-01 4.999819999999999709e+00 1.110349999999999966e+02 1.627305000000000064e+03
1.270000000000000018e-01 5.346960000000000601e-01 4.869754999999999612e+00 1.111355000000000075e+02 1.627309999999999945e+03
1.280000000000000027e-01 5.347359999999999891e-01 4.794529999999999959e+00 1.113269999999999982e+02 1.627340000000000146e+03
1.290000000000000036e-01 5.347889999999999588e-01 4.767570000000000086e+00 1.115949999999999989e+02 1.627389999999999873e+03
1.300000000000000044e-01 5.348530000000000229e-01 4.781399999999999650e+00 1.119244999999999948e+02 1.627460000000000036e+03
1.310000000000000053e-01 5.349230000000000373e-01 4.827970000000000539e+00 1.122990000000000066e+02 1.627549999999999955e+03
1.320000000000000062e-01 5.349975000000000147e-01 4.899034999999999584e+00 1.127030000000000030e+02 1.627650000000000091e+03
1.330000000000000071e-01 5.350734999999999797e-01 4.986480000000000246e+00 1.131209999999999951e+02 1.627750000000000000e+03
1.340000000000000080e-01 5.351485000000000269e-01 5.082589999999999719e+00 1.135379999999999967e+02 1.627855000000000018e+03
1.350000000000000089e-01 5.352200000000000291e-01 5.180295000000000094e+00 1.139410000000000025e+02 1.627965000000000146e+03
1.360000000000000098e-01 5.352869999999999573e-01 5.273365000000000080e+00 1.143189999999999884e+02 1.628065000000000055e+03
1.370000000000000107e-01 5.353464999999999474e-01 5.356539999999999857e+00 1.146640000000000015e+02 1.628159999999999854e+03
1.380000000000000115e-01 5.353989999999999583e-01 5.425629999999999953e+00 1.149699999999999989e+02 1.628244999999999891e+03
1.390000000000000124e-01 5.354434999999999611e-01 5.477515000000000356e+00 1.152319999999999993e+02 1.628324999999999818e+03
1.400000000000000133e-01 5.354799999999999560e-01 5.510180000000000078e+00 1.154480000000000075e+02 1.628384999999999991e+03
1.410000000000000142e-01 5.355080000000000950e-01 5.522639999999999993e+00 1.156189999999999998e+02 1.628444999999999936e+03
1.420000000000000151e-01 5.355290000000000328e-01 5.514890000000000292e+00 1.157464999999999975e+02 1.628485000000000127e+03
1.430000000000000160e-01 5.355425000000000324e-01 5.487795000000000201e+00 1.158335000000000008e+02 1.628519999999999982e+03
1.440000000000000169e-01 5.355509999999999993e-01 5.442954999999999544e+00 1.158849999999999909e+02 1.628539999999999964e+03
1.450000000000000178e-01 5.355539999999999745e-01 5.382579999999999920e+00 1.159070000000000107e+02 1.628554999999999836e+03
1.459999999999999909e-01 5.355535000000000156e-01 5.309324999999999406e+00 1.159039999999999964e+02 1.628565000000000055e+03
1.469999999999999918e-01 5.355499999999999705e-01 5.226129999999999498e+00 1.158840000000000003e+02 1.628565000000000055e+03
1.479999999999999927e-01 5.355449999999999378e-01 5.136055000000000703e+00 1.158509999999999991e+02 1.628559999999999945e+03
1.489999999999999936e-01 5.355395000000000572e-01 5.042104999999999393e+00 1.158125000000000000e+02 1.628555000000000064e+03
1.499999999999999944e-01 5.355339999999999545e-01 4.947115000000000151e+00 1.157719999999999914e+02 1.628549999999999955e+03
1.509999999999999953e-01 5.355300000000000615e-01 4.853595000000000326e+00 1.157340000000000089e+02 1.628539999999999964e+03
1.519999999999999962e-01 5.355269999999999753e-01 4.763634999999999842e+00 1.157019999999999982e+02 1.628539999999999964e+03
1.529999999999999971e-01 5.355250000000000288e-01 4.678829999999999600e+00 1.156775000000000091e+02 1.628535000000000082e+03
1.539999999999999980e-01 5.355254999999999876e-01 4.600254999999999761e+00 1.156615000000000038e+02 1.628525000000000091e+03
1.549999999999999989e-01 5.355269999999999753e-01 4.528455000000000119e+00 1.156529999999999916e+02 1.628525000000000091e+03
1.559999999999999998e-01 5.355294999999999916e-01 4.463485000000000369e+00 1.156509999999999962e+02 1.628525000000000091e+03
1.570000000000000007e-01 5.355330000000000368e-01 4.404964999999999797e+00 1.156539999999999964e+02 1.628525000000000091e+03
1.580000000000000016e-01 5.355360000000000120e-01 4.352140000000000342e+00 1.156589999999999918e+02 1.628525000000000091e+03
1.590000000000000024e-01 5.355385000000000284e-01 4.304039999999999644e+00 1.156620000000000061e+02 1.628525000000000091e+03
