# t [s], A [cm^2], U [cm/s], P [cPa], c [cm/s]
1.000000000000000021e-03 1.191250000000000087e-01 2.339185000000000292e-01 8.704259999999999309e+01 1.813994999999999891e+03
2.000000000000000042e-03 1.191109999999999947e-01 1.508627500000000010e+00 8.453600000000000136e+01 1.813804999999999836e+03
3.000000000000000062e-03 1.190485000000000015e-01 3.081014000000000141e+00 8.129769999999999186e+01 1.813049999999999955e+03
4.000000000000000083e-03 1.189515000000000156e-01 4.825896099999999578e+00 7.763845000000000596e+01 1.811904999999999973e+03
5.000000000000000104e-03 1.188364999999999977e-01 6.703430000000000000e+00 7.411865000000000236e+01 1.810554999999999836e+03
6.000000000000000125e-03 1.187169999999999892e-01 8.640209999999999724e+00 7.107134999999999536e+01 1.809164999999999964e+03
7.000000000000000146e-03 1.186004999999999976e-01 1.051557000000000031e+01 6.851420000000000243e+01 1.807820000000000164e+03
8.000000000000000167e-03 1.184884999999999966e-01 1.222001999999999988e+01 6.628405000000000769e+01 1.806554999999999836e+03
9.000000000000001055e-03 1.183840000000000031e-01 1.371591500000000075e+01 6.426649999999999352e+01 1.805380000000000109e+03
1.000000000000000194e-02 1.182884999999999909e-01 1.502049999999999841e+01 6.247200000000000131e+01 1.804320000000000164e+03
1.099999999999999936e-02 1.182035000000000030e-01 1.615415000000000134e+01 6.093654999999999688e+01 1.803389999999999873e+03
1.200000000000000025e-02 1.181294999999999984e-01 1.712505000000000166e+01 5.965385000000000559e+01 1.802585000000000036e+03
1.300000000000000114e-02 1.180665000000000048e-01 1.793759999999999977e+01 5.858850000000000335e+01 1.801904999999999973e+03
1.400000000000000203e-02 1.180125000000000063e-01 1.859479999999999933e+01 5.769294999999999618e+01 1.801329999999999927e+03
1.499999999999999944e-02 1.179665000000000019e-01 1.909915000000000163e+01 5.691094999999999970e+01 1.800849999999999909e+03
1.600000000000000033e-02 1.179265000000000035e-01 1.946419999999999817e+01 5.620009999999999906e+01 1.800440000000000055e+03
1.700000000000000122e-02 1.178919999999999968e-01 1.972919999999999874e+01 5.557540000000000191e+01 1.800090000000000146e+03
1.800000000000000211e-02 1.178649999999999975e-01 1.996030000000000015e+01 5.513309999999999889e+01 1.799809999999999945e+03
1.900000000000000300e-02 1.178464999999999929e-01 2.023315000000000197e+01 5.502455000000000496e+01 1.799630000000000109e+03
2.000000000000000042e-02 1.178415000000000018e-01 2.060549999999999926e+01 5.538854999999999507e+01 1.799585000000000036e+03
2.100000000000000130e-02 1.178504999999999969e-01 2.109554999999999936e+01 5.628094999999999715e+01 1.799695000000000164e+03
2.200000000000000219e-02 1.178750000000000075e-01 2.167575000000000074e+01 5.763764999999999361e+01 1.799965000000000146e+03
2.299999999999999961e-02 1.179110000000000019e-01 2.228310000000000102e+01 5.928340000000000032e+01 1.800365000000000009e+03
2.400000000000000050e-02 1.179545000000000038e-01 2.283905000000000030e+01 6.097870000000000346e+01 1.800844999999999800e+03
2.500000000000000139e-02 1.179989999999999928e-01 2.327205000000000013e+01 6.248329999999999984e+01 1.801345000000000027e+03
2.600000000000000228e-02 1.180404999999999927e-01 2.353444999999999965e+01 6.361335000000000406e+01 1.801804999999999836e+03
2.700000000000000316e-02 1.180729999999999835e-01 2.361115000000000208e+01 6.427765000000000839e+01 1.802184999999999945e+03
2.800000000000000058e-02 1.180960000000000065e-01 2.351794999999999902e+01 6.448460000000000036e+01 1.802450000000000045e+03
2.900000000000000147e-02 1.181089999999999918e-01 2.329229999999999734e+01 6.432319999999999993e+01 1.802610000000000127e+03
3.000000000000000236e-02 1.181135000000000101e-01 2.297984999999999900e+01 6.392584999999999695e+01 1.802670000000000073e+03
3.099999999999999978e-02 1.181109999999999938e-01 2.262149999999999750e+01 6.342690000000000339e+01 1.802659999999999854e+03
3.200000000000000067e-02 1.181055000000000021e-01 2.224419999999999931e+01 6.292799999999999727e+01 1.802605000000000018e+03
3.300000000000000155e-02 1.180984999999999951e-01 2.185764999999999958e+01 6.247984999999999900e+01 1.802534999999999854e+03
3.400000000000000244e-02 1.180900000000000005e-01 2.145629999999999882e+01 6.208060000000000400e+01 1.802449999999999818e+03
3.500000000000000333e-02 1.180809999999999915e-01 2.102584999999999837e+01 6.168999999999999773e+01 1.802355000000000018e+03
3.600000000000000422e-02 1.180704999999999949e-01 2.055120000000000147e+01 6.125220000000000198e+01 1.802240000000000009e+03
3.700000000000000511e-02 1.180575000000000097e-01 2.002429999999999666e+01 6.072029999999999461e+01 1.802105000000000018e+03
3.799999999999999906e-02 1.180414999999999937e-01 1.944930000000000092e+01 6.007609999999999673e+01 1.801929999999999836e+03
3.899999999999999994e-02 1.180225000000000024e-01 1.884469999999999956e+01 5.934114999999999895e+01 1.801730000000000018e+03
4.000000000000000083e-02 1.180015000000000092e-01 1.824145000000000039e+01 5.857634999999999792e+01 1.801505000000000109e+03
4.100000000000000172e-02 1.179800000000000015e-01 1.767774999999999963e+01 5.787115000000000009e+01 1.801275000000000091e+03
4.200000000000000261e-02 1.179604999999999959e-01 1.719229999999999947e+01 5.732515000000000072e+01 1.801059999999999945e+03
4.300000000000000350e-02 1.179455000000000087e-01 1.681680000000000064e+01 5.702705000000000268e+01 1.800894999999999982e+03
4.400000000000000439e-02 1.179364999999999997e-01 1.657025000000000148e+01 5.703569999999999851e+01 1.800795000000000073e+03
4.499999999999999833e-02 1.179364999999999997e-01 1.645514999999999972e+01 5.736769999999999925e+01 1.800784999999999854e+03
4.599999999999999922e-02 1.179445000000000077e-01 1.645775000000000077e+01 5.799304999999999666e+01 1.800860000000000127e+03
4.700000000000000011e-02 1.179594999999999949e-01 1.654984999999999928e+01 5.884000000000000341e+01 1.801014999999999873e+03
4.800000000000000100e-02 1.179810000000000025e-01 1.669359999999999999e+01 5.980644999999999811e+01 1.801244999999999891e+03
4.900000000000000189e-02 1.180055000000000132e-01 1.684660000000000224e+01 6.077554999999999552e+01 1.801505000000000109e+03
5.000000000000000278e-02 1.180309999999999970e-01 1.696735000000000326e+01 6.163145000000000095e+01 1.801775000000000091e+03
5.100000000000000366e-02 1.180539999999999923e-01 1.701984999999999815e+01 6.227384999999999593e+01 1.802025000000000091e+03
5.200000000000000455e-02 1.180720000000000103e-01 1.697625000000000028e+01 6.262780000000000058e+01 1.802224999999999909e+03
5.300000000000000544e-02 1.180825000000000069e-01 1.681864999999999810e+01 6.264884999999999593e+01 1.802345000000000027e+03
5.399999999999999939e-02 1.180849999999999955e-01 1.653909999999999769e+01 6.232305000000000206e+01 1.802369999999999891e+03
5.500000000000000028e-02 1.180779999999999885e-01 1.613795000000000002e+01 6.166335000000000122e+01 1.802299999999999955e+03
5.600000000000000117e-02 1.180614999999999998e-01 1.562289999999999957e+01 6.070329999999999870e+01 1.802130000000000109e+03
5.700000000000000205e-02 1.180365000000000025e-01 1.500604999999999833e+01 5.948980000000000246e+01 1.801860000000000127e+03
5.800000000000000294e-02 1.180034999999999973e-01 1.430290000000000106e+01 5.807620000000000005e+01 1.801505000000000109e+03
5.900000000000000383e-02 1.179644999999999999e-01 1.353045000000000009e+01 5.651699999999999591e+01 1.801079999999999927e+03
6.000000000000000472e-02 1.179199999999999970e-01 1.270653500000000058e+01 5.486459999999999582e+01 1.800605000000000018e+03
6.099999999999999867e-02 1.178714999999999902e-01 1.184951500000000024e+01 5.316754999999999853e+01 1.800075000000000045e+03
6.199999999999999956e-02 1.178204999999999947e-01 1.097815500000000100e+01 5.147095000000000198e+01 1.799519999999999982e+03
6.300000000000000044e-02 1.177684999999999982e-01 1.011205499999999979e+01 4.981745000000000090e+01 1.798954999999999927e+03
6.400000000000000133e-02 1.177169999999999883e-01 9.271744999999999237e+00 4.824880000000000280e+01 1.798389999999999873e+03
6.500000000000000222e-02 1.176669999999999938e-01 8.478765000000000995e+00 4.680724999999999625e+01 1.797840000000000146e+03
6.600000000000000311e-02 1.176200000000000023e-01 7.755419999999999092e+00 4.553609999999999758e+01 1.797329999999999927e+03
6.700000000000000400e-02 1.175775000000000015e-01 7.124525000000000219e+00 4.447950000000000159e+01 1.796855000000000018e+03
6.800000000000000488e-02 1.175410000000000066e-01 6.608665000000000234e+00 4.368169999999999931e+01 1.796454999999999927e+03
6.900000000000000577e-02 1.175120000000000053e-01 6.229210000000000136e+00 4.318489999999999895e+01 1.796130000000000109e+03
7.000000000000000666e-02 1.174910000000000121e-01 6.005430000000000490e+00 4.302745000000000175e+01 1.795894999999999982e+03
7.100000000000000755e-02 1.174805000000000016e-01 5.953514999999999446e+00 4.324134999999999707e+01 1.795775000000000091e+03
7.200000000000000844e-02 1.174810000000000021e-01 6.085729999999999862e+00 4.385020000000000095e+01 1.795769999999999982e+03
7.300000000000000933e-02 1.174935000000000007e-01 6.409765000000000157e+00 4.486735000000000184e+01 1.795889999999999873e+03
7.399999999999999634e-02 1.175184999999999980e-01 6.928369999999999251e+00 4.629529999999999745e+01 1.796144999999999982e+03
7.499999999999999722e-02 1.175555000000000072e-01 7.639234999999999332e+00 4.812505000000000166e+01 1.796539999999999964e+03
7.599999999999999811e-02 1.176060000000000022e-01 8.535154999999999603e+00 5.033674999999999500e+01 1.797074999999999818e+03
7.699999999999999900e-02 1.176679999999999948e-01 9.604580000000000339e+00 5.290099999999999625e+01 1.797740000000000009e+03
7.799999999999999989e-02 1.177419999999999994e-01 1.083192000000000021e+01 5.578020000000000067e+01 1.798530000000000200e+03
7.900000000000000078e-02 1.178259999999999863e-01 1.219891499999999951e+01 5.893094999999999573e+01 1.799444999999999936e+03
8.000000000000000167e-02 1.179195000000000104e-01 1.368479999999999919e+01 6.230624999999999858e+01 1.800460000000000036e+03
8.100000000000000255e-02 1.180209999999999870e-01 1.526794999999999902e+01 6.585790000000000077e+01 1.801559999999999945e+03
8.200000000000000344e-02 1.181294999999999984e-01 1.692620000000000147e+01 6.953849999999999909e+01 1.802740000000000009e+03
8.300000000000000433e-02 1.182430000000000009e-01 1.863810000000000144e+01 7.330385000000001128e+01 1.803990000000000009e+03
8.400000000000000522e-02 1.183609999999999940e-01 2.038354999999999961e+01 7.711440000000000339e+01 1.805284999999999854e+03
8.500000000000000611e-02 1.184815000000000035e-01 2.214424999999999955e+01 8.093665000000000020e+01 1.806605000000000018e+03
8.600000000000000699e-02 1.186040000000000011e-01 2.390455000000000041e+01 8.474394999999999811e+01 1.807960000000000036e+03
8.700000000000000788e-02 1.187269999999999992e-01 2.565129999999999910e+01 8.851685000000000514e+01 1.809320000000000164e+03
8.800000000000000877e-02 1.188504999999999978e-01 2.737409999999999854e+01 9.224289999999999168e+01 1.810690000000000055e+03
8.899999999999999578e-02 1.189734999999999959e-01 2.906544999999999845e+01 9.591595000000000937e+01 1.812054999999999836e+03
8.999999999999999667e-02 1.190949999999999925e-01 3.072005000000000052e+01 9.953489999999999327e+01 1.813414999999999964e+03
9.099999999999999756e-02 1.192165000000000030e-01 3.233474999999999966e+01 1.031037499999999909e+02 1.814769999999999982e+03
9.199999999999999845e-02 1.193369999999999986e-01 3.390814999999999912e+01 1.066287999999999982e+02 1.816115000000000009e+03
9.299999999999999933e-02 1.194560000000000066e-01 3.543980000000000530e+01 1.101169999999999902e+02 1.817454999999999927e+03
9.400000000000000022e-02 1.195745000000000002e-01 3.693005000000000138e+01 1.135755000000000052e+02 1.818784999999999854e+03
9.500000000000000111e-02 1.196925000000000072e-01 3.837940000000000396e+01 1.170115000000000123e+02 1.820110000000000127e+03
9.600000000000000200e-02 1.198095000000000132e-01 3.978839999999999577e+01 1.204285000000000139e+02 1.821429999999999836e+03
9.700000000000000289e-02 1.199260000000000048e-01 4.115684999999999860e+01 1.238280000000000030e+02 1.822744999999999891e+03
9.800000000000000377e-02 1.200419999999999959e-01 4.248414999999999964e+01 1.272075000000000102e+02 1.824059999999999945e+03
9.900000000000000466e-02 1.201575000000000004e-01 4.376865000000000094e+01 1.305639999999999930e+02 1.825360000000000127e+03
1.000000000000000056e-01 1.202720000000000039e-01 4.500804999999999723e+01 1.338880000000000052e+02 1.826659999999999854e+03
1.010000000000000064e-01 1.203859999999999930e-01 4.619915000000000305e+01 1.371690000000000111e+02 1.827954999999999927e+03
1.020000000000000073e-01 1.204979999999999940e-01 4.733794999999999931e+01 1.403954999999999984e+02 1.829230000000000018e+03
1.030000000000000082e-01 1.206089999999999940e-01 4.841995000000000005e+01 1.435514999999999759e+02 1.830490000000000009e+03
1.040000000000000091e-01 1.207174999999999915e-01 4.944010000000000105e+01 1.466214999999999975e+02 1.831730000000000018e+03
1.050000000000000100e-01 1.208235000000000003e-01 5.039294999999999902e+01 1.495900000000000034e+02 1.832934999999999945e+03
1.059999999999999970e-01 1.209264999999999923e-01 5.127304999999999779e+01 1.524395000000000095e+02 1.834110000000000127e+03
1.069999999999999979e-01 1.210259999999999947e-01 5.207484999999999786e+01 1.551555000000000177e+02 1.835250000000000000e+03
1.079999999999999988e-01 1.211210000000000064e-01 5.279319999999999879e+01 1.577220000000000084e+02 1.836345000000000027e+03
1.089999999999999997e-01 1.212120000000000003e-01 5.342324999999999591e+01 1.601254999999999882e+02 1.837384999999999991e+03
1.100000000000000006e-01 1.212975000000000025e-01 5.396080000000000609e+01 1.623534999999999968e+02 1.838369999999999891e+03
1.110000000000000014e-01 1.213779999999999998e-01 5.440224999999999511e+01 1.643960000000000150e+02 1.839295000000000073e+03
1.120000000000000023e-01 1.214520000000000044e-01 5.474500000000000455e+01 1.662454999999999927e+02 1.840159999999999854e+03
1.130000000000000032e-01 1.215205000000000035e-01 5.498760000000000048e+01 1.678954999999999984e+02 1.840950000000000045e+03
1.140000000000000041e-01 1.215829999999999966e-01 5.512969999999999970e+01 1.693439999999999941e+02 1.841670000000000073e+03
1.150000000000000050e-01 1.216385000000000105e-01 5.517210000000000036e+01 1.705910000000000082e+02 1.842315000000000055e+03
1.160000000000000059e-01 1.216875000000000040e-01 5.511714999999999520e+01 1.716394999999999982e+02 1.842889999999999873e+03
1.170000000000000068e-01 1.217310000000000059e-01 5.496829999999999927e+01 1.724954999999999927e+02 1.843394999999999982e+03
1.180000000000000077e-01 1.217675000000000007e-01 5.473035000000000139e+01 1.731684999999999945e+02 1.843824999999999818e+03
1.190000000000000085e-01 1.217975000000000030e-01 5.440945000000000675e+01 1.736694999999999993e+02 1.844184999999999945e+03
1.200000000000000094e-01 1.218225000000000002e-01 5.401265000000000072e+01 1.740124999999999886e+02 1.844480000000000018e+03
1.209999999999999964e-01 1.218420000000000059e-01 5.354784999999999684e+01 1.742129999999999939e+02 1.844710000000000036e+03
1.219999999999999973e-01 1.218559999999999921e-01 5.302365000000000350e+01 1.742874999999999943e+02 1.844884999999999991e+03
1.229999999999999982e-01 1.218660000000000021e-01 5.244899999999999807e+01 1.742539999999999907e+02 1.845005000000000109e+03
1.239999999999999991e-01 1.218720000000000081e-01 5.183305000000000007e+01 1.741290000000000191e+02 1.845079999999999927e+03
1.250000000000000000e-01 1.218744999999999967e-01 5.118479999999999563e+01 1.739314999999999998e+02 1.845115000000000009e+03
1.260000000000000009e-01 1.218734999999999957e-01 5.051285000000000025e+01 1.736759999999999877e+02 1.845110000000000127e+03
1.270000000000000018e-01 1.218710000000000071e-01 4.982519999999999527e+01 1.733779999999999859e+02 1.845085000000000036e+03
1.280000000000000027e-01 1.218660000000000021e-01 4.912904999999999944e+01 1.730504999999999995e+02 1.845034999999999854e+03
1.290000000000000036e-01 1.218590000000000090e-01 4.843079999999999785e+01 1.727035000000000196e+02 1.844960000000000036e+03
1.300000000000000044e-01 1.218515000000000015e-01 4.773555000000000348e+01 1.723455000000000155e+02 1.844869999999999891e+03
1.310000000000000053e-01 1.218429999999999930e-01 4.704744999999999777e+01 1.719819999999999993e+02 1.844775000000000091e+03
1.320000000000000062e-01 1.218329999999999969e-01 4.636934999999999718e+01 1.716170000000000186e+02 1.844670000000000073e+03
1.330000000000000071e-01 1.218235000000000012e-01 4.570314999999999372e+01 1.712514999999999930e+02 1.844549999999999955e+03
1.340000000000000080e-01 1.218130000000000046e-01 4.504935000000000400e+01 1.708845000000000027e+02 1.844430000000000064e+03
1.350000000000000089e-01 1.218025000000000080e-01 4.440775000000000006e+01 1.705129999999999768e+02 1.844309999999999945e+03
1.360000000000000098e-01 1.217909999999999965e-01 4.377700000000000102e+01 1.701324999999999932e+02 1.844180000000000064e+03
1.370000000000000107e-01 1.217795000000000127e-01 4.315520000000000067e+01 1.697370000000000232e+02 1.844039999999999964e+03
1.380000000000000115e-01 1.217670000000000002e-01 4.253965000000000174e+01 1.693204999999999814e+02 1.843900000000000091e+03
1.390000000000000124e-01 1.217540000000000011e-01 4.192734999999999701e+01 1.688745000000000118e+02 1.843744999999999891e+03
1.400000000000000133e-01 1.217395000000000005e-01 4.131489999999999441e+01 1.683930000000000007e+02 1.843579999999999927e+03
1.410000000000000142e-01 1.217244999999999855e-01 4.069910000000000139e+01 1.678675000000000068e+02 1.843404999999999973e+03
1.420000000000000151e-01 1.217074999999999962e-01 4.007650000000000290e+01 1.672925000000000182e+02 1.843210000000000036e+03
1.430000000000000160e-01 1.216890000000000055e-01 3.944415000000000049e+01 1.666624999999999943e+02 1.843000000000000000e+03
1.440000000000000169e-01 1.216689999999999994e-01 3.879930000000000234e+01 1.659719999999999800e+02 1.842769999999999982e+03
1.450000000000000178e-01 1.216474999999999917e-01 3.814005000000000223e+01 1.652180000000000177e+02 1.842514999999999873e+03
1.459999999999999909e-01 1.216229999999999950e-01 3.746479999999999677e+01 1.643999999999999773e+02 1.842244999999999891e+03
1.469999999999999918e-01 1.215974999999999973e-01 3.677294999999999447e+01 1.635169999999999959e+02 1.841944999999999936e+03
1.479999999999999927e-01 1.215694999999999970e-01 3.606454999999999700e+01 1.625715000000000146e+02 1.841630000000000109e+03
1.489999999999999936e-01 1.215400000000000091e-01 3.534055000000000035e+01 1.615674999999999955e+02 1.841284999999999854e+03
1.499999999999999944e-01 1.215075000000000044e-01 3.460269999999999868e+01 1.605099999999999909e+02 1.840924999999999955e+03
1.509999999999999953e-01 1.214744999999999991e-01 3.385354999999999848e+01 1.594069999999999823e+02 1.840539999999999964e+03
1.519999999999999962e-01 1.214390000000000053e-01 3.309645000000000437e+01 1.582669999999999959e+02 1.840139999999999873e+03
1.529999999999999971e-01 1.214024999999999965e-01 3.233525000000000205e+01 1.570999999999999943e+02 1.839724999999999909e+03
1.539999999999999980e-01 1.213650000000000007e-01 3.157460000000000022e+01 1.559164999999999850e+02 1.839295000000000073e+03
1.549999999999999989e-01 1.213269999999999904e-01 3.081910000000000238e+01 1.547289999999999850e+02 1.838865000000000009e+03
1.559999999999999998e-01 1.212884999999999935e-01 3.007410000000000139e+01 1.535489999999999782e+02 1.838420000000000073e+03
1.570000000000000007e-01 1.212499999999999967e-01 2.934459999999999980e+01 1.523884999999999934e+02 1.837980000000000018e+03
1.580000000000000016e-01 1.212114999999999998e-01 2.863575000000000159e+01 1.512584999999999980e+02 1.837545000000000073e+03
1.590000000000000024e-01 1.211740000000000039e-01 2.795219999999999771e+01 1.501694999999999993e+02 1.837119999999999891e+03
