# t [s], A [cm^2], U [cm/s], P [cPa], c [cm/s]
1.000000000000000021e-03 7.393779999999999797e-01 5.698999999999995736e-03 1.033359999999999985e+02 1.749630000000000109e+03
2.000000000000000042e-03 7.393724999999999881e-01 9.158550000000001412e-03 1.033094999999999999e+02 1.749619999999999891e+03
3.000000000000000062e-03 7.394585000000000186e-01 1.584809999999999830e-01 1.034855000000000018e+02 1.749659999999999854e+03
4.000000000000000083e-03 7.394860000000000877e-01 2.301445000000000018e-01 1.035664999999999907e+02 1.749679999999999836e+03
5.000000000000000104e-03 7.394034999999999913e-01 1.252879999999999827e-01 1.033369999999999891e+02 1.749634999999999991e+03
6.000000000000000125e-03 7.393129999999999979e-01 -4.980000000000039950e-03 1.029585000000000008e+02 1.749549999999999955e+03
7.000000000000000146e-03 7.391989999999999394e-01 -1.908849999999999714e-01 1.024294999999999902e+02 1.749429999999999836e+03
8.000000000000000167e-03 7.389915000000000234e-01 -5.536500000000000865e-01 1.015705499999999972e+02 1.749239999999999782e+03
9.000000000000001055e-03 7.386915000000000564e-01 -1.092135000000000078e+00 1.003192500000000109e+02 1.748965000000000146e+03
1.000000000000000194e-02 7.382739999999999858e-01 -1.828459999999999974e+00 9.858750000000000568e+01 1.748575000000000045e+03
1.099999999999999936e-02 7.377150000000000096e-01 -2.777909999999999879e+00 9.628649999999998954e+01 1.748045000000000073e+03
1.200000000000000025e-02 7.370719999999999494e-01 -3.810859999999999914e+00 9.352920000000000300e+01 1.747400000000000091e+03
1.300000000000000114e-02 7.364690000000000403e-01 -4.671431499999999737e+00 9.067050000000000409e+01 1.746704999999999927e+03
1.400000000000000203e-02 7.360085000000000655e-01 -5.132551999999999559e+00 8.810974999999999113e+01 1.746045000000000073e+03
1.499999999999999944e-02 7.357154999999999667e-01 -5.113480000000000025e+00 8.608095000000000141e+01 1.745480000000000018e+03
1.600000000000000033e-02 7.355369999999999964e-01 -4.689955000000000318e+00 8.457489999999999952e+01 1.745019999999999982e+03
1.700000000000000122e-02 7.353825000000000500e-01 -4.031814999999999927e+00 8.338624999999998977e+01 1.744619999999999891e+03
1.800000000000000211e-02 7.351685000000000025e-01 -3.317919999999999980e+00 8.223120000000000118e+01 1.744244999999999891e+03
1.900000000000000300e-02 7.348504999999999621e-01 -2.663720349999999737e+00 8.087640000000000384e+01 1.743835000000000036e+03
2.000000000000000042e-02 7.344359999999999777e-01 -2.088254999999999750e+00 7.922714999999999463e+01 1.743365000000000009e+03
2.100000000000000130e-02 7.339700000000000113e-01 -1.532819999999999849e+00 7.733729999999999905e+01 1.742840000000000146e+03
2.200000000000000219e-02 7.335045000000000037e-01 -9.160450000000002202e-01 7.534639999999998849e+01 1.742289999999999964e+03
2.299999999999999961e-02 7.330725000000000158e-01 -1.916000000000002146e-01 7.338679999999999382e+01 1.741740000000000009e+03
2.400000000000000050e-02 7.326699999999999324e-01 6.184500000000001663e-01 7.150979999999999848e+01 1.741199999999999818e+03
2.500000000000000139e-02 7.322604999999999809e-01 1.422239999999999727e+00 6.965510000000000446e+01 1.740664999999999964e+03
2.600000000000000228e-02 7.317890000000000228e-01 2.082489999999999952e+00 6.766509999999999536e+01 1.740099999999999909e+03
2.700000000000000316e-02 7.311974999999999447e-01 2.455809999999999604e+00 6.533474999999999966e+01 1.739465000000000146e+03
2.800000000000000058e-02 7.304485000000000561e-01 2.435310000000000308e+00 6.247990000000000066e+01 1.738724999999999909e+03
2.900000000000000147e-02 7.295344999999999747e-01 1.983754999999999935e+00 5.900435000000000230e+01 1.737845000000000027e+03
3.000000000000000236e-02 7.284889999999999421e-01 1.146154999999999369e+00 5.494140000000000157e+01 1.736829999999999927e+03
3.099999999999999978e-02 7.273724999999999774e-01 3.695000000000003837e-02 5.045645000000000380e+01 1.735714999999999918e+03
3.200000000000000067e-02 7.262619999999999632e-01 -1.190299999999999692e+00 4.581244999999999834e+01 1.734539999999999964e+03
3.300000000000000155e-02 7.252309999999999590e-01 -2.378440000000000332e+00 4.131439999999999912e+01 1.733384999999999991e+03
3.400000000000000244e-02 7.243414999999999715e-01 -3.394765000000000033e+00 3.725415000000000276e+01 1.732315000000000055e+03
3.500000000000000333e-02 7.236329999999999707e-01 -4.146509999999999252e+00 3.386780000000000257e+01 1.731384999999999991e+03
3.600000000000000422e-02 7.231259999999999355e-01 -4.583628999999999287e+00 3.131295000000000073e+01 1.730639999999999873e+03
3.700000000000000511e-02 7.228220000000000756e-01 -4.692099999999999937e+00 2.966469999999999985e+01 1.730110000000000127e+03
3.799999999999999906e-02 7.227124999999999799e-01 -4.481949999999999434e+00 2.892719999999999914e+01 1.729804999999999836e+03
3.899999999999999994e-02 7.227810000000000068e-01 -3.974260000000000126e+00 2.905454999999999899e+01 1.729714999999999918e+03
4.000000000000000083e-02 7.230115000000000292e-01 -3.190832499999999960e+00 2.997390000000000043e+01 1.729845000000000027e+03
4.100000000000000172e-02 7.233884999999999899e-01 -2.149094999999999978e+00 3.160430000000000206e+01 1.730154999999999973e+03
4.200000000000000261e-02 7.238995000000000291e-01 -8.626549999999997276e-01 3.386664999999999992e+01 1.730639999999999873e+03
4.300000000000000350e-02 7.245304999999999662e-01 6.540950000000003151e-01 3.668569999999999709e+01 1.731279999999999973e+03
4.400000000000000439e-02 7.252659999999999663e-01 2.380130000000000301e+00 3.998520000000000607e+01 1.732059999999999945e+03
4.499999999999999833e-02 7.260874999999999968e-01 4.283445000000000391e+00 4.368225000000000335e+01 1.732949999999999818e+03
4.599999999999999922e-02 7.269719999999999516e-01 6.319670000000000343e+00 4.768290000000000362e+01 1.733929999999999836e+03
4.700000000000000011e-02 7.278940000000000410e-01 8.434543500000000193e+00 5.188244999999999862e+01 1.734980000000000018e+03
4.800000000000000100e-02 7.288265000000000438e-01 1.056824499999999922e+01 5.617010000000000502e+01 1.736065000000000055e+03
4.900000000000000189e-02 7.297449999999999770e-01 1.266169999999999973e+01 6.043639999999999901e+01 1.737170000000000073e+03
5.000000000000000278e-02 7.306285000000000140e-01 1.466220000000000034e+01 6.458225000000000193e+01 1.738250000000000000e+03
5.100000000000000366e-02 7.314609999999999168e-01 1.652778500000000150e+01 6.852734999999999843e+01 1.739304999999999836e+03
5.200000000000000455e-02 7.322340000000000515e-01 1.823000000000000043e+01 7.221564999999999657e+01 1.740309999999999945e+03
5.300000000000000544e-02 7.329449999999999577e-01 1.975410000000000110e+01 7.561825000000000330e+01 1.741244999999999891e+03
5.399999999999999939e-02 7.335960000000000258e-01 2.109819999999999851e+01 7.873265000000000668e+01 1.742119999999999891e+03
5.500000000000000028e-02 7.341949999999999310e-01 2.227080000000000126e+01 8.157935000000000514e+01 1.742930000000000064e+03
5.600000000000000117e-02 7.347525000000000306e-01 2.328839999999999932e+01 8.419724999999999682e+01 1.743684999999999945e+03
5.700000000000000205e-02 7.352799999999999336e-01 2.417285000000000039e+01 8.663774999999999693e+01 1.744389999999999873e+03
5.800000000000000294e-02 7.357910000000000839e-01 2.494950000000000045e+01 8.895955000000000723e+01 1.745065000000000055e+03
5.900000000000000383e-02 7.362980000000000080e-01 2.564470000000000027e+01 9.122325000000000728e+01 1.745715000000000146e+03
6.000000000000000472e-02 7.368124999999999813e-01 2.628460000000000107e+01 9.348705000000001064e+01 1.746360000000000127e+03
6.099999999999999867e-02 7.373454999999999870e-01 2.689310000000000045e+01 9.580189999999998918e+01 1.747009999999999991e+03
6.199999999999999956e-02 7.379035000000000455e-01 2.749024999999999963e+01 9.820839999999999748e+01 1.747684999999999945e+03
6.300000000000000044e-02 7.384914999999999674e-01 2.809049999999999869e+01 1.007321499999999901e+02 1.748380000000000109e+03
6.400000000000000133e-02 7.391095000000000859e-01 2.870150000000000290e+01 1.033838999999999970e+02 1.749105000000000018e+03
6.500000000000000222e-02 7.397529999999999939e-01 2.932339999999999947e+01 1.061544999999999987e+02 1.749855000000000018e+03
6.600000000000000311e-02 7.404159999999999631e-01 2.994894999999999996e+01 1.090194999999999936e+02 1.750634999999999991e+03
6.700000000000000400e-02 7.410864999999999814e-01 3.056434999999999746e+01 1.119375000000000000e+02 1.751425000000000182e+03
6.800000000000000488e-02 7.417525000000000368e-01 3.115084999999999837e+01 1.148559999999999945e+02 1.752220000000000027e+03
6.900000000000000577e-02 7.423999999999999488e-01 3.168654999999999688e+01 1.177145000000000010e+02 1.753005000000000109e+03
7.000000000000000666e-02 7.430149999999999810e-01 3.214855000000000018e+01 1.204495000000000005e+02 1.753759999999999991e+03
7.100000000000000755e-02 7.435834999999999528e-01 3.251509999999999678e+01 1.230010000000000048e+02 1.754474999999999909e+03
7.200000000000000844e-02 7.440949999999999509e-01 3.276695000000000135e+01 1.253130000000000024e+02 1.755134999999999991e+03
7.300000000000000933e-02 7.445414999999999672e-01 3.288899999999999579e+01 1.273409999999999940e+02 1.755724999999999909e+03
7.399999999999999634e-02 7.449155000000000637e-01 3.287129999999999797e+01 1.290539999999999736e+02 1.756235000000000127e+03
7.499999999999999722e-02 7.452149999999999608e-01 3.270915000000000106e+01 1.304320000000000164e+02 1.756664999999999964e+03
7.599999999999999811e-02 7.454410000000000203e-01 3.240375000000000227e+01 1.314710000000000036e+02 1.757005000000000109e+03
7.699999999999999900e-02 7.455960000000000365e-01 3.196150000000000091e+01 1.321809999999999832e+02 1.757255000000000109e+03
7.799999999999999989e-02 7.456849999999999312e-01 3.139385000000000048e+01 1.325835000000000150e+02 1.757424999999999955e+03
7.900000000000000078e-02 7.457165000000000044e-01 3.071649999999999636e+01 1.327099999999999795e+02 1.757519999999999982e+03
8.000000000000000167e-02 7.456994999999999596e-01 2.994865000000000066e+01 1.326014999999999873e+02 1.757545000000000073e+03
8.100000000000000255e-02 7.456445000000000434e-01 2.911169999999999902e+01 1.323025000000000091e+02 1.757514999999999873e+03
8.200000000000000344e-02 7.455609999999999182e-01 2.822855000000000203e+01 1.318629999999999995e+02 1.757440000000000055e+03
8.300000000000000433e-02 7.454609999999999292e-01 2.732200000000000273e+01 1.313315000000000055e+02 1.757329999999999927e+03
8.400000000000000522e-02 7.453535000000000021e-01 2.641420000000000101e+01 1.307555000000000121e+02 1.757210000000000036e+03
8.500000000000000611e-02 7.452475000000000627e-01 2.552510000000000190e+01 1.301775000000000091e+02 1.757069999999999936e+03
8.600000000000000699e-02 7.451499999999999790e-01 2.467164999999999964e+01 1.296334999999999980e+02 1.756934999999999945e+03
8.700000000000000788e-02 7.450674999999999937e-01 2.386710000000000065e+01 1.291510000000000105e+02 1.756815000000000055e+03
8.800000000000000877e-02 7.450019999999999420e-01 2.312069999999999936e+01 1.287500000000000000e+02 1.756699999999999818e+03
8.899999999999999578e-02 7.449554999999999927e-01 2.243699999999999761e+01 1.284404999999999859e+02 1.756615000000000009e+03
8.999999999999999667e-02 7.449274999999999647e-01 2.181620000000000203e+01 1.282220000000000084e+02 1.756545000000000073e+03
9.099999999999999756e-02 7.449144999999999239e-01 2.125440000000000040e+01 1.280869999999999891e+02 1.756494999999999891e+03
9.199999999999999845e-02 7.449140000000000761e-01 2.074419999999999931e+01 1.280194999999999936e+02 1.756465000000000146e+03
9.299999999999999933e-02 7.449194999999999567e-01 2.027499999999999858e+01 1.279975000000000023e+02 1.756440000000000055e+03
9.400000000000000022e-02 7.449259999999999771e-01 1.983415000000000106e+01 1.279939999999999998e+02 1.756430000000000064e+03
9.500000000000000111e-02 7.449255000000000182e-01 1.940749999999999886e+01 1.279809999999999945e+02 1.756420000000000073e+03
9.600000000000000200e-02 7.449129999999999363e-01 1.898069999999999879e+01 1.279279999999999973e+02 1.756394999999999982e+03
9.700000000000000289e-02 7.448820000000000441e-01 1.853965000000000174e+01 1.278059999999999974e+02 1.756365000000000009e+03
9.800000000000000377e-02 7.448274999999999757e-01 1.807164999999999822e+01 1.275904999999999916e+02 1.756305000000000064e+03
9.900000000000000466e-02 7.447449999999999903e-01 1.756615000000000038e+01 1.272595000000000027e+02 1.756224999999999909e+03
1.000000000000000056e-01 7.446319999999999606e-01 1.701539999999999964e+01 1.267980000000000018e+02 1.756110000000000127e+03
1.010000000000000064e-01 7.444874999999999687e-01 1.641495000000000104e+01 1.261990000000000123e+02 1.755965000000000146e+03
1.020000000000000073e-01 7.443124999999999325e-01 1.576409999999999911e+01 1.254604999999999961e+02 1.755780000000000200e+03
1.030000000000000082e-01 7.441085000000000615e-01 1.506579999999999941e+01 1.245919999999999987e+02 1.755565000000000055e+03
1.040000000000000091e-01 7.438815000000000843e-01 1.432657999999999987e+01 1.236059999999999945e+02 1.755315000000000055e+03
1.050000000000000100e-01 7.436344999999999761e-01 1.355642500000000084e+01 1.225254999999999939e+02 1.755039999999999964e+03
1.059999999999999970e-01 7.433760000000000367e-01 1.276792000000000016e+01 1.213785000000000025e+02 1.754744999999999891e+03
1.069999999999999979e-01 7.431124999999999536e-01 1.197583500000000001e+01 1.201959999999999980e+02 1.754440000000000055e+03
1.079999999999999988e-01 7.428514999999999979e-01 1.119606999999999886e+01 1.190125000000000028e+02 1.754130000000000109e+03
1.089999999999999997e-01 7.426010000000000666e-01 1.044484999999999886e+01 1.178619999999999948e+02 1.753825000000000045e+03
1.100000000000000006e-01 7.423684999999999867e-01 9.737899999999999778e+00 1.167789999999999964e+02 1.753529999999999973e+03
1.110000000000000014e-01 7.421599999999999309e-01 9.089449999999999363e+00 1.157934999999999945e+02 1.753259999999999991e+03
1.120000000000000023e-01 7.419799999999999729e-01 8.511449999999999960e+00 1.149304999999999950e+02 1.753014999999999873e+03
1.130000000000000032e-01 7.418335000000000345e-01 8.013299999999999201e+00 1.142104999999999961e+02 1.752799999999999955e+03
1.140000000000000041e-01 7.417214999999999225e-01 7.600900000000000212e+00 1.136460000000000008e+02 1.752625000000000000e+03
1.150000000000000050e-01 7.416449999999999987e-01 7.276955000000000062e+00 1.132415000000000020e+02 1.752490000000000009e+03
1.160000000000000059e-01 7.416030000000000122e-01 7.040680000000000049e+00 1.129964999999999975e+02 1.752400000000000091e+03
1.170000000000000068e-01 7.415920000000000289e-01 6.888125000000000497e+00 1.129014999999999986e+02 1.752349999999999909e+03
1.180000000000000077e-01 7.416095000000000326e-01 6.812520000000000131e+00 1.129424999999999955e+02 1.752329999999999927e+03
1.190000000000000085e-01 7.416514999999999080e-01 6.804804999999999993e+00 1.130999999999999943e+02 1.752345000000000027e+03
1.200000000000000094e-01 7.417110000000000092e-01 6.854169999999999874e+00 1.133524999999999920e+02 1.752389999999999873e+03
1.209999999999999964e-01 7.417834999999999290e-01 6.948719999999999786e+00 1.136744999999999948e+02 1.752450000000000045e+03
1.219999999999999973e-01 7.418640000000000789e-01 7.076060000000000016e+00 1.140420000000000016e+02 1.752529999999999973e+03
1.229999999999999982e-01 7.419465000000000643e-01 7.223869999999999791e+00 1.144300000000000068e+02 1.752619999999999891e+03
1.239999999999999991e-01 7.420269999999999921e-01 7.380440000000000111e+00 1.148164999999999907e+02 1.752710000000000036e+03
1.250000000000000000e-01 7.421010000000000106e-01 7.535085000000000477e+00 1.151814999999999998e+02 1.752795000000000073e+03
1.260000000000000009e-01 7.421655000000000335e-01 7.678504999999999470e+00 1.155095000000000027e+02 1.752884999999999991e+03
1.270000000000000018e-01 7.422189999999999621e-01 7.803029999999999688e+00 1.157864999999999895e+02 1.752954999999999927e+03
1.280000000000000027e-01 7.422585000000000433e-01 7.902775000000000105e+00 1.160049999999999955e+02 1.753014999999999873e+03
1.290000000000000036e-01 7.422839999999999439e-01 7.973729999999999762e+00 1.161604999999999990e+02 1.753065000000000055e+03
1.300000000000000044e-01 7.422960000000000669e-01 8.013754999999999740e+00 1.162510000000000048e+02 1.753090000000000146e+03
1.310000000000000053e-01 7.422944999999999682e-01 8.022490000000001231e+00 1.162800000000000011e+02 1.753110000000000127e+03
1.320000000000000062e-01 7.422824999999999562e-01 8.001204999999998790e+00 1.162530000000000001e+02 1.753110000000000127e+03
1.330000000000000071e-01 7.422604999999999897e-01 7.952630000000000088e+00 1.161769999999999925e+02 1.753099999999999909e+03
1.340000000000000080e-01 7.422309999999999741e-01 7.880675000000000097e+00 1.160635000000000048e+02 1.753079999999999927e+03
1.350000000000000089e-01 7.421969999999999956e-01 7.790165000000000006e+00 1.159224999999999994e+02 1.753045000000000073e+03
1.360000000000000098e-01 7.421615000000000295e-01 7.686505000000000365e+00 1.157665000000000077e+02 1.753014999999999873e+03
1.370000000000000107e-01 7.421260000000000634e-01 7.575359999999999872e+00 1.156055000000000064e+02 1.752974999999999909e+03
1.380000000000000115e-01 7.420934999999999615e-01 7.462310000000000443e+00 1.154519999999999982e+02 1.752940000000000055e+03
1.390000000000000124e-01 7.420655000000000445e-01 7.352565000000000239e+00 1.153160000000000025e+02 1.752909999999999854e+03
1.400000000000000133e-01 7.420444999999999958e-01 7.250644999999999563e+00 1.152034999999999911e+02 1.752875000000000000e+03
1.410000000000000142e-01 7.420299999999999674e-01 7.160199999999999676e+00 1.151225000000000023e+02 1.752855000000000018e+03
1.420000000000000151e-01 7.420240000000000169e-01 7.083815000000000417e+00 1.150745000000000005e+02 1.752840000000000146e+03
1.430000000000000160e-01 7.420255000000000045e-01 7.022954999999999615e+00 1.150614999999999952e+02 1.752835000000000036e+03
1.440000000000000169e-01 7.420339999999999714e-01 6.977965000000000195e+00 1.150819999999999936e+02 1.752835000000000036e+03
1.450000000000000178e-01 7.420489999999999586e-01 6.948150000000000048e+00 1.151315000000000026e+02 1.752845000000000027e+03
1.459999999999999909e-01 7.420690000000000897e-01 6.931890000000000107e+00 1.152065000000000055e+02 1.752865000000000009e+03
1.469999999999999918e-01 7.420919999999999739e-01 6.926874999999999893e+00 1.152990000000000066e+02 1.752880000000000109e+03
1.479999999999999927e-01 7.421164999999999567e-01 6.930295000000000094e+00 1.154014999999999986e+02 1.752904999999999973e+03
1.489999999999999936e-01 7.421404999999999808e-01 6.939099999999999824e+00 1.155070000000000050e+02 1.752934999999999945e+03
1.499999999999999944e-01 7.421630000000000171e-01 6.950224999999999653e+00 1.156074999999999875e+02 1.752954999999999927e+03
1.509999999999999953e-01 7.421830000000000371e-01 6.960779999999999745e+00 1.156970000000000027e+02 1.752980000000000018e+03
1.519999999999999962e-01 7.421980000000000244e-01 6.968244999999999578e+00 1.157690000000000055e+02 1.753000000000000000e+03
1.529999999999999971e-01 7.422079999999999789e-01 6.970600000000000129e+00 1.158205000000000098e+02 1.753014999999999873e+03
1.539999999999999980e-01 7.422124999999999417e-01 6.966400000000000148e+00 1.158490000000000038e+02 1.753025000000000091e+03
1.549999999999999989e-01 7.422115000000000240e-01 6.954860000000000042e+00 1.158530000000000086e+02 1.753025000000000091e+03
1.559999999999999998e-01 7.422055000000000735e-01 6.935855000000000103e+00 1.158340000000000032e+02 1.753025000000000091e+03
1.570000000000000007e-01 7.421955000000000080e-01 6.909869999999999735e+00 1.157939999999999969e+02 1.753014999999999873e+03
1.580000000000000016e-01 7.421809999999999796e-01 6.878024999999999167e+00 1.157369999999999948e+02 1.753005000000000109e+03
1.590000000000000024e-01 7.421649999999999636e-01 6.841944999999999943e+00 1.156680000000000064e+02 1.752985000000000127e+03
