# t [s], A [cm^2], U [cm/s], P [cPa], c [cm/s]
1.000000000000000021e-03 1.222250000000000003e-01 3.454730000000000301e-01 1.019504000000000019e+02 1.999719999999999800e+03
2.000000000000000042e-03 1.221990000000000021e-01 1.921635500000000052e+00 9.860079999999999245e+01 1.999325000000000045e+03
3.000000000000000062e-03 1.221160000000000023e-01 3.846466500000000011e+00 9.415309999999999491e+01 1.998119999999999891e+03
4.000000000000000083e-03 1.219969999999999943e-01 5.990272999999999293e+00 8.931370000000001141e+01 1.996420000000000073e+03
5.000000000000000104e-03 1.218634999999999996e-01 8.287454999999999572e+00 8.489834999999999354e+01 1.994534999999999854e+03
6.000000000000000125e-03 1.217310000000000059e-01 1.059343000000000146e+01 8.122254999999999825e+01 1.992675000000000182e+03
7.000000000000000146e-03 1.216045000000000043e-01 1.272167999999999921e+01 7.811629999999999541e+01 1.990920000000000073e+03
8.000000000000000167e-03 1.214849999999999958e-01 1.457314500000000024e+01 7.533474999999999966e+01 1.989304999999999836e+03
9.000000000000001055e-03 1.213770000000000127e-01 1.616130000000000067e+01 7.285819999999999652e+01 1.987860000000000127e+03
1.000000000000000194e-02 1.212820000000000009e-01 1.752020000000000266e+01 7.075594999999999857e+01 1.986599999999999909e+03
1.099999999999999936e-02 1.212010000000000032e-01 1.866460000000000008e+01 6.902724999999999511e+01 1.985535000000000082e+03
1.200000000000000025e-02 1.211329999999999907e-01 1.960324999999999918e+01 6.762035000000000196e+01 1.984655000000000200e+03
1.300000000000000114e-02 1.210759999999999892e-01 2.034055000000000035e+01 6.645865000000000578e+01 1.983924999999999955e+03
1.400000000000000203e-02 1.210289999999999977e-01 2.087964999999999804e+01 6.544489999999998986e+01 1.983329999999999927e+03
1.499999999999999944e-02 1.209879999999999983e-01 2.125050000000000239e+01 6.452599999999999625e+01 1.982819999999999936e+03
1.600000000000000033e-02 1.209540000000000060e-01 2.153439999999999799e+01 6.378784999999999883e+01 1.982405000000000200e+03
1.700000000000000122e-02 1.209310000000000107e-01 2.184994999999999976e+01 6.346490000000000009e+01 1.982125000000000000e+03
1.800000000000000211e-02 1.209230000000000027e-01 2.230299999999999727e+01 6.382590000000000430e+01 1.982039999999999964e+03
1.900000000000000300e-02 1.209345000000000003e-01 2.293605000000000160e+01 6.501040000000000418e+01 1.982194999999999936e+03
2.000000000000000042e-02 1.209650000000000031e-01 2.370749999999999957e+01 6.692439999999999145e+01 1.982605000000000018e+03
2.100000000000000130e-02 1.210104999999999931e-01 2.450905000000000200e+01 6.924809999999999377e+01 1.983204999999999927e+03
2.200000000000000219e-02 1.210634999999999906e-01 2.520795000000000030e+01 7.154120000000000346e+01 1.983914999999999964e+03
2.299999999999999961e-02 1.211144999999999861e-01 2.569239999999999924e+01 7.338675000000000637e+01 1.984605000000000018e+03
2.400000000000000050e-02 1.211559999999999859e-01 2.590395000000000181e+01 7.451290000000000191e+01 1.985175000000000182e+03
2.500000000000000139e-02 1.211834999999999996e-01 2.584720000000000084e+01 7.485284999999998945e+01 1.985565000000000055e+03
2.600000000000000228e-02 1.211959999999999982e-01 2.557775000000000176e+01 7.453114999999999668e+01 1.985755000000000109e+03
2.700000000000000316e-02 1.211959999999999982e-01 2.517630000000000123e+01 7.379185000000001082e+01 1.985780000000000200e+03
2.800000000000000058e-02 1.211875000000000036e-01 2.471950000000000003e+01 7.290250000000000341e+01 1.985684999999999945e+03
2.900000000000000147e-02 1.211760000000000059e-01 2.425820000000000221e+01 7.206874999999999432e+01 1.985534999999999854e+03
3.000000000000000236e-02 1.211629999999999929e-01 2.380835000000000079e+01 7.138545000000000584e+01 1.985375000000000000e+03
3.099999999999999978e-02 1.211504999999999943e-01 2.335535000000000139e+01 7.083369999999999322e+01 1.985214999999999918e+03
3.200000000000000067e-02 1.211379999999999957e-01 2.286789999999999878e+01 7.031470000000000198e+01 1.985050000000000182e+03
3.300000000000000155e-02 1.211240000000000094e-01 2.231550000000000011e+01 6.970539999999999736e+01 1.984865000000000009e+03
3.400000000000000244e-02 1.211065000000000058e-01 2.168444999999999823e+01 6.891505000000000791e+01 1.984644999999999982e+03
3.500000000000000333e-02 1.210845000000000116e-01 2.098724999999999952e+01 6.792625000000001023e+01 1.984360000000000127e+03
3.600000000000000422e-02 1.210584999999999994e-01 2.026409999999999911e+01 6.681064999999999543e+01 1.984029999999999973e+03
3.700000000000000511e-02 1.210314999999999863e-01 1.957515000000000072e+01 6.571585000000000321e+01 1.983670000000000073e+03
3.799999999999999906e-02 1.210060000000000024e-01 1.898695000000000022e+01 6.482840000000000202e+01 1.983329999999999927e+03
3.899999999999999994e-02 1.209854999999999958e-01 1.855695000000000050e+01 6.432524999999999693e+01 1.983059999999999945e+03
4.000000000000000083e-02 1.209749999999999992e-01 1.831989999999999696e+01 6.432750000000000057e+01 1.982909999999999854e+03
4.100000000000000172e-02 1.209760000000000002e-01 1.828009999999999735e+01 6.486899999999999977e+01 1.982909999999999854e+03
4.200000000000000261e-02 1.209884999999999988e-01 1.841044999999999732e+01 6.588684999999999548e+01 1.983059999999999945e+03
4.300000000000000350e-02 1.210109999999999936e-01 1.865820000000000078e+01 6.723390000000000555e+01 1.983349999999999909e+03
4.400000000000000439e-02 1.210410000000000097e-01 1.895459999999999923e+01 6.870730000000000359e+01 1.983730000000000018e+03
4.499999999999999833e-02 1.210735000000000006e-01 1.922684999999999889e+01 7.008559999999999945e+01 1.984150000000000091e+03
4.599999999999999922e-02 1.211035000000000028e-01 1.940809999999999746e+01 7.116454999999999131e+01 1.984549999999999955e+03
4.700000000000000011e-02 1.211274999999999991e-01 1.944590000000000174e+01 7.178530000000000655e+01 1.984865000000000009e+03
4.800000000000000100e-02 1.211414999999999853e-01 1.930630000000000024e+01 7.185089999999999577e+01 1.985055000000000064e+03
4.900000000000000189e-02 1.211430000000000007e-01 1.897475000000000023e+01 7.132949999999999591e+01 1.985085000000000036e+03
5.000000000000000278e-02 1.211310000000000164e-01 1.845374999999999943e+01 7.024734999999999729e+01 1.984934999999999945e+03
5.100000000000000366e-02 1.211059999999999914e-01 1.775900000000000034e+01 6.867404999999999404e+01 1.984615000000000009e+03
5.200000000000000455e-02 1.210690000000000099e-01 1.691505000000000081e+01 6.670544999999999902e+01 1.984130000000000109e+03
5.300000000000000544e-02 1.210219999999999907e-01 1.595120000000000005e+01 6.444769999999999754e+01 1.983514999999999873e+03
5.399999999999999939e-02 1.209665000000000046e-01 1.489860000000000007e+01 6.200475000000000136e+01 1.982789999999999964e+03
5.500000000000000028e-02 1.209050000000000125e-01 1.378859999999999886e+01 5.947220000000000084e+01 1.981990000000000009e+03
5.600000000000000117e-02 1.208404999999999896e-01 1.265227999999999930e+01 5.693470000000000653e+01 1.981139999999999873e+03
5.700000000000000205e-02 1.207745000000000068e-01 1.152081000000000088e+01 5.446784999999999854e+01 1.980269999999999982e+03
5.800000000000000294e-02 1.207090000000000107e-01 1.042575500000000055e+01 5.214180000000000348e+01 1.979405000000000200e+03
5.900000000000000383e-02 1.206464999999999899e-01 9.399665000000000603e+00 5.002439999999999998e+01 1.978574999999999818e+03
6.000000000000000472e-02 1.205880000000000007e-01 8.475799999999999557e+00 4.818399999999999750e+01 1.977804999999999836e+03
6.099999999999999867e-02 1.205370000000000053e-01 7.687540000000000262e+00 4.668909999999999627e+01 1.977115000000000009e+03
6.199999999999999956e-02 1.204935000000000034e-01 7.067099999999999937e+00 4.560705000000000098e+01 1.976539999999999964e+03
6.300000000000000044e-02 1.204604999999999981e-01 6.643829999999999458e+00 4.500019999999999953e+01 1.976099999999999909e+03
6.400000000000000133e-02 1.204404999999999920e-01 6.442489999999999384e+00 4.492130000000000223e+01 1.975815000000000055e+03
6.500000000000000222e-02 1.204329999999999984e-01 6.481539999999999857e+00 4.540919999999999845e+01 1.975699999999999818e+03
6.600000000000000311e-02 1.204405000000000059e-01 6.771824999999999761e+00 4.648475000000000534e+01 1.975779999999999973e+03
6.700000000000000400e-02 1.204635000000000011e-01 7.315804999999999225e+00 4.814844999999999686e+01 1.976059999999999945e+03
6.800000000000000488e-02 1.205014999999999975e-01 8.107355000000000089e+00 5.037975000000000136e+01 1.976550000000000182e+03
6.900000000000000577e-02 1.205549999999999955e-01 9.132260000000000488e+00 5.313819999999999766e+01 1.977230000000000018e+03
7.000000000000000666e-02 1.206224999999999936e-01 1.036909499999999973e+01 5.636615000000000464e+01 1.978099999999999909e+03
7.100000000000000755e-02 1.207024999999999904e-01 1.179080499999999887e+01 5.999289999999999878e+01 1.979144999999999982e+03
7.200000000000000844e-02 1.207944999999999991e-01 1.336624999999999908e+01 6.393919999999999959e+01 1.980345000000000027e+03
7.300000000000000933e-02 1.208960000000000035e-01 1.506180000000000163e+01 6.812234999999999729e+01 1.981670000000000073e+03
7.399999999999999634e-02 1.210044999999999871e-01 1.684370000000000189e+01 7.246110000000000184e+01 1.983099999999999909e+03
7.499999999999999722e-02 1.211184999999999901e-01 1.867909999999999826e+01 7.688004999999999711e+01 1.984605000000000018e+03
7.599999999999999811e-02 1.212359999999999965e-01 2.053800000000000026e+01 8.131334999999999980e+01 1.986164999999999964e+03
7.699999999999999900e-02 1.213554999999999912e-01 2.239414999999999978e+01 8.570740000000000691e+01 1.987755000000000109e+03
7.799999999999999989e-02 1.214749999999999996e-01 2.422599999999999909e+01 9.002259999999999707e+01 1.989349999999999909e+03
7.900000000000000078e-02 1.215940000000000076e-01 2.601720000000000255e+01 9.423349999999999227e+01 1.990950000000000045e+03
8.000000000000000167e-02 1.217119999999999869e-01 2.775654999999999717e+01 9.832920000000000016e+01 1.992525000000000091e+03
8.100000000000000255e-02 1.218269999999999909e-01 2.943764999999999787e+01 1.023100000000000023e+02 1.994085000000000036e+03
8.200000000000000344e-02 1.219405000000000072e-01 3.105845000000000056e+01 1.061865999999999985e+02 1.995615000000000009e+03
8.300000000000000433e-02 1.220520000000000077e-01 3.262004999999999910e+01 1.099765000000000015e+02 1.997115000000000009e+03
8.400000000000000522e-02 1.221610000000000057e-01 3.412615000000000265e+01 1.137000000000000028e+02 1.998605000000000018e+03
8.500000000000000611e-02 1.222690000000000027e-01 3.558155000000000001e+01 1.173795000000000073e+02 2.000069999999999936e+03
8.600000000000000699e-02 1.223764999999999992e-01 3.699150000000000205e+01 1.210340000000000060e+02 2.001525000000000091e+03
8.700000000000000788e-02 1.224824999999999942e-01 3.836059999999999803e+01 1.246779999999999973e+02 2.002974999999999909e+03
8.800000000000000877e-02 1.225880000000000025e-01 3.969230000000000302e+01 1.283209999999999980e+02 2.004414999999999964e+03
8.899999999999999578e-02 1.226939999999999975e-01 4.098830000000000240e+01 1.319629999999999939e+02 2.005860000000000127e+03
8.999999999999999667e-02 1.227995000000000059e-01 4.224824999999999875e+01 1.356005000000000109e+02 2.007304999999999836e+03
9.099999999999999756e-02 1.229044999999999999e-01 4.346979999999999933e+01 1.392205000000000155e+02 2.008744999999999891e+03
9.199999999999999845e-02 1.230094999999999938e-01 4.464849999999999852e+01 1.428040000000000020e+02 2.010179999999999836e+03
9.299999999999999933e-02 1.231125000000000136e-01 4.577824999999999989e+01 1.463290000000000077e+02 2.011595000000000027e+03
9.400000000000000022e-02 1.232145000000000046e-01 4.685139999999999816e+01 1.497690000000000055e+02 2.012994999999999891e+03
9.500000000000000111e-02 1.233139999999999931e-01 4.785929999999999751e+01 1.530955000000000155e+02 2.014365000000000009e+03
9.600000000000000200e-02 1.234105000000000063e-01 4.879269999999999641e+01 1.562780000000000200e+02 2.015695000000000164e+03
9.700000000000000289e-02 1.235030000000000017e-01 4.964215000000000089e+01 1.592880000000000109e+02 2.016974999999999909e+03
9.800000000000000377e-02 1.235914999999999930e-01 5.039844999999999686e+01 1.620994999999999777e+02 2.018200000000000045e+03
9.900000000000000466e-02 1.236740000000000061e-01 5.105294999999999561e+01 1.646854999999999905e+02 2.019349999999999909e+03
1.000000000000000056e-01 1.237515000000000004e-01 5.159839999999999804e+01 1.670275000000000034e+02 2.020425000000000182e+03
1.010000000000000064e-01 1.238219999999999876e-01 5.202844999999999942e+01 1.691065000000000111e+02 2.021404999999999973e+03
1.020000000000000073e-01 1.238854999999999956e-01 5.233885000000000076e+01 1.709114999999999895e+02 2.022295000000000073e+03
1.030000000000000082e-01 1.239415000000000100e-01 5.252725000000000222e+01 1.724345000000000141e+02 2.023085000000000036e+03
1.040000000000000091e-01 1.239905000000000035e-01 5.259349999999999881e+01 1.736754999999999995e+02 2.023775000000000091e+03
1.050000000000000100e-01 1.240320000000000034e-01 5.253965000000000174e+01 1.746374999999999886e+02 2.024349999999999909e+03
1.059999999999999970e-01 1.240650000000000086e-01 5.237014999999999532e+01 1.753315000000000055e+02 2.024835000000000036e+03
1.069999999999999979e-01 1.240914999999999935e-01 5.209170000000000300e+01 1.757725000000000080e+02 2.025210000000000036e+03
1.079999999999999988e-01 1.241104999999999986e-01 5.171304999999999552e+01 1.759809999999999945e+02 2.025485000000000127e+03
1.089999999999999997e-01 1.241234999999999977e-01 5.124445000000000050e+01 1.759809999999999945e+02 2.025674999999999955e+03
1.100000000000000006e-01 1.241299999999999903e-01 5.069794999999999874e+01 1.757990000000000066e+02 2.025779999999999973e+03
1.110000000000000014e-01 1.241314999999999918e-01 5.008605000000000018e+01 1.754644999999999868e+02 2.025809999999999945e+03
1.120000000000000023e-01 1.241280000000000022e-01 4.942194999999999538e+01 1.750060000000000002e+02 2.025775000000000091e+03
1.130000000000000032e-01 1.241214999999999957e-01 4.871869999999999834e+01 1.744534999999999911e+02 2.025684999999999945e+03
1.140000000000000041e-01 1.241109999999999991e-01 4.798890000000000100e+01 1.738329999999999984e+02 2.025549999999999955e+03
1.150000000000000050e-01 1.240980000000000139e-01 4.724410000000000309e+01 1.731699999999999875e+02 2.025375000000000000e+03
1.160000000000000059e-01 1.240839999999999999e-01 4.649469999999999459e+01 1.724839999999999804e+02 2.025184999999999945e+03
1.170000000000000068e-01 1.240684999999999982e-01 4.574925000000000352e+01 1.717925000000000182e+02 2.024969999999999800e+03
1.180000000000000077e-01 1.240515000000000090e-01 4.501475000000000648e+01 1.711084999999999923e+02 2.024744999999999891e+03
1.190000000000000085e-01 1.240349999999999925e-01 4.429625000000000057e+01 1.704385000000000048e+02 2.024510000000000218e+03
1.200000000000000094e-01 1.240175000000000027e-01 4.359669999999999845e+01 1.697870000000000061e+02 2.024275000000000091e+03
1.209999999999999964e-01 1.240010000000000001e-01 4.291724999999999568e+01 1.691525000000000034e+02 2.024039999999999964e+03
1.219999999999999973e-01 1.239834999999999965e-01 4.225735000000000241e+01 1.685310000000000059e+02 2.023800000000000182e+03
1.229999999999999982e-01 1.239669999999999939e-01 4.161469999999999914e+01 1.679145000000000039e+02 2.023559999999999945e+03
1.239999999999999991e-01 1.239494999999999902e-01 4.098574999999999591e+01 1.672909999999999968e+02 2.023319999999999936e+03
1.250000000000000000e-01 1.239320000000000005e-01 4.036589999999999634e+01 1.666494999999999891e+02 2.023079999999999927e+03
1.260000000000000009e-01 1.239139999999999964e-01 3.974974999999999881e+01 1.659759999999999991e+02 2.022829999999999927e+03
1.270000000000000018e-01 1.238949999999999912e-01 3.913139999999999930e+01 1.652570000000000050e+02 2.022565000000000055e+03
1.280000000000000027e-01 1.238744999999999985e-01 3.850515000000000043e+01 1.644780000000000086e+02 2.022275000000000091e+03
1.290000000000000036e-01 1.238529999999999909e-01 3.786534999999999940e+01 1.636270000000000095e+02 2.021974999999999909e+03
1.300000000000000044e-01 1.238289999999999946e-01 3.720694999999999908e+01 1.626945000000000050e+02 2.021644999999999982e+03
1.310000000000000053e-01 1.238029999999999964e-01 3.652595000000000169e+01 1.616719999999999970e+02 2.021289999999999964e+03
1.320000000000000062e-01 1.237749999999999961e-01 3.581920000000000215e+01 1.605544999999999902e+02 2.020894999999999982e+03
1.330000000000000071e-01 1.237439999999999929e-01 3.508504999999999541e+01 1.593410000000000082e+02 2.020474999999999909e+03
1.340000000000000080e-01 1.237110000000000154e-01 3.432325000000000159e+01 1.580339999999999918e+02 2.020019999999999982e+03
1.350000000000000089e-01 1.236750000000000071e-01 3.353515000000000157e+01 1.566384999999999934e+02 2.019529999999999973e+03
1.360000000000000098e-01 1.236369999999999969e-01 3.272355000000000302e+01 1.551650000000000205e+02 2.019009999999999991e+03
1.370000000000000107e-01 1.235964999999999980e-01 3.189280000000000115e+01 1.536260000000000048e+02 2.018454999999999927e+03
1.380000000000000115e-01 1.235549999999999982e-01 3.104844999999999899e+01 1.520375000000000227e+02 2.017880000000000109e+03
1.390000000000000124e-01 1.235114999999999963e-01 3.019735000000000014e+01 1.504175000000000182e+02 2.017284999999999854e+03
1.400000000000000133e-01 1.234669999999999934e-01 2.934710000000000107e+01 1.487864999999999895e+02 2.016675000000000182e+03
1.410000000000000142e-01 1.234220000000000039e-01 2.850584999999999880e+01 1.471650000000000205e+02 2.016054999999999836e+03
1.420000000000000151e-01 1.233770000000000006e-01 2.768209999999999837e+01 1.455745000000000005e+02 2.015440000000000055e+03
1.430000000000000160e-01 1.233329999999999982e-01 2.688414999999999822e+01 1.440345000000000084e+02 2.014835000000000036e+03
1.440000000000000169e-01 1.232894999999999963e-01 2.611990000000000123e+01 1.425649999999999977e+02 2.014244999999999891e+03
1.450000000000000178e-01 1.232485000000000108e-01 2.539645000000000152e+01 1.411814999999999998e+02 2.013670000000000073e+03
1.459999999999999909e-01 1.232084999999999986e-01 2.471999999999999886e+01 1.398990000000000009e+02 2.013125000000000000e+03
1.469999999999999918e-01 1.231714999999999893e-01 2.409544999999999959e+01 1.387275000000000205e+02 2.012615000000000009e+03
1.479999999999999927e-01 1.231369999999999965e-01 2.352649999999999864e+01 1.376740000000000066e+02 2.012139999999999873e+03
1.489999999999999936e-01 1.231060000000000071e-01 2.301520000000000010e+01 1.367425000000000068e+02 2.011700000000000045e+03
1.499999999999999944e-01 1.230774999999999925e-01 2.256250000000000000e+01 1.359335000000000093e+02 2.011309999999999945e+03
1.509999999999999953e-01 1.230524999999999952e-01 2.216774999999999807e+01 1.352439999999999998e+02 2.010960000000000036e+03
1.519999999999999962e-01 1.230305000000000010e-01 2.182910000000000039e+01 1.346684999999999945e+02 2.010655000000000200e+03
1.529999999999999971e-01 1.230114999999999958e-01 2.154384999999999906e+01 1.341984999999999957e+02 2.010389999999999873e+03
1.539999999999999980e-01 1.229955000000000076e-01 2.130805000000000149e+01 1.338255000000000052e+02 2.010164999999999964e+03
1.549999999999999989e-01 1.229819999999999941e-01 2.111739999999999995e+01 1.335380000000000109e+02 2.009974999999999909e+03
1.559999999999999998e-01 1.229714999999999975e-01 2.096690000000000254e+01 1.333249999999999886e+02 2.009819999999999936e+03
1.570000000000000007e-01 1.229625000000000024e-01 2.085144999999999982e+01 1.331744999999999948e+02 2.009694999999999936e+03
1.580000000000000016e-01 1.229554999999999954e-01 2.076585000000000036e+01 1.330765000000000100e+02 2.009599999999999909e+03
1.590000000000000024e-01 1.229505000000000042e-01 2.070504999999999995e+01 1.330194999999999936e+02 2.009519999999999982e+03
