# t [s], A [cm^2], U [cm/s], P [cPa], c [cm/s]
1.000000000000000021e-03 1.907089999999999896e-01 1.795410000000000061e-01 9.169229999999998881e+01 2.255344999999999800e+03
2.000000000000000042e-03 1.906680000000000041e-01 1.424614500000000117e+00 8.880115000000000691e+01 2.254984999999999673e+03
3.000000000000000062e-03 1.905540000000000012e-01 3.028740500000000058e+00 8.460474999999999568e+01 2.254039999999999964e+03
4.000000000000000083e-03 1.903974999999999973e-01 4.868534049999999169e+00 7.986224999999998886e+01 2.252755000000000109e+03
5.000000000000000104e-03 1.902289999999999814e-01 6.880314999999999515e+00 7.548615000000000919e+01 2.251385000000000218e+03
6.000000000000000125e-03 1.900680000000000147e-01 8.900760000000000005e+00 7.185680000000000689e+01 2.250085000000000036e+03
7.000000000000000146e-03 1.899175000000000169e-01 1.070261499999999977e+01 6.875225000000000364e+01 2.248900000000000091e+03
8.000000000000000167e-03 1.897794999999999899e-01 1.219293500000000030e+01 6.594140000000000157e+01 2.247840000000000146e+03
9.000000000000001055e-03 1.896594999999999809e-01 1.340921499999999966e+01 6.350274999999999181e+01 2.246925000000000182e+03
1.000000000000000194e-02 1.895594999999999919e-01 1.438795000000000002e+01 6.153365000000000151e+01 2.246179999999999836e+03
1.099999999999999936e-02 1.894799999999999818e-01 1.514780000000000015e+01 6.002445000000000164e+01 2.245590000000000146e+03
1.200000000000000025e-02 1.894184999999999897e-01 1.569934999999999903e+01 5.890285000000000082e+01 2.245140000000000327e+03
1.300000000000000114e-02 1.893704999999999972e-01 1.603620000000000090e+01 5.802240000000000464e+01 2.244800000000000182e+03
1.400000000000000203e-02 1.893314999999999859e-01 1.617060000000000031e+01 5.723525000000000063e+01 2.244525000000000091e+03
1.499999999999999944e-02 1.892995000000000094e-01 1.619214999999999804e+01 5.658769999999999811e+01 2.244309999999999945e+03
1.600000000000000033e-02 1.892830000000000068e-01 1.626494999999999891e+01 5.640465000000000373e+01 2.244204999999999927e+03
1.700000000000000122e-02 1.892925000000000024e-01 1.654744999999999777e+01 5.711554999999999893e+01 2.244284999999999854e+03
1.800000000000000211e-02 1.893349999999999755e-01 1.709965000000000046e+01 5.895234999999999559e+01 2.244599999999999909e+03
1.900000000000000300e-02 1.894085000000000074e-01 1.784754999999999825e+01 6.175130000000000052e+01 2.245154999999999745e+03
2.000000000000000042e-02 1.895014999999999894e-01 1.861919999999999931e+01 6.498064999999999714e+01 2.245859999999999673e+03
2.100000000000000130e-02 1.895955000000000001e-01 1.922259999999999991e+01 6.795300000000000296e+01 2.246590000000000146e+03
2.200000000000000219e-02 1.896754999999999969e-01 1.952179999999999893e+01 7.009004999999999086e+01 2.247220000000000255e+03
2.299999999999999961e-02 1.897284999999999944e-01 1.947860000000000014e+01 7.111459999999999582e+01 2.247655000000000200e+03
2.400000000000000050e-02 1.897534999999999916e-01 1.914959999999999951e+01 7.110070000000000334e+01 2.247869999999999891e+03
2.500000000000000139e-02 1.897550000000000070e-01 1.864760000000000062e+01 7.038490000000000180e+01 2.247899999999999636e+03
2.600000000000000228e-02 1.897409999999999930e-01 1.808830000000000027e+01 6.939364999999999384e+01 2.247815000000000055e+03
2.700000000000000316e-02 1.897225000000000161e-01 1.754574999999999818e+01 6.846889999999999077e+01 2.247675000000000182e+03
2.800000000000000058e-02 1.897044999999999981e-01 1.703229999999999933e+01 6.775679999999999836e+01 2.247529999999999745e+03
2.900000000000000147e-02 1.896875000000000089e-01 1.650600000000000023e+01 6.719150000000000489e+01 2.247399999999999636e+03
3.000000000000000236e-02 1.896684999999999899e-01 1.589855000000000018e+01 6.656385000000000218e+01 2.247255000000000109e+03
3.099999999999999978e-02 1.896415000000000184e-01 1.515204999999999913e+01 6.563909999999999911e+01 2.247055000000000291e+03
3.200000000000000067e-02 1.896029999999999938e-01 1.425065000000000026e+01 6.427774999999999750e+01 2.246769999999999982e+03
3.300000000000000155e-02 1.895519999999999983e-01 1.323679999999999879e+01 6.251664999999999850e+01 2.246389999999999873e+03
3.400000000000000244e-02 1.894935000000000092e-01 1.220564500000000052e+01 6.058269999999999555e+01 2.245949999999999818e+03
3.500000000000000333e-02 1.894359999999999933e-01 1.128081500000000048e+01 5.883435000000000059e+01 2.245514999999999873e+03
3.600000000000000422e-02 1.893910000000000038e-01 1.057900499999999866e+01 5.765379999999999683e+01 2.245154999999999745e+03
3.700000000000000511e-02 1.893660000000000065e-01 1.017736999999999981e+01 5.733004999999999995e+01 2.244949999999999818e+03
3.799999999999999906e-02 1.893674999999999942e-01 1.009347999999999956e+01 5.797334999999999638e+01 2.244945000000000164e+03
3.899999999999999994e-02 1.893964999999999954e-01 1.028336499999999987e+01 5.948584999999999923e+01 2.245135000000000218e+03
4.000000000000000083e-02 1.894474999999999909e-01 1.065450500000000034e+01 6.159015000000000128e+01 2.245510000000000218e+03
4.100000000000000172e-02 1.895104999999999984e-01 1.108915000000000006e+01 6.390050000000000097e+01 2.245980000000000018e+03
4.200000000000000261e-02 1.895755000000000079e-01 1.146900000000000119e+01 6.601019999999999754e+01 2.246474999999999909e+03
4.300000000000000350e-02 1.896319999999999950e-01 1.169614999999999938e+01 6.757184999999999775e+01 2.246904999999999745e+03
4.400000000000000439e-02 1.896700000000000053e-01 1.170570000000000022e+01 6.835184999999999889e+01 2.247210000000000036e+03
4.499999999999999833e-02 1.896845000000000059e-01 1.146884999999999977e+01 6.825135000000000218e+01 2.247335000000000036e+03
4.599999999999999922e-02 1.896734999999999949e-01 1.098859000000000030e+01 6.729599999999999227e+01 2.247265000000000327e+03
4.700000000000000011e-02 1.896384999999999876e-01 1.029017999999999944e+01 6.560200000000000387e+01 2.247010000000000218e+03
4.800000000000000100e-02 1.895820000000000005e-01 9.409955000000000069e+00 6.333310000000000173e+01 2.246585000000000036e+03
4.900000000000000189e-02 1.895080000000000098e-01 8.386569999999998970e+00 6.065999999999999659e+01 2.246034999999999854e+03
5.000000000000000278e-02 1.894220000000000070e-01 7.255029999999999646e+00 5.773259999999999792e+01 2.245375000000000000e+03
5.100000000000000366e-02 1.893265000000000087e-01 6.045424999999999827e+00 5.466734999999999900e+01 2.244654999999999745e+03
5.200000000000000455e-02 1.892264999999999919e-01 4.784390000000000143e+00 5.154970000000000141e+01 2.243885000000000218e+03
5.300000000000000544e-02 1.891229999999999856e-01 3.498459499999999611e+00 4.844559999999999889e+01 2.243095000000000255e+03
5.399999999999999939e-02 1.890195000000000070e-01 2.217527500000000096e+00 4.541710000000000491e+01 2.242305000000000291e+03
5.500000000000000028e-02 1.889184999999999892e-01 9.771549999999999958e-01 4.253520000000000323e+01 2.241524999999999636e+03
5.600000000000000117e-02 1.888225000000000042e-01 -1.810049999999998604e-01 3.988745000000000118e+01 2.240789999999999964e+03
5.700000000000000205e-02 1.887355000000000005e-01 -1.210779999999999967e+00 3.757784999999999798e+01 2.240114999999999782e+03
5.800000000000000294e-02 1.886605000000000087e-01 -2.064661500000000149e+00 3.572020000000000550e+01 2.239524999999999636e+03
5.900000000000000383e-02 1.886010000000000186e-01 -2.697954999999999881e+00 3.442634999999999934e+01 2.239055000000000291e+03
6.000000000000000472e-02 1.885610000000000064e-01 -3.072994999999999699e+00 3.379339999999999833e+01 2.238734999999999673e+03
6.099999999999999867e-02 1.885430000000000161e-01 -3.162675000000000125e+00 3.389164999999999850e+01 2.238574999999999818e+03
6.199999999999999956e-02 1.885495000000000088e-01 -2.952844999999999942e+00 3.475615000000000521e+01 2.238605000000000018e+03
6.300000000000000044e-02 1.885804999999999843e-01 -2.443324999999999747e+00 3.638235000000000241e+01 2.238820000000000164e+03
6.400000000000000133e-02 1.886359999999999981e-01 -1.647571000000000119e+00 3.872710000000000008e+01 2.239224999999999909e+03
6.500000000000000222e-02 1.887150000000000216e-01 -5.912000000000000588e-01 4.171299999999999386e+01 2.239800000000000182e+03
6.600000000000000311e-02 1.888135000000000230e-01 6.903099999999999792e-01 4.523569999999999425e+01 2.240539999999999964e+03
6.700000000000000400e-02 1.889299999999999868e-01 2.154450000000000198e+00 4.917364999999999498e+01 2.241414999999999964e+03
6.800000000000000488e-02 1.890590000000000048e-01 3.754856499999999819e+00 5.339770000000000039e+01 2.242394999999999982e+03
6.900000000000000577e-02 1.891979999999999773e-01 5.444525000000000503e+00 5.778134999999999621e+01 2.243454999999999927e+03
7.000000000000000666e-02 1.893429999999999835e-01 7.178810000000000358e+00 6.220969999999999800e+01 2.244555000000000291e+03
7.100000000000000755e-02 1.894890000000000185e-01 8.918005000000000848e+00 6.658674999999999500e+01 2.245684999999999945e+03
7.200000000000000844e-02 1.896349999999999980e-01 1.062937499999999957e+01 7.084074999999999989e+01 2.246805000000000291e+03
7.300000000000000933e-02 1.897774999999999879e-01 1.228812500000000085e+01 7.492650000000000432e+01 2.247909999999999854e+03
7.399999999999999634e-02 1.899154999999999871e-01 1.387770000000000081e+01 7.882465000000000543e+01 2.248980000000000018e+03
7.499999999999999722e-02 1.900490000000000235e-01 1.538925000000000054e+01 8.253880000000000905e+01 2.250019999999999982e+03
7.599999999999999811e-02 1.901774999999999993e-01 1.682010000000000005e+01 8.608965000000000600e+01 2.251019999999999982e+03
7.699999999999999900e-02 1.903015000000000123e-01 1.817225000000000179e+01 8.950844999999999629e+01 2.251994999999999891e+03
7.799999999999999989e-02 1.904219999999999802e-01 1.945040000000000191e+01 9.283045000000001323e+01 2.252935000000000400e+03
7.900000000000000078e-02 1.905399999999999872e-01 2.066055000000000064e+01 9.608875000000000455e+01 2.253855000000000018e+03
8.000000000000000167e-02 1.906559999999999921e-01 2.180814999999999770e+01 9.930975000000000819e+01 2.254769999999999982e+03
8.100000000000000255e-02 1.907705000000000095e-01 2.289764999999999873e+01 1.025100000000000051e+02 2.255670000000000073e+03
8.200000000000000344e-02 1.908845000000000125e-01 2.393209999999999837e+01 1.056974999999999909e+02 2.256560000000000400e+03
8.300000000000000433e-02 1.909980000000000011e-01 2.491239999999999810e+01 1.088689999999999998e+02 2.257449999999999818e+03
8.400000000000000522e-02 1.911105000000000165e-01 2.583814999999999884e+01 1.120150000000000006e+02 2.258335000000000036e+03
8.500000000000000611e-02 1.912214999999999887e-01 2.670730000000000004e+01 1.151185000000000116e+02 2.259215000000000146e+03
8.600000000000000699e-02 1.913314999999999877e-01 2.751639999999999731e+01 1.181589999999999918e+02 2.260074999999999818e+03
8.700000000000000788e-02 1.914385000000000114e-01 2.826104999999999734e+01 1.211124999999999972e+02 2.260920000000000073e+03
8.800000000000000877e-02 1.915430000000000188e-01 2.893570000000000064e+01 1.239534999999999911e+02 2.261739999999999782e+03
8.899999999999999578e-02 1.916430000000000078e-01 2.953389999999999915e+01 1.266555000000000035e+02 2.262529999999999745e+03
8.999999999999999667e-02 1.917379999999999918e-01 3.004849999999999710e+01 1.291910000000000025e+02 2.263280000000000200e+03
9.099999999999999756e-02 1.918269999999999975e-01 3.047204999999999941e+01 1.315324999999999989e+02 2.263984999999999673e+03
9.199999999999999845e-02 1.919095000000000106e-01 3.079700000000000060e+01 1.336535000000000082e+02 2.264639999999999873e+03
9.299999999999999933e-02 1.919845000000000024e-01 3.101630000000000109e+01 1.355289999999999964e+02 2.265234999999999673e+03
9.400000000000000022e-02 1.920505000000000129e-01 3.112424999999999997e+01 1.371390000000000100e+02 2.265765000000000327e+03
9.500000000000000111e-02 1.921074999999999866e-01 3.111674999999999969e+01 1.384680000000000177e+02 2.266220000000000255e+03
9.600000000000000200e-02 1.921554999999999791e-01 3.099224999999999852e+01 1.395074999999999932e+02 2.266605000000000018e+03
9.700000000000000289e-02 1.921934999999999893e-01 3.075205000000000055e+01 1.402580000000000098e+02 2.266909999999999854e+03
9.800000000000000377e-02 1.922214999999999896e-01 3.040035000000000309e+01 1.407280000000000086e+02 2.267144999999999982e+03
9.900000000000000466e-02 1.922405000000000086e-01 2.994450000000000145e+01 1.409345000000000141e+02 2.267304999999999836e+03
1.000000000000000056e-01 1.922504999999999908e-01 2.939454999999999885e+01 1.409019999999999868e+02 2.267389999999999873e+03
1.010000000000000064e-01 1.922524999999999928e-01 2.876299999999999812e+01 1.406625000000000227e+02 2.267414999999999964e+03
1.020000000000000073e-01 1.922475000000000156e-01 2.806394999999999840e+01 1.402510000000000048e+02 2.267390000000000327e+03
1.030000000000000082e-01 1.922375000000000056e-01 2.731250000000000000e+01 1.397049999999999841e+02 2.267309999999999945e+03
1.040000000000000091e-01 1.922220000000000040e-01 2.652430000000000021e+01 1.390629999999999882e+02 2.267194999999999709e+03
1.050000000000000100e-01 1.922034999999999993e-01 2.571450000000000102e+01 1.383614999999999782e+02 2.267059999999999945e+03
1.059999999999999970e-01 1.921825000000000061e-01 2.489744999999999919e+01 1.376334999999999980e+02 2.266894999999999982e+03
1.069999999999999979e-01 1.921599999999999975e-01 2.408585000000000065e+01 1.369070000000000107e+02 2.266724999999999909e+03
1.079999999999999988e-01 1.921384999999999899e-01 2.329074999999999918e+01 1.362044999999999959e+02 2.266550000000000182e+03
1.089999999999999997e-01 1.921164999999999956e-01 2.252080000000000126e+01 1.355444999999999993e+02 2.266380000000000109e+03
1.100000000000000006e-01 1.920955000000000024e-01 2.178219999999999956e+01 1.349350000000000023e+02 2.266215000000000146e+03
1.110000000000000014e-01 1.920755000000000101e-01 2.107845000000000013e+01 1.343799999999999955e+02 2.266054999999999836e+03
1.120000000000000023e-01 1.920574999999999921e-01 2.041040000000000276e+01 1.338774999999999977e+02 2.265909999999999854e+03
1.130000000000000032e-01 1.920405000000000029e-01 1.977649999999999864e+01 1.334164999999999850e+02 2.265779999999999745e+03
1.140000000000000041e-01 1.920244999999999869e-01 1.917280000000000229e+01 1.329830000000000041e+02 2.265649999999999636e+03
1.150000000000000050e-01 1.920089999999999852e-01 1.859340000000000259e+01 1.325584999999999809e+02 2.265525000000000091e+03
1.160000000000000059e-01 1.919934999999999836e-01 1.803110000000000213e+01 1.321209999999999809e+02 2.265399999999999636e+03
1.170000000000000068e-01 1.919774999999999954e-01 1.747765000000000057e+01 1.316479999999999961e+02 2.265269999999999982e+03
1.180000000000000077e-01 1.919595000000000051e-01 1.692445000000000022e+01 1.311159999999999854e+02 2.265130000000000109e+03
1.190000000000000085e-01 1.919399999999999995e-01 1.636335000000000051e+01 1.305040000000000191e+02 2.264975000000000364e+03
1.200000000000000094e-01 1.919180000000000053e-01 1.578684999999999938e+01 1.297939999999999827e+02 2.264795000000000073e+03
1.209999999999999964e-01 1.918914999999999926e-01 1.518880000000000052e+01 1.289714999999999918e+02 2.264595000000000255e+03
1.219999999999999973e-01 1.918620000000000048e-01 1.456510000000000105e+01 1.280300000000000011e+02 2.264364999999999782e+03
1.229999999999999982e-01 1.918285000000000129e-01 1.391355000000000075e+01 1.269660000000000082e+02 2.264099999999999909e+03
1.239999999999999991e-01 1.917909999999999893e-01 1.323444999999999894e+01 1.257855000000000132e+02 2.263809999999999945e+03
1.250000000000000000e-01 1.917499999999999760e-01 1.253054999999999986e+01 1.244994999999999976e+02 2.263489999999999782e+03
1.260000000000000009e-01 1.917055000000000009e-01 1.180713000000000079e+01 1.231260000000000048e+02 2.263139999999999873e+03
1.270000000000000018e-01 1.916585000000000094e-01 1.107127499999999998e+01 1.216885000000000048e+02 2.262775000000000091e+03
1.280000000000000027e-01 1.916090000000000015e-01 1.033211000000000013e+01 1.202139999999999986e+02 2.262394999999999982e+03
1.290000000000000036e-01 1.915589999999999793e-01 9.599800000000000111e+00 1.187334999999999923e+02 2.262000000000000000e+03
1.300000000000000044e-01 1.915084999999999982e-01 8.885259999999998826e+00 1.172764999999999986e+02 2.261605000000000018e+03
1.310000000000000053e-01 1.914595000000000047e-01 8.199510000000000076e+00 1.158750000000000000e+02 2.261220000000000255e+03
1.320000000000000062e-01 1.914120000000000266e-01 7.552864999999999718e+00 1.145570000000000022e+02 2.260849999999999909e+03
1.330000000000000071e-01 1.913670000000000093e-01 6.954734999999999445e+00 1.133455000000000013e+02 2.260494999999999891e+03
1.340000000000000080e-01 1.913259999999999961e-01 6.412935000000000052e+00 1.122620000000000005e+02 2.260170000000000073e+03
1.350000000000000089e-01 1.912889999999999868e-01 5.933505000000000251e+00 1.113190000000000026e+02 2.259875000000000000e+03
1.360000000000000098e-01 1.912564999999999960e-01 5.520469999999999544e+00 1.105259999999999962e+02 2.259619999999999891e+03
1.370000000000000107e-01 1.912289999999999823e-01 5.175800000000000622e+00 1.098845000000000027e+02 2.259394999999999982e+03
1.380000000000000115e-01 1.912065000000000015e-01 4.899485000000000312e+00 1.093924999999999983e+02 2.259220000000000255e+03
1.390000000000000124e-01 1.911884999999999835e-01 4.689650000000000318e+00 1.090434999999999945e+02 2.259070000000000164e+03
1.400000000000000133e-01 1.911754999999999982e-01 4.542785000000000295e+00 1.088259999999999934e+02 2.258960000000000036e+03
1.410000000000000142e-01 1.911664999999999892e-01 4.454005000000000436e+00 1.087259999999999991e+02 2.258885000000000218e+03
1.420000000000000151e-01 1.911619999999999986e-01 4.417310000000000514e+00 1.087280000000000086e+02 2.258845000000000255e+03
1.430000000000000160e-01 1.911605000000000110e-01 4.425864999999999938e+00 1.088149999999999977e+02 2.258824999999999818e+03
1.440000000000000169e-01 1.911614999999999842e-01 4.472300000000000608e+00 1.089685000000000059e+02 2.258835000000000036e+03
1.450000000000000178e-01 1.911654999999999882e-01 4.548985000000000056e+00 1.091719999999999970e+02 2.258859999999999673e+03
1.459999999999999909e-01 1.911705000000000210e-01 4.648245000000000182e+00 1.094070000000000107e+02 2.258894999999999982e+03
1.469999999999999918e-01 1.911769999999999858e-01 4.762660000000000338e+00 1.096589999999999918e+02 2.258939999999999600e+03
1.479999999999999927e-01 1.911839999999999928e-01 4.885260000000000602e+00 1.099124999999999943e+02 2.258989999999999782e+03
1.489999999999999936e-01 1.911909999999999998e-01 5.009710000000000107e+00 1.101554999999999893e+02 2.259050000000000182e+03
1.499999999999999944e-01 1.911984999999999935e-01 5.130510000000000126e+00 1.103774999999999977e+02 2.259105000000000018e+03
1.509999999999999953e-01 1.912050000000000138e-01 5.243114999999999526e+00 1.105709999999999980e+02 2.259154999999999745e+03
1.519999999999999962e-01 1.912110000000000198e-01 5.344010000000000815e+00 1.107300000000000040e+02 2.259199999999999818e+03
1.529999999999999971e-01 1.912155000000000105e-01 5.430765000000000065e+00 1.108520000000000039e+02 2.259234999999999673e+03
1.539999999999999980e-01 1.912194999999999867e-01 5.502034999999999343e+00 1.109369999999999976e+02 2.259265000000000327e+03
1.549999999999999989e-01 1.912220000000000031e-01 5.557455000000000034e+00 1.109865000000000066e+02 2.259289999999999964e+03
1.559999999999999998e-01 1.912240000000000051e-01 5.597574999999999967e+00 1.110039999999999907e+02 2.259305000000000291e+03
1.570000000000000007e-01 1.912240000000000051e-01 5.623685000000000045e+00 1.109954999999999927e+02 2.259310000000000400e+03
1.580000000000000016e-01 1.912240000000000051e-01 5.637599999999999945e+00 1.109664999999999964e+02 2.259309999999999945e+03
1.590000000000000024e-01 1.912234999999999907e-01 5.641485000000000305e+00 1.109240000000000066e+02 2.259304999999999836e+03
