# t [s], A [cm^2], U [cm/s], P [cPa], c [cm/s]
1.000000000000000021e-03 1.437575000000000103e-01 5.112503000000000464e-01 9.267095000000000482e+01 1.912594999999999800e+03
2.000000000000000042e-03 1.437144999999999950e-01 2.245886500000000119e+00 8.899520000000001119e+01 1.912105000000000018e+03
3.000000000000000062e-03 1.435984999999999900e-01 4.283979999999999677e+00 8.429605000000000814e+01 1.910820000000000164e+03
4.000000000000000083e-03 1.434420000000000139e-01 6.527815000000000367e+00 7.957810000000000628e+01 1.909099999999999909e+03
5.000000000000000104e-03 1.432755000000000001e-01 8.889400000000000190e+00 7.564589999999999748e+01 1.907284999999999854e+03
6.000000000000000125e-03 1.431149999999999922e-01 1.116416000000000075e+01 7.256034999999999968e+01 1.905559999999999945e+03
7.000000000000000146e-03 1.429640000000000077e-01 1.316007499999999908e+01 6.994454999999999245e+01 1.903960000000000036e+03
8.000000000000000167e-03 1.428254999999999941e-01 1.484237500000000054e+01 6.759829999999999472e+01 1.902519999999999982e+03
9.000000000000001055e-03 1.427035000000000109e-01 1.626379999999999981e+01 6.559345000000000425e+01 1.901259999999999991e+03
1.000000000000000194e-02 1.425994999999999902e-01 1.745074999999999932e+01 6.396240000000000236e+01 1.900199999999999818e+03
1.099999999999999936e-02 1.425119999999999998e-01 1.841304999999999836e+01 6.264354999999999762e+01 1.899319999999999936e+03
1.200000000000000025e-02 1.424400000000000110e-01 1.916794999999999760e+01 6.157670000000000243e+01 1.898605000000000018e+03
1.300000000000000114e-02 1.423809999999999798e-01 1.972745000000000104e+01 6.069509999999999650e+01 1.898025000000000091e+03
1.400000000000000203e-02 1.423314999999999997e-01 2.010855000000000103e+01 5.992385000000000161e+01 1.897545000000000073e+03
1.499999999999999944e-02 1.422904999999999864e-01 2.037559999999999860e+01 5.928875000000000028e+01 1.897164999999999964e+03
1.600000000000000033e-02 1.422614999999999852e-01 2.065520000000000067e+01 5.900744999999999862e+01 1.896894999999999982e+03
1.700000000000000122e-02 1.422509999999999886e-01 2.108885000000000076e+01 5.941420000000000101e+01 1.896805000000000064e+03
1.800000000000000211e-02 1.422665000000000179e-01 2.175590000000000046e+01 6.074699999999999989e+01 1.896974999999999909e+03
1.900000000000000300e-02 1.423105000000000064e-01 2.262290000000000134e+01 6.295644999999999669e+01 1.897430000000000064e+03
2.000000000000000042e-02 1.423780000000000046e-01 2.355020000000000024e+01 6.566415000000000646e+01 1.898110000000000127e+03
2.100000000000000130e-02 1.424559999999999993e-01 2.434570000000000078e+01 6.828319999999999368e+01 1.898914999999999964e+03
2.200000000000000219e-02 1.425295000000000034e-01 2.483594999999999686e+01 7.022685000000001310e+01 1.899680000000000064e+03
2.299999999999999961e-02 1.425845000000000029e-01 2.492269999999999897e+01 7.110490000000000066e+01 1.900264999999999873e+03
2.400000000000000050e-02 1.426125000000000032e-01 2.460699999999999932e+01 7.083334999999999582e+01 1.900579999999999927e+03
2.500000000000000139e-02 1.426120000000000165e-01 2.397664999999999935e+01 6.962694999999999368e+01 1.900605000000000018e+03
2.600000000000000228e-02 1.425879999999999925e-01 2.316660000000000252e+01 6.789220000000000255e+01 1.900389999999999873e+03
2.700000000000000316e-02 1.425509999999999833e-01 2.231090000000000018e+01 6.607294999999999163e+01 1.900025000000000091e+03
2.800000000000000058e-02 1.425095000000000112e-01 2.150480000000000302e+01 6.451115000000000066e+01 1.899605000000000018e+03
2.900000000000000147e-02 1.424710000000000143e-01 2.078689999999999927e+01 6.336695000000000277e+01 1.899220000000000027e+03
3.000000000000000236e-02 1.424400000000000110e-01 2.014390000000000214e+01 6.261435000000000173e+01 1.898900000000000091e+03
3.099999999999999978e-02 1.424144999999999994e-01 1.953089999999999904e+01 6.209615000000000862e+01 1.898639999999999873e+03
3.200000000000000067e-02 1.423935000000000062e-01 1.889795000000000158e+01 6.161034999999999684e+01 1.898420000000000073e+03
3.300000000000000155e-02 1.423715000000000119e-01 1.821395000000000053e+01 6.099500000000000455e+01 1.898199999999999818e+03
3.400000000000000244e-02 1.423460000000000003e-01 1.748150000000000048e+01 6.018834999999999980e+01 1.897945000000000164e+03
3.500000000000000333e-02 1.423165000000000124e-01 1.673965000000000103e+01 5.924975000000000591e+01 1.897644999999999982e+03
3.600000000000000422e-02 1.422855000000000092e-01 1.605460000000000065e+01 5.834085000000000321e+01 1.897335000000000036e+03
3.700000000000000511e-02 1.422579999999999956e-01 1.550195000000000078e+01 5.767475000000000307e+01 1.897055000000000064e+03
3.799999999999999906e-02 1.422390000000000043e-01 1.514549999999999841e+01 5.745080000000000098e+01 1.896855000000000018e+03
3.899999999999999994e-02 1.422329999999999983e-01 1.501940000000000097e+01 5.779364999999999952e+01 1.896779999999999973e+03
4.000000000000000083e-02 1.422434999999999949e-01 1.511764999999999937e+01 5.871389999999999532e+01 1.896875000000000000e+03
4.100000000000000172e-02 1.422694999999999932e-01 1.539284999999999926e+01 6.009810000000000230e+01 1.897130000000000109e+03
4.200000000000000261e-02 1.423090000000000188e-01 1.576414999999999900e+01 6.172849999999999682e+01 1.897514999999999873e+03
4.300000000000000350e-02 1.423544999999999949e-01 1.613125000000000142e+01 6.332370000000000232e+01 1.897964999999999918e+03
4.400000000000000439e-02 1.423989999999999978e-01 1.639054999999999751e+01 6.459014999999999418e+01 1.898414999999999964e+03
4.499999999999999833e-02 1.424340000000000050e-01 1.645029999999999859e+01 6.526974999999998772e+01 1.898775000000000091e+03
4.599999999999999922e-02 1.424529999999999963e-01 1.624184999999999945e+01 6.517725000000000080e+01 1.898970000000000027e+03
4.700000000000000011e-02 1.424500000000000210e-01 1.572609999999999886e+01 6.421949999999999648e+01 1.898944999999999936e+03
4.800000000000000100e-02 1.424210000000000198e-01 1.489414999999999978e+01 6.239770000000000039e+01 1.898664999999999964e+03
4.900000000000000189e-02 1.423670000000000213e-01 1.376474999999999937e+01 5.979484999999999673e+01 1.898125000000000000e+03
5.000000000000000278e-02 1.422879999999999978e-01 1.237795500000000004e+01 5.655400000000000205e+01 1.897329999999999927e+03
5.100000000000000366e-02 1.421884999999999954e-01 1.078889500000000012e+01 5.285334999999999894e+01 1.896324999999999818e+03
5.200000000000000455e-02 1.420724999999999905e-01 9.060985000000000511e+00 4.888330000000000553e+01 1.895155000000000200e+03
5.300000000000000544e-02 1.419460000000000166e-01 7.261194999999999844e+00 4.482945000000000135e+01 1.893869999999999891e+03
5.399999999999999939e-02 1.418134999999999812e-01 5.456381000000000370e+00 4.086175000000000068e+01 1.892530000000000200e+03
5.500000000000000028e-02 1.416810000000000014e-01 3.711154000000000064e+00 3.713074999999999903e+01 1.891180000000000064e+03
5.600000000000000117e-02 1.415534999999999988e-01 2.086969999999999992e+00 3.376740000000000208e+01 1.889880000000000109e+03
5.700000000000000205e-02 1.414349999999999774e-01 6.413999999999999702e-01 3.088569999999999993e+01 1.888674999999999955e+03
5.800000000000000294e-02 1.413309999999999844e-01 -5.724999999999997868e-01 2.858474999999999966e+01 1.887610000000000127e+03
5.900000000000000383e-02 1.412434999999999941e-01 -1.507247000000000003e+00 2.695015000000000072e+01 1.886710000000000036e+03
6.000000000000000472e-02 1.411769999999999969e-01 -2.122387499999999871e+00 2.605250000000000199e+01 1.886025000000000091e+03
6.099999999999999867e-02 1.411344999999999961e-01 -2.386369999999999880e+00 2.594490000000000052e+01 1.885570000000000164e+03
6.199999999999999956e-02 1.411175000000000068e-01 -2.278459999999999930e+00 2.665850000000000009e+01 1.885375000000000000e+03
6.300000000000000044e-02 1.411274999999999891e-01 -1.790469000000000088e+00 2.819829999999999970e+01 1.885454999999999927e+03
6.400000000000000133e-02 1.411649999999999849e-01 -9.277305000000001245e-01 3.054035000000000011e+01 1.885809999999999945e+03
6.500000000000000222e-02 1.412300000000000222e-01 2.906649999999999512e-01 3.363054999999999950e+01 1.886440000000000055e+03
6.600000000000000311e-02 1.413210000000000022e-01 1.832770000000000010e+00 3.738674999999999926e+01 1.887340000000000146e+03
6.700000000000000400e-02 1.414349999999999774e-01 3.655601400000000112e+00 4.170284999999999798e+01 1.888480000000000018e+03
6.800000000000000488e-02 1.415700000000000014e-01 5.707724999999999937e+00 4.645555000000000234e+01 1.889825000000000045e+03
6.900000000000000577e-02 1.417215000000000003e-01 7.932325000000000514e+00 5.151245000000000118e+01 1.891355000000000018e+03
7.000000000000000666e-02 1.418860000000000121e-01 1.027035000000000053e+01 5.673990000000000578e+01 1.893014999999999873e+03
7.100000000000000755e-02 1.420589999999999908e-01 1.266347999999999985e+01 6.201099999999999568e+01 1.894769999999999982e+03
7.200000000000000844e-02 1.422370000000000023e-01 1.505690000000000062e+01 6.721164999999999168e+01 1.896585000000000036e+03
7.300000000000000933e-02 1.424144999999999994e-01 1.740119999999999933e+01 7.224524999999999864e+01 1.898405000000000200e+03
7.399999999999999634e-02 1.425899999999999945e-01 1.965415000000000134e+01 7.703544999999999732e+01 1.900210000000000036e+03
7.499999999999999722e-02 1.427599999999999980e-01 2.178195000000000192e+01 8.152785000000000082e+01 1.901960000000000036e+03
7.599999999999999811e-02 1.429214999999999791e-01 2.375974999999999682e+01 8.569044999999999845e+01 1.903639999999999873e+03
7.699999999999999900e-02 1.430750000000000077e-01 2.557215000000000060e+01 8.951269999999999527e+01 1.905235000000000127e+03
7.799999999999999989e-02 1.432184999999999986e-01 2.721325000000000216e+01 9.300469999999999970e+01 1.906730000000000018e+03
7.900000000000000078e-02 1.433520000000000072e-01 2.868629999999999924e+01 9.619464999999999577e+01 1.908130000000000109e+03
8.000000000000000167e-02 1.434759999999999924e-01 3.000254999999999939e+01 9.912694999999999368e+01 1.909430000000000064e+03
8.100000000000000255e-02 1.435915000000000108e-01 3.118029999999999902e+01 1.018578499999999991e+02 1.910650000000000091e+03
8.200000000000000344e-02 1.437005000000000088e-01 3.224344999999999573e+01 1.044517500000000041e+02 1.911795000000000073e+03
8.300000000000000433e-02 1.438045000000000018e-01 3.321920000000000073e+01 1.069770000000000039e+02 1.912900000000000091e+03
8.400000000000000522e-02 1.439054999999999918e-01 3.413629999999999853e+01 1.095014999999999930e+02 1.913970000000000027e+03
8.500000000000000611e-02 1.440059999999999951e-01 3.502289999999999992e+01 1.120875000000000057e+02 1.915030000000000200e+03
8.600000000000000699e-02 1.441069999999999851e-01 3.590449999999999875e+01 1.147860000000000014e+02 1.916094999999999800e+03
8.700000000000000788e-02 1.442110000000000058e-01 3.680230000000000246e+01 1.176370000000000005e+02 1.917190000000000055e+03
8.800000000000000877e-02 1.443190000000000028e-01 3.773160000000000025e+01 1.206610000000000014e+02 1.918329999999999927e+03
8.899999999999999578e-02 1.444320000000000048e-01 3.870100000000000051e+01 1.238640000000000043e+02 1.919519999999999982e+03
8.999999999999999667e-02 1.445500000000000118e-01 3.971209999999999951e+01 1.272335000000000065e+02 1.920759999999999991e+03
9.099999999999999756e-02 1.446724999999999817e-01 4.075924999999999443e+01 1.307395000000000209e+02 1.922054999999999836e+03
9.199999999999999845e-02 1.447995000000000254e-01 4.183044999999999902e+01 1.343389999999999986e+02 1.923389999999999873e+03
9.299999999999999933e-02 1.449290000000000023e-01 4.290824999999999534e+01 1.379755000000000109e+02 1.924759999999999991e+03
9.400000000000000022e-02 1.450604999999999811e-01 4.397079999999999700e+01 1.415869999999999891e+02 1.926144999999999982e+03
9.500000000000000111e-02 1.451905000000000001e-01 4.499349999999999739e+01 1.451069999999999993e+02 1.927519999999999982e+03
9.600000000000000200e-02 1.453185000000000171e-01 4.595059999999999434e+01 1.484679999999999893e+02 1.928875000000000000e+03
9.700000000000000289e-02 1.454409999999999870e-01 4.681650000000000489e+01 1.516064999999999827e+02 1.930184999999999945e+03
9.800000000000000377e-02 1.455569999999999919e-01 4.756714999999999804e+01 1.544680000000000177e+02 1.931420000000000073e+03
9.900000000000000466e-02 1.456645000000000023e-01 4.818160000000000309e+01 1.570035000000000025e+02 1.932565000000000055e+03
1.000000000000000056e-01 1.457614999999999883e-01 4.864239999999999498e+01 1.591769999999999925e+02 1.933605000000000018e+03
1.010000000000000064e-01 1.458470000000000044e-01 4.893684999999999974e+01 1.609644999999999868e+02 1.934525000000000091e+03
1.020000000000000073e-01 1.459194999999999798e-01 4.905734999999999957e+01 1.623534999999999968e+02 1.935309999999999945e+03
1.030000000000000082e-01 1.459799999999999986e-01 4.900140000000000384e+01 1.633449999999999989e+02 1.935960000000000036e+03
1.040000000000000091e-01 1.460259999999999891e-01 4.877190000000000225e+01 1.639504999999999768e+02 1.936470000000000027e+03
1.050000000000000100e-01 1.460589999999999944e-01 4.837664999999999793e+01 1.641940000000000168e+02 1.936835000000000036e+03
1.059999999999999970e-01 1.460799999999999876e-01 4.782819999999999538e+01 1.641069999999999993e+02 1.937075000000000045e+03
1.069999999999999979e-01 1.460890000000000244e-01 4.714289999999999736e+01 1.637295000000000016e+02 1.937184999999999945e+03
1.079999999999999988e-01 1.460879999999999956e-01 4.634044999999999703e+01 1.631069999999999993e+02 1.937180000000000064e+03
1.089999999999999997e-01 1.460770000000000124e-01 4.544280000000000541e+01 1.622880000000000109e+02 1.937079999999999927e+03
1.100000000000000006e-01 1.460584999999999800e-01 4.447325000000000017e+01 1.613240000000000123e+02 1.936894999999999982e+03
1.110000000000000014e-01 1.460339999999999971e-01 4.345579999999999643e+01 1.602655000000000030e+02 1.936644999999999982e+03
1.120000000000000023e-01 1.460049999999999959e-01 4.241375000000000028e+01 1.591599999999999966e+02 1.936345000000000027e+03
1.130000000000000032e-01 1.459735000000000060e-01 4.136925000000000097e+01 1.580514999999999759e+02 1.936010000000000218e+03
1.140000000000000041e-01 1.459400000000000142e-01 4.034234999999999616e+01 1.569795000000000016e+02 1.935659999999999854e+03
1.150000000000000050e-01 1.459064999999999945e-01 3.935030000000000427e+01 1.559739999999999895e+02 1.935309999999999945e+03
1.160000000000000059e-01 1.458745000000000180e-01 3.840704999999999814e+01 1.550614999999999952e+02 1.934965000000000146e+03
1.170000000000000068e-01 1.458435000000000148e-01 3.752300000000000324e+01 1.542554999999999836e+02 1.934639999999999873e+03
1.180000000000000077e-01 1.458165000000000155e-01 3.670465000000000089e+01 1.535659999999999741e+02 1.934345000000000027e+03
1.190000000000000085e-01 1.457915000000000183e-01 3.595459999999999923e+01 1.529909999999999854e+02 1.934075000000000045e+03
1.200000000000000094e-01 1.457694999999999963e-01 3.527179999999999893e+01 1.525229999999999961e+02 1.933845000000000027e+03
1.209999999999999964e-01 1.457515000000000061e-01 3.465170000000000528e+01 1.521460000000000150e+02 1.933639999999999873e+03
1.219999999999999973e-01 1.457355000000000178e-01 3.408670000000000044e+01 1.518410000000000082e+02 1.933469999999999800e+03
1.229999999999999982e-01 1.457219999999999904e-01 3.356674999999999898e+01 1.515805000000000007e+02 1.933315000000000055e+03
1.239999999999999991e-01 1.457100000000000062e-01 3.307985000000000042e+01 1.513374999999999773e+02 1.933180000000000064e+03
1.250000000000000000e-01 1.456985000000000086e-01 3.261280000000000001e+01 1.510815000000000055e+02 1.933054999999999836e+03
1.260000000000000009e-01 1.456870000000000109e-01 3.215200000000000102e+01 1.507819999999999823e+02 1.932929999999999836e+03
1.270000000000000018e-01 1.456744999999999846e-01 3.168370000000000175e+01 1.504110000000000014e+02 1.932789999999999964e+03
1.280000000000000027e-01 1.456600000000000117e-01 3.119534999999999769e+01 1.499429999999999836e+02 1.932630000000000109e+03
1.290000000000000036e-01 1.456419999999999937e-01 3.067554999999999765e+01 1.493559999999999945e+02 1.932440000000000055e+03
1.300000000000000044e-01 1.456210000000000004e-01 3.011510000000000176e+01 1.486329999999999814e+02 1.932215000000000146e+03
1.310000000000000053e-01 1.455954999999999888e-01 2.950710000000000122e+01 1.477640000000000100e+02 1.931945000000000164e+03
1.320000000000000062e-01 1.455655000000000143e-01 2.884730000000000061e+01 1.467450000000000045e+02 1.931619999999999891e+03
1.330000000000000071e-01 1.455305000000000071e-01 2.813465000000000060e+01 1.455785000000000196e+02 1.931255000000000109e+03
1.340000000000000080e-01 1.454905000000000226e-01 2.737105000000000032e+01 1.442740000000000009e+02 1.930835000000000036e+03
1.350000000000000089e-01 1.454460000000000197e-01 2.656109999999999971e+01 1.428460000000000036e+02 1.930369999999999891e+03
1.360000000000000098e-01 1.453975000000000128e-01 2.571249999999999858e+01 1.413174999999999955e+02 1.929860000000000127e+03
1.370000000000000107e-01 1.453455000000000163e-01 2.483500000000000085e+01 1.397139999999999986e+02 1.929309999999999945e+03
1.380000000000000115e-01 1.452904999999999891e-01 2.394035000000000224e+01 1.380649999999999977e+02 1.928730000000000018e+03
1.390000000000000124e-01 1.452340000000000020e-01 2.304185000000000016e+01 1.364014999999999986e+02 1.928130000000000109e+03
1.400000000000000133e-01 1.451759999999999995e-01 2.215344999999999942e+01 1.347580000000000098e+02 1.927525000000000091e+03
1.410000000000000142e-01 1.451184999999999836e-01 2.128934999999999889e+01 1.331659999999999968e+02 1.926914999999999964e+03
1.420000000000000151e-01 1.450624999999999831e-01 2.046320000000000050e+01 1.316555000000000177e+02 1.926319999999999936e+03
1.430000000000000160e-01 1.450079999999999980e-01 1.968789999999999907e+01 1.302549999999999955e+02 1.925750000000000000e+03
1.440000000000000169e-01 1.449575000000000169e-01 1.897465000000000046e+01 1.289865000000000066e+02 1.925210000000000036e+03
1.450000000000000178e-01 1.449100000000000110e-01 1.833275000000000077e+01 1.278694999999999879e+02 1.924704999999999927e+03
1.459999999999999909e-01 1.448679999999999968e-01 1.776934999999999931e+01 1.269159999999999968e+02 1.924255000000000109e+03
1.469999999999999918e-01 1.448305000000000009e-01 1.728894999999999982e+01 1.261339999999999861e+02 1.923855000000000018e+03
1.479999999999999927e-01 1.447984999999999967e-01 1.689359999999999928e+01 1.255245000000000033e+02 1.923514999999999873e+03
1.489999999999999936e-01 1.447724999999999984e-01 1.658275000000000077e+01 1.250840000000000032e+02 1.923235000000000127e+03
1.499999999999999944e-01 1.447525000000000062e-01 1.635334999999999894e+01 1.248019999999999925e+02 1.923009999999999991e+03
1.509999999999999953e-01 1.447370000000000045e-01 1.620040000000000191e+01 1.246654999999999944e+02 1.922845000000000027e+03
1.519999999999999962e-01 1.447269999999999945e-01 1.611655000000000015e+01 1.246564999999999941e+02 1.922734999999999900e+03
1.529999999999999971e-01 1.447215000000000029e-01 1.609335000000000093e+01 1.247549999999999955e+02 1.922664999999999964e+03
1.539999999999999980e-01 1.447199999999999875e-01 1.612089999999999890e+01 1.249385000000000048e+02 1.922639999999999873e+03
1.549999999999999989e-01 1.447215000000000029e-01 1.618874999999999886e+01 1.251850000000000023e+02 1.922659999999999854e+03
1.559999999999999998e-01 1.447265000000000079e-01 1.628620000000000090e+01 1.254720000000000084e+02 1.922700000000000045e+03
1.570000000000000007e-01 1.447324999999999862e-01 1.640240000000000009e+01 1.257764999999999986e+02 1.922759999999999991e+03
1.580000000000000016e-01 1.447400000000000075e-01 1.652735000000000198e+01 1.260790000000000077e+02 1.922829999999999927e+03
1.590000000000000024e-01 1.447479999999999878e-01 1.665155000000000030e+01 1.263619999999999948e+02 1.922909999999999854e+03
