# t [s], A [cm^2], U [cm/s], P [cPa], c [cm/s]
1.000000000000000021e-03 6.175370000000000026e-01 5.787950000000000039e-03 1.032729999999999961e+02 1.719869999999999891e+03
2.000000000000000042e-03 6.175284999999999247e-01 9.952999999999997439e-04 1.032445000000000022e+02 1.719865000000000009e+03
3.000000000000000062e-03 6.175855000000000095e-01 1.119898499999999880e-01 1.033744999999999976e+02 1.719894999999999982e+03
4.000000000000000083e-03 6.176239999999999508e-01 2.008358000000000088e-01 1.034915000000000020e+02 1.719920000000000073e+03
5.000000000000000104e-03 6.175869999999999971e-01 1.517001500000000058e-01 1.033875000000000028e+02 1.719900000000000091e+03
6.000000000000000125e-03 6.175245000000000317e-01 4.883499999999996177e-02 1.031274999999999977e+02 1.719845000000000027e+03
7.000000000000000146e-03 6.174675000000000580e-01 -5.542749999999996291e-02 1.027964999999999947e+02 1.719780000000000200e+03
8.000000000000000167e-03 6.173655000000000115e-01 -2.590099999999999625e-01 1.022785000000000082e+02 1.719675000000000182e+03
9.000000000000001055e-03 6.172009999999999996e-01 -6.027349999999999097e-01 1.014846000000000004e+02 1.719519999999999982e+03
1.000000000000000194e-02 6.169649999999999856e-01 -1.097550000000000026e+00 1.003524500000000046e+02 1.719289999999999964e+03
1.099999999999999936e-02 6.166365000000000318e-01 -1.768394999999999939e+00 9.879959999999999809e+01 1.718974999999999909e+03
1.200000000000000025e-02 6.162239999999999940e-01 -2.578495000000000203e+00 9.681864999999999100e+01 1.718559999999999945e+03
1.300000000000000114e-02 6.157835000000000392e-01 -3.388915000000000344e+00 9.456239999999999668e+01 1.718079999999999927e+03
1.400000000000000203e-02 6.153845000000000010e-01 -4.022461500000000356e+00 9.228849999999999909e+01 1.717570000000000164e+03
1.499999999999999944e-02 6.150705000000000755e-01 -4.355889099999999736e+00 9.022554999999999836e+01 1.717085000000000036e+03
1.600000000000000033e-02 6.148409999999999709e-01 -4.363554500000000225e+00 8.848274999999999579e+01 1.716644999999999982e+03
1.700000000000000122e-02 6.146635000000000293e-01 -4.104594999999999771e+00 8.703229999999999222e+01 1.716255000000000109e+03
1.800000000000000211e-02 6.144910000000000094e-01 -3.680499999999999883e+00 8.575225000000000364e+01 1.715900000000000091e+03
1.900000000000000300e-02 6.142855000000000398e-01 -3.188867499999999744e+00 8.449240000000000350e+01 1.715545000000000073e+03
2.000000000000000042e-02 6.140304999999999236e-01 -2.689253499999999963e+00 8.313714999999999122e+01 1.715170000000000073e+03
2.100000000000000130e-02 6.137299999999999978e-01 -2.190850000000000186e+00 8.164310000000000400e+01 1.714780000000000200e+03
2.200000000000000219e-02 6.134070000000000356e-01 -1.664355000000000029e+00 8.004009999999999536e+01 1.714360000000000127e+03
2.299999999999999961e-02 6.130849999999999911e-01 -1.070164999999999811e+00 7.839914999999999168e+01 1.713934999999999945e+03
2.400000000000000050e-02 6.127789999999999626e-01 -3.881149999999999878e-01 7.678710000000000946e+01 1.713509999999999991e+03
2.500000000000000139e-02 6.124874999999999625e-01 3.640349999999998865e-01 7.522790000000000532e+01 1.713094999999999800e+03
2.600000000000000228e-02 6.121914999999999996e-01 1.128405000000000102e+00 7.368545000000000300e+01 1.712680000000000064e+03
2.700000000000000316e-02 6.118630000000000457e-01 1.819170000000000176e+00 7.206919999999999504e+01 1.712250000000000000e+03
2.800000000000000058e-02 6.114720000000000155e-01 2.343825000000000269e+00 7.025919999999999277e+01 1.711789999999999964e+03
2.900000000000000147e-02 6.109964999999999424e-01 2.627120000000000122e+00 6.814185000000000514e+01 1.711264999999999873e+03
3.000000000000000236e-02 6.104294999999999582e-01 2.631075000000000053e+00 6.564690000000000225e+01 1.710674999999999955e+03
3.099999999999999978e-02 6.097829999999999639e-01 2.365064999999999973e+00 6.277344999999999686e+01 1.710000000000000000e+03
3.200000000000000067e-02 6.090849999999999875e-01 1.882730000000000015e+00 5.959754999999999825e+01 1.709259999999999991e+03
3.300000000000000155e-02 6.083749999999999991e-01 1.267955000000000609e+00 5.625925000000000153e+01 1.708484999999999900e+03
3.400000000000000244e-02 6.076934999999999976e-01 6.153050000000002129e-01 5.293580000000000041e+01 1.707710000000000036e+03
3.500000000000000333e-02 6.070754999999999901e-01 1.234499999999982833e-02 4.981074999999999875e+01 1.706954999999999927e+03
3.600000000000000422e-02 6.065490000000000048e-01 -4.724000000000003752e-01 4.704704999999999870e+01 1.706275000000000091e+03
3.700000000000000511e-02 6.061309999999999754e-01 -7.939499999999997115e-01 4.477004999999999768e+01 1.705690000000000055e+03
3.799999999999999906e-02 6.058280000000000332e-01 -9.291749999999998622e-01 4.306085000000000207e+01 1.705224999999999909e+03
3.899999999999999994e-02 6.056424999999999725e-01 -8.710350000000000037e-01 4.195875000000000199e+01 1.704894999999999982e+03
4.000000000000000083e-02 6.055699999999999417e-01 -6.212329999999999242e-01 4.147039999999999793e+01 1.704700000000000045e+03
4.100000000000000172e-02 6.056070000000000064e-01 -1.836019999999999874e-01 4.158160000000000167e+01 1.704650000000000091e+03
4.200000000000000261e-02 6.057485000000000230e-01 4.402049999999999574e-01 4.226794999999999902e+01 1.704735000000000127e+03
4.300000000000000350e-02 6.059924999999999340e-01 1.251829999999999998e+00 4.350240000000000151e+01 1.704949999999999818e+03
4.400000000000000439e-02 6.063344999999999985e-01 2.254430000000000156e+00 4.525815000000000055e+01 1.705300000000000182e+03
4.499999999999999833e-02 6.067715000000000192e-01 3.449154999999999749e+00 4.750740000000000407e+01 1.705764999999999873e+03
4.599999999999999922e-02 6.072975000000000456e-01 4.831269999999999953e+00 5.021764999999999901e+01 1.706349999999999909e+03
4.700000000000000011e-02 6.079044999999999588e-01 6.387314999999999188e+00 5.334745000000000203e+01 1.707029999999999973e+03
4.800000000000000100e-02 6.085804999999999687e-01 8.094234000000000151e+00 5.684395000000000664e+01 1.707815000000000055e+03
4.900000000000000189e-02 6.093104999999999771e-01 9.920164999999999011e+00 6.064270000000000493e+01 1.708675000000000182e+03
5.000000000000000278e-02 6.100799999999999557e-01 1.182699500000000015e+01 6.466964999999999009e+01 1.709599999999999909e+03
5.100000000000000366e-02 6.108715000000000117e-01 1.377389999999999937e+01 6.884600000000000364e+01 1.710569999999999936e+03
5.200000000000000455e-02 6.116705000000000059e-01 1.572080500000000036e+01 7.309335000000000093e+01 1.711570000000000164e+03
5.300000000000000544e-02 6.124635000000000495e-01 1.763151999999999830e+01 7.733914999999998940e+01 1.712585000000000036e+03
5.399999999999999939e-02 6.132404999999999662e-01 1.947619999999999862e+01 8.152199999999999136e+01 1.713599999999999909e+03
5.500000000000000028e-02 6.139944999999999986e-01 2.123225000000000051e+01 8.559425000000000239e+01 1.714595000000000027e+03
5.600000000000000117e-02 6.147210000000000729e-01 2.288490000000000180e+01 8.952365000000000350e+01 1.715569999999999936e+03
5.700000000000000205e-02 6.154195000000000082e-01 2.442624999999999957e+01 9.329429999999999268e+01 1.716514999999999873e+03
5.800000000000000294e-02 6.160900000000000265e-01 2.585459999999999781e+01 9.690305000000000746e+01 1.717429999999999836e+03
5.900000000000000383e-02 6.167365000000000208e-01 2.717280000000000229e+01 1.003590000000000089e+02 1.718309999999999945e+03
6.000000000000000472e-02 6.173619999999999663e-01 2.838700000000000045e+01 1.036796500000000094e+02 1.719159999999999854e+03
6.099999999999999867e-02 6.179715000000000069e-01 2.950534999999999997e+01 1.068870000000000005e+02 1.719984999999999900e+03
6.199999999999999956e-02 6.185689999999999245e-01 3.053705000000000069e+01 1.100054999999999978e+02 1.720789999999999964e+03
6.300000000000000044e-02 6.191590000000000149e-01 3.149080000000000013e+01 1.130594999999999999e+02 1.721579999999999927e+03
6.400000000000000133e-02 6.197444999999999204e-01 3.237420000000000186e+01 1.160690000000000026e+02 1.722349999999999909e+03
6.500000000000000222e-02 6.203270000000000728e-01 3.319284999999999997e+01 1.190469999999999970e+02 1.723119999999999891e+03
6.600000000000000311e-02 6.209069999999999867e-01 3.394979999999999620e+01 1.220014999999999930e+02 1.723875000000000000e+03
6.700000000000000400e-02 6.214824999999999378e-01 3.464529999999999887e+01 1.249309999999999974e+02 1.724630000000000109e+03
6.800000000000000488e-02 6.220520000000000493e-01 3.527710000000000434e+01 1.278249999999999886e+02 1.725369999999999891e+03
6.900000000000000577e-02 6.226099999999999968e-01 3.584040000000000248e+01 1.306684999999999945e+02 1.726105000000000018e+03
7.000000000000000666e-02 6.231539999999999857e-01 3.632905000000000229e+01 1.334379999999999882e+02 1.726820000000000164e+03
7.100000000000000755e-02 6.236760000000000081e-01 3.673570000000000135e+01 1.361080000000000041e+02 1.727509999999999991e+03
7.200000000000000844e-02 6.241725000000000190e-01 3.705330000000000013e+01 1.386504999999999939e+02 1.728179999999999836e+03
7.300000000000000933e-02 6.246374999999999567e-01 3.727499999999999858e+01 1.410374999999999943e+02 1.728805000000000064e+03
7.399999999999999634e-02 6.250674999999999981e-01 3.739530000000000598e+01 1.432445000000000164e+02 1.729389999999999873e+03
7.499999999999999722e-02 6.254569999999999297e-01 3.741024999999999778e+01 1.452495000000000118e+02 1.729934999999999945e+03
7.599999999999999811e-02 6.258044999999999858e-01 3.731770000000000209e+01 1.470349999999999966e+02 1.730420000000000073e+03
7.699999999999999900e-02 6.261079999999999979e-01 3.711745000000000516e+01 1.485905000000000200e+02 1.730860000000000127e+03
7.799999999999999989e-02 6.263665000000000482e-01 3.681130000000000280e+01 1.499094999999999800e+02 1.731235000000000127e+03
7.900000000000000078e-02 6.265804999999999847e-01 3.640324999999999989e+01 1.509904999999999973e+02 1.731549999999999955e+03
8.000000000000000167e-02 6.267504999999999882e-01 3.589914999999999878e+01 1.518405000000000200e+02 1.731815000000000055e+03
8.100000000000000255e-02 6.268789999999999640e-01 3.530684999999999718e+01 1.524685000000000059e+02 1.732019999999999982e+03
8.200000000000000344e-02 6.269700000000000273e-01 3.463620000000000232e+01 1.528899999999999864e+02 1.732170000000000073e+03
8.300000000000000433e-02 6.270255000000000134e-01 3.389844999999999686e+01 1.531245000000000118e+02 1.732275000000000091e+03
8.400000000000000522e-02 6.270519999999999428e-01 3.310625000000000284e+01 1.531949999999999932e+02 1.732335000000000036e+03
8.500000000000000611e-02 6.270525000000000126e-01 3.227320000000000277e+01 1.531260000000000048e+02 1.732360000000000127e+03
8.600000000000000699e-02 6.270335000000000214e-01 3.141335000000000122e+01 1.529454999999999814e+02 1.732349999999999909e+03
8.700000000000000788e-02 6.269990000000000840e-01 3.054059999999999775e+01 1.526804999999999950e+02 1.732309999999999945e+03
8.800000000000000877e-02 6.269545000000000812e-01 2.966799999999999926e+01 1.523580000000000041e+02 1.732255000000000109e+03
8.899999999999999578e-02 6.269044999999999757e-01 2.880754999999999910e+01 1.520024999999999977e+02 1.732184999999999945e+03
8.999999999999999667e-02 6.268525000000000347e-01 2.796904999999999930e+01 1.516354999999999791e+02 1.732110000000000127e+03
9.099999999999999756e-02 6.268015000000000114e-01 2.716029999999999944e+01 1.512749999999999773e+02 1.732029999999999973e+03
9.199999999999999845e-02 6.267534999999999634e-01 2.638635000000000019e+01 1.509335000000000093e+02 1.731945000000000164e+03
9.299999999999999933e-02 6.267095000000000304e-01 2.564974999999999739e+01 1.506195000000000164e+02 1.731865000000000009e+03
9.400000000000000022e-02 6.266700000000000603e-01 2.495029999999999859e+01 1.503344999999999914e+02 1.731795000000000073e+03
9.500000000000000111e-02 6.266329999999999956e-01 2.428549999999999898e+01 1.500769999999999982e+02 1.731724999999999909e+03
9.600000000000000200e-02 6.265979999999999883e-01 2.365090000000000003e+01 1.498404999999999916e+02 1.731664999999999964e+03
9.700000000000000289e-02 6.265629999999999811e-01 2.304030000000000200e+01 1.496154999999999973e+02 1.731599999999999909e+03
9.800000000000000377e-02 6.265244999999999287e-01 2.244655000000000200e+01 1.493890000000000100e+02 1.731539999999999964e+03
9.900000000000000466e-02 6.264810000000000656e-01 2.186180000000000234e+01 1.491485000000000127e+02 1.731474999999999909e+03
1.000000000000000056e-01 6.264294999999999725e-01 2.127819999999999823e+01 1.488790000000000191e+02 1.731404999999999973e+03
1.010000000000000064e-01 6.263674999999999660e-01 2.068815000000000026e+01 1.485674999999999955e+02 1.731329999999999927e+03
1.020000000000000073e-01 6.262939999999999063e-01 2.008500000000000085e+01 1.482024999999999864e+02 1.731235000000000127e+03
1.030000000000000082e-01 6.262064999999999992e-01 1.946324999999999861e+01 1.477740000000000009e+02 1.731134999999999991e+03
1.040000000000000091e-01 6.261045000000000638e-01 1.881889999999999930e+01 1.472769999999999868e+02 1.731014999999999873e+03
1.050000000000000100e-01 6.259885000000000588e-01 1.814949999999999974e+01 1.467069999999999936e+02 1.730880000000000109e+03
1.059999999999999970e-01 6.258584999999999843e-01 1.745469999999999899e+01 1.460665000000000191e+02 1.730724999999999909e+03
1.069999999999999979e-01 6.257154999999999800e-01 1.673584999999999923e+01 1.453590000000000089e+02 1.730559999999999945e+03
1.079999999999999988e-01 6.255625000000000213e-01 1.599634999999999962e+01 1.445925000000000011e+02 1.730380000000000109e+03
1.089999999999999997e-01 6.254009999999999847e-01 1.524104999999999954e+01 1.437789999999999964e+02 1.730184999999999945e+03
1.100000000000000006e-01 6.252345000000000264e-01 1.447646500000000103e+01 1.429334999999999809e+02 1.729980000000000018e+03
1.110000000000000014e-01 6.250664999999999694e-01 1.371025999999999989e+01 1.420709999999999980e+02 1.729775000000000091e+03
1.120000000000000023e-01 6.249005000000000809e-01 1.295080000000000098e+01 1.412104999999999961e+02 1.729565000000000055e+03
1.130000000000000032e-01 6.247395000000000032e-01 1.220686000000000071e+01 1.403700000000000045e+02 1.729355000000000018e+03
1.140000000000000041e-01 6.245880000000000321e-01 1.148722499999999869e+01 1.395674999999999955e+02 1.729155000000000200e+03
1.150000000000000050e-01 6.244480000000000031e-01 1.080023000000000089e+01 1.388199999999999932e+02 1.728970000000000027e+03
1.160000000000000059e-01 6.243229999999999613e-01 1.015334999999999965e+01 1.381435000000000173e+02 1.728795000000000073e+03
1.170000000000000068e-01 6.242149999999999643e-01 9.552955000000000751e+00 1.375495000000000232e+02 1.728640000000000100e+03
1.180000000000000077e-01 6.241250000000000409e-01 9.003940000000000055e+00 1.370469999999999970e+02 1.728505000000000109e+03
1.190000000000000085e-01 6.240544999999999565e-01 8.509619999999999962e+00 1.366430000000000007e+02 1.728390000000000100e+03
1.200000000000000094e-01 6.240029999999999744e-01 8.071600000000000108e+00 1.363389999999999986e+02 1.728300000000000182e+03
1.209999999999999964e-01 6.239710000000000534e-01 7.689810000000000478e+00 1.361335000000000264e+02 1.728230000000000018e+03
1.219999999999999973e-01 6.239554999999999962e-01 7.362579999999999458e+00 1.360219999999999914e+02 1.728184999999999945e+03
1.229999999999999982e-01 6.239559999999999551e-01 7.086815000000000531e+00 1.359964999999999975e+02 1.728160000000000082e+03
1.239999999999999991e-01 6.239700000000000246e-01 6.858240000000000336e+00 1.360475000000000136e+02 1.728154999999999973e+03
1.250000000000000000e-01 6.239954999999999252e-01 6.671644999999999825e+00 1.361624999999999943e+02 1.728170000000000073e+03
1.260000000000000009e-01 6.240299999999999736e-01 6.521224999999999383e+00 1.363280000000000030e+02 1.728195000000000164e+03
1.270000000000000018e-01 6.240700000000000136e-01 6.400845000000000340e+00 1.365324999999999989e+02 1.728230000000000018e+03
1.280000000000000027e-01 6.241145000000000165e-01 6.304299999999999571e+00 1.367604999999999791e+02 1.728275000000000091e+03
1.290000000000000036e-01 6.241594999999999782e-01 6.225575000000000081e+00 1.370004999999999882e+02 1.728324999999999818e+03
1.300000000000000044e-01 6.242039999999999811e-01 6.159024999999999750e+00 1.372415000000000020e+02 1.728375000000000000e+03
1.310000000000000053e-01 6.242469999999999963e-01 6.099524999999999864e+00 1.374730000000000132e+02 1.728425000000000182e+03
1.320000000000000062e-01 6.242860000000000076e-01 6.042575000000000252e+00 1.376879999999999882e+02 1.728474999999999909e+03
1.330000000000000071e-01 6.243194999999999162e-01 5.984350000000000058e+00 1.378785000000000025e+02 1.728525000000000091e+03
1.340000000000000080e-01 6.243484999999999729e-01 5.921755000000000102e+00 1.380405000000000086e+02 1.728559999999999945e+03
1.350000000000000089e-01 6.243710000000000093e-01 5.852394999999999570e+00 1.381719999999999970e+02 1.728594999999999800e+03
1.360000000000000098e-01 6.243875000000000952e-01 5.774599999999999511e+00 1.382700000000000102e+02 1.728625000000000000e+03
1.370000000000000107e-01 6.243985000000000785e-01 5.687355000000000160e+00 1.383360000000000127e+02 1.728644999999999982e+03
1.380000000000000115e-01 6.244030000000000413e-01 5.590260000000000673e+00 1.383695000000000164e+02 1.728654999999999973e+03
1.390000000000000124e-01 6.244024999999999714e-01 5.483464999999999812e+00 1.383734999999999786e+02 1.728659999999999854e+03
1.400000000000000133e-01 6.243969999999999798e-01 5.367644999999999555e+00 1.383499999999999943e+02 1.728659999999999854e+03
1.410000000000000142e-01 6.243879999999999431e-01 5.243829999999999991e+00 1.383025000000000091e+02 1.728650000000000091e+03
1.420000000000000151e-01 6.243750000000000133e-01 5.113395000000000579e+00 1.382359999999999900e+02 1.728639999999999873e+03
1.430000000000000160e-01 6.243594999999999562e-01 4.977899999999999991e+00 1.381514999999999986e+02 1.728625000000000000e+03
1.440000000000000169e-01 6.243419999999999526e-01 4.839014999999999844e+00 1.380550000000000068e+02 1.728605000000000018e+03
1.450000000000000178e-01 6.243225000000000025e-01 4.698409999999999975e+00 1.379484999999999957e+02 1.728579999999999927e+03
1.459999999999999909e-01 6.243030000000000523e-01 4.557644999999999946e+00 1.378354999999999961e+02 1.728554999999999836e+03
1.469999999999999918e-01 6.242814999999999337e-01 4.418085000000000484e+00 1.377180000000000177e+02 1.728529999999999973e+03
1.479999999999999927e-01 6.242609999999999548e-01 4.280854999999999855e+00 1.375980000000000132e+02 1.728500000000000000e+03
1.489999999999999936e-01 6.242394999999999472e-01 4.146765000000000256e+00 1.374759999999999991e+02 1.728474999999999909e+03
1.499999999999999944e-01 6.242185000000000095e-01 4.016340000000000465e+00 1.373519999999999754e+02 1.728445000000000164e+03
1.509999999999999953e-01 6.241965000000000430e-01 3.889784999999999826e+00 1.372264999999999873e+02 1.728414999999999964e+03
1.519999999999999962e-01 6.241734999999999367e-01 3.767084999999999795e+00 1.370970000000000084e+02 1.728380000000000109e+03
1.529999999999999971e-01 6.241494999999999127e-01 3.648005000000000386e+00 1.369629999999999939e+02 1.728349999999999909e+03
1.539999999999999980e-01 6.241240000000000121e-01 3.532229999999999759e+00 1.368220000000000027e+02 1.728309999999999945e+03
1.549999999999999989e-01 6.240970000000000129e-01 3.419435000000000002e+00 1.366734999999999900e+02 1.728279999999999973e+03
1.559999999999999998e-01 6.240674999999999972e-01 3.309355000000000047e+00 1.365149999999999864e+02 1.728235000000000127e+03
1.570000000000000007e-01 6.240360000000000351e-01 3.201899999999999746e+00 1.363460000000000036e+02 1.728199999999999818e+03
1.580000000000000016e-01 6.240019999999999456e-01 3.097199999999999953e+00 1.361664999999999850e+02 1.728154999999999973e+03
1.590000000000000024e-01 6.239660000000000206e-01 2.995655000000000179e+00 1.359759999999999991e+02 1.728105000000000018e+03
