# t [s], A [cm^2], U [cm/s], P [cPa], c [cm/s]
1.000000000000000021e-03 1.487359999999999793e-01 2.594159999999999799e-01 9.541065000000000396e+01 1.860309999999999945e+03
2.000000000000000042e-03 1.487084999999999935e-01 1.718837500000000018e+00 9.257394999999999641e+01 1.860005000000000109e+03
3.000000000000000062e-03 1.486100000000000199e-01 3.529377499999999834e+00 8.876460000000000150e+01 1.858984999999999900e+03
4.000000000000000083e-03 1.484644999999999992e-01 5.549231400000000036e+00 8.445510000000000161e+01 1.857494999999999891e+03
5.000000000000000104e-03 1.482964999999999978e-01 7.727009999999999934e+00 8.035960000000000036e+01 1.855799999999999955e+03
6.000000000000000125e-03 1.481270000000000087e-01 9.956319999999999837e+00 7.686234999999999218e+01 1.854105000000000018e+03
7.000000000000000146e-03 1.479634999999999978e-01 1.207252500000000062e+01 7.393305000000000859e+01 1.852494999999999891e+03
8.000000000000000167e-03 1.478105000000000113e-01 1.394634499999999910e+01 7.135259999999999536e+01 1.851005000000000109e+03
9.000000000000001055e-03 1.476695000000000091e-01 1.555485000000000007e+01 6.902495000000000402e+01 1.849659999999999854e+03
1.000000000000000194e-02 1.475440000000000085e-01 1.693035000000000068e+01 6.699989999999999668e+01 1.848474999999999909e+03
1.099999999999999936e-02 1.474360000000000115e-01 1.809619999999999962e+01 6.531385000000000218e+01 1.847460000000000036e+03
1.200000000000000025e-02 1.473444999999999894e-01 1.906484999999999985e+01 6.394644999999999868e+01 1.846615000000000009e+03
1.300000000000000114e-02 1.472689999999999833e-01 1.984830000000000183e+01 6.285590000000000543e+01 1.845920000000000073e+03
1.400000000000000203e-02 1.472074999999999911e-01 2.045299999999999940e+01 6.198184999999999434e+01 1.845369999999999891e+03
1.499999999999999944e-02 1.471565000000000234e-01 2.088405000000000200e+01 6.124629999999999797e+01 1.844914999999999964e+03
1.600000000000000033e-02 1.471140000000000225e-01 2.117000000000000171e+01 6.060745000000000005e+01 1.844549999999999955e+03
1.700000000000000122e-02 1.470805000000000029e-01 2.138185000000000002e+01 6.013080000000000069e+01 1.844265000000000100e+03
1.800000000000000211e-02 1.470595000000000097e-01 2.162185000000000201e+01 5.999615000000000009e+01 1.844085000000000036e+03
1.900000000000000300e-02 1.470564999999999789e-01 2.198395000000000010e+01 6.041665000000000418e+01 1.844075000000000045e+03
2.000000000000000042e-02 1.470759999999999845e-01 2.251219999999999999e+01 6.151869999999999550e+01 1.844264999999999873e+03
2.100000000000000130e-02 1.471184999999999854e-01 2.318014999999999759e+01 6.325525000000000375e+01 1.844664999999999964e+03
2.200000000000000219e-02 1.471795000000000186e-01 2.389999999999999858e+01 6.539650000000000318e+01 1.845239999999999782e+03
2.299999999999999961e-02 1.472510000000000208e-01 2.455355000000000132e+01 6.759385000000000332e+01 1.845914999999999964e+03
2.400000000000000050e-02 1.473220000000000085e-01 2.503020000000000067e+01 6.948449999999999704e+01 1.846599999999999909e+03
2.500000000000000139e-02 1.473824999999999996e-01 2.525835000000000008e+01 7.079240000000000066e+01 1.847190000000000055e+03
2.600000000000000228e-02 1.474265000000000159e-01 2.522090000000000032e+01 7.139500000000001023e+01 1.847630000000000109e+03
2.700000000000000316e-02 1.474504999999999844e-01 2.495315000000000083e+01 7.133679999999999666e+01 1.847880000000000109e+03
2.800000000000000058e-02 1.474564999999999904e-01 2.452499999999999858e+01 7.079349999999999454e+01 1.847960000000000036e+03
2.900000000000000147e-02 1.474495000000000111e-01 2.401654999999999873e+01 7.000339999999999918e+01 1.847914999999999964e+03
3.000000000000000236e-02 1.474349999999999827e-01 2.349484999999999957e+01 6.919209999999999638e+01 1.847785000000000082e+03
3.099999999999999978e-02 1.474189999999999945e-01 2.299814999999999898e+01 6.851324999999999932e+01 1.847639999999999873e+03
3.200000000000000067e-02 1.474040000000000072e-01 2.253200000000000003e+01 6.802070000000000505e+01 1.847500000000000000e+03
3.300000000000000155e-02 1.473909999999999942e-01 2.207535000000000025e+01 6.767414999999999736e+01 1.847380000000000109e+03
3.400000000000000244e-02 1.473800000000000110e-01 2.159349999999999881e+01 6.737104999999999677e+01 1.847275000000000091e+03
3.500000000000000333e-02 1.473669999999999980e-01 2.105344999999999800e+01 6.699195000000000277e+01 1.847154999999999973e+03
3.600000000000000422e-02 1.473500000000000087e-01 2.043780000000000285e+01 6.644535000000000480e+01 1.847000000000000000e+03
3.700000000000000511e-02 1.473269999999999857e-01 1.975305000000000177e+01 6.570175000000000409e+01 1.846795000000000073e+03
3.799999999999999906e-02 1.472994999999999999e-01 1.903159999999999741e+01 6.480769999999999698e+01 1.846535000000000082e+03
3.899999999999999994e-02 1.472680000000000100e-01 1.832614999999999839e+01 6.387890000000000157e+01 1.846244999999999891e+03
4.000000000000000083e-02 1.472379999999999800e-01 1.769899999999999807e+01 6.307354999999999734e+01 1.845960000000000036e+03
4.100000000000000172e-02 1.472124999999999961e-01 1.720844999999999914e+01 6.255499999999999972e+01 1.845724999999999909e+03
4.200000000000000261e-02 1.471979999999999955e-01 1.689600000000000080e+01 6.245250000000000057e+01 1.845575000000000045e+03
4.300000000000000350e-02 1.471965000000000079e-01 1.677774999999999750e+01 6.283055000000000234e+01 1.845554999999999836e+03
4.400000000000000439e-02 1.472110000000000085e-01 1.684094999999999942e+01 6.367414999999999736e+01 1.845675000000000182e+03
4.499999999999999833e-02 1.472395000000000231e-01 1.704654999999999987e+01 6.489000000000000057e+01 1.845924999999999955e+03
4.599999999999999922e-02 1.472789999999999933e-01 1.733619999999999806e+01 6.632399999999999807e+01 1.846285000000000082e+03
4.700000000000000011e-02 1.473244999999999971e-01 1.764155000000000229e+01 6.778735000000000355e+01 1.846710000000000036e+03
4.800000000000000100e-02 1.473714999999999886e-01 1.789405000000000001e+01 6.908714999999999407e+01 1.847144999999999982e+03
4.900000000000000189e-02 1.474130000000000162e-01 1.803399999999999892e+01 7.005344999999999800e+01 1.847534999999999854e+03
5.000000000000000278e-02 1.474435000000000051e-01 1.801610000000000156e+01 7.055960000000000321e+01 1.847829999999999927e+03
5.100000000000000366e-02 1.474600000000000077e-01 1.781295000000000073e+01 7.053340000000000032e+01 1.847990000000000009e+03
5.200000000000000455e-02 1.474590000000000067e-01 1.741489999999999938e+01 6.995815000000000339e+01 1.847994999999999891e+03
5.300000000000000544e-02 1.474409999999999887e-01 1.682805000000000106e+01 6.886635000000001128e+01 1.847829999999999927e+03
5.399999999999999939e-02 1.474050000000000082e-01 1.607055000000000078e+01 6.732665000000000077e+01 1.847500000000000000e+03
5.500000000000000028e-02 1.473530000000000117e-01 1.516849999999999987e+01 6.543025000000000091e+01 1.847025000000000091e+03
5.600000000000000117e-02 1.472890000000000033e-01 1.415220000000000056e+01 6.327700000000000102e+01 1.846430000000000064e+03
5.700000000000000205e-02 1.472144999999999981e-01 1.305338000000000065e+01 6.096465000000000600e+01 1.845735000000000127e+03
5.800000000000000294e-02 1.471324999999999994e-01 1.190361500000000028e+01 5.858239999999999981e+01 1.844970000000000027e+03
5.900000000000000383e-02 1.470474999999999977e-01 1.073327500000000079e+01 5.620844999999999914e+01 1.844170000000000073e+03
6.000000000000000472e-02 1.469604999999999939e-01 9.571979999999999933e+00 5.391060000000000230e+01 1.843349999999999909e+03
6.099999999999999867e-02 1.468745000000000189e-01 8.449014999999999276e+00 5.174895000000000067e+01 1.842545000000000073e+03
6.199999999999999956e-02 1.467930000000000068e-01 7.393564999999999721e+00 4.977920000000000300e+01 1.841769999999999982e+03
6.300000000000000044e-02 1.467169999999999863e-01 6.435299999999999798e+00 4.805540000000000589e+01 1.841050000000000182e+03
6.400000000000000133e-02 1.466489999999999738e-01 5.603780000000000427e+00 4.663119999999999976e+01 1.840409999999999854e+03
6.500000000000000222e-02 1.465920000000000001e-01 4.927929999999999922e+00 4.555979999999999563e+01 1.839859999999999900e+03
6.600000000000000311e-02 1.465474999999999972e-01 4.434834999999999638e+00 4.489209999999999923e+01 1.839429999999999836e+03
6.700000000000000400e-02 1.465170000000000083e-01 4.148320000000000007e+00 4.467369999999999663e+01 1.839134999999999991e+03
6.800000000000000488e-02 1.465029999999999943e-01 4.087530000000000108e+00 4.494149999999999778e+01 1.838985000000000127e+03
6.900000000000000577e-02 1.465075000000000127e-01 4.265610000000000568e+00 4.572015000000000384e+01 1.839005000000000109e+03
7.000000000000000666e-02 1.465299999999999936e-01 4.688810000000000144e+00 4.701944999999999908e+01 1.839200000000000045e+03
7.100000000000000755e-02 1.465719999999999801e-01 5.355925000000000047e+00 4.883285000000000053e+01 1.839574999999999818e+03
7.200000000000000844e-02 1.466335000000000000e-01 6.258369999999999322e+00 5.113714999999999833e+01 1.840130000000000109e+03
7.300000000000000933e-02 1.467130000000000101e-01 7.380659999999999776e+00 5.389390000000000214e+01 1.840865000000000009e+03
7.399999999999999634e-02 1.468099999999999961e-01 8.701274999999998983e+00 5.705100000000000193e+01 1.841760000000000218e+03
7.499999999999999722e-02 1.469225000000000114e-01 1.019380499999999934e+01 6.054659999999999798e+01 1.842805000000000064e+03
7.599999999999999811e-02 1.470485000000000264e-01 1.182840500000000006e+01 6.431199999999999761e+01 1.843980000000000018e+03
7.699999999999999900e-02 1.471854999999999969e-01 1.357315999999999789e+01 6.827570000000000050e+01 1.845259999999999991e+03
7.799999999999999989e-02 1.473315000000000041e-01 1.539559999999999995e+01 7.236690000000000111e+01 1.846634999999999991e+03
7.900000000000000078e-02 1.474834999999999896e-01 1.726375000000000171e+01 7.651855000000000473e+01 1.848065000000000055e+03
8.000000000000000167e-02 1.476399999999999935e-01 1.914785000000000181e+01 8.067060000000000741e+01 1.849545000000000073e+03
8.100000000000000255e-02 1.477974999999999983e-01 2.102100000000000080e+01 8.477179999999999893e+01 1.851039999999999964e+03
8.200000000000000344e-02 1.479550000000000032e-01 2.286019999999999897e+01 8.878149999999999409e+01 1.852545000000000073e+03
8.300000000000000433e-02 1.481105000000000060e-01 2.464675000000000082e+01 9.267074999999999818e+01 1.854029999999999973e+03
8.400000000000000522e-02 1.482634999999999925e-01 2.636704999999999899e+01 9.642255000000000109e+01 1.855490000000000009e+03
8.500000000000000611e-02 1.484114999999999740e-01 2.801205000000000211e+01 1.000304500000000019e+02 1.856925000000000182e+03
8.600000000000000699e-02 1.485559999999999936e-01 2.957730000000000103e+01 1.034997999999999934e+02 1.858319999999999936e+03
8.700000000000000788e-02 1.486959999999999948e-01 3.106250000000000000e+01 1.068425000000000011e+02 1.859670000000000073e+03
8.800000000000000877e-02 1.488325000000000065e-01 3.247070000000000078e+01 1.100769999999999982e+02 1.860990000000000009e+03
8.899999999999999578e-02 1.489650000000000141e-01 3.380734999999999957e+01 1.132274999999999920e+02 1.862279999999999973e+03
8.999999999999999667e-02 1.490945000000000187e-01 3.507949999999999591e+01 1.163179999999999978e+02 1.863539999999999964e+03
9.099999999999999756e-02 1.492219999999999935e-01 3.629475000000000051e+01 1.193689999999999998e+02 1.864779999999999973e+03
9.199999999999999845e-02 1.493480000000000085e-01 3.746054999999999779e+01 1.224025000000000034e+02 1.866009999999999991e+03
9.299999999999999933e-02 1.494729999999999948e-01 3.858315000000000339e+01 1.254314999999999998e+02 1.867224999999999909e+03
9.400000000000000022e-02 1.495974999999999944e-01 3.966745000000000232e+01 1.284650000000000034e+02 1.868444999999999936e+03
9.500000000000000111e-02 1.497219999999999940e-01 4.071614999999999895e+01 1.315054999999999836e+02 1.869660000000000082e+03
9.600000000000000200e-02 1.498464999999999936e-01 4.172990000000000066e+01 1.345464999999999804e+02 1.870875000000000000e+03
9.700000000000000289e-02 1.499705000000000066e-01 4.270705000000000240e+01 1.375790000000000077e+02 1.872090000000000146e+03
9.800000000000000377e-02 1.500934999999999908e-01 4.364364999999999384e+01 1.405840000000000032e+02 1.873295000000000073e+03
9.900000000000000466e-02 1.502160000000000162e-01 4.453414999999999679e+01 1.435420000000000016e+02 1.874494999999999891e+03
1.000000000000000056e-01 1.503355000000000108e-01 4.537134999999999962e+01 1.464275000000000091e+02 1.875670000000000073e+03
1.010000000000000064e-01 1.504530000000000034e-01 4.614679999999999893e+01 1.492150000000000034e+02 1.876824999999999818e+03
1.020000000000000073e-01 1.505664999999999920e-01 4.685164999999999935e+01 1.518754999999999882e+02 1.877940000000000055e+03
1.030000000000000082e-01 1.506755000000000178e-01 4.747660000000000480e+01 1.543845000000000027e+02 1.879014999999999873e+03
1.040000000000000091e-01 1.507784999999999820e-01 4.801295000000000357e+01 1.567160000000000082e+02 1.880039999999999964e+03
1.050000000000000100e-01 1.508754999999999957e-01 4.845230000000000103e+01 1.588474999999999966e+02 1.880994999999999891e+03
1.059999999999999970e-01 1.509645000000000015e-01 4.878749999999999432e+01 1.607605000000000075e+02 1.881880000000000109e+03
1.069999999999999979e-01 1.510454999999999992e-01 4.901274999999999693e+01 1.624399999999999977e+02 1.882684999999999945e+03
1.079999999999999988e-01 1.511180000000000023e-01 4.912404999999999688e+01 1.638750000000000000e+02 1.883404999999999973e+03
1.089999999999999997e-01 1.511810000000000098e-01 4.911915000000000475e+01 1.650595000000000141e+02 1.884039999999999964e+03
1.100000000000000006e-01 1.512350000000000083e-01 4.899784999999999968e+01 1.659934999999999832e+02 1.884585000000000036e+03
1.110000000000000014e-01 1.512789999999999968e-01 4.876229999999999620e+01 1.666800000000000068e+02 1.885029999999999973e+03
1.120000000000000023e-01 1.513140000000000041e-01 4.841660000000000252e+01 1.671290000000000191e+02 1.885384999999999991e+03
1.130000000000000032e-01 1.513395000000000157e-01 4.796715000000000373e+01 1.673534999999999968e+02 1.885650000000000091e+03
1.140000000000000041e-01 1.513565000000000049e-01 4.742199999999999704e+01 1.673714999999999975e+02 1.885829999999999927e+03
1.150000000000000050e-01 1.513649999999999995e-01 4.679110000000000014e+01 1.672035000000000196e+02 1.885929999999999836e+03
1.160000000000000059e-01 1.513665000000000149e-01 4.608570000000000277e+01 1.668740000000000236e+02 1.885954999999999927e+03
1.170000000000000068e-01 1.513619999999999965e-01 4.531810000000000116e+01 1.664080000000000155e+02 1.885914999999999964e+03
1.180000000000000077e-01 1.513510000000000133e-01 4.450100000000000477e+01 1.658324999999999818e+02 1.885815000000000055e+03
1.190000000000000085e-01 1.513349999999999973e-01 4.364735000000000298e+01 1.651725000000000136e+02 1.885670000000000073e+03
1.200000000000000094e-01 1.513150000000000051e-01 4.276984999999999815e+01 1.644549999999999841e+02 1.885480000000000018e+03
1.209999999999999964e-01 1.512930000000000108e-01 4.188065000000000282e+01 1.637019999999999982e+02 1.885264999999999873e+03
1.219999999999999973e-01 1.512685000000000002e-01 4.099060000000000059e+01 1.629354999999999905e+02 1.885025000000000091e+03
1.229999999999999982e-01 1.512425000000000019e-01 4.010944999999999538e+01 1.621730000000000018e+02 1.884775000000000091e+03
1.239999999999999991e-01 1.512159999999999893e-01 3.924540000000000362e+01 1.614275000000000091e+02 1.884514999999999873e+03
1.250000000000000000e-01 1.511889999999999901e-01 3.840465000000000373e+01 1.607104999999999961e+02 1.884250000000000000e+03
1.260000000000000009e-01 1.511635000000000062e-01 3.759189999999999543e+01 1.600274999999999750e+02 1.883994999999999891e+03
1.270000000000000018e-01 1.511374999999999802e-01 3.680975000000000108e+01 1.593815000000000168e+02 1.883740000000000009e+03
1.280000000000000027e-01 1.511129999999999973e-01 3.605915000000000248e+01 1.587705000000000268e+02 1.883500000000000000e+03
1.290000000000000036e-01 1.510900000000000021e-01 3.533915000000000362e+01 1.581899999999999977e+02 1.883259999999999991e+03
1.300000000000000044e-01 1.510664999999999925e-01 3.464739999999999753e+01 1.576320000000000050e+02 1.883035000000000082e+03
1.310000000000000053e-01 1.510440000000000116e-01 3.398015000000000185e+01 1.570865000000000009e+02 1.882809999999999945e+03
1.320000000000000062e-01 1.510219999999999896e-01 3.333250000000000313e+01 1.565414999999999850e+02 1.882585000000000036e+03
1.330000000000000071e-01 1.509995000000000087e-01 3.269879999999999853e+01 1.559834999999999923e+02 1.882365000000000009e+03
1.340000000000000080e-01 1.509765000000000135e-01 3.207295000000000584e+01 1.553985000000000127e+02 1.882134999999999991e+03
1.350000000000000089e-01 1.509530000000000038e-01 3.144854999999999734e+01 1.547744999999999891e+02 1.881900000000000091e+03
1.360000000000000098e-01 1.509274999999999922e-01 3.081935000000000002e+01 1.540964999999999918e+02 1.881650000000000091e+03
1.370000000000000107e-01 1.509004999999999930e-01 3.017965000000000231e+01 1.533545000000000016e+02 1.881380000000000109e+03
1.380000000000000115e-01 1.508704999999999907e-01 2.952420000000000044e+01 1.525389999999999873e+02 1.881090000000000146e+03
1.390000000000000124e-01 1.508384999999999865e-01 2.884904999999999831e+01 1.516419999999999959e+02 1.880769999999999982e+03
1.400000000000000133e-01 1.508035000000000070e-01 2.815095000000000169e+01 1.506605000000000132e+02 1.880424999999999955e+03
1.410000000000000142e-01 1.507654999999999967e-01 2.742835000000000178e+01 1.495925000000000011e+02 1.880050000000000182e+03
1.420000000000000151e-01 1.507239999999999969e-01 2.668079999999999785e+01 1.484404999999999859e+02 1.879650000000000091e+03
1.430000000000000160e-01 1.506795000000000218e-01 2.590959999999999752e+01 1.472100000000000080e+02 1.879215000000000146e+03
1.440000000000000169e-01 1.506325000000000025e-01 2.511715000000000231e+01 1.459085000000000036e+02 1.878750000000000000e+03
1.450000000000000178e-01 1.505819999999999936e-01 2.430744999999999933e+01 1.445480000000000018e+02 1.878259999999999991e+03
1.459999999999999909e-01 1.505299999999999971e-01 2.348564999999999969e+01 1.431415000000000077e+02 1.877750000000000000e+03
1.469999999999999918e-01 1.504754999999999843e-01 2.265784999999999982e+01 1.417044999999999959e+02 1.877220000000000027e+03
1.479999999999999927e-01 1.504199999999999982e-01 2.183115000000000094e+01 1.402549999999999955e+02 1.876680000000000064e+03
1.489999999999999936e-01 1.503639999999999977e-01 2.101304999999999978e+01 1.388095000000000141e+02 1.876130000000000109e+03
1.499999999999999944e-01 1.503079999999999972e-01 2.021144999999999925e+01 1.373874999999999886e+02 1.875585000000000036e+03
1.509999999999999953e-01 1.502519999999999967e-01 1.943404999999999916e+01 1.360060000000000002e+02 1.875039999999999964e+03
1.519999999999999962e-01 1.501979999999999982e-01 1.868844999999999956e+01 1.346820000000000164e+02 1.874509999999999991e+03
1.529999999999999971e-01 1.501454999999999873e-01 1.798165000000000191e+01 1.334304999999999950e+02 1.873994999999999891e+03
1.539999999999999980e-01 1.500954999999999928e-01 1.731974999999999909e+01 1.322640000000000100e+02 1.873505000000000109e+03
1.549999999999999989e-01 1.500485000000000013e-01 1.670790000000000219e+01 1.311929999999999836e+02 1.873039999999999964e+03
1.559999999999999998e-01 1.500049999999999994e-01 1.614999999999999858e+01 1.302249999999999943e+02 1.872610000000000127e+03
1.570000000000000007e-01 1.499645000000000006e-01 1.564900000000000091e+01 1.293654999999999973e+02 1.872215000000000146e+03
1.580000000000000016e-01 1.499284999999999923e-01 1.520609999999999928e+01 1.286154999999999973e+02 1.871855000000000018e+03
1.590000000000000024e-01 1.498960000000000015e-01 1.482169999999999987e+01 1.279739999999999895e+02 1.871529999999999973e+03
