# t [s], A [cm^2], U [cm/s], P [cPa], c [cm/s]
1.000000000000000021e-03 5.599279999999999813e-01 4.036950000000004424e-03 9.991405000000000314e+01 1.477559999999999945e+03
2.000000000000000042e-03 5.599184999999999857e-01 -1.855290000000000107e-03 9.989365000000000805e+01 1.477555000000000064e+03
3.000000000000000062e-03 5.599540000000000628e-01 6.006405000000000771e-02 9.995175000000000409e+01 1.477569999999999936e+03
4.000000000000000083e-03 5.600049999999999750e-01 1.529393500000000017e-01 1.000609499999999912e+02 1.477599999999999909e+03
5.000000000000000104e-03 5.600070000000000325e-01 1.681834999999999858e-01 1.000748000000000104e+02 1.477615000000000009e+03
6.000000000000000125e-03 5.599624999999999186e-01 9.890799999999998204e-02 9.994964999999999122e+01 1.477579999999999927e+03
7.000000000000000146e-03 5.599134999999999529e-01 1.876050000000001328e-02 9.975499999999999545e+01 1.477534999999999854e+03
8.000000000000000167e-03 5.598610000000000531e-01 -7.461550000000000127e-02 9.950220000000000198e+01 1.477460000000000036e+03
9.000000000000001055e-03 5.597725000000000062e-01 -2.439254999999999618e-01 9.912160000000000082e+01 1.477365000000000009e+03
1.000000000000000194e-02 5.596360000000000223e-01 -5.096799999999999109e-01 9.856665000000000987e+01 1.477215000000000146e+03
1.099999999999999936e-02 5.594495000000000440e-01 -8.732900000000000107e-01 9.780750000000000455e+01 1.477009999999999991e+03
1.200000000000000025e-02 5.591975000000000140e-01 -1.349659999999999638e+00 9.679829999999999757e+01 1.476734999999999900e+03
1.300000000000000114e-02 5.588724999999999943e-01 -1.937869999999999759e+00 9.550645000000000095e+01 1.476369999999999891e+03
1.400000000000000203e-02 5.584955000000000336e-01 -2.583255000000000301e+00 9.396455000000000268e+01 1.475929999999999836e+03
1.499999999999999944e-02 5.581074999999999786e-01 -3.182174999999999976e+00 9.228024999999999523e+01 1.475434999999999945e+03
1.600000000000000033e-02 5.577550000000000008e-01 -3.624055500000000318e+00 9.059725000000000250e+01 1.474920000000000073e+03
1.700000000000000122e-02 5.574639999999999596e-01 -3.834070499999999715e+00 8.903915000000000646e+01 1.474414999999999964e+03
1.800000000000000211e-02 5.572369999999999823e-01 -3.792476549999999946e+00 8.767175000000000296e+01 1.473950000000000045e+03
1.900000000000000300e-02 5.570540000000000491e-01 -3.529995500000000064e+00 8.649334999999999241e+01 1.473525000000000091e+03
2.000000000000000042e-02 5.568865000000000620e-01 -3.108840499999999896e+00 8.544839999999999236e+01 1.473130000000000109e+03
2.100000000000000130e-02 5.567024999999999890e-01 -2.599414499999999961e+00 8.445335000000000036e+01 1.472744999999999891e+03
2.200000000000000219e-02 5.564824999999999910e-01 -2.059410000000000185e+00 8.342599999999998772e+01 1.472355000000000018e+03
2.299999999999999961e-02 5.562175000000000313e-01 -1.520514999999999839e+00 8.230940000000001078e+01 1.471944999999999936e+03
2.400000000000000050e-02 5.559144999999999781e-01 -9.855099999999998861e-01 8.108535000000000537e+01 1.471500000000000000e+03
2.500000000000000139e-02 5.555879999999999708e-01 -4.359150000000000524e-01 7.977199999999999136e+01 1.471029999999999973e+03
2.600000000000000228e-02 5.552544999999999842e-01 1.537649999999999295e-01 7.841015000000000157e+01 1.470550000000000182e+03
2.700000000000000316e-02 5.549285000000000467e-01 8.011599999999998722e-01 7.704394999999999527e+01 1.470059999999999945e+03
2.800000000000000058e-02 5.546140000000000514e-01 1.505405000000000104e+00 7.570269999999999300e+01 1.469574999999999818e+03
2.900000000000000147e-02 5.543050000000000477e-01 2.243125000000000036e+00 7.438994999999999891e+01 1.469095000000000027e+03
3.000000000000000236e-02 5.539895000000000236e-01 2.971095000000000041e+00 7.308060000000000400e+01 1.468615000000000009e+03
3.099999999999999978e-02 5.536484999999999879e-01 3.633809999999999985e+00 7.172560000000000002e+01 1.468125000000000000e+03
3.200000000000000067e-02 5.532629999999999493e-01 4.173989999999999867e+00 7.026364999999999839e+01 1.467610000000000127e+03
3.300000000000000155e-02 5.528199999999999781e-01 4.543829999999999814e+00 6.863550000000000750e+01 1.467049999999999955e+03
3.400000000000000244e-02 5.523120000000000251e-01 4.714330000000000354e+00 6.679890000000000327e+01 1.466440000000000055e+03
3.500000000000000333e-02 5.517434999999999423e-01 4.681474999999999831e+00 6.474105000000000132e+01 1.465769999999999982e+03
3.600000000000000422e-02 5.511279999999999513e-01 4.466559999999999420e+00 6.248429999999999751e+01 1.465039999999999964e+03
3.700000000000000511e-02 5.504870000000000596e-01 4.112014999999999532e+00 6.008485000000000298e+01 1.464275000000000091e+03
3.799999999999999906e-02 5.498465000000000158e-01 3.673559999999999715e+00 5.762550000000000239e+01 1.463485000000000127e+03
3.899999999999999994e-02 5.492340000000000000e-01 3.211049999999999738e+00 5.520400000000000063e+01 1.462700000000000045e+03
4.000000000000000083e-02 5.486725000000000074e-01 2.780680000000000263e+00 5.292069999999999652e+01 1.461944999999999936e+03
4.100000000000000172e-02 5.481820000000000581e-01 2.429019999999999513e+00 5.086769999999999925e+01 1.461255000000000109e+03
4.200000000000000261e-02 5.477764999999999995e-01 2.190339999999999954e+00 4.912104999999999677e+01 1.460644999999999982e+03
4.300000000000000350e-02 5.474634999999999918e-01 2.086395000000000000e+00 4.773644999999999783e+01 1.460139999999999873e+03
4.400000000000000439e-02 5.472474999999999978e-01 2.128070000000000128e+00 4.674819999999999709e+01 1.459750000000000000e+03
4.499999999999999833e-02 5.471274999999999888e-01 2.318344999999999878e+00 4.617145000000000010e+01 1.459480000000000018e+03
4.599999999999999922e-02 5.471015000000000184e-01 2.655549999999999855e+00 4.600580000000000069e+01 1.459344999999999800e+03
4.700000000000000011e-02 5.471654999999999713e-01 3.136270000000000113e+00 4.624009999999999820e+01 1.459335000000000036e+03
4.800000000000000100e-02 5.473154999999999548e-01 3.757290000000000241e+00 4.685699999999999932e+01 1.459450000000000045e+03
4.900000000000000189e-02 5.475474999999999648e-01 4.516435000000000421e+00 4.783610000000000184e+01 1.459690000000000055e+03
5.000000000000000278e-02 5.478585000000000260e-01 5.412150000000000460e+00 4.915619999999999834e+01 1.460045000000000073e+03
5.100000000000000366e-02 5.482434999999999947e-01 6.442289999999999850e+00 5.079555000000000575e+01 1.460505000000000109e+03
5.200000000000000455e-02 5.486984999999999779e-01 7.602660000000000196e+00 5.273104999999999620e+01 1.461065000000000055e+03
5.300000000000000544e-02 5.492174999999999141e-01 8.885474999999999568e+00 5.493719999999999715e+01 1.461720000000000027e+03
5.399999999999999939e-02 5.497929999999999762e-01 1.027845500000000101e+01 5.738495000000000346e+01 1.462460000000000036e+03
5.500000000000000028e-02 5.504164999999999752e-01 1.176496500000000012e+01 6.004079999999999728e+01 1.463275000000000091e+03
5.600000000000000117e-02 5.510779999999999568e-01 1.332412000000000063e+01 6.286724999999999852e+01 1.464154999999999973e+03
5.700000000000000205e-02 5.517670000000000075e-01 1.493245999999999896e+01 6.582349999999999568e+01 1.465085000000000036e+03
5.800000000000000294e-02 5.524735000000000618e-01 1.656502499999999856e+01 6.886735000000000184e+01 1.466055000000000064e+03
5.900000000000000383e-02 5.531865000000000254e-01 1.819725000000000037e+01 7.195699999999999363e+01 1.467055000000000064e+03
6.000000000000000472e-02 5.538984999999999603e-01 1.980640000000000001e+01 7.505340000000001055e+01 1.468059999999999945e+03
6.099999999999999867e-02 5.546005000000000518e-01 2.137279999999999802e+01 7.812205000000000155e+01 1.469079999999999927e+03
6.199999999999999956e-02 5.552880000000000038e-01 2.288060000000000116e+01 8.113474999999999682e+01 1.470085000000000036e+03
6.300000000000000044e-02 5.559574999999999934e-01 2.431804999999999950e+01 8.407040000000000646e+01 1.471074999999999818e+03
6.400000000000000133e-02 5.566059999999999341e-01 2.567784999999999940e+01 8.691544999999999277e+01 1.472050000000000182e+03
6.500000000000000222e-02 5.572340000000000071e-01 2.695619999999999905e+01 8.966349999999999909e+01 1.472994999999999891e+03
6.600000000000000311e-02 5.578425000000000189e-01 2.815285000000000082e+01 9.231489999999999441e+01 1.473914999999999964e+03
6.700000000000000400e-02 5.584324999999999983e-01 2.926995000000000147e+01 9.487465000000000259e+01 1.474809999999999945e+03
6.800000000000000488e-02 5.590079999999999494e-01 3.031184999999999974e+01 9.735360000000000014e+01 1.475679999999999836e+03
6.900000000000000577e-02 5.595704999999999707e-01 3.128395000000000081e+01 9.976375000000000171e+01 1.476535000000000082e+03
7.000000000000000666e-02 5.601254999999999429e-01 3.219245000000000090e+01 1.021191499999999905e+02 1.477365000000000009e+03
7.100000000000000755e-02 5.606735000000000468e-01 3.304375000000000284e+01 1.044344000000000108e+02 1.478184999999999945e+03
7.200000000000000844e-02 5.612190000000000234e-01 3.384369999999999834e+01 1.067224999999999966e+02 1.478994999999999891e+03
7.300000000000000933e-02 5.617634999999999712e-01 3.459754999999999825e+01 1.089945000000000022e+02 1.479795000000000073e+03
7.399999999999999634e-02 5.623084999999999889e-01 3.530925000000000580e+01 1.112584999999999980e+02 1.480595000000000027e+03
7.499999999999999722e-02 5.628539999999999655e-01 3.598140000000000072e+01 1.135184999999999889e+02 1.481394999999999982e+03
7.599999999999999811e-02 5.633989999999999831e-01 3.661480000000000246e+01 1.157760000000000105e+02 1.482184999999999945e+03
7.699999999999999900e-02 5.639440000000000008e-01 3.720860000000000412e+01 1.180270000000000010e+02 1.482980000000000018e+03
7.799999999999999989e-02 5.644839999999999858e-01 3.776030000000000086e+01 1.202630000000000052e+02 1.483764999999999873e+03
7.900000000000000078e-02 5.650174999999999503e-01 3.826579999999999870e+01 1.224729999999999990e+02 1.484545000000000073e+03
8.000000000000000167e-02 5.655405000000000015e-01 3.872005000000000052e+01 1.246415000000000077e+02 1.485309999999999945e+03
8.100000000000000255e-02 5.660484999999999545e-01 3.911695000000000277e+01 1.267524999999999977e+02 1.486065000000000055e+03
8.200000000000000344e-02 5.665370000000000683e-01 3.945015000000000072e+01 1.287870000000000061e+02 1.486789999999999964e+03
8.300000000000000433e-02 5.670014999999999361e-01 3.971340000000000003e+01 1.307270000000000039e+02 1.487490000000000009e+03
8.400000000000000522e-02 5.674390000000000267e-01 3.990094999999999459e+01 1.325544999999999902e+02 1.488155000000000200e+03
8.500000000000000611e-02 5.678449999999999331e-01 4.000775000000000148e+01 1.342535000000000025e+02 1.488775000000000091e+03
8.600000000000000699e-02 5.682165000000000132e-01 4.003000000000000114e+01 1.358089999999999975e+02 1.489355000000000018e+03
8.700000000000000788e-02 5.685514999999999874e-01 3.996514999999999418e+01 1.372104999999999961e+02 1.489884999999999991e+03
8.800000000000000877e-02 5.688480000000000203e-01 3.981220000000000425e+01 1.384495000000000005e+02 1.490359999999999900e+03
8.899999999999999578e-02 5.691060000000000008e-01 3.957179999999999609e+01 1.395215000000000032e+02 1.490784999999999854e+03
8.999999999999999667e-02 5.693245000000000111e-01 3.924599999999999511e+01 1.404254999999999995e+02 1.491150000000000091e+03
9.099999999999999756e-02 5.695054999999999978e-01 3.883845000000000169e+01 1.411639999999999873e+02 1.491454999999999927e+03
9.199999999999999845e-02 5.696499999999999897e-01 3.835430000000000206e+01 1.417425000000000068e+02 1.491715000000000146e+03
9.299999999999999933e-02 5.697594999999999743e-01 3.779999999999999716e+01 1.421689999999999827e+02 1.491914999999999964e+03
9.400000000000000022e-02 5.698374999999999968e-01 3.718314999999999770e+01 1.424549999999999841e+02 1.492069999999999936e+03
9.500000000000000111e-02 5.698870000000000324e-01 3.651214999999999833e+01 1.426150000000000091e+02 1.492174999999999955e+03
9.600000000000000200e-02 5.699110000000000564e-01 3.579645000000000010e+01 1.426619999999999777e+02 1.492244999999999891e+03
9.700000000000000289e-02 5.699140000000000317e-01 3.504554999999999865e+01 1.426134999999999877e+02 1.492269999999999982e+03
9.800000000000000377e-02 5.698990000000000444e-01 3.426955000000000240e+01 1.424859999999999900e+02 1.492269999999999982e+03
9.900000000000000466e-02 5.698710000000000164e-01 3.347820000000000107e+01 1.422959999999999923e+02 1.492240000000000009e+03
1.000000000000000056e-01 5.698324999999999640e-01 3.268094999999999573e+01 1.420600000000000023e+02 1.492184999999999945e+03
1.010000000000000064e-01 5.697870000000000434e-01 3.188644999999999641e+01 1.417940000000000111e+02 1.492119999999999891e+03
1.020000000000000073e-01 5.697385000000000366e-01 3.110260000000000247e+01 1.415104999999999791e+02 1.492045000000000073e+03
1.030000000000000082e-01 5.696885000000000421e-01 3.033595000000000397e+01 1.412225000000000250e+02 1.491960000000000036e+03
1.040000000000000091e-01 5.696394999999999653e-01 2.959169999999999945e+01 1.409395000000000095e+02 1.491880000000000109e+03
1.050000000000000100e-01 5.695924999999999461e-01 2.887355000000000160e+01 1.406684999999999945e+02 1.491789999999999964e+03
1.059999999999999970e-01 5.695485000000000131e-01 2.818355000000000032e+01 1.404139999999999873e+02 1.491704999999999927e+03
1.069999999999999979e-01 5.695074999999999443e-01 2.752224999999999966e+01 1.401779999999999973e+02 1.491625000000000000e+03
1.079999999999999988e-01 5.694690000000000030e-01 2.688870000000000005e+01 1.399594999999999914e+02 1.491549999999999955e+03
1.089999999999999997e-01 5.694319999999999382e-01 2.628065000000000140e+01 1.397554999999999836e+02 1.491474999999999909e+03
1.100000000000000006e-01 5.693954999999999433e-01 2.569454999999999956e+01 1.395604999999999905e+02 1.491404999999999973e+03
1.110000000000000014e-01 5.693580000000000307e-01 2.512610000000000099e+01 1.393679999999999950e+02 1.491335000000000036e+03
1.120000000000000023e-01 5.693165000000000031e-01 2.457029999999999959e+01 1.391700000000000159e+02 1.491259999999999991e+03
1.130000000000000032e-01 5.692699999999999427e-01 2.402185000000000059e+01 1.389574999999999818e+02 1.491184999999999945e+03
1.140000000000000041e-01 5.692160000000000553e-01 2.347529999999999717e+01 1.387220000000000084e+02 1.491099999999999909e+03
1.150000000000000050e-01 5.691534999999999789e-01 2.292539999999999978e+01 1.384549999999999841e+02 1.491009999999999991e+03
1.160000000000000059e-01 5.690800000000000303e-01 2.236730000000000018e+01 1.381480000000000246e+02 1.490904999999999973e+03
1.170000000000000068e-01 5.689934999999999299e-01 2.179675000000000296e+01 1.377959999999999923e+02 1.490785000000000082e+03
1.180000000000000077e-01 5.688949999999999285e-01 2.121049999999999969e+01 1.373919999999999959e+02 1.490654999999999973e+03
1.190000000000000085e-01 5.687824999999999687e-01 2.060604999999999976e+01 1.369339999999999975e+02 1.490505000000000109e+03
1.200000000000000094e-01 5.686565000000000092e-01 1.998209999999999908e+01 1.364194999999999993e+02 1.490339999999999918e+03
1.209999999999999964e-01 5.685175000000000090e-01 1.933849999999999980e+01 1.358500000000000227e+02 1.490154999999999973e+03
1.219999999999999973e-01 5.683664999999999967e-01 1.867620000000000147e+01 1.352275000000000205e+02 1.489949999999999818e+03
1.229999999999999982e-01 5.682034999999999725e-01 1.799729999999999919e+01 1.345564999999999998e+02 1.489730000000000018e+03
1.239999999999999991e-01 5.680319999999999814e-01 1.730505000000000138e+01 1.338449999999999989e+02 1.489500000000000000e+03
1.250000000000000000e-01 5.678540000000000809e-01 1.660369999999999990e+01 1.330989999999999895e+02 1.489255000000000109e+03
1.260000000000000009e-01 5.676704999999999668e-01 1.589815000000000111e+01 1.323290000000000077e+02 1.489000000000000000e+03
1.270000000000000018e-01 5.674854999999999761e-01 1.519419999999999860e+01 1.315465000000000089e+02 1.488739999999999782e+03
1.280000000000000027e-01 5.673004999999999853e-01 1.449796000000000085e+01 1.307614999999999839e+02 1.488474999999999909e+03
1.290000000000000036e-01 5.671194999999999986e-01 1.381578000000000017e+01 1.299859999999999900e+02 1.488214999999999918e+03
1.300000000000000044e-01 5.669444999999999624e-01 1.315413000000000032e+01 1.292319999999999993e+02 1.487960000000000036e+03
1.310000000000000053e-01 5.667780000000000040e-01 1.251918000000000042e+01 1.285109999999999957e+02 1.487710000000000036e+03
1.320000000000000062e-01 5.666229999999999878e-01 1.191670500000000033e+01 1.278324999999999960e+02 1.487470000000000027e+03
1.330000000000000071e-01 5.664804999999999424e-01 1.135191000000000017e+01 1.272060000000000031e+02 1.487244999999999891e+03
1.340000000000000080e-01 5.663529999999999953e-01 1.082909000000000077e+01 1.266390000000000100e+02 1.487045000000000073e+03
1.350000000000000089e-01 5.662409999999999943e-01 1.035172000000000025e+01 1.261375000000000028e+02 1.486855000000000018e+03
1.360000000000000098e-01 5.661460000000000381e-01 9.922195000000000320e+00 1.257060000000000031e+02 1.486695000000000164e+03
1.370000000000000107e-01 5.660674999999999457e-01 9.541814999999999714e+00 1.253449999999999989e+02 1.486549999999999955e+03
1.380000000000000115e-01 5.660054999999999392e-01 9.210815000000000197e+00 1.250564999999999998e+02 1.486434999999999945e+03
1.390000000000000124e-01 5.659594999999999487e-01 8.928345000000000198e+00 1.248375000000000057e+02 1.486335000000000036e+03
1.400000000000000133e-01 5.659284999999999455e-01 8.692555000000000476e+00 1.246850000000000023e+02 1.486264999999999873e+03
1.410000000000000142e-01 5.659110000000000529e-01 8.500804999999999723e+00 1.245939999999999941e+02 1.486210000000000036e+03
1.420000000000000151e-01 5.659060000000000201e-01 8.349574999999999747e+00 1.245570000000000022e+02 1.486175000000000182e+03
1.430000000000000160e-01 5.659104999999999830e-01 8.234890000000000043e+00 1.245680000000000121e+02 1.486159999999999854e+03
1.440000000000000169e-01 5.659239999999999826e-01 8.152280000000001081e+00 1.246189999999999998e+02 1.486154999999999973e+03
1.450000000000000178e-01 5.659434999999999327e-01 8.097075000000000244e+00 1.247009999999999934e+02 1.486164999999999964e+03
1.459999999999999909e-01 5.659669999999999979e-01 8.064499999999998892e+00 1.248059999999999974e+02 1.486184999999999945e+03
1.469999999999999918e-01 5.659939999999999971e-01 8.049875000000000114e+00 1.249259999999999877e+02 1.486210000000000036e+03
1.479999999999999927e-01 5.660220000000000251e-01 8.048709999999999809e+00 1.250545000000000044e+02 1.486244999999999891e+03
1.489999999999999936e-01 5.660494999999999832e-01 8.056834999999999525e+00 1.251829999999999927e+02 1.486275000000000091e+03
1.499999999999999944e-01 5.660754999999999537e-01 8.070470000000000255e+00 1.253079999999999927e+02 1.486309999999999945e+03
1.509999999999999953e-01 5.660990000000000189e-01 8.086324999999998653e+00 1.254235000000000042e+02 1.486344999999999800e+03
1.519999999999999962e-01 5.661194999999999977e-01 8.101594999999999658e+00 1.255254999999999939e+02 1.486375000000000000e+03
1.529999999999999971e-01 5.661359999999999726e-01 8.114010000000000389e+00 1.256124999999999972e+02 1.486400000000000091e+03
1.539999999999999980e-01 5.661490000000000133e-01 8.121805000000000163e+00 1.256825000000000045e+02 1.486420000000000073e+03
1.549999999999999989e-01 5.661579999999999391e-01 8.123754999999999171e+00 1.257339999999999947e+02 1.486440000000000055e+03
1.559999999999999998e-01 5.661625000000000130e-01 8.119075000000000486e+00 1.257690000000000055e+02 1.486454999999999927e+03
1.570000000000000007e-01 5.661640000000000006e-01 8.107435000000000613e+00 1.257860000000000014e+02 1.486464999999999918e+03
1.580000000000000016e-01 5.661620000000000541e-01 8.088905000000000456e+00 1.257884999999999991e+02 1.486464999999999918e+03
1.590000000000000024e-01 5.661574999999999802e-01 8.063870000000001426e+00 1.257770000000000010e+02 1.486465000000000146e+03
