# t [s], A [cm^2], U [cm/s], P [cPa], c [cm/s]
1.000000000000000021e-03 5.283474999999999699e-01 3.994000000000004491e-03 1.050840000000000032e+02 1.414860000000000127e+03
2.000000000000000042e-03 5.283390000000000031e-01 -1.091238000000000017e-03 1.050655000000000001e+02 1.414855000000000018e+03
3.000000000000000062e-03 5.283725000000000227e-01 5.709784999999999860e-02 1.051170000000000044e+02 1.414869999999999891e+03
4.000000000000000083e-03 5.284230000000000871e-01 1.485292000000000001e-01 1.052210000000000036e+02 1.414905000000000200e+03
5.000000000000000104e-03 5.284284999999999677e-01 1.668584999999999929e-01 1.052404999999999973e+02 1.414914999999999964e+03
6.000000000000000125e-03 5.283875000000000099e-01 1.012460000000000027e-01 1.051280000000000001e+02 1.414889999999999873e+03
7.000000000000000146e-03 5.283385000000000442e-01 1.877299999999998414e-02 1.049410000000000025e+02 1.414840000000000146e+03
8.000000000000000167e-03 5.282879999999999798e-01 -7.347700000000001452e-02 1.046980000000000075e+02 1.414775000000000091e+03
9.000000000000001055e-03 5.282040000000000068e-01 -2.351349999999999829e-01 1.043375000000000057e+02 1.414679999999999836e+03
1.000000000000000194e-02 5.280740000000000434e-01 -4.903399999999998871e-01 1.038110000000000070e+02 1.414539999999999964e+03
1.099999999999999936e-02 5.278970000000000606e-01 -8.360449999999999271e-01 1.030955000000000013e+02 1.414340000000000146e+03
1.200000000000000025e-02 5.276604999999999768e-01 -1.281519999999999770e+00 1.021517999999999944e+02 1.414079999999999927e+03
1.300000000000000114e-02 5.273545000000000593e-01 -1.832650000000000112e+00 1.009451999999999998e+02 1.413735000000000127e+03
1.400000000000000203e-02 5.269884999999999708e-01 -2.453545000000000087e+00 9.948300000000000409e+01 1.413315000000000055e+03
1.499999999999999944e-02 5.265965000000000229e-01 -3.057224999999999859e+00 9.784485000000000809e+01 1.412824999999999818e+03
1.600000000000000033e-02 5.262219999999999676e-01 -3.535339999999999705e+00 9.615744999999999720e+01 1.412299999999999955e+03
1.700000000000000122e-02 5.258994999999999642e-01 -3.799955000000000194e+00 9.454879999999999995e+01 1.411785000000000082e+03
1.800000000000000211e-02 5.256399999999999961e-01 -3.810407999999999795e+00 9.310554999999999382e+01 1.411289999999999964e+03
1.900000000000000300e-02 5.254339999999999566e-01 -3.577579999999999760e+00 9.185499999999998977e+01 1.410840000000000146e+03
2.000000000000000042e-02 5.252565000000000150e-01 -3.151667000000000218e+00 9.076704999999999757e+01 1.410420000000000073e+03
2.100000000000000130e-02 5.250785000000000036e-01 -2.601965499999999931e+00 8.977270000000000039e+01 1.410025000000000091e+03
2.200000000000000219e-02 5.248740000000000627e-01 -1.995795000000000208e+00 8.878934999999999889e+01 1.409630000000000109e+03
2.299999999999999961e-02 5.246275000000000244e-01 -1.381460000000000132e+00 8.774639999999999418e+01 1.409224999999999909e+03
2.400000000000000050e-02 5.243375000000000119e-01 -7.794849999999999834e-01 8.660354999999999848e+01 1.408795000000000073e+03
2.500000000000000139e-02 5.240139999999999798e-01 -1.840949999999996756e-01 8.535755000000000337e+01 1.408335000000000036e+03
2.600000000000000228e-02 5.236724999999999852e-01 4.265449999999999520e-01 8.403579999999999472e+01 1.407849999999999909e+03
2.700000000000000316e-02 5.233295000000000030e-01 1.075884999999999980e+00 8.268115000000000236e+01 1.407355000000000018e+03
2.800000000000000058e-02 5.229960000000000164e-01 1.775899999999999812e+00 8.133379999999999654e+01 1.406865000000000009e+03
2.900000000000000147e-02 5.226739999999999720e-01 2.519064999999999444e+00 8.001654999999999518e+01 1.406369999999999891e+03
3.000000000000000236e-02 5.223554999999999726e-01 3.276690000000000325e+00 7.872695000000000221e+01 1.405889999999999873e+03
3.099999999999999978e-02 5.220275000000000887e-01 4.002905000000000157e+00 7.743665000000000020e+01 1.405404999999999973e+03
3.200000000000000067e-02 5.216724999999999834e-01 4.642744999999999678e+00 7.609714999999999918e+01 1.404909999999999854e+03
3.300000000000000155e-02 5.212740000000000151e-01 5.142134999999999678e+00 7.465144999999999698e+01 1.404389999999999873e+03
3.400000000000000244e-02 5.208190000000000319e-01 5.458224999999999660e+00 7.304660000000001219e+01 1.403829999999999927e+03
3.500000000000000333e-02 5.203039999999999887e-01 5.567899999999999849e+00 7.124795000000000300e+01 1.403219999999999800e+03
3.600000000000000422e-02 5.197335000000000704e-01 5.472104999999999997e+00 6.924854999999999450e+01 1.402554999999999836e+03
3.700000000000000511e-02 5.191224999999999312e-01 5.196145000000000458e+00 6.707460000000000377e+01 1.401839999999999918e+03
3.799999999999999906e-02 5.184919999999999529e-01 4.785320000000000462e+00 6.478334999999999866e+01 1.401095000000000027e+03
3.899999999999999994e-02 5.178679999999999950e-01 4.297159999999999869e+00 6.245650000000000546e+01 1.400329999999999927e+03
4.000000000000000083e-02 5.172775000000000567e-01 3.793444999999999734e+00 6.018985000000000696e+01 1.399574999999999818e+03
4.100000000000000172e-02 5.167429999999999524e-01 3.332259999999999778e+00 5.808189999999999742e+01 1.398865000000000009e+03
4.200000000000000261e-02 5.162864999999999815e-01 2.962755000000000027e+00 5.622405000000000541e+01 1.398224999999999909e+03
4.300000000000000350e-02 5.159210000000000740e-01 2.722250000000000281e+00 5.469290000000000163e+01 1.397664999999999964e+03
4.400000000000000439e-02 5.156570000000000320e-01 2.635454999999999881e+00 5.354605000000000103e+01 1.397224999999999909e+03
4.499999999999999833e-02 5.154989999999999295e-01 2.715958499999999720e+00 5.282039999999999935e+01 1.396910000000000082e+03
4.599999999999999922e-02 5.154464999999999186e-01 2.968630000000000102e+00 5.253374999999999773e+01 1.396730000000000018e+03
4.700000000000000011e-02 5.154980000000000118e-01 3.392570000000000086e+00 5.268765000000000498e+01 1.396690000000000055e+03
4.800000000000000100e-02 5.156499999999999417e-01 3.983899999999999775e+00 5.327145000000000152e+01 1.396789999999999964e+03
4.900000000000000189e-02 5.158970000000000500e-01 4.737750000000000128e+00 5.426675000000000182e+01 1.397029999999999973e+03
5.000000000000000278e-02 5.162344999999999295e-01 5.649319999999999453e+00 5.565059999999999718e+01 1.397400000000000091e+03
5.100000000000000366e-02 5.166580000000000616e-01 6.713805000000000689e+00 5.739755000000000251e+01 1.397894999999999982e+03
5.200000000000000455e-02 5.171609999999999818e-01 7.925699999999999967e+00 5.948104999999999620e+01 1.398500000000000000e+03
5.300000000000000544e-02 5.177380000000000315e-01 9.277205000000000368e+00 6.187274999999999636e+01 1.399224999999999909e+03
5.399999999999999939e-02 5.183815000000000506e-01 1.075752999999999915e+01 6.454224999999999568e+01 1.400045000000000073e+03
5.500000000000000028e-02 5.190839999999999899e-01 1.235152000000000072e+01 6.745565000000000566e+01 1.400954999999999927e+03
5.600000000000000117e-02 5.198344999999999771e-01 1.403987000000000052e+01 7.057545000000000357e+01 1.401945000000000164e+03
5.700000000000000205e-02 5.206230000000000580e-01 1.579933999999999905e+01 7.386074999999999591e+01 1.403000000000000000e+03
5.800000000000000294e-02 5.214389999999999858e-01 1.760398500000000155e+01 7.726765000000000327e+01 1.404105000000000018e+03
5.900000000000000383e-02 5.222694999999999421e-01 1.942633999999999972e+01 8.075090000000000146e+01 1.405255000000000109e+03
6.000000000000000472e-02 5.231040000000000134e-01 2.123920000000000030e+01 8.426579999999999870e+01 1.406420000000000073e+03
6.099999999999999867e-02 5.239335000000000520e-01 2.301674999999999827e+01 8.777004999999999768e+01 1.407595000000000027e+03
6.199999999999999956e-02 5.247490000000000210e-01 2.473649999999999949e+01 9.122565000000000168e+01 1.408769999999999982e+03
6.300000000000000044e-02 5.255425000000000235e-01 2.637935000000000230e+01 9.460094999999999743e+01 1.409930000000000064e+03
6.400000000000000133e-02 5.263109999999999733e-01 2.793079999999999785e+01 9.787020000000001119e+01 1.411069999999999936e+03
6.500000000000000222e-02 5.270500000000000185e-01 2.938070000000000093e+01 1.010166000000000111e+02 1.412179999999999836e+03
6.600000000000000311e-02 5.277590000000000892e-01 3.072310000000000230e+01 1.040294499999999971e+02 1.413250000000000000e+03
6.700000000000000400e-02 5.284385000000000332e-01 3.195599999999999596e+01 1.069063000000000017e+02 1.414284999999999854e+03
6.800000000000000488e-02 5.290889999999999205e-01 3.308050000000000068e+01 1.096495000000000033e+02 1.415280000000000200e+03
6.900000000000000577e-02 5.297135000000000593e-01 3.410040000000000049e+01 1.122675000000000125e+02 1.416235000000000127e+03
7.000000000000000666e-02 5.303155000000000507e-01 3.502150000000000318e+01 1.147725000000000080e+02 1.417154999999999973e+03
7.100000000000000755e-02 5.308975000000000222e-01 3.585089999999999577e+01 1.171784999999999997e+02 1.418039999999999964e+03
7.200000000000000844e-02 5.314639999999999365e-01 3.659680000000000177e+01 1.195010000000000048e+02 1.418900000000000091e+03
7.300000000000000933e-02 5.320179999999999909e-01 3.726754999999999995e+01 1.217574999999999932e+02 1.419735000000000127e+03
7.399999999999999634e-02 5.325625000000000497e-01 3.787134999999999962e+01 1.239615000000000009e+02 1.420554999999999836e+03
7.499999999999999722e-02 5.331015000000000059e-01 3.841604999999999848e+01 1.261269999999999953e+02 1.421349999999999909e+03
7.599999999999999811e-02 5.336349999999999705e-01 3.890819999999999368e+01 1.282644999999999982e+02 1.422144999999999982e+03
7.699999999999999900e-02 5.341660000000000297e-01 3.935309999999999775e+01 1.303805000000000121e+02 1.422920000000000073e+03
7.799999999999999989e-02 5.346940000000000026e-01 3.975435000000000230e+01 1.324800000000000182e+02 1.423695000000000164e+03
7.900000000000000078e-02 5.352175000000000127e-01 4.011360000000000525e+01 1.345600000000000023e+02 1.424460000000000036e+03
8.000000000000000167e-02 5.357355000000000311e-01 4.043054999999999666e+01 1.366165000000000020e+02 1.425210000000000036e+03
8.100000000000000255e-02 5.362445000000000128e-01 4.070315000000000083e+01 1.386405000000000030e+02 1.425954999999999927e+03
8.200000000000000344e-02 5.367420000000000524e-01 4.092775000000000318e+01 1.406184999999999832e+02 1.426679999999999836e+03
8.300000000000000433e-02 5.372234999999999649e-01 4.109935000000000116e+01 1.425355000000000132e+02 1.427385000000000218e+03
8.400000000000000522e-02 5.376840000000000508e-01 4.121235000000000070e+01 1.443735000000000070e+02 1.428070000000000164e+03
8.500000000000000611e-02 5.381199999999999317e-01 4.126059999999999661e+01 1.461150000000000091e+02 1.428720000000000027e+03
8.600000000000000699e-02 5.385259999999999492e-01 4.123819999999999908e+01 1.477415000000000020e+02 1.429335000000000036e+03
8.700000000000000788e-02 5.388994999999999758e-01 4.113989999999999725e+01 1.492359999999999900e+02 1.429904999999999973e+03
8.800000000000000877e-02 5.392360000000000486e-01 4.096124999999999972e+01 1.505835000000000150e+02 1.430429999999999836e+03
8.899999999999999578e-02 5.395330000000000403e-01 4.069919999999999760e+01 1.517710000000000150e+02 1.430900000000000091e+03
8.999999999999999667e-02 5.397890000000000743e-01 4.035229999999999961e+01 1.527900000000000205e+02 1.431315000000000055e+03
9.099999999999999756e-02 5.400024999999999409e-01 3.992045000000000243e+01 1.536345000000000027e+02 1.431670000000000073e+03
9.199999999999999845e-02 5.401739999999999320e-01 3.940565000000000140e+01 1.543025000000000091e+02 1.431965000000000146e+03
9.299999999999999933e-02 5.403035000000000476e-01 3.881114999999999782e+01 1.547964999999999804e+02 1.432199999999999818e+03
9.400000000000000022e-02 5.403930000000000122e-01 3.814215000000000089e+01 1.551214999999999975e+02 1.432375000000000000e+03
9.500000000000000111e-02 5.404444999999999943e-01 3.740505000000000280e+01 1.552870000000000061e+02 1.432494999999999891e+03
9.600000000000000200e-02 5.404615000000000391e-01 3.660764999999999958e+01 1.553040000000000020e+02 1.432555000000000064e+03
9.700000000000000289e-02 5.404470000000000107e-01 3.575880000000000081e+01 1.551875000000000000e+02 1.432569999999999936e+03
9.800000000000000377e-02 5.404054999999999831e-01 3.486804999999999666e+01 1.549544999999999959e+02 1.432539999999999964e+03
9.900000000000000466e-02 5.403405000000000014e-01 3.394554999999999723e+01 1.546214999999999975e+02 1.432465000000000146e+03
1.000000000000000056e-01 5.402565000000000284e-01 3.300164999999999793e+01 1.542069999999999936e+02 1.432365000000000009e+03
1.010000000000000064e-01 5.401580000000000270e-01 3.204659999999999798e+01 1.537309999999999945e+02 1.432234999999999900e+03
1.020000000000000073e-01 5.400494999999999601e-01 3.109045000000000059e+01 1.532105000000000246e+02 1.432085000000000036e+03
1.030000000000000082e-01 5.399350000000000538e-01 3.014240000000000208e+01 1.526634999999999991e+02 1.431914999999999964e+03
1.040000000000000091e-01 5.398174999999999502e-01 2.921089999999999876e+01 1.521059999999999945e+02 1.431740000000000009e+03
1.050000000000000100e-01 5.397009999999999863e-01 2.830324999999999847e+01 1.515529999999999973e+02 1.431554999999999836e+03
1.059999999999999970e-01 5.395874999999999977e-01 2.742540000000000333e+01 1.510160000000000196e+02 1.431380000000000109e+03
1.069999999999999979e-01 5.394795000000000007e-01 2.658164999999999978e+01 1.505049999999999955e+02 1.431195000000000164e+03
1.079999999999999988e-01 5.393779999999999131e-01 2.577485000000000070e+01 1.500264999999999986e+02 1.431029999999999973e+03
1.089999999999999997e-01 5.392850000000000144e-01 2.500614999999999810e+01 1.495854999999999961e+02 1.430869999999999891e+03
1.100000000000000006e-01 5.391985000000000250e-01 2.427515000000000001e+01 1.491829999999999927e+02 1.430719999999999800e+03
1.110000000000000014e-01 5.391194999999999737e-01 2.357990000000000208e+01 1.488174999999999955e+02 1.430574999999999818e+03
1.120000000000000023e-01 5.390475000000000128e-01 2.291709999999999781e+01 1.484859999999999900e+02 1.430449999999999818e+03
1.130000000000000032e-01 5.389794999999999447e-01 2.228229999999999933e+01 1.481825000000000045e+02 1.430329999999999927e+03
1.140000000000000041e-01 5.389144999999999630e-01 2.167020000000000124e+01 1.479004999999999939e+02 1.430214999999999918e+03
1.150000000000000050e-01 5.388509999999999689e-01 2.107489999999999952e+01 1.476304999999999836e+02 1.430110000000000127e+03
1.160000000000000059e-01 5.387859999999999872e-01 2.048995000000000033e+01 1.473634999999999877e+02 1.430005000000000109e+03
1.170000000000000068e-01 5.387170000000000014e-01 1.990889999999999915e+01 1.470900000000000034e+02 1.429894999999999982e+03
1.180000000000000077e-01 5.386435000000000528e-01 1.932554999999999978e+01 1.468009999999999877e+02 1.429789999999999964e+03
1.190000000000000085e-01 5.385619999999999852e-01 1.873404999999999987e+01 1.464870000000000232e+02 1.429675000000000182e+03
1.200000000000000094e-01 5.384710000000000329e-01 1.812924999999999898e+01 1.461405000000000030e+02 1.429549999999999955e+03
1.209999999999999964e-01 5.383700000000000152e-01 1.750665000000000049e+01 1.457549999999999955e+02 1.429414999999999964e+03
1.219999999999999973e-01 5.382580000000000142e-01 1.686284999999999812e+01 1.453245000000000005e+02 1.429275000000000091e+03
1.229999999999999982e-01 5.381340000000000012e-01 1.619575000000000031e+01 1.448474999999999966e+02 1.429110000000000127e+03
1.239999999999999991e-01 5.379985000000000461e-01 1.550404999999999944e+01 1.443215000000000146e+02 1.428930000000000064e+03
1.250000000000000000e-01 5.378509999999999680e-01 1.478810000000000002e+01 1.437479999999999905e+02 1.428740000000000009e+03
1.260000000000000009e-01 5.376935000000000464e-01 1.404912000000000027e+01 1.431290000000000191e+02 1.428529999999999973e+03
1.270000000000000018e-01 5.375269999999999770e-01 1.328976499999999916e+01 1.424694999999999823e+02 1.428309999999999945e+03
1.280000000000000027e-01 5.373525000000000107e-01 1.251377000000000095e+01 1.417760000000000105e+02 1.428085000000000036e+03
1.290000000000000036e-01 5.371734999999999705e-01 1.172573500000000024e+01 1.410559999999999832e+02 1.427840000000000146e+03
1.300000000000000044e-01 5.369914999999999550e-01 1.093129499999999865e+01 1.403185000000000002e+02 1.427590000000000146e+03
1.310000000000000053e-01 5.368089999999999806e-01 1.013663500000000006e+01 1.395745000000000005e+02 1.427335000000000036e+03
1.320000000000000062e-01 5.366284999999999528e-01 9.348475000000000534e+00 1.388335000000000150e+02 1.427085000000000036e+03
1.330000000000000071e-01 5.364535000000000275e-01 8.573699999999998766e+00 1.381080000000000041e+02 1.426829999999999927e+03
1.340000000000000080e-01 5.362854999999999706e-01 7.819385000000000474e+00 1.374080000000000155e+02 1.426585000000000036e+03
1.350000000000000089e-01 5.361285000000000078e-01 7.092159999999999798e+00 1.367439999999999998e+02 1.426349999999999909e+03
1.360000000000000098e-01 5.359829999999999872e-01 6.398495000000000488e+00 1.361265000000000214e+02 1.426130000000000109e+03
1.370000000000000107e-01 5.358519999999999950e-01 5.744025000000000603e+00 1.355640000000000214e+02 1.425924999999999955e+03
1.380000000000000115e-01 5.357370000000000188e-01 5.133644999999999570e+00 1.350629999999999882e+02 1.425740000000000009e+03
1.390000000000000124e-01 5.356385000000000174e-01 4.571254999999999846e+00 1.346290000000000191e+02 1.425570000000000164e+03
1.400000000000000133e-01 5.355579999999999785e-01 4.059649999999999537e+00 1.342665000000000077e+02 1.425430000000000064e+03
1.410000000000000142e-01 5.354950000000000543e-01 3.600455000000000183e+00 1.339764999999999873e+02 1.425309999999999945e+03
1.420000000000000151e-01 5.354495000000000227e-01 3.194080000000000030e+00 1.337579999999999814e+02 1.425210000000000036e+03
1.430000000000000160e-01 5.354200000000000070e-01 2.839774999999999938e+00 1.336089999999999804e+02 1.425134999999999991e+03
1.440000000000000169e-01 5.354065000000000074e-01 2.535619999999999763e+00 1.335260000000000105e+02 1.425085000000000036e+03
1.450000000000000178e-01 5.354059999999999375e-01 2.278704999999999981e+00 1.335020000000000095e+02 1.425054999999999836e+03
1.459999999999999909e-01 5.354174999999999907e-01 2.065234999999999932e+00 1.335299999999999727e+02 1.425039999999999964e+03
1.469999999999999918e-01 5.354385000000000394e-01 1.890664999999999818e+00 1.336019999999999754e+02 1.425045000000000073e+03
1.479999999999999927e-01 5.354664999999999564e-01 1.749940000000000051e+00 1.337075000000000102e+02 1.425059999999999945e+03
1.489999999999999936e-01 5.354999999999999760e-01 1.637630000000000141e+00 1.338379999999999939e+02 1.425089999999999918e+03
1.499999999999999944e-01 5.355354999999999421e-01 1.548179999999999890e+00 1.339834999999999923e+02 1.425119999999999891e+03
1.509999999999999953e-01 5.355714999999999781e-01 1.476020000000000110e+00 1.341340000000000146e+02 1.425164999999999964e+03
1.519999999999999962e-01 5.356060000000000265e-01 1.415815000000000046e+00 1.342810000000000059e+02 1.425204999999999927e+03
1.529999999999999971e-01 5.356369999999999187e-01 1.362559999999999993e+00 1.344159999999999968e+02 1.425240000000000009e+03
1.539999999999999980e-01 5.356630000000000003e-01 1.311719999999999997e+00 1.345314999999999941e+02 1.425279999999999973e+03
1.549999999999999989e-01 5.356819999999999915e-01 1.259314999999999962e+00 1.346220000000000141e+02 1.425304999999999836e+03
1.559999999999999998e-01 5.356935000000000446e-01 1.202034999999999965e+00 1.346834999999999809e+02 1.425325000000000045e+03
1.570000000000000007e-01 5.356974999999999376e-01 1.137224999999999930e+00 1.347110000000000127e+02 1.425340000000000146e+03
1.580000000000000016e-01 5.356925000000000159e-01 1.062927999999999873e+00 1.347040000000000077e+02 1.425335000000000036e+03
1.590000000000000024e-01 5.356795000000000861e-01 9.778744999999999798e-01 1.346610000000000014e+02 1.425325000000000045e+03
