# t [s], A [cm^2], U [cm/s], P [cPa], c [cm/s]
1.000000000000000021e-03 1.777779999999999916e-01 3.350521000000000194e-01 9.750864999999998872e+01 2.217699999999999818e+03
2.000000000000000042e-03 1.777235000000000065e-01 1.893645999999999940e+00 9.386500000000000909e+01 2.217199999999999818e+03
3.000000000000000062e-03 1.775884999999999825e-01 3.828539000000000136e+00 8.876320000000001187e+01 2.216010000000000218e+03
4.000000000000000083e-03 1.774109999999999854e-01 6.024093000000000586e+00 8.336254999999999882e+01 2.214485000000000127e+03
5.000000000000000104e-03 1.772289999999999976e-01 8.378610000000000113e+00 7.870570000000000732e+01 2.212914999999999964e+03
6.000000000000000125e-03 1.770570000000000199e-01 1.064015999999999984e+01 7.495324999999999704e+01 2.211470000000000255e+03
7.000000000000000146e-03 1.768985000000000141e-01 1.256564000000000014e+01 7.167140000000000555e+01 2.210159999999999854e+03
8.000000000000000167e-03 1.767560000000000242e-01 1.413391500000000001e+01 6.872079999999999700e+01 2.209000000000000000e+03
9.000000000000001055e-03 1.766349999999999865e-01 1.541099999999999959e+01 6.626205000000000211e+01 2.208034999999999854e+03
1.000000000000000194e-02 1.765364999999999851e-01 1.642555000000000121e+01 6.433240000000000691e+01 2.207250000000000000e+03
1.099999999999999936e-02 1.764589999999999770e-01 1.719979999999999976e+01 6.287210000000000321e+01 2.206649999999999636e+03
1.200000000000000025e-02 1.764005000000000156e-01 1.774530000000000030e+01 6.177489999999999526e+01 2.206194999999999709e+03
1.300000000000000114e-02 1.763524999999999954e-01 1.806099999999999994e+01 6.086230000000000473e+01 2.205840000000000146e+03
1.400000000000000203e-02 1.763139999999999985e-01 1.820475000000000065e+01 6.006149999999999523e+01 2.205559999999999945e+03
1.499999999999999944e-02 1.762880000000000003e-01 1.834369999999999834e+01 5.963660000000000139e+01 2.205369999999999891e+03
1.600000000000000033e-02 1.762869999999999993e-01 1.868874999999999886e+01 6.011540000000000106e+01 2.205375000000000000e+03
1.700000000000000122e-02 1.763214999999999921e-01 1.936195000000000022e+01 6.190915000000000390e+01 2.205649999999999636e+03
1.800000000000000211e-02 1.763935000000000086e-01 2.030975000000000108e+01 6.495005000000000450e+01 2.206224999999999909e+03
1.900000000000000300e-02 1.764914999999999956e-01 2.132059999999999889e+01 6.862180000000000746e+01 2.207010000000000218e+03
2.000000000000000042e-02 1.765940000000000010e-01 2.212480000000000047e+01 7.200319999999999254e+01 2.207845000000000255e+03
2.100000000000000130e-02 1.766785000000000161e-01 2.251184999999999903e+01 7.425645000000000095e+01 2.208550000000000182e+03
2.200000000000000219e-02 1.767285000000000106e-01 2.240939999999999799e+01 7.495189999999999486e+01 2.208985000000000127e+03
2.299999999999999961e-02 1.767390000000000072e-01 2.189410000000000167e+01 7.419059999999998922e+01 2.209105000000000018e+03
2.400000000000000050e-02 1.767179999999999862e-01 2.113935000000000031e+01 7.249334999999999241e+01 2.208965000000000146e+03
2.500000000000000139e-02 1.766790000000000027e-01 2.033184999999999931e+01 7.053464999999999918e+01 2.208659999999999854e+03
2.600000000000000228e-02 1.766369999999999885e-01 1.959770000000000323e+01 6.885814999999999486e+01 2.208324999999999818e+03
2.700000000000000316e-02 1.766010000000000080e-01 1.896690000000000254e+01 6.769499999999999318e+01 2.208029999999999745e+03
2.800000000000000058e-02 1.765730000000000077e-01 1.838335000000000008e+01 6.693995000000001028e+01 2.207795000000000073e+03
2.900000000000000147e-02 1.765479999999999827e-01 1.774799999999999756e+01 6.626539999999999964e+01 2.207585000000000036e+03
3.000000000000000236e-02 1.765180000000000082e-01 1.697404999999999831e+01 6.530670000000000641e+01 2.207350000000000364e+03
3.099999999999999978e-02 1.764769999999999950e-01 1.603350000000000009e+01 6.384434999999999860e+01 2.207029999999999745e+03
3.200000000000000067e-02 1.764235000000000109e-01 1.497929999999999851e+01 6.191779999999999973e+01 2.206599999999999909e+03
3.300000000000000155e-02 1.763619999999999910e-01 1.393609999999999971e+01 5.983389999999999986e+01 2.206110000000000127e+03
3.400000000000000244e-02 1.763035000000000019e-01 1.306300000000000061e+01 5.807035000000000480e+01 2.205639999999999873e+03
3.500000000000000333e-02 1.762615000000000154e-01 1.250264999999999915e+01 5.711234999999999928e+01 2.205284999999999854e+03
3.600000000000000422e-02 1.762460000000000138e-01 1.233644999999999925e+01 5.728744999999999976e+01 2.205144999999999982e+03
3.700000000000000511e-02 1.762630000000000030e-01 1.256015000000000015e+01 5.865605000000000047e+01 2.205255000000000109e+03
3.799999999999999906e-02 1.763105000000000089e-01 1.308544999999999980e+01 6.099009999999999820e+01 2.205614999999999782e+03
3.899999999999999994e-02 1.763800000000000090e-01 1.376370000000000005e+01 6.383445000000000391e+01 2.206159999999999854e+03
4.000000000000000083e-02 1.764590000000000047e-01 1.442115000000000080e+01 6.662210000000000321e+01 2.206784999999999854e+03
4.100000000000000172e-02 1.765305000000000069e-01 1.489474999999999838e+01 6.880310000000000059e+01 2.207364999999999782e+03
4.200000000000000261e-02 1.765820000000000167e-01 1.505979999999999919e+01 6.995185000000000741e+01 2.207789999999999964e+03
4.300000000000000350e-02 1.766030000000000100e-01 1.484534999999999982e+01 6.983079999999999643e+01 2.207980000000000018e+03
4.400000000000000439e-02 1.765879999999999950e-01 1.423535000000000039e+01 6.840364999999999895e+01 2.207875000000000000e+03
4.499999999999999833e-02 1.765369999999999995e-01 1.325949999999999918e+01 6.580464999999999520e+01 2.207485000000000127e+03
4.599999999999999922e-02 1.764539999999999997e-01 1.197823999999999955e+01 6.228040000000000020e+01 2.206829999999999927e+03
4.700000000000000011e-02 1.763445000000000151e-01 1.046638500000000072e+01 5.812434999999999974e+01 2.205960000000000036e+03
4.800000000000000100e-02 1.762170000000000125e-01 8.800474999999998715e+00 5.362234999999999729e+01 2.204934999999999945e+03
4.900000000000000189e-02 1.760789999999999855e-01 7.051555000000000462e+00 4.901859999999999928e+01 2.203824999999999818e+03
5.000000000000000278e-02 1.759364999999999957e-01 5.283019999999999605e+00 4.450480000000000302e+01 2.202675000000000182e+03
5.100000000000000366e-02 1.757949999999999791e-01 3.552458000000000116e+00 4.022769999999999868e+01 2.201529999999999745e+03
5.200000000000000455e-02 1.756599999999999828e-01 1.914934999999999832e+00 3.630620000000000402e+01 2.200430000000000291e+03
5.300000000000000544e-02 1.755355000000000110e-01 4.257850000000000801e-01 3.284895000000000209e+01 2.199420000000000073e+03
5.399999999999999939e-02 1.754249999999999976e-01 -8.584350000000000591e-01 2.996645000000000181e+01 2.198514999999999873e+03
5.500000000000000028e-02 1.753329999999999889e-01 -1.881403000000000159e+00 2.777420000000000044e+01 2.197760000000000218e+03
5.600000000000000117e-02 1.752634999999999887e-01 -2.590540000000000287e+00 2.638674999999999926e+01 2.197180000000000291e+03
5.700000000000000205e-02 1.752199999999999869e-01 -2.941710000000000047e+00 2.590474999999999994e+01 2.196805000000000291e+03
5.800000000000000294e-02 1.752055000000000140e-01 -2.903920000000000279e+00 2.640109999999999957e+01 2.196664999999999964e+03
5.900000000000000383e-02 1.752219999999999889e-01 -2.462975000000000136e+00 2.790760000000000218e+01 2.196769999999999982e+03
6.000000000000000472e-02 1.752704999999999957e-01 -1.623343999999999898e+00 3.040735000000000099e+01 2.197135000000000218e+03
6.099999999999999867e-02 1.753500000000000059e-01 -4.080250000000000821e-01 3.383365000000000578e+01 2.197750000000000000e+03
6.199999999999999956e-02 1.754574999999999885e-01 1.143405000000000005e+00 3.807460000000000377e+01 2.198595000000000255e+03
6.300000000000000044e-02 1.755909999999999971e-01 2.977989500000000067e+00 4.298329999999999984e+01 2.199649999999999636e+03
6.400000000000000133e-02 1.757454999999999989e-01 5.033362999999999587e+00 4.838954999999999984e+01 2.200880000000000109e+03
6.500000000000000222e-02 1.759155000000000024e-01 7.241894999999999527e+00 5.411305000000000121e+01 2.202244999999999891e+03
6.600000000000000311e-02 1.760964999999999892e-01 9.534845000000000681e+00 5.997569999999999624e+01 2.203699999999999818e+03
6.700000000000000400e-02 1.762819999999999943e-01 1.184613500000000030e+01 6.581274999999999409e+01 2.205204999999999927e+03
6.800000000000000488e-02 1.764680000000000137e-01 1.411619999999999919e+01 7.148205000000000098e+01 2.206715000000000146e+03
6.900000000000000577e-02 1.766490000000000005e-01 1.629475000000000051e+01 7.687170000000000414e+01 2.208194999999999709e+03
7.000000000000000666e-02 1.768235000000000223e-01 1.834345000000000070e+01 8.190575000000001182e+01 2.209625000000000000e+03
7.100000000000000755e-02 1.769880000000000064e-01 2.023749999999999716e+01 8.654664999999999964e+01 2.210980000000000018e+03
7.200000000000000844e-02 1.771419999999999939e-01 2.196580000000000155e+01 9.079529999999999745e+01 2.212250000000000000e+03
7.300000000000000933e-02 1.772845000000000115e-01 2.353030000000000044e+01 9.468665000000000020e+01 2.213429999999999836e+03
7.399999999999999634e-02 1.774175000000000058e-01 2.494420000000000215e+01 9.828354999999999109e+01 2.214534999999999854e+03
7.499999999999999722e-02 1.775420000000000054e-01 2.622885000000000133e+01 1.016661000000000001e+02 2.215574999999999818e+03
7.599999999999999811e-02 1.776615000000000000e-01 2.741075000000000017e+01 1.049227500000000077e+02 2.216565000000000055e+03
7.699999999999999900e-02 1.777765000000000040e-01 2.851800000000000068e+01 1.081399999999999864e+02 2.217525000000000091e+03
7.799999999999999989e-02 1.778909999999999936e-01 2.957714999999999961e+01 1.113905000000000030e+02 2.218474999999999909e+03
7.900000000000000078e-02 1.780069999999999986e-01 3.061095000000000255e+01 1.147319999999999993e+02 2.219434999999999945e+03
8.000000000000000167e-02 1.781240000000000046e-01 3.163589999999999947e+01 1.181965000000000003e+02 2.220414999999999964e+03
8.100000000000000255e-02 1.782455000000000012e-01 3.266170000000000329e+01 1.217944999999999993e+02 2.221420000000000073e+03
8.200000000000000344e-02 1.783700000000000008e-01 3.369079999999999586e+01 1.255120000000000005e+02 2.222444999999999709e+03
8.300000000000000433e-02 1.784975000000000034e-01 3.471849999999999881e+01 1.293154999999999859e+02 2.223500000000000000e+03
8.400000000000000522e-02 1.786269999999999802e-01 3.573399999999999466e+01 1.331555000000000177e+02 2.224574999999999818e+03
8.500000000000000611e-02 1.787564999999999849e-01 3.672144999999999726e+01 1.369685000000000059e+02 2.225649999999999636e+03
8.600000000000000699e-02 1.788849999999999885e-01 3.766140000000000043e+01 1.406879999999999882e+02 2.226715000000000146e+03
8.700000000000000788e-02 1.790090000000000015e-01 3.853235000000000099e+01 1.442429999999999950e+02 2.227750000000000000e+03
8.800000000000000877e-02 1.791280000000000094e-01 3.931215000000000259e+01 1.475645000000000095e+02 2.228739999999999782e+03
8.899999999999999578e-02 1.792394999999999960e-01 3.997939999999999827e+01 1.505905000000000200e+02 2.229664999999999964e+03
8.999999999999999667e-02 1.793410000000000004e-01 4.051510000000000389e+01 1.532684999999999889e+02 2.230519999999999982e+03
9.099999999999999756e-02 1.794304999999999928e-01 4.090364999999999895e+01 1.555570000000000164e+02 2.231275000000000091e+03
9.199999999999999845e-02 1.795085000000000153e-01 4.113375000000000625e+01 1.574275000000000091e+02 2.231930000000000291e+03
9.299999999999999933e-02 1.795729999999999826e-01 4.119944999999999879e+01 1.588679999999999950e+02 2.232480000000000018e+03
9.400000000000000022e-02 1.796234999999999915e-01 4.110025000000000261e+01 1.598815000000000168e+02 2.232909999999999854e+03
9.500000000000000111e-02 1.796605000000000008e-01 4.084140000000000015e+01 1.604850000000000136e+02 2.233230000000000018e+03
9.600000000000000200e-02 1.796845000000000248e-01 4.043354999999999677e+01 1.607094999999999914e+02 2.233445000000000164e+03
9.700000000000000289e-02 1.796969999999999956e-01 3.989209999999999923e+01 1.605995000000000061e+02 2.233560000000000400e+03
9.800000000000000377e-02 1.796984999999999832e-01 3.923640000000000327e+01 1.602069999999999936e+02 2.233579999999999927e+03
9.900000000000000466e-02 1.796905000000000030e-01 3.848870000000000147e+01 1.595889999999999986e+02 2.233525000000000091e+03
1.000000000000000056e-01 1.796750000000000014e-01 3.767280000000000229e+01 1.588070000000000164e+02 2.233409999999999854e+03
1.010000000000000064e-01 1.796544999999999948e-01 3.681295000000000073e+01 1.579200000000000159e+02 2.233244999999999891e+03
1.020000000000000073e-01 1.796300000000000119e-01 3.593265000000000242e+01 1.569855000000000018e+02 2.233050000000000182e+03
1.030000000000000082e-01 1.796039999999999859e-01 3.505375000000000085e+01 1.560529999999999973e+02 2.232835000000000036e+03
1.040000000000000091e-01 1.795769999999999866e-01 3.419530000000000314e+01 1.551644999999999754e+02 2.232609999999999673e+03
1.050000000000000100e-01 1.795510000000000161e-01 3.337295000000000300e+01 1.543539999999999850e+02 2.232394999999999982e+03
1.059999999999999970e-01 1.795265000000000055e-01 3.259829999999999472e+01 1.536435000000000173e+02 2.232195000000000164e+03
1.069999999999999979e-01 1.795049999999999979e-01 3.187879999999999825e+01 1.530434999999999945e+02 2.232015000000000327e+03
1.079999999999999988e-01 1.794870000000000076e-01 3.121720000000000184e+01 1.525550000000000068e+02 2.231855000000000018e+03
1.089999999999999997e-01 1.794709999999999916e-01 3.061209999999999809e+01 1.521664999999999850e+02 2.231715000000000146e+03
1.100000000000000006e-01 1.794580000000000064e-01 3.005765000000000242e+01 1.518584999999999923e+02 2.231605000000000018e+03
1.110000000000000014e-01 1.794469999999999954e-01 2.954475000000000051e+01 1.516025000000000205e+02 2.231510000000000218e+03
1.120000000000000023e-01 1.794374999999999998e-01 2.906125000000000114e+01 1.513634999999999877e+02 2.231425000000000182e+03
1.130000000000000032e-01 1.794274999999999898e-01 2.859295000000000186e+01 1.511045000000000016e+02 2.231340000000000146e+03
1.140000000000000041e-01 1.794169999999999932e-01 2.812469999999999715e+01 1.507835000000000036e+02 2.231250000000000000e+03
1.150000000000000050e-01 1.794044999999999945e-01 2.764144999999999897e+01 1.503640000000000043e+02 2.231139999999999873e+03
1.160000000000000059e-01 1.793879999999999919e-01 2.712900000000000134e+01 1.498104999999999905e+02 2.231010000000000218e+03
1.170000000000000068e-01 1.793675000000000130e-01 2.657535000000000025e+01 1.490949999999999989e+02 2.230840000000000146e+03
1.180000000000000077e-01 1.793420000000000014e-01 2.597109999999999985e+01 1.481985000000000241e+02 2.230630000000000109e+03
1.190000000000000085e-01 1.793109999999999982e-01 2.531044999999999945e+01 1.471109999999999900e+02 2.230375000000000000e+03
1.200000000000000094e-01 1.792745000000000033e-01 2.459149999999999991e+01 1.458315000000000055e+02 2.230069999999999709e+03
1.209999999999999964e-01 1.792314999999999880e-01 2.381634999999999991e+01 1.443735000000000070e+02 2.229720000000000255e+03
1.219999999999999973e-01 1.791829999999999812e-01 2.299119999999999919e+01 1.427579999999999814e+02 2.229319999999999709e+03
1.229999999999999982e-01 1.791300000000000114e-01 2.212584999999999980e+01 1.410160000000000196e+02 2.228885000000000218e+03
1.239999999999999991e-01 1.790734999999999966e-01 2.123345000000000127e+01 1.391865000000000236e+02 2.228420000000000073e+03
1.250000000000000000e-01 1.790134999999999921e-01 2.032914999999999850e+01 1.373135000000000048e+02 2.227925000000000182e+03
1.260000000000000009e-01 1.789525000000000143e-01 1.942999999999999972e+01 1.354429999999999836e+02 2.227425000000000182e+03
1.270000000000000018e-01 1.788925000000000098e-01 1.855324999999999847e+01 1.336220000000000141e+02 2.226920000000000073e+03
1.280000000000000027e-01 1.788334999999999786e-01 1.771600000000000108e+01 1.318960000000000150e+02 2.226434999999999945e+03
1.290000000000000036e-01 1.787770000000000192e-01 1.693380000000000152e+01 1.303025000000000091e+02 2.225965000000000146e+03
1.300000000000000044e-01 1.787254999999999816e-01 1.622019999999999840e+01 1.288760000000000048e+02 2.225534999999999854e+03
1.310000000000000053e-01 1.786780000000000035e-01 1.558605000000000018e+01 1.276409999999999911e+02 2.225144999999999982e+03
1.320000000000000062e-01 1.786375000000000046e-01 1.503889999999999816e+01 1.266140000000000043e+02 2.224795000000000073e+03
1.330000000000000071e-01 1.786030000000000117e-01 1.458309999999999995e+01 1.258015000000000043e+02 2.224505000000000109e+03
1.340000000000000080e-01 1.785749999999999837e-01 1.421950000000000003e+01 1.252030000000000030e+02 2.224265000000000327e+03
1.350000000000000089e-01 1.785539999999999905e-01 1.394589999999999996e+01 1.248075000000000045e+02 2.224085000000000036e+03
1.360000000000000098e-01 1.785390000000000033e-01 1.375714999999999932e+01 1.246004999999999967e+02 2.223960000000000036e+03
1.370000000000000107e-01 1.785304999999999809e-01 1.364570000000000149e+01 1.245589999999999975e+02 2.223875000000000000e+03
1.380000000000000115e-01 1.785264999999999769e-01 1.360205000000000020e+01 1.246585000000000036e+02 2.223840000000000146e+03
1.390000000000000124e-01 1.785269999999999913e-01 1.361544999999999916e+01 1.248710000000000093e+02 2.223840000000000146e+03
1.400000000000000133e-01 1.785319999999999963e-01 1.367415000000000092e+01 1.251674999999999898e+02 2.223869999999999891e+03
1.410000000000000142e-01 1.785390000000000033e-01 1.376624999999999943e+01 1.255190000000000055e+02 2.223920000000000073e+03
1.420000000000000151e-01 1.785479999999999845e-01 1.388005000000000067e+01 1.259004999999999939e+02 2.223994999999999891e+03
1.430000000000000160e-01 1.785585000000000089e-01 1.400450000000000017e+01 1.262854999999999990e+02 2.224074999999999818e+03
1.440000000000000169e-01 1.785694999999999921e-01 1.412950000000000017e+01 1.266535000000000082e+02 2.224164999999999964e+03
1.450000000000000178e-01 1.785795000000000021e-01 1.424630000000000152e+01 1.269865000000000066e+02 2.224250000000000000e+03
1.459999999999999909e-01 1.785889999999999977e-01 1.434779999999999944e+01 1.272710000000000008e+02 2.224329999999999927e+03
1.469999999999999918e-01 1.785975000000000201e-01 1.442854999999999954e+01 1.274979999999999905e+02 2.224394999999999982e+03
1.479999999999999927e-01 1.786039999999999850e-01 1.448499999999999943e+01 1.276620000000000061e+02 2.224454999999999927e+03
1.489999999999999936e-01 1.786085000000000034e-01 1.451529999999999987e+01 1.277625000000000028e+02 2.224494999999999891e+03
1.499999999999999944e-01 1.786119999999999930e-01 1.451950000000000074e+01 1.278029999999999973e+02 2.224524999999999636e+03
1.509999999999999953e-01 1.786135000000000084e-01 1.449920000000000009e+01 1.277899999999999920e+02 2.224534999999999854e+03
1.519999999999999962e-01 1.786135000000000084e-01 1.445730000000000004e+01 1.277340000000000089e+02 2.224534999999999854e+03
1.529999999999999971e-01 1.786115000000000064e-01 1.439775000000000027e+01 1.276454999999999984e+02 2.224529999999999745e+03
1.539999999999999980e-01 1.786094999999999766e-01 1.432535000000000025e+01 1.275380000000000109e+02 2.224510000000000218e+03
1.549999999999999989e-01 1.786065000000000014e-01 1.424500000000000099e+01 1.274240000000000066e+02 2.224489999999999782e+03
1.559999999999999998e-01 1.786035000000000261e-01 1.416185000000000116e+01 1.273165000000000049e+02 2.224465000000000146e+03
1.570000000000000007e-01 1.786010000000000097e-01 1.408050000000000068e+01 1.272259999999999991e+02 2.224440000000000055e+03
1.580000000000000016e-01 1.785984999999999934e-01 1.400499999999999901e+01 1.271610000000000014e+02 2.224425000000000182e+03
1.590000000000000024e-01 1.785975000000000201e-01 1.393840000000000146e+01 1.271274999999999977e+02 2.224409999999999854e+03
