# t [s], A [cm^2], U [cm/s], P [cPa], c [cm/s]
1.000000000000000021e-03 6.192390000000000949e-01 4.147450000000003911e-03 9.418155000000000143e+01 1.560109999999999900e+03
2.000000000000000042e-03 6.192284999999999595e-01 -1.632814999999999917e-03 9.415654999999999575e+01 1.560105000000000018e+03
3.000000000000000062e-03 6.192809999999999704e-01 8.982530000000001069e-02 9.424819999999999709e+01 1.560130000000000109e+03
4.000000000000000083e-03 6.193309999999999649e-01 1.861537000000000053e-01 9.436355000000000359e+01 1.560164999999999964e+03
5.000000000000000104e-03 6.193104999999999860e-01 1.689500500000000183e-01 9.432269999999999754e+01 1.560155000000000200e+03
6.000000000000000125e-03 6.192459999999999631e-01 7.250299999999998413e-02 9.412260000000000559e+01 1.560105000000000018e+03
7.000000000000000146e-03 6.191869999999999319e-01 -2.273249999999998883e-02 9.385765000000000668e+01 1.560039999999999964e+03
8.000000000000000167e-03 6.191020000000000412e-01 -1.745200000000000085e-01 9.347759999999999536e+01 1.559940000000000055e+03
9.000000000000001055e-03 6.189575000000000493e-01 -4.437400000000000233e-01 9.289289999999999736e+01 1.559799999999999955e+03
1.000000000000000194e-02 6.187519999999999687e-01 -8.321749999999999980e-01 9.206510000000000105e+01 1.559590000000000146e+03
1.099999999999999936e-02 6.184724999999999806e-01 -1.352665000000000006e+00 9.094415000000000759e+01 1.559299999999999955e+03
1.200000000000000025e-02 6.181004999999999416e-01 -2.019254999999999800e+00 8.947384999999999877e+01 1.558909999999999854e+03
1.300000000000000114e-02 6.176544999999999952e-01 -2.782509999999999817e+00 8.767375000000001251e+01 1.558429999999999836e+03
1.400000000000000203e-02 6.171895000000000575e-01 -3.515085000000000015e+00 8.568104999999999905e+01 1.557880000000000109e+03
1.499999999999999944e-02 6.167724999999999458e-01 -4.067110000000000447e+00 8.370080000000000098e+01 1.557315000000000055e+03
1.600000000000000033e-02 6.164434999999999221e-01 -4.334397449999999985e+00 8.191515000000001123e+01 1.556779999999999973e+03
1.700000000000000122e-02 6.162060000000000315e-01 -4.291832999999999565e+00 8.041804999999999382e+01 1.556295000000000073e+03
1.800000000000000211e-02 6.160309999999999953e-01 -3.986990000000000034e+00 7.919849999999999568e+01 1.555869999999999891e+03
1.900000000000000300e-02 6.158730000000000038e-01 -3.510455499999999951e+00 7.816384999999999650e+01 1.555490000000000009e+03
2.000000000000000042e-02 6.156900000000000706e-01 -2.959402500000000380e+00 7.718385000000000673e+01 1.555130000000000109e+03
2.100000000000000130e-02 6.154545000000000154e-01 -2.406277500000000291e+00 7.613970000000000482e+01 1.554755000000000109e+03
2.200000000000000219e-02 6.151610000000000689e-01 -1.881149999999999878e+00 7.496080000000000609e+01 1.554345000000000027e+03
2.299999999999999961e-02 6.148245000000001070e-01 -1.372554999999999747e+00 7.363949999999999818e+01 1.553909999999999854e+03
2.400000000000000050e-02 6.144689999999999319e-01 -8.446599999999997443e-01 7.221924999999998818e+01 1.553444999999999936e+03
2.500000000000000139e-02 6.141179999999999417e-01 -2.617850000000001565e-01 7.076529999999999632e+01 1.552965000000000146e+03
2.600000000000000228e-02 6.137835000000000374e-01 3.904000000000000803e-01 6.933189999999999031e+01 1.552490000000000009e+03
2.700000000000000316e-02 6.134619999999999518e-01 1.093869999999999898e+00 6.793800000000000239e+01 1.552019999999999982e+03
2.800000000000000058e-02 6.131370000000000431e-01 1.798715000000000064e+00 6.655715000000000714e+01 1.551550000000000182e+03
2.900000000000000147e-02 6.127825000000000077e-01 2.433055000000000412e+00 6.512250000000000227e+01 1.551065000000000055e+03
3.000000000000000236e-02 6.123700000000000809e-01 2.918814999999999937e+00 6.354319999999999879e+01 1.550555000000000064e+03
3.099999999999999978e-02 6.118774999999999631e-01 3.189385000000000581e+00 6.172825000000000273e+01 1.549980000000000018e+03
3.200000000000000067e-02 6.112944999999999629e-01 3.205189999999999539e+00 5.961244999999999550e+01 1.549340000000000146e+03
3.300000000000000155e-02 6.106259999999998911e-01 2.963179999999999481e+00 5.717604999999999649e+01 1.548610000000000127e+03
3.400000000000000244e-02 6.098935000000000883e-01 2.497720000000000162e+00 5.445550000000000068e+01 1.547809999999999945e+03
3.500000000000000333e-02 6.091284999999999616e-01 1.873109999999999609e+00 5.153990000000000293e+01 1.546950000000000045e+03
3.600000000000000422e-02 6.083704999999999252e-01 1.170725000000000016e+00 4.855689999999999884e+01 1.546069999999999936e+03
3.700000000000000511e-02 6.076565000000000438e-01 4.743200000000005190e-01 4.565319999999999823e+01 1.545194999999999936e+03
3.799999999999999906e-02 6.070204999999999629e-01 -1.413750000000000284e-01 4.297350000000000136e+01 1.544369999999999891e+03
3.899999999999999994e-02 6.064864999999999284e-01 -6.184150000000001590e-01 4.064395000000000380e+01 1.543630000000000109e+03
4.000000000000000083e-02 6.060704999999999565e-01 -9.183200000000000252e-01 3.876139999999999475e+01 1.543009999999999991e+03
4.100000000000000172e-02 6.057805000000000550e-01 -1.020880000000000010e+00 3.738854999999999507e+01 1.542519999999999982e+03
4.200000000000000261e-02 6.056159999999999322e-01 -9.202550000000000452e-01 3.655525000000000091e+01 1.542179999999999836e+03
4.300000000000000350e-02 6.055745000000000156e-01 -6.198279999999999346e-01 3.626409999999999911e+01 1.542000000000000000e+03
4.400000000000000439e-02 6.056485000000000340e-01 -1.271944999999999881e-01 3.649814999999999543e+01 1.541974999999999909e+03
4.499999999999999833e-02 6.058320000000000372e-01 5.496250000000000302e-01 3.722844999999999516e+01 1.542099999999999909e+03
4.599999999999999922e-02 6.061179999999999346e-01 1.404025000000000079e+00 3.842135000000000389e+01 1.542369999999999891e+03
4.700000000000000011e-02 6.065000000000000391e-01 2.430674999999999919e+00 4.004184999999999661e+01 1.542769999999999982e+03
4.800000000000000100e-02 6.069720000000000670e-01 3.623840000000000394e+00 4.205464999999999520e+01 1.543299999999999955e+03
4.900000000000000189e-02 6.075265000000000803e-01 4.975039999999999907e+00 4.442395000000000493e+01 1.543945000000000164e+03
5.000000000000000278e-02 6.081544999999999312e-01 6.470934999999999881e+00 4.711050000000000182e+01 1.544690000000000055e+03
5.100000000000000366e-02 6.088450000000000806e-01 8.092141500000000320e+00 5.007049999999999557e+01 1.545525000000000091e+03
5.200000000000000455e-02 6.095855000000000024e-01 9.813164999999999694e+00 5.325435000000000230e+01 1.546440000000000055e+03
5.300000000000000544e-02 6.103620000000000712e-01 1.160350999999999999e+01 5.660750000000000171e+01 1.547420000000000073e+03
5.399999999999999939e-02 6.111599999999999255e-01 1.342999000000000009e+01 6.007205000000000439e+01 1.548440000000000055e+03
5.500000000000000028e-02 6.119649999999999812e-01 1.525888000000000133e+01 6.358974999999999511e+01 1.549494999999999891e+03
5.600000000000000117e-02 6.127655000000000740e-01 1.705840500000000048e+01 6.710569999999999879e+01 1.550554999999999836e+03
5.700000000000000205e-02 6.135500000000000398e-01 1.880114999999999981e+01 7.057110000000000127e+01 1.551619999999999891e+03
5.800000000000000294e-02 6.143104999999999816e-01 2.046495000000000175e+01 7.394659999999998945e+01 1.552670000000000073e+03
5.900000000000000383e-02 6.150430000000000064e-01 2.203419999999999845e+01 7.720340000000000202e+01 1.553695000000000164e+03
6.000000000000000472e-02 6.157449999999999868e-01 2.349944999999999951e+01 8.032450000000000045e+01 1.554690000000000055e+03
6.099999999999999867e-02 6.164160000000000750e-01 2.485714999999999719e+01 8.330414999999999281e+01 1.555644999999999982e+03
6.199999999999999956e-02 6.170594999999999830e-01 2.610869999999999891e+01 8.614660000000000650e+01 1.556570000000000164e+03
6.300000000000000044e-02 6.176789999999999781e-01 2.725945000000000107e+01 8.886435000000000173e+01 1.557460000000000036e+03
6.400000000000000133e-02 6.182784999999999531e-01 2.831750000000000256e+01 9.147620000000000573e+01 1.558319999999999936e+03
6.500000000000000222e-02 6.188649999999999984e-01 2.929314999999999714e+01 9.400509999999999877e+01 1.559154999999999973e+03
6.600000000000000311e-02 6.194429999999999659e-01 3.019725000000000037e+01 9.647525000000000261e+01 1.559974999999999909e+03
6.700000000000000400e-02 6.200179999999999580e-01 3.104110000000000014e+01 9.891179999999999950e+01 1.560775000000000091e+03
6.800000000000000488e-02 6.205950000000000077e-01 3.183530000000000015e+01 1.013368499999999983e+02 1.561574999999999818e+03
6.900000000000000577e-02 6.211765000000000203e-01 3.258885000000000076e+01 1.037688500000000005e+02 1.562369999999999891e+03
7.000000000000000666e-02 6.217664999999999997e-01 3.330894999999999584e+01 1.062214999999999918e+02 1.563170000000000073e+03
7.100000000000000755e-02 6.223640000000000283e-01 3.400025000000000119e+01 1.087025000000000006e+02 1.563980000000000018e+03
7.200000000000000844e-02 6.229690000000001060e-01 3.466434999999999889e+01 1.112109999999999985e+02 1.564789999999999964e+03
7.300000000000000933e-02 6.235789999999999944e-01 3.529989999999999384e+01 1.137420000000000044e+02 1.565615000000000009e+03
7.399999999999999634e-02 6.241905000000000925e-01 3.590290000000000248e+01 1.162814999999999941e+02 1.566434999999999945e+03
7.499999999999999722e-02 6.247975000000000056e-01 3.646645000000000181e+01 1.188089999999999975e+02 1.567255000000000109e+03
7.599999999999999811e-02 6.253945000000000753e-01 3.698205000000000098e+01 1.213015000000000043e+02 1.568070000000000164e+03
7.699999999999999900e-02 6.259740000000000304e-01 3.743979999999999819e+01 1.237309999999999945e+02 1.568865000000000009e+03
7.799999999999999989e-02 6.265300000000000313e-01 3.782930000000000348e+01 1.260690000000000026e+02 1.569634999999999991e+03
7.900000000000000078e-02 6.270554999999999879e-01 3.814065000000000083e+01 1.282864999999999895e+02 1.570369999999999891e+03
8.000000000000000167e-02 6.275444999999999496e-01 3.836459999999999582e+01 1.303564999999999827e+02 1.571065000000000055e+03
8.100000000000000255e-02 6.279924999999999535e-01 3.849365000000000236e+01 1.322554999999999836e+02 1.571710000000000036e+03
8.200000000000000344e-02 6.283950000000000369e-01 3.852219999999999800e+01 1.339644999999999868e+02 1.572300000000000182e+03
8.300000000000000433e-02 6.287500000000000311e-01 3.844689999999999941e+01 1.354695000000000107e+02 1.572829999999999927e+03
8.400000000000000522e-02 6.290554999999999897e-01 3.826684999999999803e+01 1.367620000000000005e+02 1.573295000000000073e+03
8.500000000000000611e-02 6.293109999999999538e-01 3.798375000000000057e+01 1.378389999999999986e+02 1.573695000000000164e+03
8.600000000000000699e-02 6.295180000000000220e-01 3.760155000000000314e+01 1.387040000000000077e+02 1.574034999999999854e+03
8.700000000000000788e-02 6.296794999999999476e-01 3.712669999999999959e+01 1.393654999999999973e+02 1.574300000000000182e+03
8.800000000000000877e-02 6.297975000000000101e-01 3.656749999999999545e+01 1.398360000000000127e+02 1.574509999999999991e+03
8.899999999999999578e-02 6.298770000000000202e-01 3.593435000000000201e+01 1.401334999999999980e+02 1.574664999999999964e+03
8.999999999999999667e-02 6.299230000000000107e-01 3.523870000000000147e+01 1.402775000000000034e+02 1.574759999999999991e+03
9.099999999999999756e-02 6.299405000000000143e-01 3.449325000000000330e+01 1.402920000000000016e+02 1.574815000000000055e+03
9.199999999999999845e-02 6.299345000000000638e-01 3.371119999999999806e+01 1.402010000000000218e+02 1.574835000000000036e+03
9.299999999999999933e-02 6.299120000000000275e-01 3.290585000000000093e+01 1.400285000000000082e+02 1.574815000000000055e+03
9.400000000000000022e-02 6.298764999999999503e-01 3.209020000000000294e+01 1.397995000000000232e+02 1.574775000000000091e+03
9.500000000000000111e-02 6.298345000000000748e-01 3.127624999999999744e+01 1.395360000000000014e+02 1.574720000000000027e+03
9.600000000000000200e-02 6.297900000000000720e-01 3.047485000000000355e+01 1.392590000000000146e+02 1.574654999999999973e+03
9.700000000000000289e-02 6.297464999999999868e-01 2.969514999999999816e+01 1.389859999999999900e+02 1.574585000000000036e+03
9.800000000000000377e-02 6.297070000000000167e-01 2.894435000000000002e+01 1.387309999999999945e+02 1.574514999999999873e+03
9.900000000000000466e-02 6.296730000000000382e-01 2.822740000000000293e+01 1.385045000000000073e+02 1.574444999999999936e+03
1.000000000000000056e-01 6.296464999999999979e-01 2.754704999999999870e+01 1.383109999999999786e+02 1.574385000000000218e+03
1.010000000000000064e-01 6.296260000000000190e-01 2.690374999999999872e+01 1.381539999999999964e+02 1.574335000000000036e+03
1.020000000000000073e-01 6.296114999999999906e-01 2.629589999999999961e+01 1.380294999999999845e+02 1.574289999999999964e+03
1.030000000000000082e-01 6.296014999999999251e-01 2.571995000000000076e+01 1.379329999999999927e+02 1.574250000000000000e+03
1.040000000000000091e-01 6.295935000000000281e-01 2.517079999999999984e+01 1.378550000000000182e+02 1.574220000000000027e+03
1.050000000000000100e-01 6.295839999999999215e-01 2.464209999999999923e+01 1.377835000000000036e+02 1.574190000000000055e+03
1.059999999999999970e-01 6.295714999999999506e-01 2.412669999999999959e+01 1.377079999999999984e+02 1.574154999999999973e+03
1.069999999999999979e-01 6.295524999999999594e-01 2.361704999999999899e+01 1.376134999999999877e+02 1.574125000000000000e+03
1.079999999999999988e-01 6.295234999999999026e-01 2.310555000000000092e+01 1.374865000000000066e+02 1.574079999999999927e+03
1.089999999999999997e-01 6.294819999999999860e-01 2.258500000000000085e+01 1.373149999999999977e+02 1.574025000000000091e+03
1.100000000000000006e-01 6.294254999999999711e-01 2.204905000000000115e+01 1.370874999999999773e+02 1.573954999999999927e+03
1.110000000000000014e-01 6.293519999999999115e-01 2.149235000000000184e+01 1.367944999999999993e+02 1.573869999999999891e+03
1.120000000000000023e-01 6.292614999999999181e-01 2.091089999999999804e+01 1.364300000000000068e+02 1.573759999999999991e+03
1.130000000000000032e-01 6.291530000000000733e-01 2.030214999999999748e+01 1.359900000000000091e+02 1.573630000000000109e+03
1.140000000000000041e-01 6.290260000000000851e-01 1.966539999999999822e+01 1.354735000000000014e+02 1.573480000000000018e+03
1.150000000000000050e-01 6.288819999999999411e-01 1.900159999999999982e+01 1.348840000000000146e+02 1.573304999999999836e+03
1.160000000000000059e-01 6.287229999999999208e-01 1.831334999999999980e+01 1.342274999999999920e+02 1.573115000000000009e+03
1.170000000000000068e-01 6.285514999999999297e-01 1.760504999999999853e+01 1.335129999999999768e+02 1.572900000000000091e+03
1.180000000000000077e-01 6.283704999999999430e-01 1.688240000000000052e+01 1.327510000000000048e+02 1.572670000000000073e+03
1.190000000000000085e-01 6.281824999999999770e-01 1.615234999999999843e+01 1.319565000000000055e+02 1.572425000000000182e+03
1.200000000000000094e-01 6.279924999999999535e-01 1.542279999999999873e+01 1.311440000000000055e+02 1.572180000000000064e+03
1.209999999999999964e-01 6.278040000000000287e-01 1.470216499999999904e+01 1.303305000000000007e+02 1.571930000000000064e+03
1.219999999999999973e-01 6.276200000000000667e-01 1.399921499999999952e+01 1.295324999999999989e+02 1.571675000000000182e+03
1.229999999999999982e-01 6.274454999999999893e-01 1.332256500000000088e+01 1.287660000000000196e+02 1.571434999999999945e+03
1.239999999999999991e-01 6.272830000000000350e-01 1.268027499999999819e+01 1.280469999999999970e+02 1.571204999999999927e+03
1.250000000000000000e-01 6.271359999999999157e-01 1.207964000000000127e+01 1.273889999999999958e+02 1.570990000000000009e+03
1.260000000000000009e-01 6.270069999999999810e-01 1.152686000000000099e+01 1.268035000000000139e+02 1.570795000000000073e+03
1.270000000000000018e-01 6.268974999999999964e-01 1.102681499999999915e+01 1.262994999999999948e+02 1.570615000000000009e+03
1.280000000000000027e-01 6.268084999999999907e-01 1.058278500000000122e+01 1.258830000000000098e+02 1.570470000000000027e+03
1.290000000000000036e-01 6.267409999999999926e-01 1.019659000000000049e+01 1.255564999999999998e+02 1.570349999999999909e+03
1.300000000000000044e-01 6.266939999999999733e-01 9.868384999999999962e+00 1.253209999999999980e+02 1.570250000000000000e+03
1.310000000000000053e-01 6.266665000000000152e-01 9.596790000000000376e+00 1.251719999999999970e+02 1.570184999999999945e+03
1.320000000000000062e-01 6.266570000000000196e-01 9.378989999999999938e+00 1.251055000000000064e+02 1.570134999999999991e+03
1.330000000000000071e-01 6.266639999999999988e-01 9.211054999999999993e+00 1.251119999999999948e+02 1.570115000000000009e+03
1.340000000000000080e-01 6.266840000000000188e-01 9.087949999999999307e+00 1.251825000000000045e+02 1.570115000000000009e+03
1.350000000000000089e-01 6.267154999999999809e-01 9.003869999999999152e+00 1.253060000000000116e+02 1.570134999999999991e+03
1.360000000000000098e-01 6.267549999999999510e-01 8.952600000000000335e+00 1.254710000000000036e+02 1.570164999999999964e+03
1.370000000000000107e-01 6.268000000000000238e-01 8.927704999999999558e+00 1.256645000000000039e+02 1.570215000000000146e+03
1.380000000000000115e-01 6.268485000000000307e-01 8.922734999999999417e+00 1.258755000000000024e+02 1.570264999999999873e+03
1.390000000000000124e-01 6.268970000000000375e-01 8.931480000000000530e+00 1.260939999999999941e+02 1.570319999999999936e+03
1.400000000000000133e-01 6.269439999999999458e-01 8.948174999999999102e+00 1.263079999999999927e+02 1.570380000000000109e+03
1.410000000000000142e-01 6.269875000000000309e-01 8.967604999999998938e+00 1.265114999999999981e+02 1.570440000000000055e+03
1.420000000000000151e-01 6.270265000000000422e-01 8.985260000000000247e+00 1.266955000000000098e+02 1.570490000000000009e+03
1.430000000000000160e-01 6.270595000000001029e-01 8.997354999999998881e+00 1.268559999999999945e+02 1.570539999999999964e+03
1.440000000000000169e-01 6.270860000000000323e-01 9.000910000000001077e+00 1.269879999999999995e+02 1.570579999999999927e+03
1.450000000000000178e-01 6.271050000000000235e-01 8.993769999999999598e+00 1.270910000000000082e+02 1.570615000000000009e+03
1.459999999999999909e-01 6.271180000000000643e-01 8.974550000000000693e+00 1.271624999999999943e+02 1.570634999999999991e+03
1.469999999999999918e-01 6.271244999999999736e-01 8.942500000000000782e+00 1.272050000000000125e+02 1.570654999999999973e+03
1.479999999999999927e-01 6.271240000000000148e-01 8.897729999999999251e+00 1.272195000000000107e+02 1.570664999999999964e+03
1.489999999999999936e-01 6.271189999999999820e-01 8.840724999999999056e+00 1.272084999999999866e+02 1.570670000000000073e+03
1.499999999999999944e-01 6.271089999999999165e-01 8.772710000000000008e+00 1.271760000000000019e+02 1.570664999999999964e+03
1.509999999999999953e-01 6.270964999999999456e-01 8.695080000000000808e+00 1.271260000000000048e+02 1.570650000000000091e+03
1.519999999999999962e-01 6.270804999999999296e-01 8.609835000000000349e+00 1.270620000000000118e+02 1.570639999999999873e+03
1.529999999999999971e-01 6.270634999999999959e-01 8.518909999999999982e+00 1.269900000000000091e+02 1.570619999999999891e+03
1.539999999999999980e-01 6.270459999999999923e-01 8.424450000000000216e+00 1.269124999999999943e+02 1.570599999999999909e+03
1.549999999999999989e-01 6.270290000000000585e-01 8.328720000000000567e+00 1.268350000000000080e+02 1.570579999999999927e+03
1.559999999999999998e-01 6.270124999999999726e-01 8.233674999999999855e+00 1.267599999999999909e+02 1.570559999999999945e+03
1.570000000000000007e-01 6.269985000000000142e-01 8.141214999999998980e+00 1.266914999999999907e+02 1.570535000000000082e+03
1.580000000000000016e-01 6.269865000000000022e-01 8.052915000000000489e+00 1.266310000000000002e+02 1.570519999999999982e+03
1.590000000000000024e-01 6.269769999999998955e-01 7.970060000000000144e+00 1.265805000000000007e+02 1.570500000000000000e+03
