# t [s], A [cm^2], U [cm/s], P [cPa], c [cm/s]
1.000000000000000021e-03 7.427945000000000242e-01 7.359999999999998488e-03 9.715434999999999377e+01 1.816309999999999945e+03
2.000000000000000042e-03 7.427820000000000533e-01 -4.472549999999997014e-04 9.711599999999999966e+01 1.816299999999999955e+03
3.000000000000000062e-03 7.428559999999999608e-01 1.306398500000000018e-01 9.727495000000000402e+01 1.816329999999999927e+03
4.000000000000000083e-03 7.428950000000000831e-01 2.232745499999999883e-01 9.738919999999998822e+01 1.816355000000000018e+03
5.000000000000000104e-03 7.428244999999999987e-01 1.404910000000000325e-01 9.719990000000001373e+01 1.816320000000000164e+03
6.000000000000000125e-03 7.427420000000000133e-01 2.610849999999997895e-02 9.686275000000000546e+01 1.816250000000000000e+03
7.000000000000000146e-03 7.426589999999999581e-01 -1.025249999999999773e-01 9.644245000000000800e+01 1.816164999999999964e+03
8.000000000000000167e-03 7.425009999999999666e-01 -3.813250000000001361e-01 9.575384999999999991e+01 1.816029999999999973e+03
9.000000000000001055e-03 7.422634999999999650e-01 -8.217649999999999677e-01 9.472944999999999993e+01 1.815825000000000045e+03
1.000000000000000194e-02 7.419284999999999908e-01 -1.444879999999999942e+00 9.328905000000000314e+01 1.815534999999999854e+03
1.099999999999999936e-02 7.414680000000000160e-01 -2.281060000000000088e+00 9.132614999999999839e+01 1.815134999999999991e+03
1.200000000000000025e-02 7.409259999999999735e-01 -3.228845000000000187e+00 8.891884999999999195e+01 1.814630000000000109e+03
1.300000000000000114e-02 7.404115000000000002e-01 -4.057885499999999368e+00 8.638139999999999930e+01 1.814079999999999927e+03
1.400000000000000203e-02 7.400185000000000235e-01 -4.555436500000000777e+00 8.407779999999999632e+01 1.813559999999999945e+03
1.499999999999999944e-02 7.397679999999999811e-01 -4.641640000000000654e+00 8.221725000000000705e+01 1.813105000000000018e+03
1.600000000000000033e-02 7.396104999999999485e-01 -4.379170000000000229e+00 8.078435000000000343e+01 1.812724999999999909e+03
1.700000000000000122e-02 7.394659999999999567e-01 -3.912634999999999863e+00 7.959299999999998931e+01 1.812389999999999873e+03
1.800000000000000211e-02 7.392654999999999088e-01 -3.390060000000000073e+00 7.840035000000000309e+01 1.812059999999999945e+03
1.900000000000000300e-02 7.389745000000000896e-01 -2.901061000000000334e+00 7.702094999999999914e+01 1.811695000000000164e+03
2.000000000000000042e-02 7.386070000000000135e-01 -2.451994000000000007e+00 7.539685000000000059e+01 1.811289999999999964e+03
2.100000000000000130e-02 7.382055000000000700e-01 -1.984414999999999818e+00 7.359864999999999213e+01 1.810845000000000027e+03
2.200000000000000219e-02 7.378180000000000849e-01 -1.423470000000000013e+00 7.176489999999999725e+01 1.810394999999999982e+03
2.299999999999999961e-02 7.374715000000000575e-01 -7.284050000000001912e-01 7.001805000000000234e+01 1.809954999999999927e+03
2.400000000000000050e-02 7.371604999999999963e-01 7.774499999999973099e-02 6.839830000000000609e+01 1.809530000000000200e+03
2.500000000000000139e-02 7.368505000000000749e-01 9.067850000000001742e-01 6.683754999999999313e+01 1.809119999999999891e+03
2.600000000000000228e-02 7.364865000000000439e-01 1.627600000000000158e+00 6.517560000000000286e+01 1.808695000000000164e+03
2.700000000000000316e-02 7.360160000000000036e-01 2.102945000000000064e+00 6.320940000000000225e+01 1.808215000000000146e+03
2.800000000000000058e-02 7.354030000000000289e-01 2.230199999999999960e+00 6.076014999999999588e+01 1.807644999999999982e+03
2.900000000000000147e-02 7.346440000000000747e-01 1.973454999999999959e+00 5.773794999999999789e+01 1.806965000000000146e+03
3.000000000000000236e-02 7.337715000000000209e-01 1.374589999999999979e+00 5.418019999999999925e+01 1.806170000000000073e+03
3.099999999999999978e-02 7.328430000000000222e-01 5.390199999999998326e-01 5.024824999999999875e+01 1.805300000000000182e+03
3.200000000000000067e-02 7.319275000000000642e-01 -3.963499999999999801e-01 4.618779999999999575e+01 1.804384999999999991e+03
3.300000000000000155e-02 7.310875000000000012e-01 -1.297509999999999941e+00 4.227174999999999727e+01 1.803490000000000009e+03
3.400000000000000244e-02 7.303684999999999761e-01 -2.058549999999999880e+00 3.874784999999999968e+01 1.802654999999999973e+03
3.500000000000000333e-02 7.297985000000000166e-01 -2.612715000000000121e+00 3.580405000000000371e+01 1.801940000000000055e+03
3.600000000000000422e-02 7.293860000000000898e-01 -2.931384999999999685e+00 3.355340000000000344e+01 1.801360000000000127e+03
3.700000000000000511e-02 7.291255000000000930e-01 -3.014279999999999848e+00 3.203860000000000241e+01 1.800940000000000055e+03
3.799999999999999906e-02 7.290065000000000017e-01 -2.876204999999999679e+00 3.124804999999999922e+01 1.800680000000000064e+03
3.899999999999999994e-02 7.290164999999999562e-01 -2.534110000000000085e+00 3.113909999999999911e+01 1.800574999999999818e+03
4.000000000000000083e-02 7.291459999999999608e-01 -1.998037349999999934e+00 3.165954999999999941e+01 1.800619999999999891e+03
4.100000000000000172e-02 7.293895000000000239e-01 -1.268149999999999888e+00 3.276290000000000191e+01 1.800804999999999836e+03
4.200000000000000261e-02 7.297439999999999483e-01 -3.377149999999997654e-01 3.441284999999999883e+01 1.801125000000000000e+03
4.300000000000000350e-02 7.302075000000000093e-01 7.999950000000000117e-01 3.658004999999999995e+01 1.801559999999999945e+03
4.400000000000000439e-02 7.307740000000000347e-01 2.144024999999999626e+00 3.923214999999999719e+01 1.802119999999999891e+03
4.499999999999999833e-02 7.314335000000000697e-01 3.680279999999999774e+00 4.232505000000000450e+01 1.802784999999999854e+03
4.599999999999999922e-02 7.321684999999999999e-01 5.379680000000000462e+00 4.579654999999999632e+01 1.803539999999999964e+03
4.700000000000000011e-02 7.329604999999999038e-01 7.200059500000000057e+00 4.956595000000000084e+01 1.804375000000000000e+03
4.800000000000000100e-02 7.337839999999999918e-01 9.090876999999998986e+00 5.353834999999999411e+01 1.805264999999999873e+03
4.900000000000000189e-02 7.346185000000000631e-01 1.099923500000000054e+01 5.761265000000000214e+01 1.806190000000000055e+03
5.000000000000000278e-02 7.354430000000000689e-01 1.287564000000000064e+01 6.169164999999999566e+01 1.807134999999999991e+03
5.100000000000000366e-02 7.362420000000000631e-01 1.467895000000000039e+01 6.569069999999999254e+01 1.808070000000000164e+03
5.200000000000000455e-02 7.370049999999999102e-01 1.637879999999999825e+01 6.954464999999999009e+01 1.808985000000000127e+03
5.300000000000000544e-02 7.377264999999999517e-01 1.795655000000000001e+01 7.321139999999999759e+01 1.809865000000000009e+03
5.399999999999999939e-02 7.384074999999999944e-01 1.940439999999999898e+01 7.667225000000000534e+01 1.810710000000000036e+03
5.500000000000000028e-02 7.390499999999999847e-01 2.072354999999999947e+01 7.992959999999999354e+01 1.811514999999999873e+03
5.600000000000000117e-02 7.396610000000000129e-01 2.192180000000000106e+01 8.300289999999999679e+01 1.812279999999999973e+03
5.700000000000000205e-02 7.402480000000000171e-01 2.301165000000000305e+01 8.592394999999999072e+01 1.813005000000000109e+03
5.800000000000000294e-02 7.408200000000000340e-01 2.400825000000000031e+01 8.873185000000000855e+01 1.813710000000000036e+03
5.900000000000000383e-02 7.413845000000000018e-01 2.492755000000000010e+01 9.146850000000000591e+01 1.814389999999999873e+03
6.000000000000000472e-02 7.419489999999999696e-01 2.578490000000000038e+01 9.417409999999999570e+01 1.815065000000000055e+03
6.099999999999999867e-02 7.425204999999999167e-01 2.659349999999999881e+01 9.688169999999999504e+01 1.815730000000000018e+03
6.199999999999999956e-02 7.431019999999999293e-01 2.736314999999999742e+01 9.961740000000000350e+01 1.816404999999999973e+03
6.300000000000000044e-02 7.436940000000000772e-01 2.809909999999999997e+01 1.023922499999999900e+02 1.817089999999999918e+03
6.400000000000000133e-02 7.442945000000000810e-01 2.880185000000000173e+01 1.052062499999999972e+02 1.817775000000000091e+03
6.500000000000000222e-02 7.448989999999999778e-01 2.946705000000000041e+01 1.080444999999999993e+02 1.818470000000000027e+03
6.600000000000000311e-02 7.455015000000000391e-01 3.008634999999999948e+01 1.108814999999999884e+02 1.819164999999999964e+03
6.700000000000000400e-02 7.460925000000000473e-01 3.064864999999999995e+01 1.136825000000000045e+02 1.819849999999999909e+03
6.800000000000000488e-02 7.466650000000000231e-01 3.114144999999999897e+01 1.164074999999999989e+02 1.820519999999999982e+03
6.900000000000000577e-02 7.472090000000000121e-01 3.155239999999999867e+01 1.190139999999999958e+02 1.821164999999999964e+03
7.000000000000000666e-02 7.477169999999999650e-01 3.187019999999999698e+01 1.214625000000000057e+02 1.821784999999999854e+03
7.100000000000000755e-02 7.481824999999999726e-01 3.208565000000000111e+01 1.237175000000000011e+02 1.822355000000000018e+03
7.200000000000000844e-02 7.486005000000000020e-01 3.219214999999999804e+01 1.257505000000000024e+02 1.822875000000000000e+03
7.300000000000000933e-02 7.489664999999999795e-01 3.218580000000000041e+01 1.275399999999999920e+02 1.823340000000000146e+03
7.399999999999999634e-02 7.492805000000000160e-01 3.206559999999999633e+01 1.290730000000000075e+02 1.823744999999999891e+03
7.499999999999999722e-02 7.495404999999999429e-01 3.183355000000000246e+01 1.303449999999999989e+02 1.824095000000000027e+03
7.599999999999999811e-02 7.497485000000000399e-01 3.149429999999999907e+01 1.313584999999999923e+02 1.824380000000000109e+03
7.699999999999999900e-02 7.499074999999999491e-01 3.105555000000000021e+01 1.321260000000000048e+02 1.824605000000000018e+03
7.799999999999999989e-02 7.500204999999999789e-01 3.052745000000000175e+01 1.326645000000000039e+02 1.824775000000000091e+03
7.900000000000000078e-02 7.500940000000000385e-01 2.992249999999999943e+01 1.329960000000000093e+02 1.824894999999999982e+03
8.000000000000000167e-02 7.501329999999999387e-01 2.925515000000000043e+01 1.331510000000000105e+02 1.824970000000000027e+03
8.100000000000000255e-02 7.501440000000000330e-01 2.854139999999999588e+01 1.331594999999999800e+02 1.825005000000000109e+03
8.200000000000000344e-02 7.501344999999999263e-01 2.779769999999999897e+01 1.330554999999999950e+02 1.825010000000000218e+03
8.300000000000000433e-02 7.501109999999999722e-01 2.704054999999999964e+01 1.328725000000000023e+02 1.824990000000000009e+03
8.400000000000000522e-02 7.500809999999999977e-01 2.628529999999999944e+01 1.326435000000000173e+02 1.824954999999999927e+03
8.500000000000000611e-02 7.500485000000000069e-01 2.554565000000000197e+01 1.323969999999999914e+02 1.824904999999999973e+03
8.600000000000000699e-02 7.500179999999999625e-01 2.483245000000000147e+01 1.321564999999999941e+02 1.824860000000000127e+03
8.700000000000000788e-02 7.499934999999999796e-01 2.415370000000000061e+01 1.319415000000000191e+02 1.824809999999999945e+03
8.800000000000000877e-02 7.499755000000000171e-01 2.351415000000000077e+01 1.317620000000000005e+02 1.824769999999999982e+03
8.899999999999999578e-02 7.499649999999999928e-01 2.291495000000000104e+01 1.316229999999999905e+02 1.824735000000000127e+03
8.999999999999999667e-02 7.499605000000000299e-01 2.235425000000000040e+01 1.315229999999999961e+02 1.824704999999999927e+03
9.099999999999999756e-02 7.499599999999999600e-01 2.182739999999999725e+01 1.314524999999999864e+02 1.824680000000000064e+03
9.199999999999999845e-02 7.499595000000000011e-01 2.132750000000000057e+01 1.313994999999999891e+02 1.824664999999999964e+03
9.299999999999999933e-02 7.499560000000000670e-01 2.084609999999999985e+01 1.313474999999999966e+02 1.824644999999999982e+03
9.400000000000000022e-02 7.499460000000000015e-01 2.037360000000000326e+01 1.312764999999999986e+02 1.824625000000000000e+03
9.500000000000000111e-02 7.499244999999999939e-01 1.989999999999999858e+01 1.311669999999999732e+02 1.824594999999999800e+03
9.600000000000000200e-02 7.498879999999999990e-01 1.941574999999999918e+01 1.309995000000000118e+02 1.824554999999999836e+03
9.700000000000000289e-02 7.498329999999999718e-01 1.891205000000000069e+01 1.307570000000000050e+02 1.824505000000000109e+03
9.800000000000000377e-02 7.497580000000000355e-01 1.838155000000000072e+01 1.304250000000000114e+02 1.824424999999999955e+03
9.900000000000000466e-02 7.496605000000000629e-01 1.781889999999999930e+01 1.299929999999999950e+02 1.824329999999999927e+03
1.000000000000000056e-01 7.495395000000000252e-01 1.722129999999999939e+01 1.294559999999999889e+02 1.824215000000000146e+03
1.010000000000000064e-01 7.493975000000000497e-01 1.658854999999999791e+01 1.288135000000000048e+02 1.824065000000000055e+03
1.020000000000000073e-01 7.492354999999999432e-01 1.592314999999999969e+01 1.280740000000000123e+02 1.823904999999999973e+03
1.030000000000000082e-01 7.490565000000000140e-01 1.523055000000000092e+01 1.272479999999999905e+02 1.823715000000000146e+03
1.040000000000000091e-01 7.488654999999999617e-01 1.451855000000000118e+01 1.263534999999999968e+02 1.823514999999999873e+03
1.050000000000000100e-01 7.486669999999999714e-01 1.379696999999999996e+01 1.254124999999999943e+02 1.823295000000000073e+03
1.059999999999999970e-01 7.484660000000000757e-01 1.307725999999999900e+01 1.244495000000000005e+02 1.823070000000000164e+03
1.069999999999999979e-01 7.482694999999999208e-01 1.237154500000000112e+01 1.234919999999999902e+02 1.822849999999999909e+03
1.079999999999999988e-01 7.480815000000000659e-01 1.169225499999999940e+01 1.225670000000000073e+02 1.822625000000000000e+03
1.089999999999999997e-01 7.479095000000000049e-01 1.105129499999999965e+01 1.217005000000000052e+02 1.822414999999999964e+03
1.100000000000000006e-01 7.477555000000000174e-01 1.045931999999999995e+01 1.209159999999999968e+02 1.822220000000000027e+03
1.110000000000000014e-01 7.476249999999999840e-01 9.925295000000000201e+00 1.202335000000000065e+02 1.822049999999999955e+03
1.120000000000000023e-01 7.475195000000000034e-01 9.455994999999999706e+00 1.196680000000000064e+02 1.821900000000000091e+03
1.130000000000000032e-01 7.474414999999999809e-01 9.055800000000001404e+00 1.192284999999999968e+02 1.821779999999999973e+03
1.140000000000000041e-01 7.473899999999999988e-01 8.726524999999998755e+00 1.189194999999999993e+02 1.821690000000000055e+03
1.150000000000000050e-01 7.473644999999999872e-01 8.467220000000001079e+00 1.187390000000000043e+02 1.821625000000000000e+03
1.160000000000000059e-01 7.473629999999999995e-01 8.274770000000000181e+00 1.186794999999999902e+02 1.821594999999999800e+03
1.170000000000000068e-01 7.473829999999999085e-01 8.143914999999999793e+00 1.187299999999999898e+02 1.821585000000000036e+03
1.180000000000000077e-01 7.474199999999999733e-01 8.067730000000000956e+00 1.188755000000000024e+02 1.821605000000000018e+03
1.190000000000000085e-01 7.474709999999999965e-01 8.038114999999999455e+00 1.190974999999999966e+02 1.821639999999999873e+03
1.200000000000000094e-01 7.475324999999999331e-01 8.046300000000000452e+00 1.193780000000000001e+02 1.821690000000000055e+03
1.209999999999999964e-01 7.475994999999999724e-01 8.083249999999999602e+00 1.196974999999999909e+02 1.821755000000000109e+03
1.219999999999999973e-01 7.476690000000000280e-01 8.140135000000000787e+00 1.200380000000000109e+02 1.821829999999999927e+03
1.229999999999999982e-01 7.477380000000000138e-01 8.208660000000000068e+00 1.203830000000000098e+02 1.821900000000000091e+03
1.239999999999999991e-01 7.478040000000000243e-01 8.281319999999999126e+00 1.207175000000000011e+02 1.821974999999999909e+03
1.250000000000000000e-01 7.478635000000000144e-01 8.351620000000000488e+00 1.210300000000000011e+02 1.822045000000000073e+03
1.260000000000000009e-01 7.479169999999999430e-01 8.414200000000001012e+00 1.213114999999999952e+02 1.822110000000000127e+03
1.270000000000000018e-01 7.479620000000000157e-01 8.464864999999999640e+00 1.215564999999999998e+02 1.822170000000000073e+03
1.280000000000000027e-01 7.479990000000000805e-01 8.500664999999999694e+00 1.217599999999999909e+02 1.822224999999999909e+03
1.290000000000000036e-01 7.480269999999999975e-01 8.519830000000000680e+00 1.219224999999999994e+02 1.822264999999999873e+03
1.300000000000000044e-01 7.480474999999999763e-01 8.521715000000000373e+00 1.220444999999999993e+02 1.822295000000000073e+03
1.310000000000000053e-01 7.480614999999999348e-01 8.506740000000000634e+00 1.221299999999999955e+02 1.822325000000000045e+03
1.320000000000000062e-01 7.480690000000000950e-01 8.476229999999999265e+00 1.221839999999999975e+02 1.822339999999999918e+03
1.330000000000000071e-01 7.480725000000000291e-01 8.432280000000000442e+00 1.222120000000000033e+02 1.822349999999999909e+03
1.340000000000000080e-01 7.480729999999999880e-01 8.377549999999999386e+00 1.222220000000000084e+02 1.822355000000000018e+03
1.350000000000000089e-01 7.480715000000000003e-01 8.315054999999999197e+00 1.222194999999999965e+02 1.822360000000000127e+03
1.360000000000000098e-01 7.480709999999999305e-01 8.247960000000000846e+00 1.222129999999999939e+02 1.822365000000000009e+03
1.370000000000000107e-01 7.480709999999999305e-01 8.179320000000000590e+00 1.222090000000000032e+02 1.822365000000000009e+03
1.380000000000000115e-01 7.480735000000000579e-01 8.111895000000000522e+00 1.222115000000000009e+02 1.822369999999999891e+03
1.390000000000000124e-01 7.480795000000000083e-01 8.047969999999999402e+00 1.222265000000000015e+02 1.822375000000000000e+03
1.400000000000000133e-01 7.480879999999999752e-01 7.989220000000000432e+00 1.222554999999999978e+02 1.822380000000000109e+03
1.410000000000000142e-01 7.481005000000000571e-01 7.936634999999999884e+00 1.223004999999999995e+02 1.822389999999999873e+03
1.420000000000000151e-01 7.481154999999999333e-01 7.890544999999999476e+00 1.223594999999999970e+02 1.822404999999999973e+03
1.430000000000000160e-01 7.481335000000000068e-01 7.850619999999999266e+00 1.224314999999999998e+02 1.822425000000000182e+03
1.440000000000000169e-01 7.481530000000000680e-01 7.816024999999999778e+00 1.225125000000000028e+02 1.822440000000000055e+03
1.450000000000000178e-01 7.481729999999999769e-01 7.785535000000000316e+00 1.225985000000000014e+02 1.822460000000000036e+03
1.459999999999999909e-01 7.481919999999999682e-01 7.757740000000000080e+00 1.226860000000000070e+02 1.822480000000000018e+03
1.469999999999999918e-01 7.482105000000000006e-01 7.731165000000000731e+00 1.227680000000000007e+02 1.822500000000000000e+03
1.479999999999999927e-01 7.482260000000000577e-01 7.704470000000000596e+00 1.228425000000000011e+02 1.822519999999999982e+03
1.489999999999999936e-01 7.482394999999999463e-01 7.676574999999999704e+00 1.229044999999999987e+02 1.822534999999999854e+03
1.499999999999999944e-01 7.482489999999999419e-01 7.646749999999999936e+00 1.229530000000000030e+02 1.822545000000000073e+03
1.509999999999999953e-01 7.482554999999999623e-01 7.614670000000000272e+00 1.229849999999999994e+02 1.822554999999999836e+03
1.519999999999999962e-01 7.482590000000000074e-01 7.580420000000000158e+00 1.230014999999999930e+02 1.822559999999999945e+03
1.529999999999999971e-01 7.482590000000000074e-01 7.544509999999999827e+00 1.230045000000000073e+02 1.822565000000000055e+03
1.539999999999999980e-01 7.482575000000000198e-01 7.507789999999999964e+00 1.229950000000000045e+02 1.822559999999999945e+03
1.549999999999999989e-01 7.482535000000000158e-01 7.471409999999999663e+00 1.229765000000000015e+02 1.822554999999999836e+03
1.559999999999999998e-01 7.482495000000000118e-01 7.436735000000000539e+00 1.229534999999999911e+02 1.822554999999999836e+03
1.570000000000000007e-01 7.482455000000000078e-01 7.405290000000000816e+00 1.229295000000000044e+02 1.822545000000000073e+03
1.580000000000000016e-01 7.482425000000000326e-01 7.378675000000000317e+00 1.229095000000000084e+02 1.822545000000000073e+03
1.590000000000000024e-01 7.482415000000000038e-01 7.358499999999999375e+00 1.228990000000000009e+02 1.822539999999999964e+03
