# t [s], A [cm^2], U [cm/s], P [cPa], c [cm/s]
1.000000000000000021e-03 1.567454999999999821e-01 1.527610999999999830e-01 9.003555000000000064e+01 1.885630000000000109e+03
2.000000000000000042e-03 1.567255000000000176e-01 1.365315499999999904e+00 8.764844999999999686e+01 1.885454999999999927e+03
3.000000000000000062e-03 1.566430000000000045e-01 2.912464500000000012e+00 8.443019999999999925e+01 1.884775000000000091e+03
4.000000000000000083e-03 1.565145000000000008e-01 4.653735999999999429e+00 8.065250000000000341e+01 1.883744999999999891e+03
5.000000000000000104e-03 1.563625000000000154e-01 6.545699499999999560e+00 7.690180000000000859e+01 1.882539999999999964e+03
6.000000000000000125e-03 1.562054999999999971e-01 8.516270000000000451e+00 7.357515000000000782e+01 1.881299999999999955e+03
7.000000000000000146e-03 1.560529999999999973e-01 1.043897999999999904e+01 7.074835000000000207e+01 1.880105000000000018e+03
8.000000000000000167e-03 1.559079999999999910e-01 1.218686500000000095e+01 6.827419999999999334e+01 1.878994999999999891e+03
9.000000000000001055e-03 1.557724999999999804e-01 1.370838000000000179e+01 6.603114999999999668e+01 1.877970000000000027e+03
1.000000000000000194e-02 1.556494999999999962e-01 1.501834999999999987e+01 6.403255000000000052e+01 1.877050000000000182e+03
1.099999999999999936e-02 1.555420000000000136e-01 1.614034999999999798e+01 6.232770000000000010e+01 1.876255000000000109e+03
1.200000000000000025e-02 1.554495000000000182e-01 1.708654999999999902e+01 6.092269999999999897e+01 1.875574999999999818e+03
1.300000000000000114e-02 1.553724999999999967e-01 1.786455000000000126e+01 5.978829999999999956e+01 1.875019999999999982e+03
1.400000000000000203e-02 1.553090000000000026e-01 1.847814999999999941e+01 5.887369999999999948e+01 1.874565000000000055e+03
1.499999999999999944e-02 1.552560000000000051e-01 1.892860000000000298e+01 5.810925000000000296e+01 1.874190000000000055e+03
1.600000000000000033e-02 1.552119999999999889e-01 1.922919999999999874e+01 5.743694999999999595e+01 1.873884999999999991e+03
1.700000000000000122e-02 1.551744999999999930e-01 1.942354999999999876e+01 5.686585000000000178e+01 1.873634999999999991e+03
1.800000000000000211e-02 1.551470000000000071e-01 1.958675000000000210e+01 5.650110000000000099e+01 1.873445000000000164e+03
1.900000000000000300e-02 1.551325000000000065e-01 1.980345000000000155e+01 5.651109999999999900e+01 1.873359999999999900e+03
2.000000000000000042e-02 1.551365000000000105e-01 2.013579999999999970e+01 5.704650000000000176e+01 1.873389999999999873e+03
2.100000000000000130e-02 1.551600000000000201e-01 2.059949999999999903e+01 5.815950000000000131e+01 1.873570000000000164e+03
2.200000000000000219e-02 1.552029999999999799e-01 2.115870000000000317e+01 5.976460000000000150e+01 1.873889999999999873e+03
2.299999999999999961e-02 1.552605000000000235e-01 2.174014999999999986e+01 6.165490000000000492e+01 1.874320000000000164e+03
2.400000000000000050e-02 1.553255000000000052e-01 2.225764999999999816e+01 6.356014999999999304e+01 1.874809999999999945e+03
2.500000000000000139e-02 1.553895000000000137e-01 2.263714999999999833e+01 6.522020000000000550e+01 1.875289999999999964e+03
2.600000000000000228e-02 1.554455000000000142e-01 2.283480000000000132e+01 6.644890000000000896e+01 1.875720000000000027e+03
2.700000000000000316e-02 1.554889999999999883e-01 2.284389999999999787e+01 6.716884999999999195e+01 1.876065000000000055e+03
2.800000000000000058e-02 1.555179999999999896e-01 2.269024999999999892e+01 6.741349999999999909e+01 1.876300000000000182e+03
2.900000000000000147e-02 1.555334999999999912e-01 2.241939999999999955e+01 6.729784999999999684e+01 1.876429999999999836e+03
3.000000000000000236e-02 1.555394999999999972e-01 2.208054999999999879e+01 6.697249999999999659e+01 1.876485000000000127e+03
3.099999999999999978e-02 1.555385000000000240e-01 2.171204999999999785e+01 6.657540000000000191e+01 1.876485000000000127e+03
3.200000000000000067e-02 1.555340000000000056e-01 2.133299999999999841e+01 6.619640000000001123e+01 1.876460000000000036e+03
3.300000000000000155e-02 1.555279999999999996e-01 2.094194999999999851e+01 6.586190000000000566e+01 1.876414999999999964e+03
3.400000000000000244e-02 1.555205000000000060e-01 2.052214999999999989e+01 6.554099999999999682e+01 1.876360000000000127e+03
3.500000000000000333e-02 1.555100000000000093e-01 2.005109999999999815e+01 6.516830000000000211e+01 1.876284999999999854e+03
3.600000000000000422e-02 1.554960000000000231e-01 1.951104999999999734e+01 6.467454999999999643e+01 1.876184999999999945e+03
3.700000000000000511e-02 1.554770000000000041e-01 1.889744999999999919e+01 6.401619999999999777e+01 1.876050000000000182e+03
3.799999999999999906e-02 1.554510000000000058e-01 1.822455000000000069e+01 6.319675000000000153e+01 1.875865000000000009e+03
3.899999999999999994e-02 1.554210000000000036e-01 1.752485000000000070e+01 6.227380000000000138e+01 1.875650000000000091e+03
4.000000000000000083e-02 1.553889999999999993e-01 1.684434999999999860e+01 6.135155000000000314e+01 1.875409999999999854e+03
4.100000000000000172e-02 1.553579999999999961e-01 1.623395000000000010e+01 6.055974999999999397e+01 1.875180000000000064e+03
4.200000000000000261e-02 1.553324999999999845e-01 1.573945000000000149e+01 6.002660000000000196e+01 1.874990000000000009e+03
4.300000000000000350e-02 1.553164999999999962e-01 1.539279999999999937e+01 5.985040000000000049e+01 1.874865000000000009e+03
4.400000000000000439e-02 1.553120000000000056e-01 1.520620000000000083e+01 6.007935000000000514e+01 1.874824999999999818e+03
4.499999999999999833e-02 1.553215000000000012e-01 1.517024999999999935e+01 6.070085000000000264e+01 1.874880000000000109e+03
4.599999999999999922e-02 1.553424999999999945e-01 1.525629999999999953e+01 6.164444999999999908e+01 1.875029999999999973e+03
4.700000000000000011e-02 1.553744999999999987e-01 1.542149999999999999e+01 6.279435000000000144e+01 1.875255000000000109e+03
4.800000000000000100e-02 1.554119999999999946e-01 1.561599999999999966e+01 6.400939999999999941e+01 1.875529999999999973e+03
4.900000000000000189e-02 1.554519999999999791e-01 1.579015000000000057e+01 6.514454999999999529e+01 1.875825000000000045e+03
5.000000000000000278e-02 1.554895000000000027e-01 1.589999999999999858e+01 6.607050000000000978e+01 1.876095000000000027e+03
5.100000000000000366e-02 1.555194999999999772e-01 1.591179999999999950e+01 6.668844999999998890e+01 1.876325000000000045e+03
5.200000000000000455e-02 1.555400000000000116e-01 1.580380000000000074e+01 6.693750000000000000e+01 1.876480000000000018e+03
5.300000000000000544e-02 1.555489999999999928e-01 1.556630000000000003e+01 6.679555000000000575e+01 1.876549999999999955e+03
5.399999999999999939e-02 1.555449999999999888e-01 1.519969999999999999e+01 6.627459999999999241e+01 1.876529999999999973e+03
5.500000000000000028e-02 1.555274999999999852e-01 1.471204999999999963e+01 6.541219999999999857e+01 1.876404999999999973e+03
5.600000000000000117e-02 1.554984999999999840e-01 1.411645000000000039e+01 6.426125000000000398e+01 1.876200000000000045e+03
5.700000000000000205e-02 1.554584999999999995e-01 1.342849999999999966e+01 6.288125000000000142e+01 1.875904999999999973e+03
5.800000000000000294e-02 1.554099999999999926e-01 1.266469999999999985e+01 6.133084999999999809e+01 1.875549999999999955e+03
5.900000000000000383e-02 1.553545000000000065e-01 1.184150999999999954e+01 5.966389999999999816e+01 1.875139999999999873e+03
6.000000000000000472e-02 1.552935000000000010e-01 1.097551999999999950e+01 5.792839999999999634e+01 1.874690000000000055e+03
6.099999999999999867e-02 1.552290000000000059e-01 1.008370000000000033e+01 5.616709999999999781e+01 1.874210000000000036e+03
6.199999999999999956e-02 1.551625000000000087e-01 9.184115000000000251e+00 5.442045000000000243e+01 1.873720000000000027e+03
6.300000000000000044e-02 1.550960000000000116e-01 8.296604999999999563e+00 5.272899999999999920e+01 1.873224999999999909e+03
6.400000000000000133e-02 1.550300000000000011e-01 7.443060000000000898e+00 5.113629999999999853e+01 1.872735000000000127e+03
6.500000000000000222e-02 1.549679999999999946e-01 6.647489999999999455e+00 4.968950000000000244e+01 1.872264999999999873e+03
6.600000000000000311e-02 1.549110000000000209e-01 5.935315000000000119e+00 4.843979999999999819e+01 1.871840000000000146e+03
6.700000000000000400e-02 1.548609999999999987e-01 5.332620000000000360e+00 4.744074999999999420e+01 1.871465000000000146e+03
6.800000000000000488e-02 1.548204999999999998e-01 4.864855000000000373e+00 4.674580000000000268e+01 1.871154999999999973e+03
6.900000000000000577e-02 1.547914999999999985e-01 4.555489999999999817e+00 4.640484999999999616e+01 1.870929999999999836e+03
7.000000000000000666e-02 1.547749999999999959e-01 4.424705000000000332e+00 4.646099999999999852e+01 1.870799999999999955e+03
7.100000000000000755e-02 1.547735000000000083e-01 4.488205000000000666e+00 4.694765000000000299e+01 1.870779999999999973e+03
7.200000000000000844e-02 1.547884999999999955e-01 4.756355000000000111e+00 4.788559999999999661e+01 1.870875000000000000e+03
7.300000000000000933e-02 1.548200000000000132e-01 5.233655000000000612e+00 4.928195000000000192e+01 1.871095000000000027e+03
7.399999999999999634e-02 1.548689999999999789e-01 5.918599999999999639e+00 5.112945000000000562e+01 1.871445000000000164e+03
7.499999999999999722e-02 1.549349999999999894e-01 6.803895000000000692e+00 5.340740000000000265e+01 1.871920000000000073e+03
7.599999999999999811e-02 1.550175000000000025e-01 7.876980000000000537e+00 5.608279999999999887e+01 1.872525000000000091e+03
7.699999999999999900e-02 1.551159999999999761e-01 9.120879999999999654e+00 5.911270000000000380e+01 1.873240000000000009e+03
7.799999999999999989e-02 1.552280000000000049e-01 1.051495500000000050e+01 6.244695000000000107e+01 1.874065000000000055e+03
7.900000000000000078e-02 1.553529999999999911e-01 1.203631999999999991e+01 6.603095000000000425e+01 1.874985000000000127e+03
8.000000000000000167e-02 1.554880000000000151e-01 1.366059499999999893e+01 6.980870000000000175e+01 1.875985000000000127e+03
8.100000000000000255e-02 1.556315000000000059e-01 1.536329999999999885e+01 7.372544999999999504e+01 1.877050000000000182e+03
8.200000000000000344e-02 1.557819999999999760e-01 1.712059999999999960e+01 7.773044999999999050e+01 1.878170000000000073e+03
8.300000000000000433e-02 1.559369999999999923e-01 1.891045000000000087e+01 8.177889999999999304e+01 1.879329999999999927e+03
8.400000000000000522e-02 1.560949999999999838e-01 2.071305000000000263e+01 8.583339999999999748e+01 1.880509999999999991e+03
8.500000000000000611e-02 1.562540000000000040e-01 2.251140000000000185e+01 8.986485000000000412e+01 1.881710000000000036e+03
8.600000000000000699e-02 1.564145000000000119e-01 2.429169999999999874e+01 9.385255000000000791e+01 1.882914999999999964e+03
8.700000000000000788e-02 1.565739999999999910e-01 2.604299999999999926e+01 9.778464999999999918e+01 1.884119999999999891e+03
8.800000000000000877e-02 1.567330000000000112e-01 2.775730000000000075e+01 1.016543999999999954e+02 1.885320000000000164e+03
8.899999999999999578e-02 1.568900000000000017e-01 2.942895000000000039e+01 1.054629500000000064e+02 1.886509999999999991e+03
8.999999999999999667e-02 1.570455000000000045e-01 3.105429999999999779e+01 1.092129999999999939e+02 1.887690000000000055e+03
9.099999999999999756e-02 1.571994999999999920e-01 3.263110000000000355e+01 1.129115000000000038e+02 1.888860000000000127e+03
9.199999999999999845e-02 1.573519999999999919e-01 3.415789999999999793e+01 1.165644999999999953e+02 1.890025000000000091e+03
9.299999999999999933e-02 1.575035000000000185e-01 3.563370000000000459e+01 1.201760000000000019e+02 1.891174999999999955e+03
9.400000000000000022e-02 1.576535000000000020e-01 3.705750000000000455e+01 1.237500000000000000e+02 1.892319999999999936e+03
9.500000000000000111e-02 1.578014999999999834e-01 3.842775000000000318e+01 1.272855000000000132e+02 1.893450000000000045e+03
9.600000000000000200e-02 1.579484999999999917e-01 3.974264999999999759e+01 1.307794999999999845e+02 1.894579999999999927e+03
9.700000000000000289e-02 1.580940000000000123e-01 4.099980000000000047e+01 1.342259999999999991e+02 1.895695000000000164e+03
9.800000000000000377e-02 1.582375000000000032e-01 4.219599999999999795e+01 1.376140000000000043e+02 1.896795000000000073e+03
9.900000000000000466e-02 1.583789999999999920e-01 4.332779999999999632e+01 1.409339999999999975e+02 1.897880000000000109e+03
1.000000000000000056e-01 1.585179999999999922e-01 4.439124999999999943e+01 1.441719999999999970e+02 1.898945000000000164e+03
1.010000000000000064e-01 1.586529999999999885e-01 4.538204999999999956e+01 1.473125000000000000e+02 1.899985000000000127e+03
1.020000000000000073e-01 1.587850000000000095e-01 4.629585000000000150e+01 1.503414999999999964e+02 1.901005000000000109e+03
1.030000000000000082e-01 1.589125000000000121e-01 4.712814999999999799e+01 1.532434999999999832e+02 1.901990000000000009e+03
1.040000000000000091e-01 1.590349999999999819e-01 4.787465000000000259e+01 1.560040000000000191e+02 1.902934999999999945e+03
1.050000000000000100e-01 1.591520000000000157e-01 4.853109999999999502e+01 1.586094999999999970e+02 1.903844999999999800e+03
1.059999999999999970e-01 1.592629999999999879e-01 4.909364999999999668e+01 1.610459999999999923e+02 1.904704999999999927e+03
1.069999999999999979e-01 1.593674999999999953e-01 4.955889999999999418e+01 1.633019999999999925e+02 1.905514999999999873e+03
1.079999999999999988e-01 1.594649999999999956e-01 4.992405000000000115e+01 1.653679999999999950e+02 1.906275000000000091e+03
1.089999999999999997e-01 1.595555000000000168e-01 5.018690000000000140e+01 1.672344999999999970e+02 1.906974999999999909e+03
1.100000000000000006e-01 1.596374999999999877e-01 5.034635000000000105e+01 1.688969999999999914e+02 1.907619999999999891e+03
1.110000000000000014e-01 1.597119999999999929e-01 5.040220000000000056e+01 1.703505000000000109e+02 1.908200000000000045e+03
1.120000000000000023e-01 1.597780000000000034e-01 5.035549999999999926e+01 1.715949999999999989e+02 1.908719999999999800e+03
1.130000000000000032e-01 1.598354999999999915e-01 5.020860000000000412e+01 1.726320000000000050e+02 1.909175000000000182e+03
1.140000000000000041e-01 1.598849999999999993e-01 4.996509999999999962e+01 1.734664999999999964e+02 1.909565000000000055e+03
1.150000000000000050e-01 1.599264999999999992e-01 4.963000000000000256e+01 1.741084999999999923e+02 1.909894999999999982e+03
1.160000000000000059e-01 1.599599999999999911e-01 4.920955000000000013e+01 1.745679999999999836e+02 1.910159999999999854e+03
1.170000000000000068e-01 1.599865000000000037e-01 4.871115000000000350e+01 1.748594999999999970e+02 1.910375000000000000e+03
1.180000000000000077e-01 1.600055000000000227e-01 4.814320000000000022e+01 1.749995000000000118e+02 1.910530000000000200e+03
1.190000000000000085e-01 1.600185000000000080e-01 4.751465000000000316e+01 1.750049999999999955e+02 1.910639999999999873e+03
1.200000000000000094e-01 1.600260000000000016e-01 4.683504999999999541e+01 1.748955000000000268e+02 1.910700000000000045e+03
1.209999999999999964e-01 1.600285000000000180e-01 4.611399999999999721e+01 1.746899999999999977e+02 1.910730000000000018e+03
1.219999999999999973e-01 1.600264999999999882e-01 4.536100000000000421e+01 1.744064999999999941e+02 1.910720000000000027e+03
1.229999999999999982e-01 1.600205000000000100e-01 4.458530000000000371e+01 1.740629999999999882e+02 1.910680000000000064e+03
1.239999999999999991e-01 1.600119999999999876e-01 4.379529999999999745e+01 1.736750000000000114e+02 1.910619999999999891e+03
1.250000000000000000e-01 1.600010000000000043e-01 4.299864999999999782e+01 1.732560000000000002e+02 1.910535000000000082e+03
1.260000000000000009e-01 1.599885000000000057e-01 4.220194999999999652e+01 1.728185000000000002e+02 1.910440000000000055e+03
1.270000000000000018e-01 1.599744999999999917e-01 4.141075000000000017e+01 1.723704999999999927e+02 1.910335000000000036e+03
1.280000000000000027e-01 1.599595000000000045e-01 4.062940000000000396e+01 1.719189999999999827e+02 1.910214999999999918e+03
1.290000000000000036e-01 1.599435000000000162e-01 3.986100000000000421e+01 1.714669999999999845e+02 1.910095000000000027e+03
1.300000000000000044e-01 1.599269999999999858e-01 3.910734999999999673e+01 1.710169999999999959e+02 1.909969999999999800e+03
1.310000000000000053e-01 1.599105000000000110e-01 3.836934999999999718e+01 1.705664999999999907e+02 1.909845000000000027e+03
1.320000000000000062e-01 1.598939999999999806e-01 3.764674999999999727e+01 1.701134999999999877e+02 1.909710000000000036e+03
1.330000000000000071e-01 1.598765000000000047e-01 3.693820000000000192e+01 1.696535000000000082e+02 1.909575000000000045e+03
1.340000000000000080e-01 1.598585000000000145e-01 3.624195000000000277e+01 1.691800000000000068e+02 1.909434999999999945e+03
1.350000000000000089e-01 1.598390000000000088e-01 3.555519999999999925e+01 1.686864999999999952e+02 1.909284999999999854e+03
1.360000000000000098e-01 1.598200000000000176e-01 3.487500000000000000e+01 1.681659999999999968e+02 1.909130000000000109e+03
1.370000000000000107e-01 1.597990000000000244e-01 3.419804999999999495e+01 1.676100000000000136e+02 1.908970000000000027e+03
1.380000000000000115e-01 1.597764999999999880e-01 3.352094999999999914e+01 1.670115000000000123e+02 1.908795000000000073e+03
1.390000000000000124e-01 1.597524999999999917e-01 3.284035000000000082e+01 1.663644999999999925e+02 1.908610000000000127e+03
1.400000000000000133e-01 1.597259999999999791e-01 3.215330000000000155e+01 1.656624999999999943e+02 1.908410000000000082e+03
1.410000000000000142e-01 1.596984999999999932e-01 3.145714999999999861e+01 1.649019999999999868e+02 1.908190000000000055e+03
1.420000000000000151e-01 1.596674999999999900e-01 3.074980000000000047e+01 1.640780000000000030e+02 1.907954999999999927e+03
1.430000000000000160e-01 1.596345000000000125e-01 3.002989999999999782e+01 1.631904999999999859e+02 1.907700000000000045e+03
1.440000000000000169e-01 1.595995000000000053e-01 2.929674999999999940e+01 1.622400000000000091e+02 1.907430000000000064e+03
1.450000000000000178e-01 1.595620000000000094e-01 2.855045000000000144e+01 1.612275000000000205e+02 1.907144999999999982e+03
1.459999999999999909e-01 1.595214999999999828e-01 2.779204999999999970e+01 1.601574999999999989e+02 1.906829999999999927e+03
1.469999999999999918e-01 1.594790000000000096e-01 2.702335000000000065e+01 1.590364999999999895e+02 1.906505000000000109e+03
1.479999999999999927e-01 1.594345000000000068e-01 2.624694999999999823e+01 1.578720000000000141e+02 1.906164999999999964e+03
1.489999999999999936e-01 1.593880000000000019e-01 2.546624999999999872e+01 1.566725000000000136e+02 1.905809999999999945e+03
1.499999999999999944e-01 1.593404999999999960e-01 2.468515000000000015e+01 1.554490000000000123e+02 1.905445000000000164e+03
1.509999999999999953e-01 1.592915000000000025e-01 2.390820000000000078e+01 1.542130000000000223e+02 1.905069999999999936e+03
1.519999999999999962e-01 1.592419999999999947e-01 2.314025000000000176e+01 1.529749999999999943e+02 1.904695000000000164e+03
1.529999999999999971e-01 1.591925000000000145e-01 2.238640000000000185e+01 1.517484999999999786e+02 1.904309999999999945e+03
1.539999999999999980e-01 1.591434999999999933e-01 2.165160000000000196e+01 1.505455000000000041e+02 1.903929999999999836e+03
1.549999999999999989e-01 1.590949999999999864e-01 2.094085000000000107e+01 1.493770000000000095e+02 1.903555000000000064e+03
1.559999999999999998e-01 1.590475000000000083e-01 2.025870000000000104e+01 1.482535000000000025e+02 1.903190000000000055e+03
1.570000000000000007e-01 1.590015000000000178e-01 1.960930000000000106e+01 1.471834999999999809e+02 1.902835000000000036e+03
1.580000000000000016e-01 1.589574999999999738e-01 1.899615000000000009e+01 1.461754999999999995e+02 1.902494999999999891e+03
1.590000000000000024e-01 1.589154999999999873e-01 1.842210000000000036e+01 1.452345000000000255e+02 1.902170000000000073e+03
