# t [s], A [cm^2], U [cm/s], P [cPa], c [cm/s]
1.000000000000000021e-03 7.342759999999999287e-01 7.715050000000001074e-03 1.067180000000000035e+02 1.804680000000000064e+03
2.000000000000000042e-03 7.342634999999999579e-01 -2.177590000000000081e-03 1.066814999999999998e+02 1.804675000000000182e+03
3.000000000000000062e-03 7.343295000000000794e-01 1.116149999999999920e-01 1.068224999999999909e+02 1.804704999999999927e+03
4.000000000000000083e-03 7.343750000000000000e-01 2.073822999999999916e-01 1.069495000000000005e+02 1.804730000000000018e+03
5.000000000000000104e-03 7.343220000000000303e-01 1.490315000000000112e-01 1.068149999999999977e+02 1.804704999999999927e+03
6.000000000000000125e-03 7.342454999999999954e-01 4.351599999999999913e-02 1.065210000000000008e+02 1.804644999999999982e+03
7.000000000000000146e-03 7.341779999999999973e-01 -5.697450000000003900e-02 1.061694999999999993e+02 1.804574999999999818e+03
8.000000000000000167e-03 7.340535000000000254e-01 -2.733799999999999564e-01 1.056084999999999923e+02 1.804460000000000036e+03
9.000000000000001055e-03 7.338560000000000638e-01 -6.379950000000000898e-01 1.047535000000000025e+02 1.804284999999999854e+03
1.000000000000000194e-02 7.335730000000000306e-01 -1.166465000000000085e+00 1.035327000000000055e+02 1.804035000000000082e+03
1.099999999999999936e-02 7.331760000000000499e-01 -1.891370000000000218e+00 1.018428499999999985e+02 1.803684999999999945e+03
1.200000000000000025e-02 7.326880000000000059e-01 -2.750150000000000095e+00 9.970584999999999809e+01 1.803235000000000127e+03
1.300000000000000114e-02 7.321954999999999991e-01 -3.558765000000000178e+00 9.734985000000000355e+01 1.802720000000000027e+03
1.400000000000000203e-02 7.317865000000000064e-01 -4.118887499999999591e+00 9.508629999999999427e+01 1.802204999999999927e+03
1.499999999999999944e-02 7.314939999999999776e-01 -4.326831999999999567e+00 9.313530000000000086e+01 1.801735000000000127e+03
1.600000000000000033e-02 7.312935000000000407e-01 -4.201060000000000016e+00 9.153849999999999909e+01 1.801319999999999936e+03
1.700000000000000122e-02 7.311225000000000085e-01 -3.843210000000000015e+00 9.018465000000000487e+01 1.800944999999999936e+03
1.800000000000000211e-02 7.309205000000000840e-01 -3.375991500000000034e+00 8.888989999999999725e+01 1.800585000000000036e+03
1.900000000000000300e-02 7.306500000000000217e-01 -2.889580500000000107e+00 8.748940000000000339e+01 1.800210000000000036e+03
2.000000000000000042e-02 7.303105000000000846e-01 -2.413404000000000327e+00 8.590279999999999916e+01 1.799795000000000073e+03
2.100000000000000130e-02 7.299274999999999514e-01 -1.919775000000000009e+00 8.415235000000001264e+01 1.799349999999999909e+03
2.200000000000000219e-02 7.295409999999999950e-01 -1.353875000000000162e+00 8.233220000000000027e+01 1.798880000000000109e+03
2.299999999999999961e-02 7.291784999999999517e-01 -6.732349999999998058e-01 8.054940000000000566e+01 1.798420000000000073e+03
2.400000000000000050e-02 7.288490000000000801e-01 1.221749999999999226e-01 7.886605000000000132e+01 1.797969999999999800e+03
2.500000000000000139e-02 7.285325000000000273e-01 9.796250000000001901e-01 7.726619999999999777e+01 1.797539999999999964e+03
2.600000000000000228e-02 7.281930000000000902e-01 1.803225000000000078e+00 7.565380000000000393e+01 1.797110000000000127e+03
2.700000000000000316e-02 7.277865000000000029e-01 2.478004999999999569e+00 7.387969999999999970e+01 1.796644999999999982e+03
2.800000000000000058e-02 7.272749999999998938e-01 2.900780000000000136e+00 7.178725000000000023e+01 1.796130000000000109e+03
2.900000000000000147e-02 7.266434999999999977e-01 3.009200000000000319e+00 6.926444999999999652e+01 1.795525000000000091e+03
3.000000000000000236e-02 7.259014999999999773e-01 2.799364999999999881e+00 6.628450000000000841e+01 1.794835000000000036e+03
3.099999999999999978e-02 7.250855000000000494e-01 2.325534999999999908e+00 6.292110000000000269e+01 1.794059999999999945e+03
3.200000000000000067e-02 7.242470000000000852e-01 1.682315000000000005e+00 5.933314999999999628e+01 1.793230000000000018e+03
3.300000000000000155e-02 7.234389999999999432e-01 9.789799999999999613e-01 5.572809999999999775e+01 1.792389999999999873e+03
3.400000000000000244e-02 7.227079999999999060e-01 3.147399999999995757e-01 5.231855000000000189e+01 1.791574999999999818e+03
3.500000000000000333e-02 7.220865000000000755e-01 -2.362500000000000711e-01 4.928754999999999598e+01 1.790835000000000036e+03
3.600000000000000422e-02 7.215905000000000236e-01 -6.300050000000001482e-01 4.676760000000000161e+01 1.790200000000000045e+03
3.700000000000000511e-02 7.212255000000000749e-01 -8.490949999999997111e-01 4.483500000000000085e+01 1.789684999999999945e+03
3.799999999999999906e-02 7.209864999999999746e-01 -8.939799999999997748e-01 4.351639999999999731e+01 1.789309999999999945e+03
3.899999999999999994e-02 7.208669999999999245e-01 -7.727174999999999461e-01 4.280334999999999468e+01 1.789070000000000164e+03
4.000000000000000083e-02 7.208589999999999165e-01 -4.920149999999999801e-01 4.266910000000000025e+01 1.788970000000000027e+03
4.100000000000000172e-02 7.209585000000000576e-01 -5.194500000000001894e-02 4.308324999999999960e+01 1.789005000000000109e+03
4.200000000000000261e-02 7.211634999999999573e-01 5.546699999999999964e-01 4.402015000000000100e+01 1.789160000000000082e+03
4.300000000000000350e-02 7.214730000000000310e-01 1.338749999999999885e+00 4.546039999999999992e+01 1.789444999999999936e+03
4.400000000000000439e-02 7.218864999999999865e-01 2.309130000000000127e+00 4.738615000000000066e+01 1.789844999999999800e+03
4.499999999999999833e-02 7.223995000000000832e-01 3.466805000000000359e+00 4.977384999999999593e+01 1.790360000000000127e+03
4.599999999999999922e-02 7.230015000000000747e-01 4.801025000000000098e+00 5.258720000000000283e+01 1.790974999999999909e+03
4.700000000000000011e-02 7.236789999999999612e-01 6.288289999999999935e+00 5.577320000000000277e+01 1.791684999999999945e+03
4.800000000000000100e-02 7.244150000000000311e-01 7.893995499999999943e+00 5.926245000000000118e+01 1.792480000000000018e+03
4.900000000000000189e-02 7.251890000000000835e-01 9.576409999999999201e+00 6.297274999999999778e+01 1.793329999999999927e+03
5.000000000000000278e-02 7.259809999999999874e-01 1.129109500000000033e+01 6.681605000000000416e+01 1.794224999999999909e+03
5.100000000000000366e-02 7.267734999999999612e-01 1.299585500000000060e+01 7.070589999999999975e+01 1.795144999999999982e+03
5.200000000000000455e-02 7.275510000000000588e-01 1.465425499999999914e+01 7.456515000000000271e+01 1.796065000000000055e+03
5.300000000000000544e-02 7.283034999999999926e-01 1.623832000000000164e+01 7.833140000000000214e+01 1.796974999999999909e+03
5.399999999999999939e-02 7.290244999999999642e-01 1.772899999999999920e+01 8.196039999999999281e+01 1.797869999999999891e+03
5.500000000000000028e-02 7.297124999999999861e-01 1.911614999999999753e+01 8.542704999999999416e+01 1.798730000000000018e+03
5.600000000000000117e-02 7.303675000000000583e-01 2.039679999999999893e+01 8.872370000000000800e+01 1.799554999999999836e+03
5.700000000000000205e-02 7.309939999999999216e-01 2.157375000000000043e+01 9.185745000000000005e+01 1.800349999999999909e+03
5.800000000000000294e-02 7.315964999999999829e-01 2.265375000000000227e+01 9.484624999999999773e+01 1.801110000000000127e+03
5.900000000000000383e-02 7.321800000000000530e-01 2.364560000000000173e+01 9.771484999999999843e+01 1.801845000000000027e+03
6.000000000000000472e-02 7.327515000000000001e-01 2.455894999999999939e+01 1.004915000000000020e+02 1.802555000000000064e+03
6.099999999999999867e-02 7.333149999999999391e-01 2.540299999999999869e+01 1.032023499999999956e+02 1.803244999999999891e+03
6.199999999999999956e-02 7.338740000000000263e-01 2.618529999999999802e+01 1.058710000000000093e+02 1.803930000000000064e+03
6.300000000000000044e-02 7.344310000000000560e-01 2.691094999999999970e+01 1.085130000000000052e+02 1.804599999999999909e+03
6.400000000000000133e-02 7.349855000000000693e-01 2.758214999999999861e+01 1.111355000000000075e+02 1.805264999999999873e+03
6.500000000000000222e-02 7.355369999999999964e-01 2.819790000000000063e+01 1.137365000000000066e+02 1.805924999999999955e+03
6.600000000000000311e-02 7.360809999999999853e-01 2.875450000000000017e+01 1.163050000000000068e+02 1.806579999999999927e+03
6.700000000000000400e-02 7.366129999999999622e-01 2.924595000000000056e+01 1.188225000000000051e+02 1.807220000000000027e+03
6.800000000000000488e-02 7.371265000000000178e-01 2.966489999999999938e+01 1.212630000000000052e+02 1.807844999999999800e+03
6.900000000000000577e-02 7.376165000000000083e-01 3.000369999999999848e+01 1.235999999999999943e+02 1.808444999999999936e+03
7.000000000000000666e-02 7.380759999999999543e-01 3.025520000000000209e+01 1.258044999999999902e+02 1.809019999999999982e+03
7.100000000000000755e-02 7.385014999999999219e-01 3.041335000000000122e+01 1.278499999999999943e+02 1.809549999999999955e+03
7.200000000000000844e-02 7.388875000000000304e-01 3.047375000000000256e+01 1.297119999999999891e+02 1.810045000000000073e+03
7.300000000000000933e-02 7.392309999999999715e-01 3.043410000000000082e+01 1.313725000000000023e+02 1.810494999999999891e+03
7.399999999999999634e-02 7.395289999999999919e-01 3.029350000000000165e+01 1.328179999999999836e+02 1.810884999999999991e+03
7.499999999999999722e-02 7.397819999999999396e-01 3.005335000000000178e+01 1.340399999999999920e+02 1.811224999999999909e+03
7.599999999999999811e-02 7.399884999999999380e-01 2.971664999999999779e+01 1.350355000000000132e+02 1.811509999999999991e+03
7.699999999999999900e-02 7.401495000000000157e-01 2.928840000000000288e+01 1.358075000000000045e+02 1.811744999999999891e+03
7.799999999999999989e-02 7.402670000000000083e-01 2.877510000000000190e+01 1.363634999999999877e+02 1.811924999999999955e+03
7.900000000000000078e-02 7.403435000000000432e-01 2.818540000000000134e+01 1.367154999999999916e+02 1.812049999999999955e+03
8.000000000000000167e-02 7.403834999999999722e-01 2.752944999999999709e+01 1.368820000000000050e+02 1.812125000000000000e+03
8.100000000000000255e-02 7.403914999999999802e-01 2.681889999999999930e+01 1.368820000000000050e+02 1.812164999999999964e+03
8.200000000000000344e-02 7.403710000000000013e-01 2.606694999999999851e+01 1.367409999999999854e+02 1.812164999999999964e+03
8.300000000000000433e-02 7.403290000000000148e-01 2.528710000000000235e+01 1.364839999999999804e+02 1.812125000000000000e+03
8.400000000000000522e-02 7.402714999999999712e-01 2.449340000000000117e+01 1.361385000000000218e+02 1.812065000000000055e+03
8.500000000000000611e-02 7.402020000000000266e-01 2.369910000000000139e+01 1.357325000000000159e+02 1.811985000000000127e+03
8.600000000000000699e-02 7.401275000000000492e-01 2.291645000000000110e+01 1.352905000000000086e+02 1.811889999999999873e+03
8.700000000000000788e-02 7.400514999999999732e-01 2.215569999999999951e+01 1.348360000000000127e+02 1.811789999999999964e+03
8.800000000000000877e-02 7.399765000000000370e-01 2.142474999999999952e+01 1.343870000000000005e+02 1.811690000000000055e+03
8.899999999999999578e-02 7.399050000000000349e-01 2.072885000000000133e+01 1.339575000000000102e+02 1.811585000000000036e+03
8.999999999999999667e-02 7.398390000000000244e-01 2.007050000000000267e+01 1.335550000000000068e+02 1.811480000000000018e+03
9.099999999999999756e-02 7.397770000000000179e-01 1.944920000000000115e+01 1.331820000000000164e+02 1.811384999999999991e+03
9.199999999999999845e-02 7.397184999999999455e-01 1.886234999999999928e+01 1.328365000000000009e+02 1.811299999999999955e+03
9.299999999999999933e-02 7.396620000000000417e-01 1.830489999999999995e+01 1.325110000000000241e+02 1.811210000000000036e+03
9.400000000000000022e-02 7.396039999999999281e-01 1.777049999999999841e+01 1.321949999999999932e+02 1.811125000000000000e+03
9.500000000000000111e-02 7.395430000000000614e-01 1.725159999999999982e+01 1.318764999999999930e+02 1.811039999999999964e+03
9.600000000000000200e-02 7.394749999999999934e-01 1.674020000000000152e+01 1.315405000000000086e+02 1.810954999999999927e+03
9.700000000000000289e-02 7.393979999999999997e-01 1.622814999999999941e+01 1.311730000000000018e+02 1.810860000000000127e+03
9.800000000000000377e-02 7.393089999999999939e-01 1.570790000000000042e+01 1.307595000000000027e+02 1.810760000000000218e+03
9.900000000000000466e-02 7.392054999999999598e-01 1.517275000000000063e+01 1.302895000000000039e+02 1.810639999999999873e+03
1.000000000000000056e-01 7.390870000000000495e-01 1.461739999999999995e+01 1.297539999999999907e+02 1.810514999999999873e+03
1.010000000000000064e-01 7.389520000000000532e-01 1.403824999999999790e+01 1.291469999999999914e+02 1.810365000000000009e+03
1.020000000000000073e-01 7.388019999999999587e-01 1.343353000000000108e+01 1.284669999999999845e+02 1.810204999999999927e+03
1.030000000000000082e-01 7.386369999999999880e-01 1.280382999999999960e+01 1.277164999999999964e+02 1.810025000000000091e+03
1.040000000000000091e-01 7.384589999999999765e-01 1.215162499999999923e+01 1.269035000000000082e+02 1.809835000000000036e+03
1.050000000000000100e-01 7.382720000000000393e-01 1.148174000000000028e+01 1.260390000000000015e+02 1.809630000000000109e+03
1.059999999999999970e-01 7.380789999999999296e-01 1.080062999999999995e+01 1.251380000000000052e+02 1.809414999999999964e+03
1.069999999999999979e-01 7.378835000000000255e-01 1.011633499999999941e+01 1.242185000000000059e+02 1.809194999999999936e+03
1.079999999999999988e-01 7.376909999999999856e-01 9.438155000000000072e+00 1.233010000000000019e+02 1.808974999999999909e+03
1.089999999999999997e-01 7.375054999999999250e-01 8.775780000000001024e+00 1.224064999999999941e+02 1.808750000000000000e+03
1.100000000000000006e-01 7.373315000000000285e-01 8.139115000000000322e+00 1.215569999999999879e+02 1.808545000000000073e+03
1.110000000000000014e-01 7.371735000000000371e-01 7.537535000000000096e+00 1.207734999999999985e+02 1.808344999999999800e+03
1.120000000000000023e-01 7.370345000000000368e-01 6.979684999999999917e+00 1.200724999999999909e+02 1.808164999999999964e+03
1.130000000000000032e-01 7.369175000000000031e-01 6.472630000000000550e+00 1.194699999999999989e+02 1.808005000000000109e+03
1.140000000000000041e-01 7.368250000000000632e-01 6.021830000000000460e+00 1.189784999999999968e+02 1.807869999999999891e+03
1.150000000000000050e-01 7.367569999999999952e-01 5.630770000000000053e+00 1.186029999999999944e+02 1.807764999999999873e+03
1.160000000000000059e-01 7.367139999999999800e-01 5.300874999999999559e+00 1.183474999999999966e+02 1.807684999999999945e+03
1.170000000000000068e-01 7.366949999999999887e-01 5.031494999999999607e+00 1.182090000000000032e+02 1.807634999999999991e+03
1.180000000000000077e-01 7.366984999999999228e-01 4.820075000000000109e+00 1.181814999999999998e+02 1.807610000000000127e+03
1.190000000000000085e-01 7.367209999999999592e-01 4.662359999999999616e+00 1.182545000000000073e+02 1.807610000000000127e+03
1.200000000000000094e-01 7.367604999999999293e-01 4.552749999999999631e+00 1.184154999999999944e+02 1.807630000000000109e+03
1.209999999999999964e-01 7.368135000000000101e-01 4.484645000000000437e+00 1.186490000000000009e+02 1.807675000000000182e+03
1.219999999999999973e-01 7.368764999999999343e-01 4.450865000000000293e+00 1.189380000000000024e+02 1.807730000000000018e+03
1.229999999999999982e-01 7.369459999999999900e-01 4.444015000000000271e+00 1.192674999999999983e+02 1.807795000000000073e+03
1.239999999999999991e-01 7.370185000000000208e-01 4.456810000000000827e+00 1.196200000000000045e+02 1.807869999999999891e+03
1.250000000000000000e-01 7.370919999999999694e-01 4.482375000000000220e+00 1.199805000000000064e+02 1.807954999999999927e+03
1.260000000000000009e-01 7.371635000000000826e-01 4.514454999999999885e+00 1.203370000000000033e+02 1.808034999999999854e+03
1.270000000000000018e-01 7.372309999999999697e-01 4.547579999999999956e+00 1.206784999999999997e+02 1.808115000000000009e+03
1.280000000000000027e-01 7.372925000000000173e-01 4.577130000000000365e+00 1.209954999999999927e+02 1.808190000000000055e+03
1.290000000000000036e-01 7.373480000000000034e-01 4.599429999999999907e+00 1.212824999999999989e+02 1.808259999999999991e+03
1.300000000000000044e-01 7.373959999999999404e-01 4.611705000000000609e+00 1.215344999999999942e+02 1.808325000000000045e+03
1.310000000000000053e-01 7.374369999999998981e-01 4.612095000000000056e+00 1.217500000000000000e+02 1.808380000000000109e+03
1.320000000000000062e-01 7.374704999999999178e-01 4.599610000000000198e+00 1.219284999999999997e+02 1.808429999999999836e+03
1.330000000000000071e-01 7.374974999999999170e-01 4.574035000000000295e+00 1.220715000000000003e+02 1.808465000000000146e+03
1.340000000000000080e-01 7.375180000000000069e-01 4.535854999999999748e+00 1.221814999999999998e+02 1.808494999999999891e+03
1.350000000000000089e-01 7.375329999999999941e-01 4.486150000000000304e+00 1.222625000000000028e+02 1.808519999999999982e+03
1.360000000000000098e-01 7.375435000000000185e-01 4.426465000000000316e+00 1.223190000000000026e+02 1.808539999999999964e+03
1.370000000000000107e-01 7.375510000000000677e-01 4.358674999999999855e+00 1.223555000000000064e+02 1.808555000000000064e+03
1.380000000000000115e-01 7.375564999999999483e-01 4.284830000000000361e+00 1.223769999999999953e+02 1.808565000000000055e+03
1.390000000000000124e-01 7.375595000000000345e-01 4.206985000000000419e+00 1.223875000000000028e+02 1.808570000000000164e+03
1.400000000000000133e-01 7.375620000000000509e-01 4.127089999999999925e+00 1.223910000000000053e+02 1.808575000000000045e+03
1.410000000000000142e-01 7.375644999999999563e-01 4.046834999999999738e+00 1.223915000000000077e+02 1.808579999999999927e+03
1.420000000000000151e-01 7.375670000000000837e-01 3.967554999999999943e+00 1.223905000000000030e+02 1.808579999999999927e+03
1.430000000000000160e-01 7.375689999999999191e-01 3.890204999999999913e+00 1.223884999999999934e+02 1.808579999999999927e+03
1.440000000000000169e-01 7.375720000000000054e-01 3.815265000000000128e+00 1.223874999999999886e+02 1.808579999999999927e+03
1.450000000000000178e-01 7.375734999999999930e-01 3.742824999999999847e+00 1.223850000000000051e+02 1.808579999999999927e+03
1.459999999999999909e-01 7.375750000000000917e-01 3.672584999999999766e+00 1.223789999999999907e+02 1.808579999999999927e+03
1.469999999999999918e-01 7.375749999999999806e-01 3.603990000000000027e+00 1.223679999999999950e+02 1.808579999999999927e+03
1.479999999999999927e-01 7.375724999999999643e-01 3.536300000000000221e+00 1.223479999999999990e+02 1.808575000000000045e+03
1.489999999999999936e-01 7.375680000000000014e-01 3.468739999999999934e+00 1.223170000000000073e+02 1.808570000000000164e+03
1.499999999999999944e-01 7.375589999999999646e-01 3.400599999999999845e+00 1.222715000000000032e+02 1.808559999999999945e+03
1.509999999999999953e-01 7.375475000000000225e-01 3.331350000000000033e+00 1.222094999999999914e+02 1.808545000000000073e+03
1.519999999999999962e-01 7.375309999999999366e-01 3.260734999999999939e+00 1.221295000000000073e+02 1.808529999999999973e+03
1.529999999999999971e-01 7.375115000000000975e-01 3.188810000000000144e+00 1.220305000000000035e+02 1.808509999999999991e+03
1.539999999999999980e-01 7.374870000000000037e-01 3.115979999999999972e+00 1.219134999999999991e+02 1.808480000000000018e+03
1.549999999999999989e-01 7.374600000000000044e-01 3.042989999999999640e+00 1.217794999999999987e+02 1.808449999999999818e+03
1.559999999999999998e-01 7.374300000000000299e-01 2.970864999999999867e+00 1.216304999999999978e+02 1.808409999999999854e+03
1.570000000000000007e-01 7.373970000000000802e-01 2.900879999999999903e+00 1.214705000000000013e+02 1.808375000000000000e+03
1.580000000000000016e-01 7.373635000000000606e-01 2.834459999999999980e+00 1.213025000000000091e+02 1.808335000000000036e+03
1.590000000000000024e-01 7.373290000000000122e-01 2.773130000000000095e+00 1.211304999999999978e+02 1.808295000000000073e+03
