# t [s], A [cm^2], U [cm/s], P [cPa], c [cm/s]
1.000000000000000021e-03 1.950350000000000139e-01 2.513299999999999979e-01 1.024939999999999998e+02 2.271934999999999945e+03
2.000000000000000042e-03 1.949825000000000030e-01 1.726855999999999725e+00 9.904824999999999591e+01 2.271485000000000127e+03
3.000000000000000062e-03 1.948455000000000048e-01 3.602168999999999510e+00 9.410004999999999598e+01 2.270350000000000364e+03
4.000000000000000083e-03 1.946609999999999729e-01 5.742661499999999641e+00 8.864329999999999643e+01 2.268845000000000255e+03
5.000000000000000104e-03 1.944664999999999866e-01 8.059490000000000265e+00 8.373134999999999195e+01 2.267275000000000091e+03
6.000000000000000125e-03 1.942814999999999959e-01 1.033740000000000059e+01 7.969354999999998768e+01 2.265800000000000182e+03
7.000000000000000146e-03 1.941089999999999760e-01 1.232581500000000041e+01 7.621004999999999541e+01 2.264454999999999927e+03
8.000000000000000167e-03 1.939529999999999865e-01 1.395720499999999831e+01 7.308044999999999902e+01 2.263260000000000218e+03
9.000000000000001055e-03 1.938195000000000057e-01 1.528359999999999985e+01 7.042740000000000578e+01 2.262255000000000109e+03
1.000000000000000194e-02 1.937099999999999933e-01 1.634060000000000201e+01 6.832765000000000555e+01 2.261440000000000055e+03
1.099999999999999936e-02 1.936240000000000183e-01 1.715024999999999977e+01 6.674540000000000362e+01 2.260810000000000400e+03
1.200000000000000025e-02 1.935580000000000078e-01 1.772354999999999947e+01 6.557984999999999332e+01 2.260340000000000146e+03
1.300000000000000114e-02 1.935069999999999846e-01 1.805649999999999977e+01 6.465129999999999200e+01 2.259980000000000018e+03
1.400000000000000203e-02 1.934655000000000125e-01 1.818635000000000090e+01 6.383709999999999951e+01 2.259690000000000055e+03
1.499999999999999944e-02 1.934354999999999825e-01 1.824735000000000085e+01 6.329500000000000171e+01 2.259489999999999782e+03
1.600000000000000033e-02 1.934279999999999888e-01 1.843395000000000294e+01 6.346625000000000227e+01 2.259445000000000164e+03
1.700000000000000122e-02 1.934529999999999861e-01 1.889155000000000229e+01 6.478669999999999618e+01 2.259640000000000327e+03
1.800000000000000211e-02 1.935159999999999936e-01 1.962549999999999883e+01 6.734404999999999575e+01 2.260109999999999673e+03
1.900000000000000300e-02 1.936094999999999899e-01 2.049394999999999811e+01 7.074205000000000609e+01 2.260815000000000055e+03
2.000000000000000042e-02 1.937159999999999993e-01 2.127720000000000056e+01 7.424215000000000941e+01 2.261625000000000000e+03
2.100000000000000130e-02 1.938134999999999997e-01 2.177570000000000050e+01 7.706910000000000593e+01 2.262385000000000218e+03
2.200000000000000219e-02 1.938860000000000028e-01 2.188619999999999877e+01 7.870805000000000007e+01 2.262965000000000146e+03
2.299999999999999961e-02 1.939255000000000007e-01 2.162689999999999912e+01 7.906075000000001296e+01 2.263295000000000073e+03
2.400000000000000050e-02 1.939339999999999953e-01 2.110920000000000130e+01 7.841485000000000127e+01 2.263385000000000218e+03
2.500000000000000139e-02 1.939210000000000100e-01 2.047775000000000034e+01 7.726725000000000421e+01 2.263305000000000291e+03
2.600000000000000228e-02 1.938985000000000014e-01 1.984790000000000276e+01 7.609600000000000364e+01 2.263140000000000327e+03
2.700000000000000316e-02 1.938755000000000062e-01 1.926664999999999850e+01 7.518119999999998981e+01 2.262970000000000255e+03
2.800000000000000058e-02 1.938560000000000005e-01 1.870824999999999960e+01 7.453679999999999950e+01 2.262814999999999600e+03
2.900000000000000147e-02 1.938364999999999949e-01 1.810040000000000049e+01 7.396054999999999779e+01 2.262670000000000073e+03
3.000000000000000236e-02 1.938124999999999987e-01 1.736605000000000132e+01 7.316335000000000832e+01 2.262489999999999782e+03
3.099999999999999978e-02 1.937770000000000048e-01 1.646584999999999965e+01 7.192320000000000846e+01 2.262230000000000018e+03
3.200000000000000067e-02 1.937280000000000113e-01 1.542440000000000033e+01 7.020465000000000089e+01 2.261864999999999782e+03
3.300000000000000155e-02 1.936685000000000212e-01 1.433295000000000030e+01 6.820300000000000296e+01 2.261425000000000182e+03
3.400000000000000244e-02 1.936070000000000013e-01 1.332549999999999990e+01 6.629720000000000368e+01 2.260954999999999927e+03
3.500000000000000333e-02 1.935560000000000058e-01 1.253979999999999961e+01 6.493170000000000641e+01 2.260560000000000400e+03
3.600000000000000422e-02 1.935259999999999758e-01 1.207564999999999955e+01 6.447280000000000655e+01 2.260315000000000055e+03
3.700000000000000511e-02 1.935255000000000170e-01 1.196724999999999994e+01 6.509284999999999854e+01 2.260289999999999964e+03
3.799999999999999906e-02 1.935554999999999914e-01 1.217520000000000024e+01 6.671904999999999575e+01 2.260494999999999891e+03
3.899999999999999994e-02 1.936120000000000063e-01 1.259949999999999903e+01 6.905535000000000423e+01 2.260899999999999636e+03
4.000000000000000083e-02 1.936829999999999941e-01 1.310519999999999996e+01 7.166140000000000043e+01 2.261430000000000291e+03
4.100000000000000172e-02 1.937574999999999992e-01 1.355269999999999975e+01 7.405780000000000030e+01 2.261989999999999782e+03
4.200000000000000261e-02 1.938215000000000077e-01 1.382355000000000089e+01 7.582574999999999932e+01 2.262485000000000127e+03
4.300000000000000350e-02 1.938644999999999952e-01 1.383740000000000059e+01 7.667804999999999893e+01 2.262820000000000164e+03
4.400000000000000439e-02 1.938799999999999968e-01 1.355754999999999910e+01 7.648964999999999748e+01 2.262954999999999927e+03
4.499999999999999833e-02 1.938650000000000095e-01 1.298649999999999949e+01 7.528815000000000168e+01 2.262859999999999673e+03
4.599999999999999922e-02 1.938210000000000210e-01 1.215520000000000067e+01 7.321479999999999677e+01 2.262534999999999854e+03
4.700000000000000011e-02 1.937514999999999932e-01 1.110973500000000058e+01 7.047209999999999752e+01 2.262019999999999982e+03
4.800000000000000100e-02 1.936620000000000008e-01 9.900344999999999729e+00 6.727414999999999168e+01 2.261350000000000364e+03
4.900000000000000189e-02 1.935580000000000078e-01 8.573914999999999509e+00 6.381184999999999974e+01 2.260565000000000055e+03
5.000000000000000278e-02 1.934454999999999925e-01 7.171945000000000903e+00 6.023664999999999736e+01 2.259710000000000036e+03
5.100000000000000366e-02 1.933285000000000142e-01 5.731679999999999886e+00 5.666254999999999598e+01 2.258819999999999709e+03
5.200000000000000455e-02 1.932095000000000062e-01 4.289718500000000212e+00 5.317929999999999779e+01 2.257914999999999964e+03
5.300000000000000544e-02 1.930934999999999735e-01 2.885562000000000182e+00 4.986999999999999744e+01 2.257034999999999854e+03
5.399999999999999939e-02 1.929830000000000156e-01 1.563870000000000093e+00 4.682524999999999693e+01 2.256184999999999945e+03
5.500000000000000028e-02 1.928819999999999979e-01 3.744899999999999896e-01 4.415090000000000003e+01 2.255404999999999745e+03
5.600000000000000117e-02 1.927940000000000209e-01 -6.297300000000000120e-01 4.196644999999999470e+01 2.254724999999999909e+03
5.700000000000000205e-02 1.927225000000000188e-01 -1.396873499999999879e+00 4.039629999999999654e+01 2.254170000000000073e+03
5.800000000000000294e-02 1.926730000000000109e-01 -1.880724499999999910e+00 3.955604999999999905e+01 2.253775000000000091e+03
5.900000000000000383e-02 1.926485000000000003e-01 -2.045374999999999943e+00 3.953770000000000095e+01 2.253565000000000055e+03
6.000000000000000472e-02 1.926510000000000167e-01 -1.868789999999999951e+00 4.039724999999999966e+01 2.253565000000000055e+03
6.099999999999999867e-02 1.926825000000000065e-01 -1.344902499999999890e+00 4.214679999999999893e+01 2.253779999999999745e+03
6.199999999999999956e-02 1.927435000000000120e-01 -4.839549999999999130e-01 4.475240000000000151e+01 2.254215000000000146e+03
6.300000000000000044e-02 1.928314999999999890e-01 6.886399999999999189e-01 4.813729999999999620e+01 2.254864999999999782e+03
6.400000000000000133e-02 1.929454999999999920e-01 2.134624500000000147e+00 5.218919999999999959e+01 2.255704999999999927e+03
6.500000000000000222e-02 1.930804999999999882e-01 3.806071000000000204e+00 5.677060000000000173e+01 2.256720000000000255e+03
6.600000000000000311e-02 1.932325000000000015e-01 5.648970000000000269e+00 6.173029999999999973e+01 2.257859999999999673e+03
6.700000000000000400e-02 1.933969999999999856e-01 7.606995000000000395e+00 6.691554999999999609e+01 2.259110000000000127e+03
6.800000000000000488e-02 1.935695000000000054e-01 9.625259999999999039e+00 7.218269999999999698e+01 2.260420000000000073e+03
6.900000000000000577e-02 1.937450000000000006e-01 1.165360500000000066e+01 7.740729999999999222e+01 2.261760000000000218e+03
7.000000000000000666e-02 1.939200000000000090e-01 1.364920500000000025e+01 8.249134999999999707e+01 2.263105000000000018e+03
7.100000000000000755e-02 1.940919999999999868e-01 1.557874999999999943e+01 8.736775000000000091e+01 2.264425000000000182e+03
7.200000000000000844e-02 1.942579999999999862e-01 1.741920000000000002e+01 9.200155000000000882e+01 2.265704999999999927e+03
7.300000000000000933e-02 1.944175000000000209e-01 1.915729999999999933e+01 9.638839999999999009e+01 2.266940000000000055e+03
7.399999999999999634e-02 1.945699999999999930e-01 2.078894999999999982e+01 1.005475999999999885e+02 2.268125000000000000e+03
7.499999999999999722e-02 1.947165000000000146e-01 2.231700000000000017e+01 1.045177500000000066e+02 2.269264999999999873e+03
7.599999999999999811e-02 1.948570000000000024e-01 2.374900000000000233e+01 1.083455000000000013e+02 2.270364999999999782e+03
7.699999999999999900e-02 1.949944999999999873e-01 2.509489999999999910e+01 1.120784999999999911e+02 2.271434999999999945e+03
7.799999999999999989e-02 1.951289999999999969e-01 2.636500000000000199e+01 1.157584999999999980e+02 2.272484999999999673e+03
7.900000000000000078e-02 1.952615000000000045e-01 2.756835000000000235e+01 1.194170000000000016e+02 2.273525000000000091e+03
8.000000000000000167e-02 1.953940000000000121e-01 2.871155000000000257e+01 1.230705000000000098e+02 2.274555000000000291e+03
8.100000000000000255e-02 1.955255000000000187e-01 2.979830000000000112e+01 1.267229999999999990e+02 2.275585000000000036e+03
8.200000000000000344e-02 1.956565000000000110e-01 3.082914999999999850e+01 1.303650000000000091e+02 2.276605000000000018e+03
8.300000000000000433e-02 1.957869999999999888e-01 3.180149999999999721e+01 1.339744999999999777e+02 2.277630000000000109e+03
8.400000000000000522e-02 1.959155000000000202e-01 3.271050000000000324e+01 1.375229999999999961e+02 2.278635000000000218e+03
8.500000000000000611e-02 1.960415000000000074e-01 3.354890000000000327e+01 1.409749999999999943e+02 2.279619999999999891e+03
8.600000000000000699e-02 1.961640000000000050e-01 3.430780000000000030e+01 1.442909999999999968e+02 2.280585000000000036e+03
8.700000000000000788e-02 1.962809999999999833e-01 3.497719999999999629e+01 1.474320000000000164e+02 2.281505000000000109e+03
8.800000000000000877e-02 1.963920000000000110e-01 3.554645000000000010e+01 1.503575000000000159e+02 2.282380000000000109e+03
8.899999999999999578e-02 1.964960000000000040e-01 3.600469999999999970e+01 1.530294999999999845e+02 2.283195000000000164e+03
8.999999999999999667e-02 1.965905000000000014e-01 3.634194999999999709e+01 1.554130000000000109e+02 2.283940000000000055e+03
9.099999999999999756e-02 1.966749999999999887e-01 3.654935000000000400e+01 1.574789999999999850e+02 2.284610000000000127e+03
9.199999999999999845e-02 1.967484999999999928e-01 3.662004999999999910e+01 1.592035000000000196e+02 2.285195000000000164e+03
9.299999999999999933e-02 1.968104999999999993e-01 3.654994999999999550e+01 1.605724999999999909e+02 2.285694999999999709e+03
9.400000000000000022e-02 1.968604999999999938e-01 3.633840000000000003e+01 1.615799999999999841e+02 2.286095000000000255e+03
9.500000000000000111e-02 1.968975000000000031e-01 3.598825000000000074e+01 1.622319999999999993e+02 2.286404999999999745e+03
9.600000000000000200e-02 1.969235000000000013e-01 3.550645000000000095e+01 1.625444999999999993e+02 2.286609999999999673e+03
9.700000000000000289e-02 1.969380000000000019e-01 3.490354999999999563e+01 1.625439999999999827e+02 2.286739999999999782e+03
9.800000000000000377e-02 1.969414999999999916e-01 3.419339999999999691e+01 1.622655000000000030e+02 2.286779999999999745e+03
9.900000000000000466e-02 1.969359999999999999e-01 3.339265000000000327e+01 1.617520000000000095e+02 2.286739999999999782e+03
1.000000000000000056e-01 1.969225000000000003e-01 3.251964999999999861e+01 1.610500000000000114e+02 2.286644999999999982e+03
1.010000000000000064e-01 1.969025000000000081e-01 3.159375000000000000e+01 1.602074999999999818e+02 2.286500000000000000e+03
1.020000000000000073e-01 1.968774999999999831e-01 3.063434999999999775e+01 1.592715000000000032e+02 2.286309999999999945e+03
1.030000000000000082e-01 1.968489999999999962e-01 2.966004999999999825e+01 1.582880000000000109e+02 2.286095000000000255e+03
1.040000000000000091e-01 1.968185000000000073e-01 2.868789999999999907e+01 1.572939999999999827e+02 2.285859999999999673e+03
1.050000000000000100e-01 1.967875000000000041e-01 2.773264999999999958e+01 1.563235000000000241e+02 2.285614999999999782e+03
1.059999999999999970e-01 1.967570000000000152e-01 2.680635000000000190e+01 1.554005000000000223e+02 2.285380000000000109e+03
1.069999999999999979e-01 1.967274999999999996e-01 2.591794999999999760e+01 1.545414999999999850e+02 2.285144999999999982e+03
1.079999999999999988e-01 1.966994999999999993e-01 2.507310000000000016e+01 1.537554999999999836e+02 2.284920000000000073e+03
1.089999999999999997e-01 1.966729999999999867e-01 2.427410000000000068e+01 1.530399999999999920e+02 2.284715000000000146e+03
1.100000000000000006e-01 1.966490000000000182e-01 2.351984999999999815e+01 1.523865000000000123e+02 2.284519999999999982e+03
1.110000000000000014e-01 1.966259999999999952e-01 2.280624999999999858e+01 1.517800000000000011e+02 2.284340000000000146e+03
1.120000000000000023e-01 1.966045000000000154e-01 2.212669999999999959e+01 1.511974999999999909e+02 2.284164999999999964e+03
1.130000000000000032e-01 1.965834999999999944e-01 2.147240000000000038e+01 1.506150000000000091e+02 2.284000000000000000e+03
1.140000000000000041e-01 1.965615000000000001e-01 2.083340000000000103e+01 1.500020000000000095e+02 2.283824999999999818e+03
1.150000000000000050e-01 1.965385000000000049e-01 2.019879999999999853e+01 1.493305000000000007e+02 2.283645000000000437e+03
1.160000000000000059e-01 1.965135000000000076e-01 1.955814999999999770e+01 1.485724999999999909e+02 2.283444999999999709e+03
1.170000000000000068e-01 1.964855000000000074e-01 1.890165000000000006e+01 1.477055000000000007e+02 2.283225000000000364e+03
1.180000000000000077e-01 1.964535000000000031e-01 1.822100000000000009e+01 1.467090000000000032e+02 2.282975000000000364e+03
1.190000000000000085e-01 1.964170000000000083e-01 1.751034999999999897e+01 1.455724999999999909e+02 2.282695000000000164e+03
1.200000000000000094e-01 1.963765000000000094e-01 1.676614999999999966e+01 1.442905000000000086e+02 2.282375000000000000e+03
1.209999999999999964e-01 1.963305000000000189e-01 1.598794999999999966e+01 1.428665000000000020e+02 2.282019999999999982e+03
1.219999999999999973e-01 1.962804999999999966e-01 1.517845000000000155e+01 1.413134999999999764e+02 2.281635000000000218e+03
1.229999999999999982e-01 1.962260000000000115e-01 1.434304999999999986e+01 1.396514999999999986e+02 2.281210000000000036e+03
1.239999999999999991e-01 1.961685000000000234e-01 1.349014999999999986e+01 1.379074999999999989e+02 2.280764999999999873e+03
1.250000000000000000e-01 1.961085000000000189e-01 1.263025000000000020e+01 1.361134999999999877e+02 2.280295000000000073e+03
1.260000000000000009e-01 1.960469999999999990e-01 1.177563500000000118e+01 1.343064999999999998e+02 2.279820000000000164e+03
1.270000000000000018e-01 1.959850000000000203e-01 1.093945499999999882e+01 1.325240000000000009e+02 2.279335000000000036e+03
1.280000000000000027e-01 1.959239999999999871e-01 1.013517500000000027e+01 1.308034999999999854e+02 2.278860000000000127e+03
1.290000000000000036e-01 1.958650000000000113e-01 9.375585000000000946e+00 1.291804999999999950e+02 2.278399999999999636e+03
1.300000000000000044e-01 1.958094999999999974e-01 8.672435000000000116e+00 1.276855000000000047e+02 2.277970000000000255e+03
1.310000000000000053e-01 1.957585000000000020e-01 8.035375000000000156e+00 1.263425000000000011e+02 2.277565000000000055e+03
1.320000000000000062e-01 1.957119999999999971e-01 7.471999999999999531e+00 1.251699999999999875e+02 2.277199999999999818e+03
1.330000000000000071e-01 1.956714999999999982e-01 6.987260000000000026e+00 1.241779999999999973e+02 2.276880000000000109e+03
1.340000000000000080e-01 1.956364999999999910e-01 6.583510000000000417e+00 1.233700000000000045e+02 2.276600000000000364e+03
1.350000000000000089e-01 1.956074999999999897e-01 6.260510000000000019e+00 1.227419999999999902e+02 2.276369999999999891e+03
1.360000000000000098e-01 1.955844999999999945e-01 6.015609999999999680e+00 1.222849999999999966e+02 2.276190000000000055e+03
1.370000000000000107e-01 1.955675000000000052e-01 5.844079999999999941e+00 1.219834999999999923e+02 2.276039999999999964e+03
1.380000000000000115e-01 1.955554999999999932e-01 5.739449999999999719e+00 1.218195000000000050e+02 2.275944999999999709e+03
1.390000000000000124e-01 1.955474999999999852e-01 5.693880000000000052e+00 1.217719999999999914e+02 2.275880000000000109e+03
1.400000000000000133e-01 1.955439999999999956e-01 5.698634999999999451e+00 1.218195000000000050e+02 2.275845000000000255e+03
1.410000000000000142e-01 1.955435000000000090e-01 5.744429999999999481e+00 1.219385000000000048e+02 2.275829999999999927e+03
1.420000000000000151e-01 1.955449999999999966e-01 5.821830000000000283e+00 1.221069999999999993e+02 2.275840000000000146e+03
1.430000000000000160e-01 1.955490000000000006e-01 5.921585000000000321e+00 1.223044999999999902e+02 2.275864999999999782e+03
1.440000000000000169e-01 1.955534999999999912e-01 6.034959999999999880e+00 1.225125000000000028e+02 2.275904999999999745e+03
1.450000000000000178e-01 1.955594999999999972e-01 6.153974999999999973e+00 1.227144999999999868e+02 2.275940000000000055e+03
1.459999999999999909e-01 1.955645000000000022e-01 6.271634999999999849e+00 1.228969999999999914e+02 2.275980000000000018e+03
1.469999999999999918e-01 1.955695000000000072e-01 6.382109999999999950e+00 1.230490000000000066e+02 2.276019999999999982e+03
1.479999999999999927e-01 1.955735000000000112e-01 6.480809999999999960e+00 1.231640000000000015e+02 2.276050000000000182e+03
1.489999999999999936e-01 1.955764999999999865e-01 6.564505000000000479e+00 1.232374999999999972e+02 2.276074999999999818e+03
1.499999999999999944e-01 1.955784999999999885e-01 6.631265000000000853e+00 1.232680000000000007e+02 2.276090000000000146e+03
1.509999999999999953e-01 1.955790000000000028e-01 6.680429999999999424e+00 1.232590000000000003e+02 2.276095000000000255e+03
1.519999999999999962e-01 1.955784999999999885e-01 6.712474999999999525e+00 1.232125000000000057e+02 2.276090000000000146e+03
1.529999999999999971e-01 1.955764999999999865e-01 6.728820000000000690e+00 1.231359999999999957e+02 2.276079999999999927e+03
1.539999999999999980e-01 1.955739999999999978e-01 6.731619999999999493e+00 1.230354999999999990e+02 2.276059999999999945e+03
1.549999999999999989e-01 1.955709999999999948e-01 6.723514999999999908e+00 1.229209999999999923e+02 2.276034999999999854e+03
1.559999999999999998e-01 1.955675000000000052e-01 6.707349999999999923e+00 1.227990000000000066e+02 2.276010000000000218e+03
1.570000000000000007e-01 1.955635000000000012e-01 6.685914999999999608e+00 1.226769999999999925e+02 2.275980000000000018e+03
1.580000000000000016e-01 1.955600000000000116e-01 6.661730000000000373e+00 1.225604999999999905e+02 2.275949999999999818e+03
1.590000000000000024e-01 1.955560000000000076e-01 6.636824999999999974e+00 1.224540000000000077e+02 2.275925000000000182e+03
