# t [s], A [cm^2], U [cm/s], P [cPa], c [cm/s]
1.000000000000000021e-03 7.879395000000000149e-01 4.540000000000002367e-03 9.311844999999999573e+01 1.604025000000000091e+03
2.000000000000000042e-03 7.879270000000000440e-01 -3.333519999999999973e-03 9.309345000000000425e+01 1.604019999999999982e+03
3.000000000000000062e-03 7.879795000000000549e-01 6.970930000000000182e-02 9.316930000000000689e+01 1.604034999999999854e+03
4.000000000000000083e-03 7.880435000000000079e-01 1.657755499999999937e-01 9.328934999999999889e+01 1.604065000000000055e+03
5.000000000000000104e-03 7.880335000000000534e-01 1.691024999999999889e-01 9.328130000000000166e+01 1.604070000000000164e+03
6.000000000000000125e-03 7.879639999999999977e-01 9.028100000000000014e-02 9.311924999999999386e+01 1.604034999999999854e+03
7.000000000000000146e-03 7.879024999999999501e-01 1.505449999999997068e-02 9.290210000000000434e+01 1.603985000000000127e+03
8.000000000000000167e-03 7.878270000000000550e-01 -8.826799999999995761e-02 9.261169999999999902e+01 1.603920000000000073e+03
9.000000000000001055e-03 7.876929999999999765e-01 -2.863850000000000007e-01 9.216130000000001132e+01 1.603824999999999818e+03
1.000000000000000194e-02 7.874920000000000808e-01 -5.944200000000000594e-01 9.150395000000000323e+01 1.603680000000000064e+03
1.099999999999999936e-02 7.872095000000000065e-01 -1.026260000000000172e+00 9.059090000000000487e+01 1.603474999999999909e+03
1.200000000000000025e-02 7.868275000000000130e-01 -1.597755000000000036e+00 8.936619999999999209e+01 1.603204999999999927e+03
1.300000000000000114e-02 7.863584999999999603e-01 -2.274469999999999992e+00 8.783365000000000578e+01 1.602860000000000127e+03
1.400000000000000203e-02 7.858570000000000277e-01 -2.954775000000000151e+00 8.609694999999999254e+01 1.602450000000000045e+03
1.499999999999999944e-02 7.853920000000000901e-01 -3.512350500000000153e+00 8.432210000000000605e+01 1.602025000000000091e+03
1.600000000000000033e-02 7.850095000000000267e-01 -3.853050500000000156e+00 8.266290000000000759e+01 1.601605000000000018e+03
1.700000000000000122e-02 7.847155000000000102e-01 -3.944662500000000183e+00 8.120564999999999145e+01 1.601215000000000146e+03
1.800000000000000211e-02 7.844845000000000290e-01 -3.813569499999999834e+00 7.995410000000001105e+01 1.600865000000000009e+03
1.900000000000000300e-02 7.842744999999999855e-01 -3.521869500000000208e+00 7.884739999999999327e+01 1.600534999999999854e+03
2.000000000000000042e-02 7.840454999999999508e-01 -3.139558000000000071e+00 7.779429999999999268e+01 1.600215000000000146e+03
2.100000000000000130e-02 7.837705000000000366e-01 -2.721113359999999926e+00 7.670904999999999063e+01 1.599894999999999982e+03
2.200000000000000219e-02 7.834440000000000293e-01 -2.292126000000000108e+00 7.553889999999999816e+01 1.599554999999999836e+03
2.299999999999999961e-02 7.830770000000000231e-01 -1.848605000000000054e+00 7.427539999999999054e+01 1.599190000000000055e+03
2.400000000000000050e-02 7.826914999999999845e-01 -1.367949999999999999e+00 7.294780000000000086e+01 1.598815000000000055e+03
2.500000000000000139e-02 7.823100000000000609e-01 -8.260849999999997362e-01 7.160259999999999536e+01 1.598430000000000064e+03
2.600000000000000228e-02 7.819435000000000136e-01 -2.135600000000001941e-01 7.027934999999999377e+01 1.598049999999999955e+03
2.700000000000000316e-02 7.815900000000000070e-01 4.550450000000001438e-01 6.899155000000000371e+01 1.597675000000000182e+03
2.800000000000000058e-02 7.812335000000000251e-01 1.140214999999999979e+00 6.771795000000000186e+01 1.597305000000000064e+03
2.900000000000000147e-02 7.808479999999999865e-01 1.784250000000000114e+00 6.640534999999999854e+01 1.596920000000000073e+03
3.000000000000000236e-02 7.804050000000000153e-01 2.323000000000000398e+00 6.498090000000000543e+01 1.596519999999999982e+03
3.099999999999999978e-02 7.798825000000000340e-01 2.699609999999999843e+00 6.337049999999999983e+01 1.596079999999999927e+03
3.200000000000000067e-02 7.792695000000000594e-01 2.876960000000000406e+00 6.151885000000000048e+01 1.595589999999999918e+03
3.300000000000000155e-02 7.785684999999999967e-01 2.845715000000000217e+00 5.940545000000000186e+01 1.595039999999999964e+03
3.400000000000000244e-02 7.777985000000000593e-01 2.625774999999999526e+00 5.705355000000000132e+01 1.594440000000000055e+03
3.500000000000000333e-02 7.769909999999999872e-01 2.261234999999999662e+00 5.452774999999999750e+01 1.593795000000000073e+03
3.600000000000000422e-02 7.761819999999999276e-01 1.810589999999999922e+00 5.192414999999999736e+01 1.593130000000000109e+03
3.700000000000000511e-02 7.754084999999999450e-01 1.335505000000000386e+00 4.935429999999999495e+01 1.592465000000000146e+03
3.799999999999999906e-02 7.747020000000000017e-01 8.915300000000003777e-01 4.692960000000000065e+01 1.591824999999999818e+03
3.899999999999999994e-02 7.740854999999999819e-01 5.222000000000002196e-01 4.474790000000000134e+01 1.591240000000000009e+03
4.000000000000000083e-02 7.735750000000000126e-01 2.569200000000000372e-01 4.288544999999999874e+01 1.590724999999999909e+03
4.100000000000000172e-02 7.731759999999999744e-01 1.121199999999999974e-01 4.139399999999999835e+01 1.590295000000000073e+03
4.200000000000000261e-02 7.728920000000000234e-01 9.449499999999999567e-02 4.030180000000000007e+01 1.589954999999999927e+03
4.300000000000000350e-02 7.727205000000000323e-01 2.051300000000000345e-01 3.961839999999999407e+01 1.589720000000000027e+03
4.400000000000000439e-02 7.726585000000000258e-01 4.433604999999999907e-01 3.934055000000000035e+01 1.589590000000000146e+03
4.499999999999999833e-02 7.727030000000000287e-01 8.095490000000000741e-01 3.945794999999999675e+01 1.589559999999999945e+03
4.599999999999999922e-02 7.728515000000000246e-01 1.306234499999999965e+00 3.995775000000000432e+01 1.589630000000000109e+03
4.700000000000000011e-02 7.731025000000000258e-01 1.937617500000000215e+00 4.082679999999999865e+01 1.589799999999999955e+03
4.800000000000000100e-02 7.734535000000000160e-01 2.707870000000000221e+00 4.205185000000000173e+01 1.590059999999999945e+03
4.900000000000000189e-02 7.739019999999999788e-01 3.618824000000000041e+00 4.361780000000000257e+01 1.590414999999999964e+03
5.000000000000000278e-02 7.744425000000000336e-01 4.667825500000000183e+00 4.550554999999999950e+01 1.590849999999999909e+03
5.100000000000000366e-02 7.750664999999999916e-01 5.846376999999999491e+00 4.768994999999999607e+01 1.591375000000000000e+03
5.200000000000000455e-02 7.757644999999999680e-01 7.139690000000000758e+00 5.013850000000000051e+01 1.591964999999999918e+03
5.300000000000000544e-02 7.765210000000000168e-01 8.527355000000000018e+00 5.281140000000000612e+01 1.592619999999999891e+03
5.399999999999999939e-02 7.773240000000000149e-01 9.984685000000000699e+00 5.566290000000000759e+01 1.593335000000000036e+03
5.500000000000000028e-02 7.781565000000000287e-01 1.148484999999999978e+01 5.864355000000000473e+01 1.594085000000000036e+03
5.600000000000000117e-02 7.790049999999999475e-01 1.300084999999999980e+01 6.170324999999999704e+01 1.594860000000000127e+03
5.700000000000000205e-02 7.798559999999999937e-01 1.450739000000000090e+01 6.479415000000000191e+01 1.595660000000000082e+03
5.800000000000000294e-02 7.806980000000000031e-01 1.598255499999999962e+01 6.787369999999999948e+01 1.596465000000000146e+03
5.900000000000000383e-02 7.815239999999999965e-01 1.740865000000000151e+01 7.090670000000000073e+01 1.597269999999999982e+03
6.000000000000000472e-02 7.823275000000000645e-01 1.877264999999999873e+01 7.386655000000000371e+01 1.598059999999999945e+03
6.099999999999999867e-02 7.831059999999999688e-01 2.006615000000000038e+01 7.673579999999999757e+01 1.598835000000000036e+03
6.199999999999999956e-02 7.838589999999999725e-01 2.128490000000000038e+01 7.950569999999999027e+01 1.599590000000000146e+03
6.300000000000000044e-02 7.845870000000000344e-01 2.242799999999999727e+01 8.217525000000000546e+01 1.600320000000000164e+03
6.400000000000000133e-02 7.852935000000000887e-01 2.349719999999999942e+01 8.474989999999999668e+01 1.601034999999999854e+03
6.500000000000000222e-02 7.859804999999999708e-01 2.449629999999999797e+01 8.723959999999999582e+01 1.601730000000000018e+03
6.600000000000000311e-02 7.866535000000000055e-01 2.542985000000000184e+01 8.965720000000000312e+01 1.602400000000000091e+03
6.700000000000000400e-02 7.873149999999999871e-01 2.630299999999999727e+01 9.201654999999999518e+01 1.603059999999999945e+03
6.800000000000000488e-02 7.879684999999999606e-01 2.712044999999999817e+01 9.433115000000000805e+01 1.603704999999999927e+03
6.900000000000000577e-02 7.886170000000000124e-01 2.788625000000000043e+01 9.661195000000000732e+01 1.604345000000000027e+03
7.000000000000000666e-02 7.892605000000000315e-01 2.860320000000000107e+01 9.886754999999999427e+01 1.604980000000000018e+03
7.100000000000000755e-02 7.899009999999999643e-01 2.927260000000000062e+01 1.011022499999999980e+02 1.605599999999999909e+03
7.200000000000000844e-02 7.905359999999999054e-01 2.989419999999999789e+01 1.033154499999999985e+02 1.606220000000000027e+03
7.300000000000000933e-02 7.911645000000000483e-01 3.046624999999999872e+01 1.055024999999999977e+02 1.606829999999999927e+03
7.399999999999999634e-02 7.917825000000000557e-01 3.098570000000000135e+01 1.076545000000000130e+02 1.607434999999999945e+03
7.499999999999999722e-02 7.923860000000000348e-01 3.144854999999999734e+01 1.097595000000000027e+02 1.608025000000000091e+03
7.599999999999999811e-02 7.929705000000000226e-01 3.185024999999999906e+01 1.118025000000000091e+02 1.608599999999999909e+03
7.699999999999999900e-02 7.935324999999999740e-01 3.218609999999999616e+01 1.137680000000000007e+02 1.609154999999999973e+03
7.799999999999999989e-02 7.940659999999999386e-01 3.245154999999999745e+01 1.156390000000000100e+02 1.609690000000000055e+03
7.900000000000000078e-02 7.945670000000000233e-01 3.264274999999999949e+01 1.174000000000000057e+02 1.610195000000000164e+03
8.000000000000000167e-02 7.950319999999999609e-01 3.275669999999999504e+01 1.190370000000000061e+02 1.610670000000000073e+03
8.100000000000000255e-02 7.954579999999999984e-01 3.279129999999999967e+01 1.205370000000000061e+02 1.611110000000000127e+03
8.200000000000000344e-02 7.958434999999999260e-01 3.274555000000000149e+01 1.218910000000000053e+02 1.611514999999999873e+03
8.300000000000000433e-02 7.961854999999999905e-01 3.261959999999999837e+01 1.230914999999999964e+02 1.611875000000000000e+03
8.400000000000000522e-02 7.964835000000000109e-01 3.241479999999999961e+01 1.241355000000000075e+02 1.612200000000000045e+03
8.500000000000000611e-02 7.967379999999999463e-01 3.213339999999999463e+01 1.250209999999999866e+02 1.612474999999999909e+03
8.600000000000000699e-02 7.969494999999999774e-01 3.177919999999999945e+01 1.257500000000000000e+02 1.612714999999999918e+03
8.700000000000000788e-02 7.971194999999999808e-01 3.135674999999999812e+01 1.263275000000000148e+02 1.612909999999999854e+03
8.800000000000000877e-02 7.972500000000000142e-01 3.087194999999999823e+01 1.267609999999999957e+02 1.613065000000000055e+03
8.899999999999999578e-02 7.973440000000000527e-01 3.033144999999999669e+01 1.270600000000000023e+02 1.613184999999999945e+03
8.999999999999999667e-02 7.974050000000000304e-01 2.974305000000000021e+01 1.272355000000000018e+02 1.613269999999999982e+03
9.099999999999999756e-02 7.974375000000000213e-01 2.911514999999999986e+01 1.273019999999999925e+02 1.613320000000000164e+03
9.199999999999999845e-02 7.974440000000000417e-01 2.845670000000000144e+01 1.272740000000000009e+02 1.613345000000000027e+03
9.299999999999999933e-02 7.974295000000000133e-01 2.777685000000000315e+01 1.271675000000000040e+02 1.613344999999999800e+03
9.400000000000000022e-02 7.973995000000000388e-01 2.708474999999999966e+01 1.269989999999999952e+02 1.613320000000000164e+03
9.500000000000000111e-02 7.973569999999999824e-01 2.638909999999999911e+01 1.267829999999999870e+02 1.613284999999999854e+03
9.600000000000000200e-02 7.973065000000000291e-01 2.569774999999999920e+01 1.265354999999999990e+02 1.613230000000000018e+03
9.700000000000000289e-02 7.972515000000000018e-01 2.501770000000000138e+01 1.262694999999999936e+02 1.613170000000000073e+03
9.800000000000000377e-02 7.971950000000000980e-01 2.435454999999999970e+01 1.259954999999999927e+02 1.613110000000000127e+03
9.900000000000000466e-02 7.971375000000000544e-01 2.371249999999999858e+01 1.257235000000000014e+02 1.613039999999999964e+03
1.000000000000000056e-01 7.970824999999999161e-01 2.309400000000000119e+01 1.254590000000000032e+02 1.612974999999999909e+03
1.010000000000000064e-01 7.970284999999999176e-01 2.250009999999999977e+01 1.252055000000000007e+02 1.612910000000000082e+03
1.020000000000000073e-01 7.969759999999999067e-01 2.193029999999999902e+01 1.249635000000000105e+02 1.612845000000000027e+03
1.030000000000000082e-01 7.969245000000000356e-01 2.138275000000000148e+01 1.247314999999999969e+02 1.612775000000000091e+03
1.040000000000000091e-01 7.968720000000000248e-01 2.085454999999999970e+01 1.245049999999999955e+02 1.612710000000000036e+03
1.050000000000000100e-01 7.968169999999999975e-01 2.034185000000000088e+01 1.242779999999999916e+02 1.612644999999999982e+03
1.059999999999999970e-01 7.967580000000000773e-01 1.984019999999999939e+01 1.240444999999999993e+02 1.612585000000000036e+03
1.069999999999999979e-01 7.966919999999999558e-01 1.934485000000000099e+01 1.237959999999999923e+02 1.612514999999999873e+03
1.079999999999999988e-01 7.966170000000000195e-01 1.885095000000000098e+01 1.235254999999999939e+02 1.612434999999999945e+03
1.089999999999999997e-01 7.965314999999999479e-01 1.835394999999999754e+01 1.232249999999999943e+02 1.612355000000000018e+03
1.100000000000000006e-01 7.964340000000000863e-01 1.784949999999999903e+01 1.228880000000000052e+02 1.612264999999999873e+03
1.110000000000000014e-01 7.963230000000000031e-01 1.733405000000000129e+01 1.225084999999999980e+02 1.612164999999999964e+03
1.120000000000000023e-01 7.961975000000000025e-01 1.680485000000000184e+01 1.220829999999999984e+02 1.612055000000000064e+03
1.130000000000000032e-01 7.960575000000000845e-01 1.626000000000000156e+01 1.216084999999999923e+02 1.611929999999999836e+03
1.140000000000000041e-01 7.959034999999999860e-01 1.569869999999999877e+01 1.210859999999999985e+02 1.611795000000000073e+03
1.150000000000000050e-01 7.957359999999999989e-01 1.512119999999999820e+01 1.205165000000000077e+02 1.611644999999999982e+03
1.160000000000000059e-01 7.955564999999999998e-01 1.452899999999999991e+01 1.199035000000000082e+02 1.611485000000000127e+03
1.170000000000000068e-01 7.953669999999999352e-01 1.392448500000000067e+01 1.192530000000000001e+02 1.611315000000000055e+03
1.180000000000000077e-01 7.951705000000000023e-01 1.331123499999999993e+01 1.185729999999999933e+02 1.611134999999999991e+03
1.190000000000000085e-01 7.949690000000000367e-01 1.269364500000000007e+01 1.178730000000000047e+02 1.610954999999999927e+03
1.200000000000000094e-01 7.947660000000000835e-01 1.207672999999999952e+01 1.171620000000000061e+02 1.610764999999999873e+03
1.209999999999999964e-01 7.945649999999999658e-01 1.146622999999999948e+01 1.164525000000000006e+02 1.610574999999999818e+03
1.219999999999999973e-01 7.943685000000000329e-01 1.086793999999999905e+01 1.157555000000000121e+02 1.610389999999999873e+03
1.229999999999999982e-01 7.941814999999999847e-01 1.028796999999999962e+01 1.150829999999999984e+02 1.610204999999999927e+03
1.239999999999999991e-01 7.940055000000000307e-01 9.732079999999999842e+00 1.144459999999999980e+02 1.610030000000000200e+03
1.250000000000000000e-01 7.938445000000000640e-01 9.205659999999999954e+00 1.138555000000000064e+02 1.609865000000000009e+03
1.260000000000000009e-01 7.936989999999999323e-01 8.713499999999999801e+00 1.133205000000000098e+02 1.609715000000000146e+03
1.270000000000000018e-01 7.935735000000000428e-01 8.259579999999999700e+00 1.128474999999999966e+02 1.609575000000000045e+03
1.280000000000000027e-01 7.934669999999999224e-01 7.846904999999999575e+00 1.124435000000000002e+02 1.609454999999999927e+03
1.290000000000000036e-01 7.933820000000000316e-01 7.477464999999999584e+00 1.121109999999999900e+02 1.609355000000000018e+03
1.300000000000000044e-01 7.933164999999999800e-01 7.152084999999999582e+00 1.118515000000000015e+02 1.609269999999999982e+03
1.310000000000000053e-01 7.932715000000000183e-01 6.870540000000000092e+00 1.116639999999999873e+02 1.609204999999999927e+03
1.320000000000000062e-01 7.932455000000000478e-01 6.631545000000000911e+00 1.115460000000000065e+02 1.609159999999999854e+03
1.330000000000000071e-01 7.932365000000000110e-01 6.432864999999999611e+00 1.114919999999999902e+02 1.609130000000000109e+03
1.340000000000000080e-01 7.932429999999999204e-01 6.271465000000000067e+00 1.114960000000000093e+02 1.609115000000000009e+03
1.350000000000000089e-01 7.932620000000000227e-01 6.143670000000000186e+00 1.115504999999999995e+02 1.609115000000000009e+03
1.360000000000000098e-01 7.932924999999999560e-01 6.045340000000000380e+00 1.116469999999999914e+02 1.609130000000000109e+03
1.370000000000000107e-01 7.933304999999999385e-01 5.972055000000000113e+00 1.117770000000000010e+02 1.609150000000000091e+03
1.380000000000000115e-01 7.933740000000000236e-01 5.919304999999999595e+00 1.119310000000000116e+02 1.609184999999999945e+03
1.390000000000000124e-01 7.934210000000000429e-01 5.882640000000000313e+00 1.120999999999999943e+02 1.609215000000000146e+03
1.400000000000000133e-01 7.934695000000000498e-01 5.857815000000000438e+00 1.122775000000000034e+02 1.609255000000000109e+03
1.410000000000000142e-01 7.935170000000000279e-01 5.840904999999999347e+00 1.124549999999999983e+02 1.609295000000000073e+03
1.420000000000000151e-01 7.935619999999999896e-01 5.828380000000000116e+00 1.126260000000000048e+02 1.609340000000000146e+03
1.430000000000000160e-01 7.936039999999999761e-01 5.817185000000000272e+00 1.127865000000000038e+02 1.609380000000000109e+03
1.440000000000000169e-01 7.936410000000000409e-01 5.804775000000000240e+00 1.129314999999999998e+02 1.609420000000000073e+03
1.450000000000000178e-01 7.936730000000000729e-01 5.789109999999999978e+00 1.130585000000000093e+02 1.609450000000000045e+03
1.459999999999999909e-01 7.937000000000000721e-01 5.768665000000000376e+00 1.131659999999999968e+02 1.609480000000000018e+03
1.469999999999999918e-01 7.937210000000000099e-01 5.742414999999999381e+00 1.132535000000000025e+02 1.609500000000000000e+03
1.479999999999999927e-01 7.937370000000000259e-01 5.709794999999999732e+00 1.133205000000000098e+02 1.609525000000000091e+03
1.489999999999999936e-01 7.937479999999998981e-01 5.670664999999999623e+00 1.133679999999999950e+02 1.609539999999999964e+03
1.499999999999999944e-01 7.937544999999999185e-01 5.625249999999999417e+00 1.133985000000000127e+02 1.609550000000000182e+03
1.509999999999999953e-01 7.937575000000000047e-01 5.574085000000000178e+00 1.134134999999999991e+02 1.609555000000000064e+03
1.519999999999999962e-01 7.937570000000000459e-01 5.517965000000000231e+00 1.134145000000000039e+02 1.609565000000000055e+03
1.529999999999999971e-01 7.937540000000000706e-01 5.457844999999999835e+00 1.134054999999999893e+02 1.609559999999999945e+03
1.539999999999999980e-01 7.937494999999999967e-01 5.394795000000000229e+00 1.133880000000000052e+02 1.609559999999999945e+03
1.549999999999999989e-01 7.937440000000000051e-01 5.329934999999999867e+00 1.133654999999999973e+02 1.609554999999999836e+03
1.559999999999999998e-01 7.937380000000000546e-01 5.264340000000000686e+00 1.133394999999999868e+02 1.609549999999999955e+03
1.570000000000000007e-01 7.937315000000000342e-01 5.198999999999999844e+00 1.133120000000000118e+02 1.609545000000000073e+03
1.580000000000000016e-01 7.937259999999999316e-01 5.134769999999999612e+00 1.132845000000000084e+02 1.609539999999999964e+03
1.590000000000000024e-01 7.937205000000000510e-01 5.072330000000000005e+00 1.132584999999999980e+02 1.609534999999999854e+03
