# t [s], A [cm^2], U [cm/s], P [cPa], c [cm/s]
1.000000000000000021e-03 5.495170000000000332e-01 -4.796500000000050723e-04 9.441410000000000480e+01 1.389514999999999873e+03
2.000000000000000042e-03 5.495155000000000456e-01 1.054758499999999995e-02 9.440285000000000082e+01 1.389509999999999991e+03
3.000000000000000062e-03 5.495799999999999574e-01 1.265299500000000021e-01 9.450459999999999638e+01 1.389545000000000073e+03
4.000000000000000083e-03 5.496185000000000098e-01 1.970182500000000059e-01 9.458715000000000828e+01 1.389574999999999818e+03
5.000000000000000104e-03 5.495904999999999818e-01 1.456540000000000057e-01 9.451220000000000709e+01 1.389559999999999945e+03
6.000000000000000125e-03 5.495345000000000368e-01 3.810399999999997123e-02 9.430214999999999748e+01 1.389514999999999873e+03
7.000000000000000146e-03 5.494685000000000263e-01 -9.462250000000005379e-02 9.398935000000000173e+01 1.389434999999999945e+03
8.000000000000000167e-03 5.493544999999999678e-01 -3.190900000000000958e-01 9.350329999999999586e+01 1.389309999999999945e+03
9.000000000000001055e-03 5.491675000000000306e-01 -6.779350000000000653e-01 9.276464999999998895e+01 1.389115000000000009e+03
1.000000000000000194e-02 5.489064999999999639e-01 -1.163394999999999957e+00 9.173930000000000007e+01 1.388835000000000036e+03
1.099999999999999936e-02 5.485619999999999941e-01 -1.773145000000000193e+00 9.039754999999999541e+01 1.388454999999999927e+03
1.200000000000000025e-02 5.481245000000000145e-01 -2.505565000000000264e+00 8.871139999999999759e+01 1.387965000000000146e+03
1.300000000000000114e-02 5.476060000000000372e-01 -3.312580000000000080e+00 8.670659999999999457e+01 1.387369999999999891e+03
1.400000000000000203e-02 5.470550000000000690e-01 -4.081640000000000157e+00 8.450059999999999150e+01 1.386694999999999936e+03
1.499999999999999944e-02 5.465324999999999767e-01 -4.670770000000000088e+00 8.228114999999999668e+01 1.385989999999999782e+03
1.600000000000000033e-02 5.460899999999999643e-01 -4.965066000000000201e+00 8.024154999999998950e+01 1.385305000000000064e+03
1.700000000000000122e-02 5.457490000000000396e-01 -4.915800500000000461e+00 7.851699999999999591e+01 1.384684999999999945e+03
1.800000000000000211e-02 5.454995000000000260e-01 -4.547918000000000127e+00 7.715059999999999718e+01 1.384139999999999873e+03
1.900000000000000300e-02 5.453069999999999862e-01 -3.942581999999999809e+00 7.609329999999999927e+01 1.383680000000000064e+03
2.000000000000000042e-02 5.451295000000000446e-01 -3.206513999999999864e+00 7.523124999999998863e+01 1.383275000000000091e+03
2.100000000000000130e-02 5.449280000000000790e-01 -2.439715000000000078e+00 7.442599999999998772e+01 1.382894999999999982e+03
2.200000000000000219e-02 5.446794999999999831e-01 -1.711234999999999840e+00 7.355599999999999739e+01 1.382509999999999991e+03
2.299999999999999961e-02 5.443749999999999423e-01 -1.049670000000000103e+00 7.254394999999999527e+01 1.382095000000000027e+03
2.400000000000000050e-02 5.440234999999999932e-01 -4.495449999999998614e-01 7.136475000000000080e+01 1.381639999999999873e+03
2.500000000000000139e-02 5.436385000000000245e-01 1.115150000000002528e-01 7.003415000000001100e+01 1.381150000000000091e+03
2.600000000000000228e-02 5.432325000000000070e-01 6.532900000000001484e-01 6.858599999999999852e+01 1.380619999999999891e+03
2.700000000000000316e-02 5.428115000000000023e-01 1.178375000000000394e+00 6.704935000000000400e+01 1.380059999999999945e+03
2.800000000000000058e-02 5.423719999999999652e-01 1.666104999999999947e+00 6.543229999999999791e+01 1.379470000000000027e+03
2.900000000000000147e-02 5.419015000000000359e-01 2.074894999999999712e+00 6.371565000000000367e+01 1.378849999999999909e+03
3.000000000000000236e-02 5.413829999999999476e-01 2.350890000000000146e+00 6.185654999999999859e+01 1.378180000000000064e+03
3.099999999999999978e-02 5.407994999999999886e-01 2.439955000000000318e+00 5.980004999999999882e+01 1.377454999999999927e+03
3.200000000000000067e-02 5.401374999999999371e-01 2.299954999999999750e+00 5.749455000000000382e+01 1.376660000000000082e+03
3.300000000000000155e-02 5.393919999999999826e-01 1.910860000000000447e+00 5.490775000000000006e+01 1.375784999999999854e+03
3.400000000000000244e-02 5.385699999999999932e-01 1.280459999999999710e+00 5.203974999999999795e+01 1.374829999999999927e+03
3.500000000000000333e-02 5.376874999999999849e-01 4.448999999999996291e-01 4.892990000000000350e+01 1.373799999999999955e+03
3.600000000000000422e-02 5.367724999999999858e-01 -5.354499999999999815e-01 4.565644999999999953e+01 1.372715000000000146e+03
3.700000000000000511e-02 5.358574999999999866e-01 -1.583724999999999383e+00 4.233024999999999949e+01 1.371605000000000018e+03
3.799999999999999906e-02 5.349785000000000235e-01 -2.615594999999999892e+00 3.908319999999999794e+01 1.370505000000000109e+03
3.899999999999999994e-02 5.341725000000000501e-01 -3.548404999999999809e+00 3.605519999999999925e+01 1.369449999999999818e+03
4.000000000000000083e-02 5.334710000000000285e-01 -4.308244999999999436e+00 3.338084999999999525e+01 1.368494999999999891e+03
4.100000000000000172e-02 5.329009999999999581e-01 -4.834880000000000067e+00 3.117830000000000013e+01 1.367664999999999964e+03
4.200000000000000261e-02 5.324820000000000109e-01 -5.084068450000000183e+00 2.954119999999999990e+01 1.367000000000000000e+03
4.300000000000000350e-02 5.322279999999999234e-01 -5.027955000000000396e+00 2.853450000000000131e+01 1.366519999999999982e+03
4.400000000000000439e-02 5.321430000000000327e-01 -4.653385000000000105e+00 2.819324999999999903e+01 1.366244999999999891e+03
4.499999999999999833e-02 5.322270000000000056e-01 -3.959840000000000249e+00 2.852439999999999998e+01 1.366180000000000064e+03
4.599999999999999922e-02 5.324744999999999617e-01 -2.956840500000000205e+00 2.951079999999999615e+01 1.366335000000000036e+03
4.700000000000000011e-02 5.328764999999999752e-01 -1.661760000000000126e+00 3.111550000000000082e+01 1.366700000000000045e+03
4.800000000000000100e-02 5.334185000000000176e-01 -9.823000000000003951e-02 3.328629999999999711e+01 1.367255000000000109e+03
4.900000000000000189e-02 5.340865000000000196e-01 1.704815000000000413e+00 3.595969999999999800e+01 1.368000000000000000e+03
5.000000000000000278e-02 5.348610000000000309e-01 3.713750000000000107e+00 3.906425000000000125e+01 1.368894999999999982e+03
5.100000000000000366e-02 5.357244999999999369e-01 5.890610000000000568e+00 4.252275000000000205e+01 1.369934999999999945e+03
5.200000000000000455e-02 5.366564999999999808e-01 8.193519999999999470e+00 4.625440000000000396e+01 1.371085000000000036e+03
5.300000000000000544e-02 5.376345000000000152e-01 1.057772999999999897e+01 5.017654999999999887e+01 1.372324999999999818e+03
5.399999999999999939e-02 5.386400000000000077e-01 1.299685999999999986e+01 5.420709999999999695e+01 1.373625000000000000e+03
5.500000000000000028e-02 5.396514999999999507e-01 1.540441999999999823e+01 5.826620000000000488e+01 1.374960000000000036e+03
5.600000000000000117e-02 5.406509999999999927e-01 1.775580000000000069e+01 6.227915000000000134e+01 1.376309999999999945e+03
5.700000000000000205e-02 5.416205000000000602e-01 2.001004999999999967e+01 6.617895000000000039e+01 1.377639999999999873e+03
5.800000000000000294e-02 5.425490000000000590e-01 2.213175000000000026e+01 6.990825000000000955e+01 1.378944999999999936e+03
5.900000000000000383e-02 5.434235000000000593e-01 2.409244999999999948e+01 7.342225000000000534e+01 1.380195000000000164e+03
6.000000000000000472e-02 5.442379999999999995e-01 2.587154999999999916e+01 7.668930000000000291e+01 1.381384999999999991e+03
6.099999999999999867e-02 5.449895000000000156e-01 2.745684999999999931e+01 7.969244999999999379e+01 1.382500000000000000e+03
6.199999999999999956e-02 5.456779999999999964e-01 2.884445000000000192e+01 8.242855000000000132e+01 1.383539999999999964e+03
6.300000000000000044e-02 5.463069999999999871e-01 3.003824999999999790e+01 8.490835000000001287e+01 1.384500000000000000e+03
6.400000000000000133e-02 5.468830000000000080e-01 3.104910000000000281e+01 8.715409999999999968e+01 1.385389999999999873e+03
6.500000000000000222e-02 5.474140000000000672e-01 3.189359999999999928e+01 8.919800000000000750e+01 1.386210000000000036e+03
6.600000000000000311e-02 5.479104999999999670e-01 3.259290000000000020e+01 9.107954999999999757e+01 1.386974999999999909e+03
6.700000000000000400e-02 5.483824999999999950e-01 3.317114999999999725e+01 9.284274999999999523e+01 1.387694999999999936e+03
6.800000000000000488e-02 5.488420000000000520e-01 3.365440000000000254e+01 9.453390000000000271e+01 1.388389999999999873e+03
6.900000000000000577e-02 5.492994999999999406e-01 3.406935000000000002e+01 9.619899999999999807e+01 1.389059999999999945e+03
7.000000000000000666e-02 5.497655000000000181e-01 3.444225000000000136e+01 9.788145000000000095e+01 1.389724999999999909e+03
7.100000000000000755e-02 5.502485000000000293e-01 3.479770000000000607e+01 9.962059999999999604e+01 1.390404999999999973e+03
7.200000000000000844e-02 5.507579999999999698e-01 3.515794999999999959e+01 1.014495000000000005e+02 1.391105000000000018e+03
7.300000000000000933e-02 5.512979999999999547e-01 3.554189999999999827e+01 1.033940000000000055e+02 1.391829999999999927e+03
7.399999999999999634e-02 5.518734999999999058e-01 3.596439999999999770e+01 1.054720000000000084e+02 1.392599999999999909e+03
7.499999999999999722e-02 5.524860000000000326e-01 3.643545000000000300e+01 1.076924999999999955e+02 1.393404999999999973e+03
7.599999999999999811e-02 5.531345000000000844e-01 3.695989999999999753e+01 1.100550000000000068e+02 1.394255000000000109e+03
7.699999999999999900e-02 5.538160000000000860e-01 3.753699999999999903e+01 1.125490000000000066e+02 1.395144999999999982e+03
7.799999999999999989e-02 5.545244999999999758e-01 3.816049999999999898e+01 1.151544999999999987e+02 1.396075000000000045e+03
7.900000000000000078e-02 5.552525000000000377e-01 3.881905000000000427e+01 1.178445000000000107e+02 1.397034999999999854e+03
8.000000000000000167e-02 5.559905000000000541e-01 3.949675000000000580e+01 1.205819999999999936e+02 1.398014999999999873e+03
8.100000000000000255e-02 5.567275000000000418e-01 4.017400000000000659e+01 1.233265000000000100e+02 1.399000000000000000e+03
8.200000000000000344e-02 5.574519999999999476e-01 4.082864999999999611e+01 1.260320000000000107e+02 1.399980000000000018e+03
8.300000000000000433e-02 5.581515000000000226e-01 4.143720000000000425e+01 1.286514999999999986e+02 1.400940000000000055e+03
8.400000000000000522e-02 5.588144999999999918e-01 4.197610000000000241e+01 1.311385000000000218e+02 1.401860000000000127e+03
8.500000000000000611e-02 5.594305000000000527e-01 4.242295000000000016e+01 1.334490000000000123e+02 1.402735000000000127e+03
8.600000000000000699e-02 5.599889999999999590e-01 4.275764999999999816e+01 1.355430000000000064e+02 1.403539999999999964e+03
8.700000000000000788e-02 5.604824999999999946e-01 4.296309999999999718e+01 1.373890000000000100e+02 1.404269999999999982e+03
8.800000000000000877e-02 5.609049999999999869e-01 4.302630000000000621e+01 1.389599999999999795e+02 1.404914999999999964e+03
8.899999999999999578e-02 5.612530000000000019e-01 4.293860000000000099e+01 1.402409999999999854e+02 1.405460000000000036e+03
8.999999999999999667e-02 5.615240000000000231e-01 4.269589999999999463e+01 1.412230000000000132e+02 1.405914999999999964e+03
9.099999999999999756e-02 5.617204999999999560e-01 4.229879999999999995e+01 1.419095000000000084e+02 1.406259999999999991e+03
9.199999999999999845e-02 5.618445000000000800e-01 4.175260000000000105e+01 1.423089999999999975e+02 1.406510000000000218e+03
9.299999999999999933e-02 5.618999999999999551e-01 4.106654999999999944e+01 1.424399999999999977e+02 1.406670000000000073e+03
9.400000000000000022e-02 5.618944999999999634e-01 4.025360000000000582e+01 1.423274999999999864e+02 1.406735000000000127e+03
9.500000000000000111e-02 5.618349999999999733e-01 3.933010000000000161e+01 1.420020000000000095e+02 1.406720000000000027e+03
9.600000000000000200e-02 5.617305000000000215e-01 3.831459999999999866e+01 1.414970000000000141e+02 1.406634999999999991e+03
9.700000000000000289e-02 5.615894999999999637e-01 3.722745000000000459e+01 1.408495000000000061e+02 1.406490000000000009e+03
9.800000000000000377e-02 5.614224999999999355e-01 3.609019999999999584e+01 1.400985000000000014e+02 1.406299999999999955e+03
9.900000000000000466e-02 5.612380000000000146e-01 3.492459999999999809e+01 1.392819999999999823e+02 1.406079999999999927e+03
1.000000000000000056e-01 5.610465000000000035e-01 3.375200000000000244e+01 1.384364999999999952e+02 1.405835000000000036e+03
1.010000000000000064e-01 5.608549999999999924e-01 3.259270000000000067e+01 1.375955000000000155e+02 1.405575000000000045e+03
1.020000000000000073e-01 5.606724999999999071e-01 3.146509999999999962e+01 1.367900000000000205e+02 1.405315000000000055e+03
1.030000000000000082e-01 5.605040000000000022e-01 3.038554999999999851e+01 1.360475000000000136e+02 1.405070000000000164e+03
1.040000000000000091e-01 5.603560000000000763e-01 2.936724999999999852e+01 1.353870000000000005e+02 1.404840000000000146e+03
1.050000000000000100e-01 5.602310000000000345e-01 2.842055000000000220e+01 1.348245000000000005e+02 1.404635000000000218e+03
1.059999999999999970e-01 5.601320000000000743e-01 2.755219999999999914e+01 1.343695000000000164e+02 1.404454999999999927e+03
1.069999999999999979e-01 5.600589999999999735e-01 2.676545000000000130e+01 1.340254999999999939e+02 1.404315000000000055e+03
1.079999999999999988e-01 5.600119999999999543e-01 2.606009999999999849e+01 1.337905000000000086e+02 1.404204999999999927e+03
1.089999999999999997e-01 5.599885000000000002e-01 2.543274999999999864e+01 1.336564999999999941e+02 1.404125000000000000e+03
1.100000000000000006e-01 5.599855000000000249e-01 2.487689999999999912e+01 1.336105000000000018e+02 1.404079999999999927e+03
1.110000000000000014e-01 5.599984999999999546e-01 2.438344999999999985e+01 1.336374999999999886e+02 1.404050000000000182e+03
1.120000000000000023e-01 5.600224999999999786e-01 2.394144999999999968e+01 1.337160000000000082e+02 1.404045000000000073e+03
1.130000000000000032e-01 5.600519999999999943e-01 2.353819999999999979e+01 1.338255000000000052e+02 1.404059999999999945e+03
1.140000000000000041e-01 5.600815000000000099e-01 2.316024999999999778e+01 1.339429999999999836e+02 1.404069999999999936e+03
1.150000000000000050e-01 5.601049999999999640e-01 2.279380000000000095e+01 1.340449999999999875e+02 1.404090000000000146e+03
1.160000000000000059e-01 5.601169999999999760e-01 2.242540000000000333e+01 1.341089999999999804e+02 1.404095000000000027e+03
1.170000000000000068e-01 5.601135000000000419e-01 2.204224999999999923e+01 1.341159999999999854e+02 1.404090000000000146e+03
1.180000000000000077e-01 5.600889999999999480e-01 2.163309999999999889e+01 1.340469999999999970e+02 1.404065000000000055e+03
1.190000000000000085e-01 5.600410000000000110e-01 2.118820000000000192e+01 1.338880000000000052e+02 1.404009999999999991e+03
1.200000000000000094e-01 5.599665000000000337e-01 2.069999999999999929e+01 1.336279999999999859e+02 1.403930000000000064e+03
1.209999999999999964e-01 5.598644999999999872e-01 2.016314999999999813e+01 1.332615000000000123e+02 1.403815000000000055e+03
1.219999999999999973e-01 5.597345000000000237e-01 1.957489999999999952e+01 1.327839999999999918e+02 1.403664999999999964e+03
1.229999999999999982e-01 5.595769999999999911e-01 1.893484999999999729e+01 1.321990000000000123e+02 1.403480000000000018e+03
1.239999999999999991e-01 5.593945000000000167e-01 1.824514999999999887e+01 1.315109999999999957e+02 1.403259999999999991e+03
1.250000000000000000e-01 5.591880000000000184e-01 1.751030000000000086e+01 1.307315000000000111e+02 1.403009999999999991e+03
1.260000000000000009e-01 5.589634999999999465e-01 1.673699999999999832e+01 1.298720000000000141e+02 1.402724999999999909e+03
1.270000000000000018e-01 5.587225000000000108e-01 1.593379999999999974e+01 1.289490000000000123e+02 1.402425000000000182e+03
1.280000000000000027e-01 5.584719999999999684e-01 1.511085499999999904e+01 1.279809999999999945e+02 1.402099999999999909e+03
1.290000000000000036e-01 5.582154999999999756e-01 1.427933999999999948e+01 1.269869999999999948e+02 1.401765000000000100e+03
1.300000000000000044e-01 5.579594999999999416e-01 1.345141999999999882e+01 1.259885000000000019e+02 1.401420000000000073e+03
1.310000000000000053e-01 5.577075000000000227e-01 1.263925500000000035e+01 1.250049999999999955e+02 1.401079999999999927e+03
1.320000000000000062e-01 5.574660000000000171e-01 1.185505000000000031e+01 1.240569999999999879e+02 1.400750000000000000e+03
1.330000000000000071e-01 5.572390000000000398e-01 1.111027999999999949e+01 1.231634999999999991e+02 1.400424999999999955e+03
1.340000000000000080e-01 5.570304999999999840e-01 1.041537500000000094e+01 1.223400000000000034e+02 1.400125000000000000e+03
1.350000000000000089e-01 5.568444999999999645e-01 9.779484999999999317e+00 1.216014999999999873e+02 1.399845000000000027e+03
1.360000000000000098e-01 5.566830000000000389e-01 9.209869999999998669e+00 1.209585000000000008e+02 1.399595000000000027e+03
1.370000000000000107e-01 5.565480000000000427e-01 8.711919999999999220e+00 1.204194999999999993e+02 1.399375000000000000e+03
1.380000000000000115e-01 5.564400000000000457e-01 8.288930000000000575e+00 1.199875000000000114e+02 1.399190000000000055e+03
1.390000000000000124e-01 5.563599999999999657e-01 7.942070000000000185e+00 1.196630000000000109e+02 1.399045000000000073e+03
1.400000000000000133e-01 5.563055000000000083e-01 7.670289999999999608e+00 1.194440000000000026e+02 1.398929999999999836e+03
1.410000000000000142e-01 5.562755000000000338e-01 7.470605000000000828e+00 1.193239999999999981e+02 1.398849999999999909e+03
1.420000000000000151e-01 5.562679999999999847e-01 7.338135000000000296e+00 1.192939999999999969e+02 1.398799999999999955e+03
1.430000000000000160e-01 5.562789999999999679e-01 7.266394999999999271e+00 1.193425000000000011e+02 1.398775000000000091e+03
1.440000000000000169e-01 5.563065000000000371e-01 7.247614999999999696e+00 1.194559999999999889e+02 1.398775000000000091e+03
1.450000000000000178e-01 5.563455000000000483e-01 7.273019999999999818e+00 1.196204999999999927e+02 1.398804999999999836e+03
1.459999999999999909e-01 5.563924999999999566e-01 7.333194999999999908e+00 1.198199999999999932e+02 1.398840000000000146e+03
1.469999999999999918e-01 5.564434999999999798e-01 7.418414999999999537e+00 1.200390000000000015e+02 1.398890000000000100e+03
1.479999999999999927e-01 5.564949999999999619e-01 7.518995000000000317e+00 1.202624999999999886e+02 1.398945000000000164e+03
1.489999999999999936e-01 5.565440000000000387e-01 7.625594999999999679e+00 1.204759999999999991e+02 1.399000000000000000e+03
1.499999999999999944e-01 5.565860000000000252e-01 7.729499999999999815e+00 1.206664999999999992e+02 1.399055000000000064e+03
1.509999999999999953e-01 5.566189999999999749e-01 7.822855000000000558e+00 1.208239999999999981e+02 1.399105000000000018e+03
1.519999999999999962e-01 5.566415000000000113e-01 7.898870000000000502e+00 1.209385000000000048e+02 1.399139999999999873e+03
1.529999999999999971e-01 5.566505000000000480e-01 7.951945000000000263e+00 1.210030000000000001e+02 1.399164999999999964e+03
1.539999999999999980e-01 5.566465000000000440e-01 7.977784999999999904e+00 1.210140000000000100e+02 1.399170000000000073e+03
1.549999999999999989e-01 5.566280000000000117e-01 7.973430000000000462e+00 1.209669999999999987e+02 1.399164999999999964e+03
1.559999999999999998e-01 5.565959999999999797e-01 7.937249999999999694e+00 1.208640000000000043e+02 1.399134999999999991e+03
1.570000000000000007e-01 5.565499999999999892e-01 7.868914999999999438e+00 1.207055000000000007e+02 1.399089999999999918e+03
1.580000000000000016e-01 5.564915000000000278e-01 7.769294999999999618e+00 1.204950000000000045e+02 1.399030000000000200e+03
1.590000000000000024e-01 5.564215000000000133e-01 7.640349999999999753e+00 1.202375000000000114e+02 1.398954999999999927e+03
