# t [s], A [cm^2], U [cm/s], P [cPa], c [cm/s]
1.000000000000000021e-03 1.519579999999999820e-01 2.349400000000000099e-01 1.033224999999999909e+02 1.992215000000000146e+03
2.000000000000000042e-03 1.519250000000000045e-01 1.745256999999999836e+00 1.002500500000000017e+02 1.991840000000000146e+03
3.000000000000000062e-03 1.518180000000000085e-01 3.653944999999999776e+00 9.597409999999999286e+01 1.990699999999999818e+03
4.000000000000000083e-03 1.516635000000000066e-01 5.806863175000000155e+00 9.109045000000000414e+01 1.989069999999999936e+03
5.000000000000000104e-03 1.514889999999999848e-01 8.139924999999999855e+00 8.644289999999999452e+01 1.987264999999999873e+03
6.000000000000000125e-03 1.513154999999999917e-01 1.052006000000000085e+01 8.247114999999999441e+01 1.985474999999999909e+03
7.000000000000000146e-03 1.511504999999999932e-01 1.274827499999999958e+01 7.911289999999999623e+01 1.983804999999999836e+03
8.000000000000000167e-03 1.509965000000000057e-01 1.468598000000000070e+01 7.611950000000000216e+01 1.982269999999999982e+03
9.000000000000001055e-03 1.508570000000000189e-01 1.632605000000000217e+01 7.343524999999999636e+01 1.980909999999999854e+03
1.000000000000000194e-02 1.507350000000000079e-01 1.770775000000000077e+01 7.114185000000000514e+01 1.979730000000000018e+03
1.099999999999999936e-02 1.506325000000000025e-01 1.885490000000000066e+01 6.926990000000000691e+01 1.978744999999999891e+03
1.200000000000000025e-02 1.505485000000000018e-01 1.978535000000000110e+01 6.779095000000000937e+01 1.977945000000000164e+03
1.300000000000000114e-02 1.504804999999999893e-01 2.051265000000000072e+01 6.664910000000000423e+01 1.977315000000000055e+03
1.400000000000000203e-02 1.504265000000000185e-01 2.103909999999999769e+01 6.574639999999999418e+01 1.976819999999999936e+03
1.499999999999999944e-02 1.503829999999999889e-01 2.137769999999999726e+01 6.498094999999999288e+01 1.976430000000000064e+03
1.600000000000000033e-02 1.503474999999999950e-01 2.158970000000000056e+01 6.435614999999999952e+01 1.976119999999999891e+03
1.700000000000000122e-02 1.503240000000000132e-01 2.179039999999999822e+01 6.404715000000000202e+01 1.975914999999999964e+03
1.800000000000000211e-02 1.503180000000000072e-01 2.210705000000000098e+01 6.433185000000000286e+01 1.975875000000000000e+03
1.900000000000000300e-02 1.503364999999999840e-01 2.261764999999999759e+01 6.542615000000000691e+01 1.976059999999999945e+03
2.000000000000000042e-02 1.503805000000000003e-01 2.331165000000000020e+01 6.733480000000000132e+01 1.976490000000000009e+03
2.100000000000000130e-02 1.504459999999999964e-01 2.409290000000000020e+01 6.980644999999999811e+01 1.977115000000000009e+03
2.200000000000000219e-02 1.505225000000000035e-01 2.481804999999999950e+01 7.240680000000000405e+01 1.977865000000000009e+03
2.299999999999999961e-02 1.505984999999999963e-01 2.534880000000000067e+01 7.466310000000000002e+01 1.978610000000000127e+03
2.400000000000000050e-02 1.506615000000000038e-01 2.559635000000000105e+01 7.621320000000000050e+01 1.979250000000000000e+03
2.500000000000000139e-02 1.507049999999999779e-01 2.554360000000000142e+01 7.690314999999999657e+01 1.979700000000000045e+03
2.600000000000000228e-02 1.507264999999999855e-01 2.524060000000000059e+01 7.680649999999999977e+01 1.979940000000000055e+03
2.700000000000000316e-02 1.507290000000000019e-01 2.477884999999999849e+01 7.616804999999999382e+01 1.979990000000000009e+03
2.800000000000000058e-02 1.507195000000000062e-01 2.425629999999999953e+01 7.530164999999999509e+01 1.979914999999999964e+03
2.900000000000000147e-02 1.507045000000000190e-01 2.374649999999999750e+01 7.448230000000000928e+01 1.979775000000000091e+03
3.000000000000000236e-02 1.506899999999999906e-01 2.328045000000000186e+01 7.386879999999999313e+01 1.979634999999999991e+03
3.099999999999999978e-02 1.506780000000000064e-01 2.284580000000000055e+01 7.347640000000001237e+01 1.979525000000000091e+03
3.200000000000000067e-02 1.506684999999999830e-01 2.239975000000000094e+01 7.320005000000000450e+01 1.979430000000000064e+03
3.300000000000000155e-02 1.506580000000000141e-01 2.189010000000000034e+01 7.287154999999999916e+01 1.979324999999999818e+03
3.400000000000000244e-02 1.506429999999999991e-01 2.127810000000000201e+01 7.233144999999998959e+01 1.979184999999999945e+03
3.500000000000000333e-02 1.506204999999999905e-01 2.055545000000000044e+01 7.149240000000000350e+01 1.978974999999999909e+03
3.600000000000000422e-02 1.505900000000000016e-01 1.975200000000000244e+01 7.037749999999999773e+01 1.978684999999999945e+03
3.700000000000000511e-02 1.505535000000000068e-01 1.893195000000000050e+01 6.912359999999999616e+01 1.978339999999999918e+03
3.799999999999999906e-02 1.505154999999999965e-01 1.817945000000000277e+01 6.794935000000000969e+01 1.977974999999999909e+03
3.899999999999999994e-02 1.504830000000000056e-01 1.757840000000000202e+01 6.709874999999999545e+01 1.977654999999999973e+03
4.000000000000000083e-02 1.504630000000000134e-01 1.719209999999999994e+01 6.677740000000000009e+01 1.977445000000000164e+03
4.100000000000000172e-02 1.504590000000000094e-01 1.704885000000000161e+01 6.709975000000000023e+01 1.977390000000000100e+03
4.200000000000000261e-02 1.504729999999999956e-01 1.713600000000000279e+01 6.806114999999999782e+01 1.977509999999999991e+03
4.300000000000000350e-02 1.505049999999999999e-01 1.740375000000000227e+01 6.953940000000000055e+01 1.977799999999999955e+03
4.400000000000000439e-02 1.505500000000000171e-01 1.777570000000000050e+01 7.132110000000000127e+01 1.978224999999999909e+03
4.499999999999999833e-02 1.506020000000000136e-01 1.816315000000000168e+01 7.314485000000000525e+01 1.978720000000000027e+03
4.599999999999999922e-02 1.506540000000000101e-01 1.847995000000000232e+01 7.474795000000000300e+01 1.979224999999999909e+03
4.700000000000000011e-02 1.506989999999999996e-01 1.865425000000000111e+01 7.590850000000000364e+01 1.979659999999999854e+03
4.800000000000000100e-02 1.507299999999999751e-01 1.863649999999999807e+01 7.647344999999999970e+01 1.979980000000000018e+03
4.900000000000000189e-02 1.507439999999999891e-01 1.840189999999999770e+01 7.637120000000000175e+01 1.980119999999999891e+03
5.000000000000000278e-02 1.507384999999999975e-01 1.794865000000000066e+01 7.560835000000000150e+01 1.980085000000000036e+03
5.100000000000000366e-02 1.507140000000000146e-01 1.729359999999999786e+01 7.425415000000000987e+01 1.979860000000000127e+03
5.200000000000000455e-02 1.506709999999999994e-01 1.646539999999999893e+01 7.241839999999999122e+01 1.979454999999999927e+03
5.300000000000000544e-02 1.506139999999999979e-01 1.549874999999999936e+01 7.022820000000000107e+01 1.978909999999999854e+03
5.399999999999999939e-02 1.505454999999999988e-01 1.442944999999999922e+01 6.780930000000000746e+01 1.978244999999999891e+03
5.500000000000000028e-02 1.504679999999999906e-01 1.329171999999999798e+01 6.527334999999999354e+01 1.977505000000000109e+03
5.600000000000000117e-02 1.503865000000000063e-01 1.211729000000000056e+01 6.271345000000000169e+01 1.976710000000000036e+03
5.700000000000000205e-02 1.503025000000000055e-01 1.093599000000000032e+01 6.020555000000000234e+01 1.975900000000000091e+03
5.800000000000000294e-02 1.502189999999999914e-01 9.777264999999999873e+00 5.781400000000000006e+01 1.975085000000000036e+03
5.900000000000000383e-02 1.501389999999999947e-01 8.671630000000000393e+00 5.559850000000000136e+01 1.974300000000000182e+03
6.000000000000000472e-02 1.500635000000000163e-01 7.651310000000000500e+00 5.362000000000000455e+01 1.973565000000000055e+03
6.099999999999999867e-02 1.499960000000000182e-01 6.750694999999999446e+00 5.194389999999999930e+01 1.972904999999999973e+03
6.199999999999999956e-02 1.499380000000000157e-01 6.005160000000000053e+00 5.064039999999999964e+01 1.972335000000000036e+03
6.300000000000000044e-02 1.498929999999999985e-01 5.449430000000000440e+00 4.978149999999999409e+01 1.971880000000000109e+03
6.400000000000000133e-02 1.498625000000000096e-01 5.115349999999999397e+00 4.943569999999999709e+01 1.971569999999999936e+03
6.500000000000000222e-02 1.498490000000000100e-01 5.029545000000000599e+00 4.966185000000000116e+01 1.971420000000000073e+03
6.600000000000000311e-02 1.498550000000000160e-01 5.211285000000000167e+00 5.050280000000000058e+01 1.971460000000000036e+03
6.700000000000000400e-02 1.498809999999999865e-01 5.670999999999999375e+00 5.198084999999999667e+01 1.971694999999999936e+03
6.800000000000000488e-02 1.499285000000000201e-01 6.409435000000000215e+00 5.409505000000000052e+01 1.972130000000000109e+03
6.900000000000000577e-02 1.499969999999999914e-01 7.417659999999999698e+00 5.682019999999999982e+01 1.972775000000000091e+03
7.000000000000000666e-02 1.500865000000000116e-01 8.677749999999999631e+00 6.010920000000000130e+01 1.973619999999999891e+03
7.100000000000000755e-02 1.501945000000000086e-01 1.016397500000000065e+01 6.389600000000000080e+01 1.974650000000000091e+03
7.200000000000000844e-02 1.503190000000000082e-01 1.184464000000000006e+01 6.810065000000000168e+01 1.975845000000000027e+03
7.300000000000000933e-02 1.504579999999999806e-01 1.368360500000000002e+01 7.263425000000000864e+01 1.977190000000000055e+03
7.399999999999999634e-02 1.506089999999999929e-01 1.564245000000000019e+01 7.740455000000000041e+01 1.978650000000000091e+03
7.499999999999999722e-02 1.507684999999999997e-01 1.768250000000000099e+01 8.232099999999999795e+01 1.980204999999999927e+03
7.599999999999999811e-02 1.509344999999999992e-01 1.976634999999999920e+01 8.729949999999999477e+01 1.981820000000000164e+03
7.699999999999999900e-02 1.511035000000000017e-01 2.185965000000000202e+01 9.226624999999999943e+01 1.983480000000000018e+03
7.799999999999999989e-02 1.512735000000000052e-01 2.393250000000000099e+01 9.716120000000000800e+01 1.985150000000000091e+03
7.900000000000000078e-02 1.514424999999999799e-01 2.596025000000000205e+01 1.019395000000000095e+02 1.986820000000000164e+03
8.000000000000000167e-02 1.516085000000000071e-01 2.792454999999999998e+01 1.065728000000000009e+02 1.988465000000000146e+03
8.100000000000000255e-02 1.517709999999999892e-01 2.981254999999999811e+01 1.110480000000000018e+02 1.990079999999999927e+03
8.200000000000000344e-02 1.519294999999999951e-01 3.161765000000000114e+01 1.153675000000000068e+02 1.991660000000000082e+03
8.300000000000000433e-02 1.520834999999999826e-01 3.333790000000000475e+01 1.195434999999999945e+02 1.993194999999999936e+03
8.400000000000000522e-02 1.522340000000000082e-01 3.497540000000000049e+01 1.235969999999999942e+02 1.994695000000000164e+03
8.500000000000000611e-02 1.523805000000000021e-01 3.653504999999999825e+01 1.275549999999999926e+02 1.996170000000000073e+03
8.600000000000000699e-02 1.525245000000000073e-01 3.802299999999999613e+01 1.314414999999999907e+02 1.997615000000000009e+03
8.700000000000000788e-02 1.526664999999999828e-01 3.944585000000000008e+01 1.352800000000000011e+02 1.999039999999999964e+03
8.800000000000000877e-02 1.528065000000000118e-01 4.080939999999999657e+01 1.390879999999999939e+02 2.000445000000000164e+03
8.899999999999999578e-02 1.529449999999999976e-01 4.211790000000000589e+01 1.428759999999999764e+02 2.001849999999999909e+03
8.999999999999999667e-02 1.530829999999999969e-01 4.337364999999999782e+01 1.466449999999999818e+02 2.003235000000000127e+03
9.099999999999999756e-02 1.532199999999999951e-01 4.457644999999999413e+01 1.503894999999999982e+02 2.004619999999999891e+03
9.199999999999999845e-02 1.533554999999999779e-01 4.572390000000000043e+01 1.540955000000000155e+02 2.005990000000000009e+03
9.299999999999999933e-02 1.534895000000000009e-01 4.681135000000000446e+01 1.577409999999999854e+02 2.007349999999999909e+03
9.400000000000000022e-02 1.536210000000000075e-01 4.783239999999999981e+01 1.613015000000000043e+02 2.008684999999999945e+03
9.500000000000000111e-02 1.537499999999999978e-01 4.877904999999999802e+01 1.647470000000000141e+02 2.009990000000000009e+03
9.600000000000000200e-02 1.538744999999999974e-01 4.964254999999999995e+01 1.680469999999999970e+02 2.011255000000000109e+03
9.700000000000000289e-02 1.539935000000000054e-01 5.041339999999999577e+01 1.711700000000000159e+02 2.012470000000000027e+03
9.800000000000000377e-02 1.541069999999999940e-01 5.108230000000000359e+01 1.740865000000000009e+02 2.013625000000000000e+03
9.900000000000000466e-02 1.542129999999999890e-01 5.164034999999999798e+01 1.767680000000000007e+02 2.014710000000000036e+03
1.000000000000000056e-01 1.543110000000000037e-01 5.207965000000000089e+01 1.791920000000000073e+02 2.015714999999999918e+03
1.010000000000000064e-01 1.544004999999999961e-01 5.239360000000000639e+01 1.813365000000000009e+02 2.016634999999999991e+03
1.020000000000000073e-01 1.544804999999999928e-01 5.257729999999999393e+01 1.831884999999999764e+02 2.017454999999999927e+03
1.030000000000000082e-01 1.545499999999999929e-01 5.262784999999999513e+01 1.847379999999999995e+02 2.018179999999999836e+03
1.040000000000000091e-01 1.546095000000000108e-01 5.254495000000000005e+01 1.859805000000000064e+02 2.018799999999999955e+03
1.050000000000000100e-01 1.546589999999999909e-01 5.233055000000000234e+01 1.869214999999999804e+02 2.019309999999999945e+03
1.059999999999999970e-01 1.546974999999999878e-01 5.198930000000000007e+01 1.875689999999999884e+02 2.019720000000000027e+03
1.069999999999999979e-01 1.547264999999999890e-01 5.152839999999999776e+01 1.879385000000000048e+02 2.020030000000000200e+03
1.079999999999999988e-01 1.547455000000000080e-01 5.095749999999999602e+01 1.880520000000000209e+02 2.020235000000000127e+03
1.089999999999999997e-01 1.547560000000000047e-01 5.028835000000000122e+01 1.879359999999999786e+02 2.020355000000000018e+03
1.100000000000000006e-01 1.547584999999999933e-01 4.953435000000000343e+01 1.876200000000000045e+02 2.020389999999999873e+03
1.110000000000000014e-01 1.547530000000000017e-01 4.871009999999999707e+01 1.871365000000000123e+02 2.020349999999999909e+03
1.120000000000000023e-01 1.547419999999999907e-01 4.783079999999999643e+01 1.865194999999999936e+02 2.020250000000000000e+03
1.130000000000000032e-01 1.547260000000000024e-01 4.691174999999999784e+01 1.858014999999999759e+02 2.020095000000000027e+03
1.140000000000000041e-01 1.547064999999999968e-01 4.596779999999999688e+01 1.850149999999999864e+02 2.019900000000000091e+03
1.150000000000000050e-01 1.546835000000000016e-01 4.501274999999999693e+01 1.841879999999999882e+02 2.019674999999999955e+03
1.160000000000000059e-01 1.546589999999999909e-01 4.405899999999999750e+01 1.833460000000000036e+02 2.019424999999999955e+03
1.170000000000000068e-01 1.546329999999999927e-01 4.311714999999999520e+01 1.825099999999999909e+02 2.019159999999999854e+03
1.180000000000000077e-01 1.546064999999999801e-01 4.219585000000000008e+01 1.816954999999999814e+02 2.018894999999999982e+03
1.190000000000000085e-01 1.545805000000000096e-01 4.130140000000000100e+01 1.809125000000000227e+02 2.018630000000000109e+03
1.200000000000000094e-01 1.545549999999999979e-01 4.043800000000000239e+01 1.801659999999999968e+02 2.018365000000000009e+03
1.209999999999999964e-01 1.545300000000000007e-01 3.960750000000000171e+01 1.794580000000000268e+02 2.018105000000000018e+03
1.219999999999999973e-01 1.545060000000000044e-01 3.880960000000000321e+01 1.787835000000000036e+02 2.017860000000000127e+03
1.229999999999999982e-01 1.544824999999999948e-01 3.804214999999999947e+01 1.781345000000000027e+02 2.017619999999999891e+03
1.239999999999999991e-01 1.544590000000000130e-01 3.730119999999999436e+01 1.774990000000000236e+02 2.017380000000000109e+03
1.250000000000000000e-01 1.544360000000000177e-01 3.658140000000000214e+01 1.768634999999999877e+02 2.017144999999999982e+03
1.260000000000000009e-01 1.544135000000000091e-01 3.587645000000000550e+01 1.762110000000000127e+02 2.016904999999999973e+03
1.270000000000000018e-01 1.543899999999999995e-01 3.517934999999999945e+01 1.755260000000000105e+02 2.016664999999999964e+03
1.280000000000000027e-01 1.543645000000000156e-01 3.448275000000000290e+01 1.747920000000000016e+02 2.016405000000000200e+03
1.290000000000000036e-01 1.543380000000000030e-01 3.377944999999999709e+01 1.739925000000000068e+02 2.016130000000000109e+03
1.300000000000000044e-01 1.543085000000000151e-01 3.306289999999999907e+01 1.731140000000000043e+02 2.015835000000000036e+03
1.310000000000000053e-01 1.542775000000000118e-01 3.232739999999999725e+01 1.721444999999999936e+02 2.015519999999999982e+03
1.320000000000000062e-01 1.542425000000000046e-01 3.156830000000000069e+01 1.710769999999999982e+02 2.015170000000000073e+03
1.330000000000000071e-01 1.542049999999999810e-01 3.078240000000000265e+01 1.699060000000000059e+02 2.014784999999999854e+03
1.340000000000000080e-01 1.541639999999999955e-01 2.996840000000000259e+01 1.686320000000000050e+02 2.014369999999999891e+03
1.350000000000000089e-01 1.541190000000000060e-01 2.912630000000000052e+01 1.672574999999999932e+02 2.013920000000000073e+03
1.360000000000000098e-01 1.540715000000000001e-01 2.825820000000000221e+01 1.657920000000000016e+02 2.013440000000000055e+03
1.370000000000000107e-01 1.540199999999999902e-01 2.736785000000000068e+01 1.642454999999999927e+02 2.012924999999999955e+03
1.380000000000000115e-01 1.539665000000000061e-01 2.646069999999999922e+01 1.626345000000000027e+02 2.012384999999999991e+03
1.390000000000000124e-01 1.539105000000000056e-01 2.554339999999999833e+01 1.609775000000000205e+02 2.011820000000000164e+03
1.400000000000000133e-01 1.538535000000000041e-01 2.462389999999999901e+01 1.592955000000000041e+02 2.011244999999999891e+03
1.410000000000000142e-01 1.537955000000000017e-01 2.371105000000000018e+01 1.576094999999999970e+02 2.010654999999999973e+03
1.420000000000000151e-01 1.537364999999999982e-01 2.281409999999999982e+01 1.559440000000000168e+02 2.010065000000000055e+03
1.430000000000000160e-01 1.536790000000000100e-01 2.194245000000000090e+01 1.543215000000000146e+02 2.009480000000000018e+03
1.440000000000000169e-01 1.536224999999999952e-01 2.110515000000000185e+01 1.527634999999999934e+02 2.008904999999999973e+03
1.450000000000000178e-01 1.535674999999999957e-01 2.031065000000000254e+01 1.512894999999999754e+02 2.008355000000000018e+03
1.459999999999999909e-01 1.535159999999999858e-01 1.956640000000000157e+01 1.499169999999999732e+02 2.007829999999999927e+03
1.469999999999999918e-01 1.534670000000000201e-01 1.887859999999999872e+01 1.486585000000000036e+02 2.007335000000000036e+03
1.479999999999999927e-01 1.534220000000000028e-01 1.825195000000000078e+01 1.475249999999999773e+02 2.006875000000000000e+03
1.489999999999999936e-01 1.533809999999999896e-01 1.768969999999999843e+01 1.465219999999999914e+02 2.006454999999999927e+03
1.499999999999999944e-01 1.533440000000000081e-01 1.719335000000000235e+01 1.456514999999999986e+02 2.006079999999999927e+03
1.509999999999999953e-01 1.533114999999999895e-01 1.676279999999999859e+01 1.449119999999999777e+02 2.005750000000000000e+03
1.519999999999999962e-01 1.532830000000000026e-01 1.639659999999999940e+01 1.442984999999999900e+02 2.005454999999999927e+03
1.529999999999999971e-01 1.532589999999999786e-01 1.609159999999999968e+01 1.438029999999999973e+02 2.005210000000000036e+03
1.539999999999999980e-01 1.532395000000000007e-01 1.584384999999999977e+01 1.434144999999999754e+02 2.005000000000000000e+03
1.549999999999999989e-01 1.532229999999999981e-01 1.564829999999999899e+01 1.431220000000000141e+02 2.004824999999999818e+03
1.559999999999999998e-01 1.532100000000000128e-01 1.549924999999999997e+01 1.429120000000000061e+02 2.004695000000000164e+03
1.570000000000000007e-01 1.532000000000000028e-01 1.539055000000000106e+01 1.427704999999999984e+02 2.004585000000000036e+03
1.580000000000000016e-01 1.531925000000000092e-01 1.531585000000000107e+01 1.426845000000000141e+02 2.004500000000000000e+03
1.590000000000000024e-01 1.531869999999999898e-01 1.526870000000000083e+01 1.426404999999999745e+02 2.004440000000000055e+03
