# t [s], A [cm^2], U [cm/s], P [cPa], c [cm/s]
1.000000000000000021e-03 5.720580000000000664e-01 5.802049999999996099e-03 1.077874999999999943e+02 1.582349999999999909e+03
2.000000000000000042e-03 5.720480000000000009e-01 -3.351723500000000199e-03 1.077609999999999957e+02 1.582340000000000146e+03
3.000000000000000062e-03 5.720864999999999423e-01 6.748315000000000563e-02 1.078359999999999985e+02 1.582365000000000009e+03
4.000000000000000083e-03 5.721359999999999779e-01 1.651915999999999940e-01 1.079590000000000032e+02 1.582400000000000091e+03
5.000000000000000104e-03 5.721289999999999987e-01 1.696194999999999786e-01 1.079514999999999958e+02 1.582404999999999973e+03
6.000000000000000125e-03 5.720750000000000002e-01 8.456600000000003003e-02 1.077789999999999964e+02 1.582360000000000127e+03
7.000000000000000146e-03 5.720254999999999646e-01 4.139500000000018165e-03 1.075480000000000018e+02 1.582300000000000182e+03
8.000000000000000167e-03 5.719659999999999744e-01 -1.037264999999999993e-01 1.072429999999999950e+02 1.582224999999999909e+03
9.000000000000001055e-03 5.718630000000000102e-01 -3.099849999999999550e-01 1.067729999999999961e+02 1.582105000000000018e+03
1.000000000000000194e-02 5.717109999999999692e-01 -6.235450000000000159e-01 1.060949999999999989e+02 1.581934999999999945e+03
1.099999999999999936e-02 5.715010000000000367e-01 -1.053304999999999936e+00 1.051659999999999968e+02 1.581700000000000045e+03
1.200000000000000025e-02 5.712154999999999871e-01 -1.620185000000000208e+00 1.039219499999999954e+02 1.581380000000000109e+03
1.300000000000000114e-02 5.708595000000000752e-01 -2.297220000000000262e+00 1.023502000000000010e+02 1.580970000000000027e+03
1.400000000000000203e-02 5.704719999999999791e-01 -2.980434999999999945e+00 1.005486500000000092e+02 1.580480000000000018e+03
1.499999999999999944e-02 5.701104999999999645e-01 -3.530090000000000394e+00 9.869230000000000302e+01 1.579960000000000036e+03
1.600000000000000033e-02 5.698130000000000139e-01 -3.836487999999999676e+00 9.695064999999999600e+01 1.579454999999999927e+03
1.700000000000000122e-02 5.695879999999999832e-01 -3.858837999999999990e+00 9.542215000000000202e+01 1.578974999999999909e+03
1.800000000000000211e-02 5.694139999999999757e-01 -3.625452499999999745e+00 9.411225000000000307e+01 1.578545000000000073e+03
1.900000000000000300e-02 5.692544999999999966e-01 -3.209201000000000192e+00 9.294974999999999454e+01 1.578139999999999873e+03
2.000000000000000042e-02 5.690735000000000099e-01 -2.694868500000000111e+00 9.182559999999999434e+01 1.577744999999999891e+03
2.100000000000000130e-02 5.688465000000000327e-01 -2.150193500000000313e+00 9.063599999999999568e+01 1.577335000000000036e+03
2.200000000000000219e-02 5.685675000000000034e-01 -1.608030000000000070e+00 8.931640000000000157e+01 1.576890000000000100e+03
2.299999999999999961e-02 5.682464999999999877e-01 -1.063749999999999973e+00 8.785769999999999413e+01 1.576409999999999854e+03
2.400000000000000050e-02 5.679045000000000343e-01 -4.873099999999999099e-01 8.629980000000000473e+01 1.575909999999999854e+03
2.500000000000000139e-02 5.675645000000000273e-01 1.563300000000000800e-01 8.470824999999999250e+01 1.575389999999999873e+03
2.600000000000000228e-02 5.672399999999999665e-01 8.870999999999997776e-01 8.314449999999999363e+01 1.574869999999999891e+03
2.700000000000000316e-02 5.669339999999999380e-01 1.697100000000000053e+00 8.164170000000000016e+01 1.574365000000000009e+03
2.800000000000000058e-02 5.666359999999999175e-01 2.547814999999999941e+00 8.019165000000000987e+01 1.573869999999999891e+03
2.900000000000000147e-02 5.663249999999999673e-01 3.376350000000000406e+00 7.874554999999999438e+01 1.573384999999999991e+03
3.000000000000000236e-02 5.659779999999999811e-01 4.108064999999999856e+00 7.722525000000000261e+01 1.572875000000000000e+03
3.099999999999999978e-02 5.655725000000000335e-01 4.672530000000000072e+00 7.554390000000000782e+01 1.572335000000000036e+03
3.200000000000000067e-02 5.650969999999999605e-01 5.018755000000000521e+00 7.362905000000000655e+01 1.571735000000000127e+03
3.300000000000000155e-02 5.645495000000000374e-01 5.127114999999999867e+00 7.144425000000001091e+01 1.571075000000000045e+03
3.400000000000000244e-02 5.639434999999999309e-01 5.013035000000000352e+00 6.900180000000000291e+01 1.570349999999999909e+03
3.500000000000000333e-02 5.633040000000000269e-01 4.722849999999999326e+00 6.636414999999999509e+01 1.569570000000000164e+03
3.600000000000000422e-02 5.626610000000000777e-01 4.323129999999999917e+00 6.363365000000000293e+01 1.568764999999999873e+03
3.700000000000000511e-02 5.620460000000000456e-01 3.886994999999999756e+00 6.093505000000000393e+01 1.567954999999999927e+03
3.799999999999999906e-02 5.614885000000000570e-01 3.482315000000000271e+00 5.839655000000000484e+01 1.567184999999999945e+03
3.899999999999999994e-02 5.610085000000000210e-01 3.163524999999999920e+00 5.613329999999999842e+01 1.566485000000000127e+03
4.000000000000000083e-02 5.606204999999999661e-01 2.968020000000000103e+00 5.423644999999999783e+01 1.565869999999999891e+03
4.100000000000000172e-02 5.603305000000000646e-01 2.916599999999999859e+00 5.276829999999999643e+01 1.565375000000000000e+03
4.200000000000000261e-02 5.601410000000000000e-01 3.016903999999999808e+00 5.176245000000000118e+01 1.565005000000000109e+03
4.300000000000000350e-02 5.600479999999999903e-01 3.268149999999999888e+00 5.122834999999999894e+01 1.564769999999999982e+03
4.400000000000000439e-02 5.600490000000000190e-01 3.666094999999999882e+00 5.115834999999999866e+01 1.564670000000000073e+03
4.499999999999999833e-02 5.601390000000000535e-01 4.207074999999999676e+00 5.153520000000000323e+01 1.564704999999999927e+03
4.599999999999999922e-02 5.603145000000000486e-01 4.890274999999999928e+00 5.233809999999999718e+01 1.564869999999999891e+03
4.700000000000000011e-02 5.605725000000000291e-01 5.717924999999999258e+00 5.354689999999999372e+01 1.565160000000000082e+03
4.800000000000000100e-02 5.609125000000000361e-01 6.693744999999999834e+00 5.514324999999999477e+01 1.565575000000000045e+03
4.900000000000000189e-02 5.613304999999999545e-01 7.820324999999999527e+00 5.710899999999999466e+01 1.566099999999999909e+03
5.000000000000000278e-02 5.618239999999999901e-01 9.096299999999999386e+00 5.942399999999999949e+01 1.566740000000000009e+03
5.100000000000000366e-02 5.623859999999999415e-01 1.051412000000000013e+01 6.206265000000000498e+01 1.567474999999999909e+03
5.200000000000000455e-02 5.630089999999999817e-01 1.205935500000000005e+01 6.499224999999999852e+01 1.568305000000000064e+03
5.300000000000000544e-02 5.636830000000000451e-01 1.371067999999999998e+01 6.817204999999999870e+01 1.569220000000000027e+03
5.399999999999999939e-02 5.643955000000000499e-01 1.544159499999999952e+01 7.155424999999999613e+01 1.570204999999999927e+03
5.500000000000000028e-02 5.651355000000000128e-01 1.722238499999999917e+01 7.508644999999999925e+01 1.571244999999999891e+03
5.600000000000000117e-02 5.658889999999999754e-01 1.902254999999999896e+01 7.871420000000000528e+01 1.572319999999999936e+03
5.700000000000000205e-02 5.666474999999999707e-01 2.081325000000000003e+01 8.238509999999999422e+01 1.573430000000000064e+03
5.800000000000000294e-02 5.674004999999999743e-01 2.256915000000000049e+01 8.605180000000000007e+01 1.574539999999999964e+03
5.900000000000000383e-02 5.681404999999999372e-01 2.426950000000000074e+01 8.967480000000000473e+01 1.575654999999999973e+03
6.000000000000000472e-02 5.688634999999999664e-01 2.589914999999999878e+01 9.322329999999999472e+01 1.576759999999999991e+03
6.099999999999999867e-02 5.695675000000000043e-01 2.744790000000000063e+01 9.667754999999999654e+01 1.577840000000000146e+03
6.199999999999999956e-02 5.702495000000000758e-01 2.891035000000000110e+01 1.000264500000000112e+02 1.578900000000000091e+03
6.300000000000000044e-02 5.709130000000000038e-01 3.028509999999999991e+01 1.032674000000000092e+02 1.579934999999999945e+03
6.400000000000000133e-02 5.715574999999999406e-01 3.157365000000000066e+01 1.064056999999999960e+02 1.580940000000000055e+03
6.500000000000000222e-02 5.721875000000000711e-01 3.277965000000000373e+01 1.094510499999999951e+02 1.581925000000000182e+03
6.600000000000000311e-02 5.728045000000000497e-01 3.390805000000000291e+01 1.124164999999999992e+02 1.582884999999999991e+03
6.700000000000000400e-02 5.734120000000000328e-01 3.496434999999999604e+01 1.153170000000000073e+02 1.583819999999999936e+03
6.800000000000000488e-02 5.740129999999999955e-01 3.595385000000000275e+01 1.181664999999999992e+02 1.584750000000000000e+03
6.900000000000000577e-02 5.746084999999999665e-01 3.688145000000000095e+01 1.209780000000000086e+02 1.585660000000000082e+03
7.000000000000000666e-02 5.752005000000000035e-01 3.775059999999999860e+01 1.237595000000000027e+02 1.586559999999999945e+03
7.100000000000000755e-02 5.757894999999999541e-01 3.856329999999999814e+01 1.265180000000000007e+02 1.587454999999999927e+03
7.200000000000000844e-02 5.763745000000000118e-01 3.931985000000000241e+01 1.292524999999999977e+02 1.588344999999999800e+03
7.300000000000000933e-02 5.769539999999999669e-01 4.001850000000000307e+01 1.319579999999999984e+02 1.589224999999999909e+03
7.399999999999999634e-02 5.775250000000000661e-01 4.065585000000000093e+01 1.346260000000000048e+02 1.590095000000000027e+03
7.499999999999999722e-02 5.780840000000000423e-01 4.122700000000000387e+01 1.372409999999999854e+02 1.590945000000000164e+03
7.599999999999999811e-02 5.786275000000000723e-01 4.172605000000000075e+01 1.397855000000000132e+02 1.591775000000000091e+03
7.699999999999999900e-02 5.791500000000000536e-01 4.214650000000000318e+01 1.422400000000000091e+02 1.592585000000000036e+03
7.799999999999999989e-02 5.796474999999999822e-01 4.248199999999999932e+01 1.445835000000000150e+02 1.593365000000000009e+03
7.900000000000000078e-02 5.801164999999999239e-01 4.272679999999999723e+01 1.467950000000000159e+02 1.594099999999999909e+03
8.000000000000000167e-02 5.805525000000000269e-01 4.287595000000000312e+01 1.488559999999999945e+02 1.594789999999999964e+03
8.100000000000000255e-02 5.809524999999999828e-01 4.292600000000000193e+01 1.507510000000000048e+02 1.595440000000000055e+03
8.200000000000000344e-02 5.813150000000000261e-01 4.287494999999999834e+01 1.524654999999999916e+02 1.596030000000000200e+03
8.300000000000000433e-02 5.816375000000000295e-01 4.272254999999999825e+01 1.539915000000000020e+02 1.596565000000000055e+03
8.400000000000000522e-02 5.819194999999999229e-01 4.247019999999999840e+01 1.553224999999999909e+02 1.597039999999999964e+03
8.500000000000000611e-02 5.821609999999999285e-01 4.212095000000000056e+01 1.564590000000000032e+02 1.597454999999999927e+03
8.600000000000000699e-02 5.823639999999999928e-01 4.167959999999999354e+01 1.574019999999999868e+02 1.597804999999999836e+03
8.700000000000000788e-02 5.825285000000000046e-01 4.115245000000000175e+01 1.581600000000000250e+02 1.598105000000000018e+03
8.800000000000000877e-02 5.826575000000000504e-01 4.054710000000000036e+01 1.587415000000000020e+02 1.598340000000000146e+03
8.899999999999999578e-02 5.827534999999999243e-01 3.987250000000000227e+01 1.591599999999999966e+02 1.598525000000000091e+03
8.999999999999999667e-02 5.828204999999999636e-01 3.913864999999999839e+01 1.594309999999999832e+02 1.598659999999999854e+03
9.099999999999999756e-02 5.828619999999999912e-01 3.835620000000000118e+01 1.595720000000000027e+02 1.598750000000000000e+03
9.199999999999999845e-02 5.828805000000000236e-01 3.753640000000000043e+01 1.596019999999999754e+02 1.598799999999999955e+03
9.299999999999999933e-02 5.828820000000000112e-01 3.669069999999999965e+01 1.595394999999999754e+02 1.598824999999999818e+03
9.400000000000000022e-02 5.828695000000000404e-01 3.583035000000000281e+01 1.594049999999999727e+02 1.598815000000000055e+03
9.500000000000000111e-02 5.828465000000000451e-01 3.496600000000000108e+01 1.592175000000000011e+02 1.598785000000000082e+03
9.600000000000000200e-02 5.828170000000000295e-01 3.410719999999999885e+01 1.589934999999999832e+02 1.598735000000000127e+03
9.700000000000000289e-02 5.827835000000000099e-01 3.326250000000000284e+01 1.587495000000000118e+02 1.598680000000000064e+03
9.800000000000000377e-02 5.827485000000000026e-01 3.243860000000000099e+01 1.584979999999999905e+02 1.598610000000000127e+03
9.900000000000000466e-02 5.827139999999999542e-01 3.164055000000000106e+01 1.582484999999999786e+02 1.598539999999999964e+03
1.000000000000000056e-01 5.826799999999999757e-01 3.087140000000000128e+01 1.580080000000000098e+02 1.598470000000000027e+03
1.010000000000000064e-01 5.826480000000000548e-01 3.013230000000000075e+01 1.577794999999999845e+02 1.598400000000000091e+03
1.020000000000000073e-01 5.826169999999999405e-01 2.942239999999999966e+01 1.575634999999999764e+02 1.598329999999999927e+03
1.030000000000000082e-01 5.825860000000000483e-01 2.873955000000000126e+01 1.573565000000000111e+02 1.598259999999999991e+03
1.040000000000000091e-01 5.825534999999999464e-01 2.807990000000000208e+01 1.571525000000000034e+02 1.598194999999999936e+03
1.050000000000000100e-01 5.825179999999999803e-01 2.743860000000000099e+01 1.569439999999999884e+02 1.598125000000000000e+03
1.059999999999999970e-01 5.824780000000000513e-01 2.681020000000000181e+01 1.567219999999999800e+02 1.598049999999999955e+03
1.069999999999999979e-01 5.824305000000000732e-01 2.618874999999999886e+01 1.564774999999999920e+02 1.597969999999999800e+03
1.079999999999999988e-01 5.823734999999999884e-01 2.556830000000000069e+01 1.561995000000000005e+02 1.597884999999999991e+03
1.089999999999999997e-01 5.823064999999999491e-01 2.494310000000000116e+01 1.558785000000000025e+02 1.597780000000000200e+03
1.100000000000000006e-01 5.822270000000000501e-01 2.430825000000000102e+01 1.555070000000000050e+02 1.597664999999999964e+03
1.110000000000000014e-01 5.821334999999999704e-01 2.365915000000000035e+01 1.550774999999999864e+02 1.597535000000000082e+03
1.120000000000000023e-01 5.820260000000000433e-01 2.299264999999999759e+01 1.545860000000000127e+02 1.597384999999999991e+03
1.130000000000000032e-01 5.819045000000000467e-01 2.230655000000000143e+01 1.540289999999999964e+02 1.597220000000000027e+03
1.140000000000000041e-01 5.817685000000000217e-01 2.160000000000000142e+01 1.534060000000000059e+02 1.597029999999999973e+03
1.150000000000000050e-01 5.816194999999999560e-01 2.087349999999999994e+01 1.527205000000000155e+02 1.596825000000000045e+03
1.160000000000000059e-01 5.814584999999999892e-01 2.012884999999999991e+01 1.519759999999999991e+02 1.596605000000000018e+03
1.170000000000000068e-01 5.812869999999999981e-01 1.936939999999999884e+01 1.511804999999999950e+02 1.596365000000000009e+03
1.180000000000000077e-01 5.811074999999999990e-01 1.859935000000000116e+01 1.503424999999999727e+02 1.596105000000000018e+03
1.190000000000000085e-01 5.809225000000000083e-01 1.782424999999999926e+01 1.494739999999999895e+02 1.595840000000000146e+03
1.200000000000000094e-01 5.807350000000000012e-01 1.705034999999999812e+01 1.485869999999999891e+02 1.595570000000000164e+03
1.209999999999999964e-01 5.805474999999999941e-01 1.628460000000000107e+01 1.476949999999999932e+02 1.595289999999999964e+03
1.219999999999999973e-01 5.803639999999999910e-01 1.553425000000000011e+01 1.468125000000000000e+02 1.595014999999999873e+03
1.229999999999999982e-01 5.801864999999999384e-01 1.480658999999999992e+01 1.459530000000000030e+02 1.594750000000000000e+03
1.239999999999999991e-01 5.800175000000000747e-01 1.410868499999999948e+01 1.451310000000000002e+02 1.594485000000000127e+03
1.250000000000000000e-01 5.798605000000000009e-01 1.344716999999999985e+01 1.443584999999999923e+02 1.594234999999999900e+03
1.260000000000000009e-01 5.797170000000000378e-01 1.282791500000000084e+01 1.436465000000000032e+02 1.594000000000000000e+03
1.270000000000000018e-01 5.795894999999999797e-01 1.225583499999999937e+01 1.430039999999999907e+02 1.593789999999999964e+03
1.280000000000000027e-01 5.794779999999999376e-01 1.173466499999999968e+01 1.424379999999999882e+02 1.593594999999999800e+03
1.290000000000000036e-01 5.793835000000000512e-01 1.126689999999999969e+01 1.419530000000000030e+02 1.593424999999999955e+03
1.300000000000000044e-01 5.793070000000000164e-01 1.085388000000000019e+01 1.415515000000000043e+02 1.593284999999999854e+03
1.310000000000000053e-01 5.792475000000000263e-01 1.049537499999999923e+01 1.412319999999999993e+02 1.593160000000000082e+03
1.320000000000000062e-01 5.792040000000000521e-01 1.019012999999999991e+01 1.409934999999999832e+02 1.593065000000000055e+03
1.330000000000000071e-01 5.791755000000000653e-01 9.935665000000000191e+00 1.408284999999999911e+02 1.592990000000000009e+03
1.340000000000000080e-01 5.791604999999999670e-01 9.728434999999999278e+00 1.407319999999999993e+02 1.592940000000000055e+03
1.350000000000000089e-01 5.791565000000000740e-01 9.564225000000000421e+00 1.406954999999999814e+02 1.592909999999999854e+03
1.360000000000000098e-01 5.791625000000000245e-01 9.438089999999998980e+00 1.407094999999999914e+02 1.592889999999999873e+03
1.370000000000000107e-01 5.791760000000000241e-01 9.344969999999999999e+00 1.407649999999999864e+02 1.592889999999999873e+03
1.380000000000000115e-01 5.791945000000000565e-01 9.279320000000000235e+00 1.408505000000000109e+02 1.592904999999999973e+03
1.390000000000000124e-01 5.792165000000000230e-01 9.235949999999998994e+00 1.409574999999999818e+02 1.592925000000000182e+03
1.400000000000000133e-01 5.792405000000000470e-01 9.209720000000000795e+00 1.410769999999999982e+02 1.592945000000000164e+03
1.410000000000000142e-01 5.792640000000000011e-01 9.195934999999998638e+00 1.412015000000000100e+02 1.592974999999999909e+03
1.420000000000000151e-01 5.792869999999999964e-01 9.190284999999999371e+00 1.413229999999999791e+02 1.593005000000000109e+03
1.430000000000000160e-01 5.793074999999999752e-01 9.189215000000000799e+00 1.414370000000000118e+02 1.593034999999999854e+03
1.440000000000000169e-01 5.793254999999999377e-01 9.189619999999999678e+00 1.415389999999999873e+02 1.593065000000000055e+03
1.450000000000000178e-01 5.793405000000000360e-01 9.189024999999999110e+00 1.416260000000000048e+02 1.593085000000000036e+03
1.459999999999999909e-01 5.793519999999999781e-01 9.185594999999999288e+00 1.416970000000000027e+02 1.593105000000000018e+03
1.469999999999999918e-01 5.793599999999999861e-01 9.178084999999999383e+00 1.417504999999999882e+02 1.593125000000000000e+03
1.479999999999999927e-01 5.793650000000000189e-01 9.165765000000000384e+00 1.417880000000000109e+02 1.593134999999999991e+03
1.489999999999999936e-01 5.793669999999999654e-01 9.148315000000000197e+00 1.418104999999999905e+02 1.593144999999999982e+03
1.499999999999999944e-01 5.793669999999999654e-01 9.125914999999999111e+00 1.418204999999999814e+02 1.593150000000000091e+03
1.509999999999999953e-01 5.793654999999999777e-01 9.099064999999999515e+00 1.418199999999999932e+02 1.593154999999999973e+03
1.519999999999999962e-01 5.793620000000000436e-01 9.068564999999999543e+00 1.418120000000000118e+02 1.593154999999999973e+03
1.529999999999999971e-01 5.793584999999999985e-01 9.035239999999999938e+00 1.417989999999999782e+02 1.593150000000000091e+03
1.539999999999999980e-01 5.793550000000000644e-01 9.000130000000000408e+00 1.417839999999999918e+02 1.593144999999999982e+03
1.549999999999999989e-01 5.793519999999999781e-01 8.964275000000000659e+00 1.417699999999999818e+02 1.593139999999999873e+03
1.559999999999999998e-01 5.793500000000000316e-01 8.928689999999999571e+00 1.417590000000000146e+02 1.593139999999999873e+03
1.570000000000000007e-01 5.793494999999999617e-01 8.894154999999999589e+00 1.417524999999999977e+02 1.593139999999999873e+03
1.580000000000000016e-01 5.793500000000000316e-01 8.861394999999999911e+00 1.417520000000000095e+02 1.593139999999999873e+03
1.590000000000000024e-01 5.793520000000000891e-01 8.830725000000001046e+00 1.417574999999999932e+02 1.593139999999999873e+03
