# t [s], A [cm^2], U [cm/s], P [cPa], c [cm/s]
1.000000000000000021e-03 1.962800000000000100e-01 3.865209499999999743e-01 9.392574999999999363e+01 2.110909999999999854e+03
2.000000000000000042e-03 1.962119999999999975e-01 2.023709000000000202e+00 9.026030000000000086e+01 2.110385000000000218e+03
3.000000000000000062e-03 1.960469999999999990e-01 4.022273499999999835e+00 8.519384999999999764e+01 2.109175000000000182e+03
4.000000000000000083e-03 1.958345000000000224e-01 6.273449499999999901e+00 7.994984999999999786e+01 2.107635000000000218e+03
5.000000000000000104e-03 1.956185000000000007e-01 8.667450000000000543e+00 7.555105000000000359e+01 2.106074999999999818e+03
6.000000000000000125e-03 1.954184999999999950e-01 1.093399500000000124e+01 7.208439999999998804e+01 2.104654999999999745e+03
7.000000000000000146e-03 1.952349999999999919e-01 1.282852499999999907e+01 6.907644999999999413e+01 2.103380000000000109e+03
8.000000000000000167e-03 1.950724999999999820e-01 1.434566000000000052e+01 6.639744999999999209e+01 2.102279999999999745e+03
9.000000000000001055e-03 1.949365000000000125e-01 1.556085000000000029e+01 6.421420000000000528e+01 2.101359999999999673e+03
1.000000000000000194e-02 1.948274999999999868e-01 1.650290000000000035e+01 6.254540000000000077e+01 2.100635000000000218e+03
1.099999999999999936e-02 1.947440000000000004e-01 1.720145000000000124e+01 6.132925000000000182e+01 2.100095000000000255e+03
1.200000000000000025e-02 1.946824999999999806e-01 1.768185000000000073e+01 6.049115000000000464e+01 2.099699999999999818e+03
1.300000000000000114e-02 1.946375000000000188e-01 1.794539999999999935e+01 5.987354999999999450e+01 2.099420000000000073e+03
1.400000000000000203e-02 1.946019999999999972e-01 1.803634999999999877e+01 5.937149999999999750e+01 2.099210000000000036e+03
1.499999999999999944e-02 1.945810000000000040e-01 1.811135000000000161e+01 5.919230000000000302e+01 2.099090000000000146e+03
1.600000000000000033e-02 1.945874999999999966e-01 1.838990000000000080e+01 5.984409999999999741e+01 2.099150000000000091e+03
1.700000000000000122e-02 1.946360000000000035e-01 1.901635000000000275e+01 6.177579999999999671e+01 2.099475000000000364e+03
1.800000000000000211e-02 1.947300000000000142e-01 1.995170000000000243e+01 6.497754999999999370e+01 2.100105000000000018e+03
1.900000000000000300e-02 1.948575000000000168e-01 2.097544999999999860e+01 6.885589999999999122e+01 2.100965000000000146e+03
2.000000000000000042e-02 1.949909999999999977e-01 2.178344999999999843e+01 7.244684999999999775e+01 2.101880000000000109e+03
2.100000000000000130e-02 1.951009999999999966e-01 2.211970000000000169e+01 7.481759999999999877e+01 2.102650000000000091e+03
2.200000000000000219e-02 1.951640000000000041e-01 2.187675000000000125e+01 7.544065000000000509e+01 2.103114999999999782e+03
2.299999999999999961e-02 1.951724999999999988e-01 2.112529999999999930e+01 7.437475000000000591e+01 2.103210000000000036e+03
2.400000000000000050e-02 1.951344999999999885e-01 2.006700000000000017e+01 7.218719999999999004e+01 2.102980000000000018e+03
2.500000000000000139e-02 1.950705000000000078e-01 1.893990000000000151e+01 6.967714999999999748e+01 2.102559999999999945e+03
2.600000000000000228e-02 1.950020000000000087e-01 1.792490000000000094e+01 6.754374999999998863e+01 2.102099999999999909e+03
2.700000000000000316e-02 1.949454999999999938e-01 1.709159999999999968e+01 6.614799999999999613e+01 2.101710000000000036e+03
2.800000000000000058e-02 1.949064999999999825e-01 1.639789999999999992e+01 6.544800000000000750e+01 2.101429999999999836e+03
2.900000000000000147e-02 1.948809999999999987e-01 1.573220000000000063e+01 6.509864999999999213e+01 2.101250000000000000e+03
3.000000000000000236e-02 1.948580000000000034e-01 1.497554999999999836e+01 6.464849999999999852e+01 2.101090000000000146e+03
3.099999999999999978e-02 1.948254999999999848e-01 1.405884999999999962e+01 6.374830000000000041e+01 2.100875000000000000e+03
3.200000000000000067e-02 1.947780000000000067e-01 1.299804999999999922e+01 6.230245000000000033e+01 2.100564999999999600e+03
3.300000000000000155e-02 1.947180000000000022e-01 1.189628000000000085e+01 6.051675000000000182e+01 2.100159999999999854e+03
3.400000000000000244e-02 1.946545000000000081e-01 1.091380499999999998e+01 5.883164999999999623e+01 2.099730000000000018e+03
3.500000000000000333e-02 1.946039999999999992e-01 1.021575999999999951e+01 5.776825000000000188e+01 2.099380000000000109e+03
3.600000000000000422e-02 1.945810000000000040e-01 9.918565000000000964e+00 5.774660000000000082e+01 2.099210000000000036e+03
3.700000000000000511e-02 1.945965000000000056e-01 1.005262499999999903e+01 5.894190000000000396e+01 2.099284999999999854e+03
3.799999999999999906e-02 1.946510000000000185e-01 1.055242499999999950e+01 6.122279999999999944e+01 2.099630000000000109e+03
3.899999999999999994e-02 1.947375000000000078e-01 1.127253999999999934e+01 6.418330000000000268e+01 2.100194999999999709e+03
4.000000000000000083e-02 1.948389999999999844e-01 1.202250000000000085e+01 6.724510000000000787e+01 2.100880000000000109e+03
4.100000000000000172e-02 1.949380000000000002e-01 1.260670000000000002e+01 6.979224999999999568e+01 2.101550000000000182e+03
4.200000000000000261e-02 1.950140000000000207e-01 1.286054999999999993e+01 7.129840000000000089e+01 2.102074999999999818e+03
4.300000000000000350e-02 1.950510000000000022e-01 1.267370000000000019e+01 7.141665000000000418e+01 2.102345000000000255e+03
4.400000000000000439e-02 1.950395000000000045e-01 1.200009999999999977e+01 7.001924999999999955e+01 2.102284999999999854e+03
4.499999999999999833e-02 1.949764999999999970e-01 1.085359000000000052e+01 6.718645000000000778e+01 2.101875000000000000e+03
4.599999999999999922e-02 1.948640000000000094e-01 9.294665000000000177e+00 6.315744999999999720e+01 2.101135000000000218e+03
4.700000000000000011e-02 1.947114999999999818e-01 7.412715000000000387e+00 5.826269999999999527e+01 2.100109999999999673e+03
4.800000000000000100e-02 1.945284999999999931e-01 5.309436999999999962e+00 5.285770000000000124e+01 2.098880000000000109e+03
4.900000000000000189e-02 1.943259999999999987e-01 3.086135000000000517e+00 4.727239999999999753e+01 2.097510000000000218e+03
5.000000000000000278e-02 1.941169999999999840e-01 8.375050000000001660e-01 4.178454999999999586e+01 2.096090000000000146e+03
5.100000000000000366e-02 1.939095000000000124e-01 -1.350324999999999775e+00 3.661499999999999488e+01 2.094679999999999836e+03
5.200000000000000455e-02 1.937119999999999953e-01 -3.398209999999999731e+00 3.193769999999999953e+01 2.093329999999999927e+03
5.300000000000000544e-02 1.935319999999999818e-01 -5.231704999999999828e+00 2.789659999999999940e+01 2.092100000000000364e+03
5.399999999999999939e-02 1.933759999999999923e-01 -6.779769999999999186e+00 2.461999999999999744e+01 2.091024999999999636e+03
5.500000000000000028e-02 1.932480000000000031e-01 -7.975505000000000067e+00 2.222829999999999728e+01 2.090139999999999873e+03
5.600000000000000117e-02 1.931549999999999934e-01 -8.759230000000000516e+00 2.083209999999999695e+01 2.089489999999999782e+03
5.700000000000000205e-02 1.931005000000000082e-01 -9.082979999999999166e+00 2.052284999999999826e+01 2.089090000000000146e+03
5.800000000000000294e-02 1.930879999999999819e-01 -8.915634999999999977e+00 2.135925000000000296e+01 2.088980000000000018e+03
5.900000000000000383e-02 1.931200000000000139e-01 -8.247009999999999508e+00 2.335399999999999920e+01 2.089159999999999854e+03
6.000000000000000472e-02 1.931959999999999789e-01 -7.090059999999999363e+00 2.646560000000000201e+01 2.089644999999999982e+03
6.099999999999999867e-02 1.933145000000000002e-01 -5.480554999999999843e+00 3.059639999999999915e+01 2.090420000000000073e+03
6.199999999999999956e-02 1.934710000000000041e-01 -3.474361500000000103e+00 3.559909999999999997e+01 2.091454999999999927e+03
6.300000000000000044e-02 1.936614999999999864e-01 -1.142879999999999896e+00 4.128909999999999769e+01 2.092720000000000255e+03
6.400000000000000133e-02 1.938779999999999948e-01 1.432399999999999896e+00 4.746035000000000537e+01 2.094170000000000073e+03
6.500000000000000222e-02 1.941130000000000078e-01 4.165350000000000108e+00 5.390135000000000076e+01 2.095760000000000218e+03
6.600000000000000311e-02 1.943595000000000184e-01 6.970035000000000203e+00 6.040914999999999679e+01 2.097429999999999836e+03
6.700000000000000400e-02 1.946094999999999908e-01 9.764800000000001035e+00 6.680015000000000214e+01 2.099140000000000327e+03
6.800000000000000488e-02 1.948570000000000024e-01 1.247543500000000094e+01 7.291719999999999402e+01 2.100829999999999927e+03
6.900000000000000577e-02 1.950955000000000050e-01 1.503804999999999836e+01 7.863499999999999091e+01 2.102470000000000255e+03
7.000000000000000666e-02 1.953205000000000080e-01 1.740104999999999791e+01 8.386305000000000121e+01 2.104019999999999982e+03
7.100000000000000755e-02 1.955279999999999796e-01 1.952765000000000128e+01 8.854839999999998668e+01 2.105460000000000036e+03
7.200000000000000844e-02 1.957165000000000155e-01 2.139679999999999893e+01 9.267680000000000007e+01 2.106779999999999745e+03
7.300000000000000933e-02 1.958854999999999902e-01 2.300384999999999991e+01 9.627164999999999395e+01 2.107960000000000036e+03
7.399999999999999634e-02 1.960355000000000014e-01 2.436005000000000109e+01 9.939265000000000327e+01 2.109019999999999982e+03
7.499999999999999722e-02 1.961689999999999823e-01 2.549070000000000036e+01 1.021294499999999914e+02 2.109960000000000036e+03
7.599999999999999811e-02 1.962885000000000046e-01 2.643234999999999957e+01 1.045930000000000035e+02 2.110805000000000291e+03
7.699999999999999900e-02 1.963989999999999903e-01 2.722895000000000110e+01 1.069054999999999893e+02 2.111590000000000146e+03
7.799999999999999989e-02 1.965040000000000120e-01 2.792774999999999963e+01 1.091910000000000025e+02 2.112329999999999927e+03
7.900000000000000078e-02 1.966084999999999916e-01 2.857495000000000118e+01 1.115604999999999905e+02 2.113065000000000055e+03
8.000000000000000167e-02 1.967154999999999876e-01 2.921180000000000021e+01 1.141059999999999945e+02 2.113819999999999709e+03
8.100000000000000255e-02 1.968290000000000040e-01 2.987120000000000175e+01 1.168930000000000007e+02 2.114609999999999673e+03
8.200000000000000344e-02 1.969505000000000006e-01 3.057590000000000074e+01 1.199524999999999864e+02 2.115460000000000036e+03
8.300000000000000433e-02 1.970814999999999928e-01 3.133680000000000021e+01 1.232849999999999966e+02 2.116375000000000000e+03
8.400000000000000522e-02 1.972209999999999797e-01 3.215310000000000201e+01 1.268580000000000041e+02 2.117345000000000255e+03
8.500000000000000611e-02 1.973690000000000166e-01 3.301290000000000191e+01 1.306119999999999948e+02 2.118375000000000000e+03
8.600000000000000699e-02 1.975230000000000041e-01 3.389499999999999602e+01 1.344664999999999964e+02 2.119444999999999709e+03
8.700000000000000788e-02 1.976795000000000080e-01 3.477074999999999960e+01 1.383259999999999934e+02 2.120530000000000200e+03
8.800000000000000877e-02 1.978349999999999831e-01 3.560685000000000144e+01 1.420874999999999773e+02 2.121619999999999891e+03
8.899999999999999578e-02 1.979865000000000097e-01 3.636764999999999759e+01 1.456485000000000127e+02 2.122670000000000073e+03
8.999999999999999667e-02 1.981289999999999996e-01 3.701794999999999902e+01 1.489134999999999991e+02 2.123675000000000182e+03
9.099999999999999756e-02 1.982599999999999918e-01 3.752519999999999811e+01 1.517989999999999782e+02 2.124600000000000364e+03
9.199999999999999845e-02 1.983770000000000255e-01 3.786155000000000115e+01 1.542365000000000066e+02 2.125420000000000073e+03
9.299999999999999933e-02 1.984759999999999858e-01 3.800560000000000116e+01 1.561804999999999950e+02 2.126119999999999891e+03
9.400000000000000022e-02 1.985560000000000103e-01 3.794344999999999857e+01 1.576025000000000205e+02 2.126699999999999818e+03
9.500000000000000111e-02 1.986165000000000014e-01 3.766939999999999600e+01 1.584979999999999905e+02 2.127135000000000218e+03
9.600000000000000200e-02 1.986565000000000136e-01 3.718605000000000160e+01 1.588840000000000146e+02 2.127425000000000182e+03
9.700000000000000289e-02 1.986775000000000069e-01 3.650410000000000110e+01 1.587939999999999827e+02 2.127590000000000146e+03
9.800000000000000377e-02 1.986799999999999955e-01 3.564135000000000275e+01 1.582794999999999845e+02 2.127619999999999891e+03
9.900000000000000466e-02 1.986660000000000093e-01 3.462170000000000414e+01 1.574035000000000082e+02 2.127539999999999964e+03
1.000000000000000056e-01 1.986380000000000090e-01 3.347390000000000043e+01 1.562375000000000114e+02 2.127360000000000127e+03
1.010000000000000064e-01 1.985985000000000111e-01 3.222955000000000325e+01 1.548575000000000159e+02 2.127095000000000255e+03
1.020000000000000073e-01 1.985504999999999909e-01 3.092210000000000036e+01 1.533410000000000082e+02 2.126764999999999873e+03
1.030000000000000082e-01 1.984970000000000068e-01 2.958489999999999753e+01 1.517624999999999886e+02 2.126394999999999982e+03
1.040000000000000091e-01 1.984400000000000053e-01 2.824994999999999834e+01 1.501910000000000025e+02 2.126005000000000109e+03
1.050000000000000100e-01 1.983830000000000038e-01 2.694675000000000153e+01 1.486870000000000118e+02 2.125609999999999673e+03
1.059999999999999970e-01 1.983274999999999899e-01 2.570070000000000121e+01 1.473014999999999759e+02 2.125220000000000255e+03
1.069999999999999979e-01 1.982754999999999934e-01 2.453289999999999793e+01 1.460729999999999791e+02 2.124854999999999563e+03
1.079999999999999988e-01 1.982295000000000029e-01 2.345874999999999844e+01 1.450280000000000200e+02 2.124529999999999745e+03
1.089999999999999997e-01 1.981894999999999907e-01 2.248799999999999955e+01 1.441794999999999902e+02 2.124244999999999891e+03
1.100000000000000006e-01 1.981559999999999988e-01 2.162434999999999974e+01 1.435264999999999986e+02 2.124005000000000109e+03
1.110000000000000014e-01 1.981295000000000139e-01 2.086549999999999727e+01 1.430550000000000068e+02 2.123815000000000055e+03
1.120000000000000023e-01 1.981094999999999939e-01 2.020364999999999966e+01 1.427400000000000091e+02 2.123659999999999854e+03
1.130000000000000032e-01 1.980945000000000067e-01 1.962610000000000099e+01 1.425440000000000111e+02 2.123555000000000291e+03
1.140000000000000041e-01 1.980844999999999967e-01 1.911605000000000132e+01 1.424240000000000066e+02 2.123469999999999800e+03
1.150000000000000050e-01 1.980760000000000021e-01 1.865395000000000181e+01 1.423299999999999841e+02 2.123404999999999745e+03
1.160000000000000059e-01 1.980685000000000084e-01 1.821825000000000117e+01 1.422115000000000009e+02 2.123350000000000364e+03
1.170000000000000068e-01 1.980600000000000138e-01 1.778729999999999833e+01 1.420174999999999841e+02 2.123284999999999854e+03
1.180000000000000077e-01 1.980490000000000028e-01 1.734024999999999750e+01 1.416999999999999886e+02 2.123199999999999818e+03
1.190000000000000085e-01 1.980319999999999858e-01 1.685839999999999961e+01 1.412205000000000155e+02 2.123090000000000146e+03
1.200000000000000094e-01 1.980100000000000193e-01 1.632625000000000171e+01 1.405480000000000018e+02 2.122934999999999945e+03
1.209999999999999964e-01 1.979805000000000037e-01 1.573264999999999958e+01 1.396620000000000061e+02 2.122724999999999909e+03
1.219999999999999973e-01 1.979429999999999801e-01 1.507109999999999950e+01 1.385570000000000164e+02 2.122465000000000146e+03
1.229999999999999982e-01 1.978975000000000040e-01 1.434055000000000035e+01 1.372379999999999995e+02 2.122154999999999745e+03
1.239999999999999991e-01 1.978440000000000198e-01 1.354499999999999993e+01 1.357239999999999895e+02 2.121784999999999854e+03
1.250000000000000000e-01 1.977829999999999866e-01 1.269350000000000023e+01 1.340450000000000159e+02 2.121364999999999782e+03
1.260000000000000009e-01 1.977165000000000172e-01 1.179952000000000112e+01 1.322420000000000186e+02 2.120904999999999745e+03
1.270000000000000018e-01 1.976450000000000151e-01 1.088017499999999949e+01 1.303619999999999948e+02 2.120414999999999964e+03
1.280000000000000027e-01 1.975709999999999966e-01 9.955059999999999576e+00 1.284569999999999936e+02 2.119894999999999982e+03
1.290000000000000036e-01 1.974960000000000049e-01 9.045194999999999652e+00 1.265815000000000055e+02 2.119380000000000109e+03
1.300000000000000044e-01 1.974225000000000008e-01 8.171814999999998719e+00 1.247884999999999991e+02 2.118864999999999782e+03
1.310000000000000053e-01 1.973519999999999996e-01 7.355249999999999844e+00 1.231260000000000048e+02 2.118375000000000000e+03
1.320000000000000062e-01 1.972865000000000035e-01 6.613749999999999574e+00 1.216355000000000075e+02 2.117914999999999964e+03
1.330000000000000071e-01 1.972280000000000144e-01 5.962704999999999700e+00 1.203524999999999920e+02 2.117500000000000000e+03
1.340000000000000080e-01 1.971765000000000045e-01 5.413915000000000255e+00 1.192999999999999972e+02 2.117135000000000218e+03
1.350000000000000089e-01 1.971335000000000170e-01 4.975084999999999980e+00 1.184915000000000020e+02 2.116829999999999927e+03
1.360000000000000098e-01 1.970999999999999974e-01 4.649630000000000152e+00 1.179304999999999950e+02 2.116595000000000255e+03
1.370000000000000107e-01 1.970760000000000012e-01 4.436709999999999710e+00 1.176094999999999970e+02 2.116414999999999964e+03
1.380000000000000115e-01 1.970604999999999996e-01 4.331385000000000041e+00 1.175114999999999981e+02 2.116300000000000182e+03
1.390000000000000124e-01 1.970545000000000213e-01 4.325079999999999814e+00 1.176135000000000019e+02 2.116250000000000000e+03
1.400000000000000133e-01 1.970554999999999946e-01 4.406129999999999214e+00 1.178845000000000027e+02 2.116244999999999891e+03
1.410000000000000142e-01 1.970629999999999882e-01 4.560435000000000016e+00 1.182895000000000039e+02 2.116289999999999964e+03
1.420000000000000151e-01 1.970754999999999868e-01 4.772185000000000343e+00 1.187909999999999968e+02 2.116375000000000000e+03
1.430000000000000160e-01 1.970919999999999894e-01 5.024625000000000341e+00 1.193505000000000109e+02 2.116480000000000018e+03
1.440000000000000169e-01 1.971109999999999807e-01 5.300749999999999851e+00 1.199295000000000044e+02 2.116610000000000127e+03
1.450000000000000178e-01 1.971310000000000007e-01 5.584030000000000271e+00 1.204945000000000022e+02 2.116744999999999891e+03
1.459999999999999909e-01 1.971510000000000207e-01 5.858985000000000554e+00 1.210120000000000005e+02 2.116880000000000109e+03
1.469999999999999918e-01 1.971689999999999832e-01 6.111744999999999983e+00 1.214555000000000007e+02 2.117005000000000109e+03
1.479999999999999927e-01 1.971844999999999848e-01 6.330465000000000231e+00 1.218025000000000091e+02 2.117114999999999782e+03
1.489999999999999936e-01 1.971964999999999968e-01 6.505670000000000286e+00 1.220370000000000061e+02 2.117199999999999818e+03
1.499999999999999944e-01 1.972045000000000048e-01 6.630489999999999995e+00 1.221479999999999961e+02 2.117260000000000218e+03
1.509999999999999953e-01 1.972085000000000088e-01 6.700739999999999696e+00 1.221324999999999932e+02 2.117284999999999854e+03
1.519999999999999962e-01 1.972075000000000078e-01 6.714964999999999407e+00 1.219909999999999997e+02 2.117280000000000200e+03
1.529999999999999971e-01 1.972019999999999884e-01 6.674265000000000114e+00 1.217305000000000064e+02 2.117250000000000000e+03
1.539999999999999980e-01 1.971920000000000062e-01 6.582124999999999559e+00 1.213640000000000043e+02 2.117180000000000291e+03
1.549999999999999989e-01 1.971785000000000065e-01 6.444074999999999775e+00 1.209055000000000035e+02 2.117090000000000146e+03
1.559999999999999998e-01 1.971610000000000029e-01 6.267244999999999955e+00 1.203750000000000000e+02 2.116975000000000364e+03
1.570000000000000007e-01 1.971404999999999963e-01 6.059960000000000235e+00 1.197914999999999992e+02 2.116840000000000146e+03
1.580000000000000016e-01 1.971185000000000020e-01 5.831154999999999866e+00 1.191769999999999925e+02 2.116689999999999600e+03
1.590000000000000024e-01 1.970955000000000068e-01 5.589940000000000353e+00 1.185510000000000019e+02 2.116529999999999745e+03
