# t [s], A [cm^2], U [cm/s], P [cPa], c [cm/s]
1.000000000000000021e-03 1.549309999999999854e-01 2.880595000000000239e-01 1.031984999999999957e+02 1.828684999999999945e+03
2.000000000000000042e-03 1.548974999999999935e-01 1.909707999999999961e+00 1.001445999999999970e+02 1.828375000000000000e+03
3.000000000000000062e-03 1.547810000000000019e-01 3.915493000000000556e+00 9.603610000000000468e+01 1.827360000000000127e+03
4.000000000000000083e-03 1.546095000000000108e-01 6.144684999999999953e+00 9.139390000000000214e+01 1.825889999999999873e+03
5.000000000000000104e-03 1.544129999999999947e-01 8.537119999999999820e+00 8.699840000000000373e+01 1.824220000000000027e+03
6.000000000000000125e-03 1.542149999999999910e-01 1.097205500000000100e+01 8.326349999999999341e+01 1.822559999999999945e+03
7.000000000000000146e-03 1.540259999999999962e-01 1.326927499999999860e+01 8.015944999999999254e+01 1.820990000000000009e+03
8.000000000000000167e-03 1.538495000000000001e-01 1.528845999999999883e+01 7.745574999999999477e+01 1.819549999999999955e+03
9.000000000000001055e-03 1.536885000000000057e-01 1.700444999999999851e+01 7.504879999999999995e+01 1.818259999999999991e+03
1.000000000000000194e-02 1.535469999999999891e-01 1.845295000000000130e+01 7.298744999999999550e+01 1.817139999999999873e+03
1.099999999999999936e-02 1.534260000000000068e-01 1.966104999999999947e+01 7.130715000000000714e+01 1.816190000000000055e+03
1.200000000000000025e-02 1.533259999999999901e-01 2.064484999999999815e+01 6.998399999999999466e+01 1.815414999999999964e+03
1.300000000000000114e-02 1.532454999999999790e-01 2.142190000000000083e+01 6.897540000000000759e+01 1.814800000000000182e+03
1.400000000000000203e-02 1.531824999999999992e-01 2.200459999999999994e+01 6.822329999999999472e+01 1.814319999999999936e+03
1.499999999999999944e-02 1.531325000000000047e-01 2.240140000000000242e+01 6.764870000000000516e+01 1.813954999999999927e+03
1.600000000000000033e-02 1.530929999999999791e-01 2.264070000000000249e+01 6.719995000000000118e+01 1.813674999999999955e+03
1.700000000000000122e-02 1.530650000000000066e-01 2.279260000000000019e+01 6.692619999999999436e+01 1.813480000000000018e+03
1.800000000000000211e-02 1.530504999999999782e-01 2.296065000000000111e+01 6.699330000000000496e+01 1.813389999999999873e+03
1.900000000000000300e-02 1.530555000000000110e-01 2.324364999999999881e+01 6.760965000000000202e+01 1.813450000000000045e+03
2.000000000000000042e-02 1.530859999999999999e-01 2.369184999999999874e+01 6.890654999999999575e+01 1.813694999999999936e+03
2.100000000000000130e-02 1.531409999999999993e-01 2.428385000000000105e+01 7.084604999999999109e+01 1.814134999999999991e+03
2.200000000000000219e-02 1.532165000000000055e-01 2.493299999999999983e+01 7.320425000000000182e+01 1.814740000000000009e+03
2.299999999999999961e-02 1.533039999999999958e-01 2.551784999999999926e+01 7.563024999999998954e+01 1.815434999999999945e+03
2.400000000000000050e-02 1.533904999999999852e-01 2.592170000000000130e+01 7.775034999999999741e+01 1.816134999999999991e+03
2.500000000000000139e-02 1.534665000000000057e-01 2.606605000000000061e+01 7.927264999999999873e+01 1.816755000000000109e+03
2.600000000000000228e-02 1.535225000000000062e-01 2.592924999999999969e+01 8.006029999999999802e+01 1.817220000000000027e+03
2.700000000000000316e-02 1.535559999999999981e-01 2.554585000000000150e+01 8.015070000000000050e+01 1.817514999999999873e+03
2.800000000000000058e-02 1.535694999999999977e-01 2.498955000000000126e+01 7.972294999999999732e+01 1.817639999999999873e+03
2.900000000000000147e-02 1.535670000000000091e-01 2.434685000000000343e+01 7.902785000000000082e+01 1.817644999999999982e+03
3.000000000000000236e-02 1.535564999999999847e-01 2.369165000000000276e+01 7.830774999999999864e+01 1.817565000000000055e+03
3.099999999999999978e-02 1.535434999999999994e-01 2.306765000000000043e+01 7.773170000000000357e+01 1.817474999999999909e+03
3.200000000000000067e-02 1.535325000000000162e-01 2.248275000000000290e+01 7.736299999999999955e+01 1.817384999999999991e+03
3.300000000000000155e-02 1.535250000000000226e-01 2.191499999999999915e+01 7.716255000000001019e+01 1.817329999999999927e+03
3.400000000000000244e-02 1.535195000000000032e-01 2.132649999999999935e+01 7.702145000000000152e+01 1.817284999999999854e+03
3.500000000000000333e-02 1.535119999999999818e-01 2.067994999999999806e+01 7.680899999999999750e+01 1.817224999999999909e+03
3.600000000000000422e-02 1.535009999999999986e-01 1.995369999999999777e+01 7.642124999999998636e+01 1.817139999999999873e+03
3.700000000000000511e-02 1.534824999999999939e-01 1.915204999999999913e+01 7.581815000000000282e+01 1.817005000000000109e+03
3.799999999999999906e-02 1.534584999999999977e-01 1.830749999999999744e+01 7.504150000000001342e+01 1.816820000000000164e+03
3.899999999999999994e-02 1.534300000000000108e-01 1.747579999999999956e+01 7.420859999999998990e+01 1.816599999999999909e+03
4.000000000000000083e-02 1.534019999999999828e-01 1.672459999999999880e+01 7.348640000000000327e+01 1.816380000000000109e+03
4.100000000000000172e-02 1.533789999999999876e-01 1.611824999999999974e+01 7.305084999999999695e+01 1.816195000000000164e+03
4.200000000000000261e-02 1.533680000000000043e-01 1.570439999999999969e+01 7.304519999999999413e+01 1.816099999999999909e+03
4.300000000000000350e-02 1.533720000000000083e-01 1.550304999999999822e+01 7.354534999999999911e+01 1.816119999999999891e+03
4.400000000000000439e-02 1.533935000000000159e-01 1.550290000000000035e+01 7.454149999999999920e+01 1.816279999999999973e+03
4.499999999999999833e-02 1.534314999999999984e-01 1.566300000000000026e+01 7.593874999999999886e+01 1.816559999999999945e+03
4.599999999999999922e-02 1.534820000000000073e-01 1.592010000000000147e+01 7.757390000000000896e+01 1.816954999999999927e+03
4.700000000000000011e-02 1.535400000000000098e-01 1.619930000000000092e+01 7.924369999999998981e+01 1.817405000000000200e+03
4.800000000000000100e-02 1.535984999999999989e-01 1.642429999999999879e+01 8.073765000000000214e+01 1.817865000000000009e+03
4.900000000000000189e-02 1.536510000000000098e-01 1.652769999999999939e+01 8.186815000000001419e+01 1.818279999999999973e+03
5.000000000000000278e-02 1.536905000000000077e-01 1.645790000000000219e+01 8.249369999999998981e+01 1.818605000000000018e+03
5.100000000000000366e-02 1.537129999999999885e-01 1.618280000000000030e+01 8.253149999999999409e+01 1.818784999999999854e+03
5.200000000000000455e-02 1.537149999999999905e-01 1.569020000000000081e+01 8.196025000000000205e+01 1.818809999999999945e+03
5.300000000000000544e-02 1.536950000000000260e-01 1.498590000000000089e+01 8.081315000000000737e+01 1.818664999999999964e+03
5.399999999999999939e-02 1.536544999999999994e-01 1.408960000000000079e+01 7.916509999999999536e+01 1.818349999999999909e+03
5.500000000000000028e-02 1.535949999999999815e-01 1.303049999999999997e+01 7.711724999999999852e+01 1.817894999999999982e+03
5.600000000000000117e-02 1.535205000000000042e-01 1.184330500000000086e+01 7.478159999999999741e+01 1.817309999999999945e+03
5.700000000000000205e-02 1.534335000000000004e-01 1.056439999999999912e+01 7.226900000000000546e+01 1.816619999999999891e+03
5.800000000000000294e-02 1.533380000000000021e-01 9.230420000000000513e+00 6.968110000000000070e+01 1.815875000000000000e+03
5.900000000000000383e-02 1.532384999999999997e-01 7.876829999999999998e+00 6.710745000000000005e+01 1.815079999999999927e+03
6.000000000000000472e-02 1.531369999999999953e-01 6.538024999999999309e+00 6.462524999999999409e+01 1.814275000000000091e+03
6.099999999999999867e-02 1.530374999999999930e-01 5.247915000000000774e+00 6.230259999999999820e+01 1.813490000000000009e+03
6.199999999999999956e-02 1.529429999999999956e-01 4.040082500000000465e+00 6.020125000000000171e+01 1.812735000000000127e+03
6.300000000000000044e-02 1.528559999999999919e-01 2.948170000000000179e+00 5.838020000000000209e+01 1.812039999999999964e+03
6.400000000000000133e-02 1.527799999999999991e-01 2.005534499999999998e+00 5.689695000000000391e+01 1.811425000000000182e+03
6.500000000000000222e-02 1.527160000000000184e-01 1.244475499999999846e+00 5.580774999999999864e+01 1.810904999999999973e+03
6.600000000000000311e-02 1.526669999999999972e-01 6.949524999999998620e-01 5.516575000000000273e+01 1.810509999999999991e+03
6.700000000000000400e-02 1.526355000000000073e-01 3.830449999999999688e-01 5.501774999999999949e+01 1.810250000000000000e+03
6.800000000000000488e-02 1.526239999999999819e-01 3.293714999999999837e-01 5.540084999999999837e+01 1.810139999999999873e+03
6.900000000000000577e-02 1.526330000000000187e-01 5.476545549999999318e-01 5.633879999999999910e+01 1.810195000000000164e+03
7.000000000000000666e-02 1.526644999999999808e-01 1.043685500000000044e+00 5.783890000000000242e+01 1.810420000000000073e+03
7.100000000000000755e-02 1.527175000000000060e-01 1.814796550000000064e+00 5.989074999999999704e+01 1.810825000000000045e+03
7.200000000000000844e-02 1.527930000000000121e-01 2.849920499999999635e+00 6.246564999999999657e+01 1.811404999999999973e+03
7.300000000000000933e-02 1.528904999999999847e-01 4.130160000000000053e+00 6.551855000000000473e+01 1.812154999999999973e+03
7.399999999999999634e-02 1.530070000000000041e-01 5.629825000000000301e+00 6.898980000000000246e+01 1.813059999999999945e+03
7.499999999999999722e-02 1.531409999999999993e-01 7.317755000000000010e+00 7.280940000000001078e+01 1.814110000000000127e+03
7.599999999999999811e-02 1.532894999999999952e-01 9.158889999999999532e+00 7.690024999999999977e+01 1.815279999999999973e+03
7.699999999999999900e-02 1.534510000000000041e-01 1.111578000000000088e+01 8.118250000000000455e+01 1.816549999999999955e+03
7.799999999999999989e-02 1.536210000000000075e-01 1.315017999999999887e+01 8.557720000000000482e+01 1.817900000000000091e+03
7.900000000000000078e-02 1.537975000000000037e-01 1.522439999999999927e+01 9.000964999999999350e+01 1.819305000000000064e+03
8.000000000000000167e-02 1.539774999999999894e-01 1.730284999999999940e+01 9.441225000000000023e+01 1.820740000000000009e+03
8.100000000000000255e-02 1.541575000000000029e-01 1.935304999999999964e+01 9.872724999999999795e+01 1.822184999999999945e+03
8.200000000000000344e-02 1.543360000000000010e-01 2.134660000000000224e+01 1.029071999999999889e+02 1.823619999999999891e+03
8.300000000000000433e-02 1.545104999999999951e-01 2.326004999999999967e+01 1.069180000000000064e+02 1.825030000000000200e+03
8.400000000000000522e-02 1.546804999999999986e-01 2.507540000000000191e+01 1.107379999999999995e+02 1.826394999999999982e+03
8.500000000000000611e-02 1.548430000000000084e-01 2.678020000000000067e+01 1.143584999999999923e+02 1.827720000000000027e+03
8.600000000000000699e-02 1.549995000000000123e-01 2.836759999999999948e+01 1.177824999999999989e+02 1.828994999999999891e+03
8.700000000000000788e-02 1.551494999999999957e-01 2.983585000000000065e+01 1.210225000000000080e+02 1.830215000000000146e+03
8.800000000000000877e-02 1.552925000000000000e-01 3.118775000000000119e+01 1.240994999999999919e+02 1.831380000000000109e+03
8.899999999999999578e-02 1.554289999999999838e-01 3.242945000000000277e+01 1.270409999999999968e+02 1.832505000000000109e+03
8.999999999999999667e-02 1.555604999999999905e-01 3.357005000000000194e+01 1.298764999999999930e+02 1.833590000000000146e+03
9.099999999999999756e-02 1.556885000000000074e-01 3.461979999999999791e+01 1.326355000000000075e+02 1.834640000000000100e+03
9.199999999999999845e-02 1.558124999999999927e-01 3.558944999999999936e+01 1.353455000000000155e+02 1.835659999999999854e+03
9.299999999999999933e-02 1.559349999999999903e-01 3.648930000000000007e+01 1.380294999999999845e+02 1.836664999999999964e+03
9.400000000000000022e-02 1.560555000000000136e-01 3.732819999999999538e+01 1.407035000000000196e+02 1.837659999999999854e+03
9.500000000000000111e-02 1.561755000000000226e-01 3.811305000000000121e+01 1.433774999999999977e+02 1.838650000000000091e+03
9.600000000000000200e-02 1.562950000000000172e-01 3.884834999999999638e+01 1.460529999999999973e+02 1.839630000000000109e+03
9.700000000000000289e-02 1.564134999999999831e-01 3.953610000000000468e+01 1.487249999999999943e+02 1.840614999999999782e+03
9.800000000000000377e-02 1.565314999999999901e-01 4.017549999999999955e+01 1.513799999999999955e+02 1.841585000000000036e+03
9.900000000000000466e-02 1.566489999999999827e-01 4.076380000000000337e+01 1.540010000000000048e+02 1.842554999999999836e+03
1.000000000000000056e-01 1.567645000000000011e-01 4.129569999999999652e+01 1.565639999999999930e+02 1.843509999999999991e+03
1.010000000000000064e-01 1.568775000000000031e-01 4.176469999999999771e+01 1.590440000000000111e+02 1.844440000000000055e+03
1.020000000000000073e-01 1.569869999999999877e-01 4.216284999999999883e+01 1.614130000000000109e+02 1.845344999999999800e+03
1.030000000000000082e-01 1.570914999999999950e-01 4.248185000000000144e+01 1.636440000000000055e+02 1.846215000000000146e+03
1.040000000000000091e-01 1.571909999999999974e-01 4.271309999999999718e+01 1.657110000000000127e+02 1.847039999999999964e+03
1.050000000000000100e-01 1.572834999999999928e-01 4.284850000000000136e+01 1.675885000000000105e+02 1.847809999999999945e+03
1.059999999999999970e-01 1.573684999999999945e-01 4.288080000000000069e+01 1.692565000000000168e+02 1.848519999999999982e+03
1.069999999999999979e-01 1.574450000000000016e-01 4.280405000000000371e+01 1.706974999999999909e+02 1.849160000000000082e+03
1.079999999999999988e-01 1.575124999999999997e-01 4.261364999999999981e+01 1.719000000000000057e+02 1.849724999999999909e+03
1.089999999999999997e-01 1.575705000000000022e-01 4.230705000000000382e+01 1.728559999999999945e+02 1.850215000000000146e+03
1.100000000000000006e-01 1.576180000000000081e-01 4.188370000000000459e+01 1.735614999999999952e+02 1.850615000000000009e+03
1.110000000000000014e-01 1.576555000000000040e-01 4.134515000000000384e+01 1.740199999999999818e+02 1.850934999999999945e+03
1.120000000000000023e-01 1.576830000000000176e-01 4.069530000000000314e+01 1.742394999999999925e+02 1.851174999999999955e+03
1.130000000000000032e-01 1.577004999999999935e-01 3.993999999999999773e+01 1.742300000000000182e+02 1.851325000000000045e+03
1.140000000000000041e-01 1.577085000000000015e-01 3.908744999999999692e+01 1.740095000000000027e+02 1.851404999999999973e+03
1.150000000000000050e-01 1.577075000000000005e-01 3.814740000000000464e+01 1.735969999999999800e+02 1.851404999999999973e+03
1.160000000000000059e-01 1.576980000000000048e-01 3.713139999999999930e+01 1.730165000000000077e+02 1.851335000000000036e+03
1.170000000000000068e-01 1.576815000000000022e-01 3.605214999999999748e+01 1.722920000000000016e+02 1.851210000000000036e+03
1.180000000000000077e-01 1.576585000000000070e-01 3.492320000000000135e+01 1.714509999999999934e+02 1.851029999999999973e+03
1.190000000000000085e-01 1.576305000000000067e-01 3.375849999999999795e+01 1.705204999999999984e+02 1.850799999999999955e+03
1.200000000000000094e-01 1.575975000000000015e-01 3.257215000000000060e+01 1.695269999999999868e+02 1.850534999999999854e+03
1.209999999999999964e-01 1.575614999999999932e-01 3.137770000000000081e+01 1.684959999999999809e+02 1.850244999999999891e+03
1.219999999999999973e-01 1.575229999999999964e-01 3.018799999999999883e+01 1.674505000000000052e+02 1.849929999999999836e+03
1.229999999999999982e-01 1.574834999999999985e-01 2.901469999999999771e+01 1.664114999999999895e+02 1.849599999999999909e+03
1.239999999999999991e-01 1.574429999999999996e-01 2.786799999999999855e+01 1.653960000000000150e+02 1.849275000000000091e+03
1.250000000000000000e-01 1.574030000000000151e-01 2.675645000000000095e+01 1.644180000000000064e+02 1.848944999999999936e+03
1.260000000000000009e-01 1.573634999999999895e-01 2.568674999999999997e+01 1.634870000000000232e+02 1.848619999999999891e+03
1.270000000000000018e-01 1.573255000000000070e-01 2.466355000000000075e+01 1.626089999999999804e+02 1.848300000000000182e+03
1.280000000000000027e-01 1.572890000000000121e-01 2.368965000000000032e+01 1.617860000000000014e+02 1.847994999999999891e+03
1.290000000000000036e-01 1.572545000000000193e-01 2.276575000000000060e+01 1.610155000000000030e+02 1.847710000000000036e+03
1.300000000000000044e-01 1.572215000000000140e-01 2.189070000000000249e+01 1.602920000000000016e+02 1.847430000000000064e+03
1.310000000000000053e-01 1.571899999999999964e-01 2.106174999999999997e+01 1.596075000000000159e+02 1.847164999999999964e+03
1.320000000000000062e-01 1.571595000000000075e-01 2.027439999999999998e+01 1.589509999999999934e+02 1.846909999999999854e+03
1.330000000000000071e-01 1.571305000000000063e-01 1.952320000000000277e+01 1.583085000000000093e+02 1.846664999999999964e+03
1.340000000000000080e-01 1.571015000000000050e-01 1.880154999999999887e+01 1.576655000000000086e+02 1.846429999999999836e+03
1.350000000000000089e-01 1.570730000000000182e-01 1.810219999999999985e+01 1.570074999999999932e+02 1.846179999999999836e+03
1.360000000000000098e-01 1.570429999999999882e-01 1.741764999999999830e+01 1.563185000000000002e+02 1.845934999999999945e+03
1.370000000000000107e-01 1.570124999999999993e-01 1.674050000000000082e+01 1.555844999999999914e+02 1.845680000000000064e+03
1.380000000000000115e-01 1.569800000000000084e-01 1.606354999999999933e+01 1.547925000000000182e+02 1.845410000000000082e+03
1.390000000000000124e-01 1.569455000000000156e-01 1.538034999999999997e+01 1.539300000000000068e+02 1.845125000000000000e+03
1.400000000000000133e-01 1.569079999999999919e-01 1.468530000000000157e+01 1.529890000000000043e+02 1.844815000000000055e+03
1.410000000000000142e-01 1.568674999999999931e-01 1.397415000000000163e+01 1.519635000000000105e+02 1.844480000000000018e+03
1.420000000000000151e-01 1.568240000000000189e-01 1.324390000000000001e+01 1.508494999999999777e+02 1.844125000000000000e+03
1.430000000000000160e-01 1.567769999999999997e-01 1.249314999999999998e+01 1.496485000000000127e+02 1.843740000000000009e+03
1.440000000000000169e-01 1.567264999999999908e-01 1.172203499999999998e+01 1.483644999999999925e+02 1.843320000000000164e+03
1.450000000000000178e-01 1.566724999999999923e-01 1.093247500000000016e+01 1.470049999999999955e+02 1.842884999999999991e+03
1.459999999999999909e-01 1.566160000000000052e-01 1.012780000000000058e+01 1.455799999999999841e+02 1.842420000000000073e+03
1.469999999999999918e-01 1.565564999999999873e-01 9.312905000000000655e+00 1.441034999999999968e+02 1.841929999999999836e+03
1.479999999999999927e-01 1.564949999999999952e-01 8.494054999999999467e+00 1.425914999999999964e+02 1.841429999999999836e+03
1.489999999999999936e-01 1.564315000000000011e-01 7.678435000000000343e+00 1.410620000000000118e+02 1.840914999999999964e+03
1.499999999999999944e-01 1.563670000000000060e-01 6.874164999999999637e+00 1.395344999999999800e+02 1.840389999999999873e+03
1.509999999999999953e-01 1.563029999999999975e-01 6.089735000000000120e+00 1.380285000000000082e+02 1.839860000000000127e+03
1.519999999999999962e-01 1.562395000000000034e-01 5.333835000000000548e+00 1.365629999999999882e+02 1.839340000000000146e+03
1.529999999999999971e-01 1.561774999999999969e-01 4.614950000000000330e+00 1.351569999999999823e+02 1.838829999999999927e+03
1.539999999999999980e-01 1.561170000000000058e-01 3.941075000000000106e+00 1.338285000000000196e+02 1.838340000000000146e+03
1.549999999999999989e-01 1.560600000000000043e-01 3.319374999999999964e+00 1.325910000000000082e+02 1.837869999999999891e+03
1.559999999999999998e-01 1.560060000000000058e-01 2.755950999999999596e+00 1.314569999999999936e+02 1.837425000000000182e+03
1.570000000000000007e-01 1.559564999999999979e-01 2.255640000000000089e+00 1.304359999999999786e+02 1.837014999999999873e+03
1.580000000000000016e-01 1.559105000000000074e-01 1.821838000000000068e+00 1.295339999999999918e+02 1.836634999999999991e+03
1.590000000000000024e-01 1.558700000000000085e-01 1.456413499999999805e+00 1.287535000000000025e+02 1.836299999999999955e+03
