# t [s], A [cm^2], U [cm/s], P [cPa], c [cm/s]
1.000000000000000021e-03 5.832264999999999810e-01 4.613050000000000483e-03 1.080399999999999920e+02 1.452444999999999936e+03
2.000000000000000042e-03 5.832165000000000266e-01 -1.710840500000000101e-03 1.080194999999999936e+02 1.452434999999999945e+03
3.000000000000000062e-03 5.832549999999999679e-01 6.032354999999999662e-02 1.080775000000000006e+02 1.452454999999999927e+03
4.000000000000000083e-03 5.833099999999999952e-01 1.540544500000000094e-01 1.081870000000000118e+02 1.452485000000000127e+03
5.000000000000000104e-03 5.833120000000000527e-01 1.687845000000000040e-01 1.081989999999999981e+02 1.452494999999999891e+03
6.000000000000000125e-03 5.832619999999999472e-01 9.625999999999998447e-02 1.080689999999999884e+02 1.452465000000000146e+03
7.000000000000000146e-03 5.832079999999999487e-01 1.262000000000002009e-02 1.078659999999999997e+02 1.452414999999999964e+03
8.000000000000000167e-03 5.831494999999999873e-01 -8.433699999999999530e-02 1.076040000000000134e+02 1.452349999999999909e+03
9.000000000000001055e-03 5.830505000000000271e-01 -2.609850000000000225e-01 1.072094999999999914e+02 1.452259999999999991e+03
1.000000000000000194e-02 5.828995000000000148e-01 -5.371699999999999253e-01 1.066355000000000075e+02 1.452119999999999891e+03
1.099999999999999936e-02 5.826945000000000041e-01 -9.100650000000000128e-01 1.058559999999999945e+02 1.451925000000000182e+03
1.200000000000000025e-02 5.824205000000000076e-01 -1.392190000000000261e+00 1.048265000000000100e+02 1.451674999999999955e+03
1.300000000000000114e-02 5.820680000000000298e-01 -1.984260000000000357e+00 1.035116000000000014e+02 1.451340000000000146e+03
1.400000000000000203e-02 5.816550000000000331e-01 -2.634605000000000086e+00 1.019368499999999926e+02 1.450925000000000182e+03
1.499999999999999944e-02 5.812260000000000204e-01 -3.239644999999999886e+00 1.002053499999999957e+02 1.450465000000000146e+03
1.600000000000000033e-02 5.808309999999999862e-01 -3.684509999999999508e+00 9.846139999999999759e+01 1.449974999999999909e+03
1.700000000000000122e-02 5.805004999999999749e-01 -3.887679999999999580e+00 9.683329999999999416e+01 1.449500000000000000e+03
1.800000000000000211e-02 5.802399999999999780e-01 -3.823457499999999953e+00 9.539484999999999104e+01 1.449054999999999836e+03
1.900000000000000300e-02 5.800299999999999345e-01 -3.519515750000000054e+00 9.415109999999999957e+01 1.448644999999999982e+03
2.000000000000000042e-02 5.798385000000000344e-01 -3.038963999999999999e+00 9.305010000000000048e+01 1.448264999999999873e+03
2.100000000000000130e-02 5.796324999999999950e-01 -2.456696999999999687e+00 9.200775000000000148e+01 1.447900000000000091e+03
2.200000000000000219e-02 5.793865000000000265e-01 -1.837104999999999766e+00 9.093774999999999409e+01 1.447525000000000091e+03
2.299999999999999961e-02 5.790899999999999936e-01 -1.218504999999999949e+00 8.977799999999999159e+01 1.447134999999999991e+03
2.400000000000000050e-02 5.787484999999999991e-01 -6.082600000000000229e-01 8.850569999999999027e+01 1.446714999999999918e+03
2.500000000000000139e-02 5.783785000000000176e-01 1.051499999999983004e-02 8.713779999999999859e+01 1.446269999999999982e+03
2.600000000000000228e-02 5.780004999999999171e-01 6.642699999999996940e-01 8.571719999999999118e+01 1.445804999999999836e+03
2.700000000000000316e-02 5.776299999999999768e-01 1.372624999999999762e+00 8.429224999999999568e+01 1.445340000000000146e+03
2.800000000000000058e-02 5.772740000000000649e-01 2.136210000000000164e+00 8.289735000000000298e+01 1.444884999999999991e+03
2.900000000000000147e-02 5.769269999999999676e-01 2.931599999999999540e+00 8.153985000000000127e+01 1.444434999999999945e+03
3.000000000000000236e-02 5.765759999999999774e-01 3.713430000000000675e+00 8.019604999999999961e+01 1.443985000000000127e+03
3.099999999999999978e-02 5.761985000000000579e-01 4.422139999999999738e+00 7.881584999999999752e+01 1.443525000000000091e+03
3.200000000000000067e-02 5.757744999999999669e-01 4.995004999999999917e+00 7.733385000000001241e+01 1.443049999999999955e+03
3.300000000000000155e-02 5.752869999999999928e-01 5.378370000000000317e+00 7.568495000000000061e+01 1.442534999999999854e+03
3.400000000000000244e-02 5.747265000000000290e-01 5.538319999999999688e+00 7.382065000000000055e+01 1.441970000000000027e+03
3.500000000000000333e-02 5.740965000000000096e-01 5.467629999999999768e+00 7.172249999999999659e+01 1.441349999999999909e+03
3.600000000000000422e-02 5.734110000000000040e-01 5.187325000000000408e+00 6.940960000000001173e+01 1.440674999999999955e+03
3.700000000000000511e-02 5.726949999999999541e-01 4.742625000000000313e+00 6.693864999999999554e+01 1.439960000000000036e+03
3.799999999999999906e-02 5.719775000000000276e-01 4.194599999999999440e+00 6.439634999999999820e+01 1.439220000000000027e+03
3.899999999999999994e-02 5.712900000000000755e-01 3.610454999999999970e+00 6.188765000000000072e+01 1.438485000000000127e+03
4.000000000000000083e-02 5.706615000000000437e-01 3.054205000000000503e+00 5.952209999999999468e+01 1.437780000000000200e+03
4.100000000000000172e-02 5.701154999999999973e-01 2.580075000000000340e+00 5.740200000000000102e+01 1.437130000000000109e+03
4.200000000000000261e-02 5.696695000000000508e-01 2.228990000000000027e+00 5.561270000000000380e+01 1.436559999999999945e+03
4.300000000000000350e-02 5.693325000000000191e-01 2.027699999999999836e+00 5.421784999999999854e+01 1.436095000000000027e+03
4.400000000000000439e-02 5.691110000000000335e-01 1.990480000000000027e+00 5.325769999999999982e+01 1.435750000000000000e+03
4.499999999999999833e-02 5.690040000000000653e-01 2.122054499999999955e+00 5.275060000000000571e+01 1.435525000000000091e+03
4.599999999999999922e-02 5.690085000000000282e-01 2.421154999999999724e+00 5.269689999999999941e+01 1.435429999999999836e+03
4.700000000000000011e-02 5.691209999999999880e-01 2.883734999999999715e+00 5.308424999999999727e+01 1.435464999999999918e+03
4.800000000000000100e-02 5.693345000000000766e-01 3.505365000000000286e+00 5.389220000000000255e+01 1.435619999999999891e+03
4.900000000000000189e-02 5.696444999999999981e-01 4.282311499999999604e+00 5.509645000000000437e+01 1.435900000000000091e+03
5.000000000000000278e-02 5.700460000000000527e-01 5.211403500000000300e+00 5.667109999999999559e+01 1.436289999999999964e+03
5.100000000000000366e-02 5.705335000000000267e-01 6.288741000000000803e+00 5.858944999999999936e+01 1.436789999999999964e+03
5.200000000000000455e-02 5.711005000000000109e-01 7.508417500000000189e+00 6.082359999999999900e+01 1.437390000000000100e+03
5.300000000000000544e-02 5.717389999999999972e-01 8.860495000000000232e+00 6.334305000000000518e+01 1.438075000000000045e+03
5.399999999999999939e-02 5.724415000000000475e-01 1.033046000000000042e+01 6.611364999999999270e+01 1.438845000000000027e+03
5.500000000000000028e-02 5.731964999999999977e-01 1.189870499999999964e+01 6.909685000000000343e+01 1.439684999999999945e+03
5.600000000000000117e-02 5.739914999999999878e-01 1.354127499999999884e+01 7.224965000000000259e+01 1.440585000000000036e+03
5.700000000000000205e-02 5.748145000000000060e-01 1.523094499999999840e+01 7.552575000000000216e+01 1.441525000000000091e+03
5.800000000000000294e-02 5.756525000000000114e-01 1.693905499999999975e+01 7.887720000000000198e+01 1.442505000000000109e+03
5.900000000000000383e-02 5.764934999999999921e-01 1.863727000000000089e+01 8.225659999999999172e+01 1.443500000000000000e+03
6.000000000000000472e-02 5.773260000000000058e-01 2.029919999999999902e+01 8.561939999999999884e+01 1.444509999999999991e+03
6.099999999999999867e-02 5.781414999999999749e-01 2.190170000000000172e+01 8.892624999999999602e+01 1.445505000000000109e+03
6.199999999999999956e-02 5.789320000000000022e-01 2.342620000000000147e+01 9.214455000000000950e+01 1.446490000000000009e+03
6.300000000000000044e-02 5.796934999999999727e-01 2.485864999999999725e+01 9.524909999999999854e+01 1.447454999999999927e+03
6.400000000000000133e-02 5.804234999999999811e-01 2.618984999999999985e+01 9.822390000000000043e+01 1.448384999999999991e+03
6.500000000000000222e-02 5.811200000000000809e-01 2.741514999999999702e+01 1.010597999999999956e+02 1.449284999999999854e+03
6.600000000000000311e-02 5.817854999999999555e-01 2.853370000000000317e+01 1.037569499999999891e+02 1.450144999999999982e+03
6.700000000000000400e-02 5.824209999999999665e-01 2.954784999999999684e+01 1.063204499999999939e+02 1.450970000000000027e+03
6.800000000000000488e-02 5.830300000000000482e-01 3.046240000000000236e+01 1.087599999999999909e+02 1.451760000000000218e+03
6.900000000000000577e-02 5.836155000000000648e-01 3.128415000000000035e+01 1.110905000000000058e+02 1.452519999999999982e+03
7.000000000000000666e-02 5.841830000000000078e-01 3.202085000000000292e+01 1.133280000000000030e+02 1.453255000000000109e+03
7.100000000000000755e-02 5.847355000000000746e-01 3.268110000000000070e+01 1.154890000000000043e+02 1.453965000000000146e+03
7.200000000000000844e-02 5.852770000000000472e-01 3.327340000000000231e+01 1.175905000000000058e+02 1.454654999999999973e+03
7.300000000000000933e-02 5.858110000000000817e-01 3.380594999999999573e+01 1.196490000000000009e+02 1.455325000000000045e+03
7.399999999999999634e-02 5.863405000000000422e-01 3.428605000000000302e+01 1.216754999999999995e+02 1.455990000000000009e+03
7.499999999999999722e-02 5.868659999999999988e-01 3.471965000000000146e+01 1.236804999999999950e+02 1.456639999999999873e+03
7.599999999999999811e-02 5.873895000000000088e-01 3.511095000000000255e+01 1.256684999999999945e+02 1.457289999999999964e+03
7.699999999999999900e-02 5.879099999999999326e-01 3.546235000000000070e+01 1.276415000000000077e+02 1.457934999999999945e+03
7.799999999999999989e-02 5.884255000000000457e-01 3.577410000000000423e+01 1.295955000000000155e+02 1.458559999999999945e+03
7.900000000000000078e-02 5.889340000000000686e-01 3.604460000000000264e+01 1.315219999999999914e+02 1.459184999999999945e+03
8.000000000000000167e-02 5.894314999999999971e-01 3.627035000000000053e+01 1.334095000000000084e+02 1.459805000000000064e+03
8.100000000000000255e-02 5.899134999999999796e-01 3.644669999999999987e+01 1.352425000000000068e+02 1.460400000000000091e+03
8.200000000000000344e-02 5.903760000000000119e-01 3.656799999999999784e+01 1.370040000000000191e+02 1.460974999999999909e+03
8.300000000000000433e-02 5.908134999999999915e-01 3.662810000000000343e+01 1.386740000000000066e+02 1.461525000000000091e+03
8.400000000000000522e-02 5.912215000000000664e-01 3.662095000000000056e+01 1.402350000000000136e+02 1.462045000000000073e+03
8.500000000000000611e-02 5.915955000000000519e-01 3.654115000000000180e+01 1.416690000000000111e+02 1.462525000000000091e+03
8.600000000000000699e-02 5.919324999999999726e-01 3.638400000000000034e+01 1.429600000000000080e+02 1.462970000000000027e+03
8.700000000000000788e-02 5.922279999999999767e-01 3.614645000000000152e+01 1.440944999999999823e+02 1.463365000000000009e+03
8.800000000000000877e-02 5.924814999999999943e-01 3.582650000000000290e+01 1.450629999999999882e+02 1.463710000000000036e+03
8.899999999999999578e-02 5.926909999999999679e-01 3.542410000000000281e+01 1.458580000000000041e+02 1.464009999999999991e+03
8.999999999999999667e-02 5.928560000000000496e-01 3.494064999999999799e+01 1.464784999999999968e+02 1.464244999999999891e+03
9.099999999999999756e-02 5.929769999999999763e-01 3.437935000000000230e+01 1.469239999999999782e+02 1.464440000000000055e+03
9.199999999999999845e-02 5.930564999999999864e-01 3.374495000000000289e+01 1.472010000000000218e+02 1.464575000000000045e+03
9.299999999999999933e-02 5.930954999999999977e-01 3.304354999999999620e+01 1.473170000000000073e+02 1.464660000000000082e+03
9.400000000000000022e-02 5.930980000000000141e-01 3.228269999999999840e+01 1.472839999999999918e+02 1.464700000000000045e+03
9.500000000000000111e-02 5.930675000000000807e-01 3.147100000000000364e+01 1.471160000000000139e+02 1.464690000000000055e+03
9.600000000000000200e-02 5.930075000000000207e-01 3.061769999999999925e+01 1.468279999999999745e+02 1.464644999999999982e+03
9.700000000000000289e-02 5.929225000000000190e-01 2.973284999999999911e+01 1.464395000000000095e+02 1.464565000000000055e+03
9.800000000000000377e-02 5.928180000000000671e-01 2.882675000000000054e+01 1.459675000000000011e+02 1.464449999999999818e+03
9.900000000000000466e-02 5.926979999999999471e-01 2.790959999999999752e+01 1.454314999999999998e+02 1.464315000000000055e+03
1.000000000000000056e-01 5.925669999999999549e-01 2.699149999999999849e+01 1.448505000000000109e+02 1.464154999999999973e+03
1.010000000000000064e-01 5.924295000000000533e-01 2.608184999999999576e+01 1.442420000000000186e+02 1.463985000000000127e+03
1.020000000000000073e-01 5.922895000000000243e-01 2.518919999999999959e+01 1.436225000000000023e+02 1.463809999999999945e+03
1.030000000000000082e-01 5.921499999999999542e-01 2.432090000000000174e+01 1.430074999999999932e+02 1.463630000000000109e+03
1.040000000000000091e-01 5.920149999999999579e-01 2.348304999999999865e+01 1.424095000000000084e+02 1.463450000000000045e+03
1.050000000000000100e-01 5.918860000000000232e-01 2.268015000000000114e+01 1.418385000000000105e+02 1.463275000000000091e+03
1.059999999999999970e-01 5.917645000000000266e-01 2.191514999999999702e+01 1.413020000000000209e+02 1.463105000000000018e+03
1.069999999999999979e-01 5.916514999999999969e-01 2.118914999999999793e+01 1.408045000000000186e+02 1.462944999999999936e+03
1.079999999999999988e-01 5.915475000000000039e-01 2.050175000000000125e+01 1.403480000000000132e+02 1.462795000000000073e+03
1.089999999999999997e-01 5.914519999999999778e-01 1.985089999999999932e+01 1.399314999999999998e+02 1.462654999999999973e+03
1.100000000000000006e-01 5.913630000000000830e-01 1.923320000000000007e+01 1.395514999999999759e+02 1.462525000000000091e+03
1.110000000000000014e-01 5.912794999999999579e-01 1.864414999999999978e+01 1.392010000000000218e+02 1.462404999999999973e+03
1.120000000000000023e-01 5.911994999999999889e-01 1.807819999999999894e+01 1.388745000000000118e+02 1.462284999999999854e+03
1.130000000000000032e-01 5.911214999999999664e-01 1.752915000000000134e+01 1.385615000000000236e+02 1.462180000000000064e+03
1.140000000000000041e-01 5.910419999999999563e-01 1.699054999999999893e+01 1.382535000000000025e+02 1.462075000000000045e+03
1.150000000000000050e-01 5.909590000000000121e-01 1.645584999999999809e+01 1.379404999999999859e+02 1.461969999999999800e+03
1.160000000000000059e-01 5.908709999999999241e-01 1.591864999999999952e+01 1.376125000000000114e+02 1.461860000000000127e+03
1.170000000000000068e-01 5.907749999999999391e-01 1.537300000000000111e+01 1.372609999999999957e+02 1.461744999999999891e+03
1.180000000000000077e-01 5.906694999999999585e-01 1.481384999999999863e+01 1.368774999999999977e+02 1.461625000000000000e+03
1.190000000000000085e-01 5.905529999999999946e-01 1.423675000000000068e+01 1.364565000000000055e+02 1.461494999999999891e+03
1.200000000000000094e-01 5.904260000000000064e-01 1.363853999999999900e+01 1.359920000000000186e+02 1.461349999999999909e+03
1.209999999999999964e-01 5.902865000000000473e-01 1.301727999999999952e+01 1.354819999999999993e+02 1.461200000000000045e+03
1.219999999999999973e-01 5.901354999999999240e-01 1.237226500000000051e+01 1.349259999999999877e+02 1.461030000000000200e+03
1.229999999999999982e-01 5.899730000000000807e-01 1.170405500000000032e+01 1.343254999999999768e+02 1.460849999999999909e+03
1.239999999999999991e-01 5.898010000000000197e-01 1.101467500000000044e+01 1.336845000000000141e+02 1.460660000000000082e+03
1.250000000000000000e-01 5.896209999999999507e-01 1.030724499999999999e+01 1.330074999999999932e+02 1.460460000000000036e+03
1.260000000000000009e-01 5.894355000000000011e-01 9.586180000000000589e+00 1.323034999999999854e+02 1.460250000000000000e+03
1.270000000000000018e-01 5.892465000000000064e-01 8.856930000000000192e+00 1.315810000000000173e+02 1.460029999999999973e+03
1.280000000000000027e-01 5.890570000000000528e-01 8.125574999999999548e+00 1.308505000000000109e+02 1.459809999999999945e+03
1.290000000000000036e-01 5.888704999999999634e-01 7.399010000000000531e+00 1.301240000000000236e+02 1.459594999999999800e+03
1.300000000000000044e-01 5.886890000000000178e-01 6.684420000000000250e+00 1.294124999999999943e+02 1.459369999999999891e+03
1.310000000000000053e-01 5.885160000000000391e-01 5.989054999999999573e+00 1.287284999999999968e+02 1.459164999999999964e+03
1.320000000000000062e-01 5.883549999999999613e-01 5.320095000000000240e+00 1.280834999999999866e+02 1.458954999999999927e+03
1.330000000000000071e-01 5.882085000000000230e-01 4.684289999999999843e+00 1.274885000000000019e+02 1.458764999999999873e+03
1.340000000000000080e-01 5.880779999999999896e-01 4.087735000000000340e+00 1.269534999999999911e+02 1.458594999999999800e+03
1.350000000000000089e-01 5.879655000000000298e-01 3.535674999999999901e+00 1.264855000000000018e+02 1.458440000000000055e+03
1.360000000000000098e-01 5.878725000000000200e-01 3.032329999999999970e+00 1.260914999999999964e+02 1.458304999999999836e+03
1.370000000000000107e-01 5.878005000000000591e-01 2.580734999999999779e+00 1.257754999999999939e+02 1.458190000000000055e+03
1.380000000000000115e-01 5.877485000000000070e-01 2.182665000000000077e+00 1.255399999999999920e+02 1.458105000000000018e+03
1.390000000000000124e-01 5.877164999999999750e-01 1.838595000000000201e+00 1.253834999999999980e+02 1.458035000000000082e+03
1.400000000000000133e-01 5.877045000000000741e-01 1.547735000000000083e+00 1.253044999999999902e+02 1.457990000000000009e+03
1.410000000000000142e-01 5.877099999999999547e-01 1.308075000000000099e+00 1.252980000000000018e+02 1.457970000000000027e+03
1.420000000000000151e-01 5.877314999999999623e-01 1.116519999999999957e+00 1.253574999999999875e+02 1.457970000000000027e+03
1.430000000000000160e-01 5.877664999999999695e-01 9.690255000000000951e-01 1.254749999999999943e+02 1.457980000000000018e+03
1.440000000000000169e-01 5.878130000000000299e-01 8.607854999999999812e-01 1.256409999999999911e+02 1.458014999999999873e+03
1.450000000000000178e-01 5.878679999999999461e-01 7.864195000000000491e-01 1.258460000000000036e+02 1.458059999999999945e+03
1.459999999999999909e-01 5.879294999999999938e-01 7.402026999999999912e-01 1.260790000000000077e+02 1.458115000000000009e+03
1.469999999999999918e-01 5.879935000000000578e-01 7.162334999999999674e-01 1.263290000000000077e+02 1.458179999999999836e+03
1.479999999999999927e-01 5.880585000000000395e-01 7.086599999999999566e-01 1.265859999999999985e+02 1.458244999999999891e+03
1.489999999999999936e-01 5.881220000000000336e-01 7.118330000000000490e-01 1.268404999999999916e+02 1.458320000000000164e+03
1.499999999999999944e-01 5.881815000000000238e-01 7.204822500000001018e-01 1.270835000000000008e+02 1.458384999999999991e+03
1.509999999999999953e-01 5.882355000000000222e-01 7.298178999999999084e-01 1.273064999999999998e+02 1.458450000000000045e+03
1.519999999999999962e-01 5.882825000000000415e-01 7.356340000000000101e-01 1.275035000000000025e+02 1.458505000000000109e+03
1.529999999999999971e-01 5.883209999999999829e-01 7.343925000000000036e-01 1.276689999999999969e+02 1.458559999999999945e+03
1.539999999999999980e-01 5.883510000000000684e-01 7.232514999999999361e-01 1.277990000000000066e+02 1.458599999999999909e+03
1.549999999999999989e-01 5.883709999999999773e-01 7.000819999999999821e-01 1.278914999999999935e+02 1.458630000000000109e+03
1.559999999999999998e-01 5.883815000000000017e-01 6.634495000000000253e-01 1.279454999999999956e+02 1.458654999999999973e+03
1.570000000000000007e-01 5.883819999999999606e-01 6.125970000000000582e-01 1.279599999999999937e+02 1.458664999999999964e+03
1.580000000000000016e-01 5.883739999999999526e-01 5.473879999999999857e-01 1.279369999999999976e+02 1.458664999999999964e+03
1.590000000000000024e-01 5.883580000000000476e-01 4.682439999999999936e-01 1.278785000000000025e+02 1.458654999999999973e+03
