# t [s], A [cm^2], U [cm/s], P [cPa], c [cm/s]
1.000000000000000021e-03 2.156600000000000183e-01 1.702055000000000096e-01 8.878940000000000055e+01 2.002269999999999982e+03
2.000000000000000042e-03 2.156204999999999927e-01 1.411820000000000075e+00 8.625220000000000198e+01 2.002019999999999982e+03
3.000000000000000062e-03 2.154929999999999901e-01 2.992454500000000017e+00 8.267940000000000111e+01 2.001259999999999991e+03
4.000000000000000083e-03 2.153074999999999850e-01 4.779518000000000377e+00 7.855514999999999759e+01 2.000164999999999964e+03
5.000000000000000104e-03 2.150994999999999990e-01 6.724280000000000257e+00 7.461230000000000473e+01 1.998949999999999818e+03
6.000000000000000125e-03 2.148930000000000007e-01 8.718505000000000393e+00 7.126099999999999568e+01 1.997755000000000109e+03
7.000000000000000146e-03 2.146984999999999866e-01 1.058573999999999948e+01 6.846395000000001119e+01 1.996650000000000091e+03
8.000000000000000167e-03 2.145174999999999998e-01 1.219411500000000004e+01 6.599324999999998909e+01 1.995639999999999873e+03
9.000000000000001055e-03 2.143545000000000034e-01 1.353281499999999937e+01 6.378790000000000049e+01 1.994744999999999891e+03
1.000000000000000194e-02 2.142135000000000011e-01 1.463874999999999993e+01 6.192539999999999623e+01 1.993974999999999909e+03
1.099999999999999936e-02 2.140964999999999951e-01 1.553454999999999941e+01 6.044129999999999825e+01 1.993349999999999909e+03
1.200000000000000025e-02 2.140029999999999988e-01 1.623414999999999964e+01 5.930925000000000580e+01 1.992855000000000018e+03
1.300000000000000114e-02 2.139300000000000090e-01 1.674739999999999895e+01 5.847190000000000509e+01 1.992474999999999909e+03
1.400000000000000203e-02 2.138730000000000075e-01 1.707570000000000121e+01 5.783589999999999520e+01 1.992184999999999945e+03
1.499999999999999944e-02 2.138279999999999903e-01 1.723109999999999786e+01 5.730774999999999864e+01 1.991960000000000036e+03
1.600000000000000033e-02 2.137924999999999964e-01 1.726980000000000004e+01 5.689010000000000389e+01 1.991789999999999964e+03
1.700000000000000122e-02 2.137719999999999898e-01 1.729804999999999993e+01 5.674299999999999500e+01 1.991700000000000045e+03
1.800000000000000211e-02 2.137729999999999908e-01 1.743545000000000300e+01 5.712539999999999907e+01 1.991720000000000027e+03
1.900000000000000300e-02 2.138054999999999817e-01 1.775934999999999775e+01 5.824869999999999948e+01 1.991900000000000091e+03
2.000000000000000042e-02 2.138709999999999778e-01 1.826789999999999736e+01 6.013889999999999958e+01 1.992255000000000109e+03
2.100000000000000130e-02 2.139650000000000163e-01 1.887964999999999804e+01 6.258825000000000216e+01 1.992764999999999873e+03
2.200000000000000219e-02 2.140750000000000153e-01 1.946620000000000061e+01 6.521305000000000973e+01 1.993369999999999891e+03
2.299999999999999961e-02 2.141855000000000009e-01 1.989815000000000111e+01 6.757835000000000036e+01 1.993985000000000127e+03
2.400000000000000050e-02 2.142804999999999849e-01 2.008599999999999852e+01 6.933234999999999104e+01 1.994525000000000091e+03
2.500000000000000139e-02 2.143510000000000137e-01 2.000225000000000009e+01 7.029984999999999218e+01 1.994924999999999955e+03
2.600000000000000228e-02 2.143919999999999992e-01 1.968025000000000091e+01 7.050934999999999775e+01 1.995174999999999955e+03
2.700000000000000316e-02 2.144070000000000142e-01 1.919384999999999764e+01 7.015194999999999936e+01 1.995275000000000091e+03
2.800000000000000058e-02 2.144034999999999969e-01 1.862709999999999866e+01 6.949569999999999936e+01 1.995269999999999982e+03
2.900000000000000147e-02 2.143895000000000106e-01 1.804610000000000269e+01 6.878919999999999391e+01 1.995200000000000045e+03
3.000000000000000236e-02 2.143729999999999802e-01 1.748150000000000048e+01 6.818899999999999295e+01 1.995110000000000127e+03
3.099999999999999978e-02 2.143570000000000197e-01 1.692654999999999887e+01 6.772890000000001010e+01 1.995019999999999982e+03
3.200000000000000067e-02 2.143410000000000037e-01 1.634720000000000084e+01 6.733535000000000537e+01 1.994934999999999945e+03
3.300000000000000155e-02 2.143220000000000125e-01 1.570114999999999839e+01 6.687524999999999409e+01 1.994835000000000036e+03
3.400000000000000244e-02 2.142959999999999865e-01 1.495755000000000123e+01 6.621965000000000146e+01 1.994695000000000164e+03
3.500000000000000333e-02 2.142600000000000060e-01 1.411309999999999931e+01 6.530070000000000618e+01 1.994505000000000109e+03
3.600000000000000422e-02 2.142140000000000155e-01 1.319909999999999961e+01 6.414744999999999209e+01 1.994259999999999991e+03
3.700000000000000511e-02 2.141609999999999903e-01 1.227740000000000009e+01 6.288989999999999725e+01 1.993970000000000027e+03
3.799999999999999906e-02 2.141080000000000205e-01 1.142789999999999928e+01 6.173114999999999952e+01 1.993684999999999945e+03
3.899999999999999994e-02 2.140634999999999899e-01 1.072970499999999916e+01 6.089645000000000152e+01 1.993434999999999945e+03
4.000000000000000083e-02 2.140350000000000030e-01 1.024273999999999951e+01 6.057564999999999600e+01 1.993275000000000091e+03
4.100000000000000172e-02 2.140294999999999837e-01 9.994134999999999991e+00 6.087434999999999974e+01 1.993230000000000018e+03
4.200000000000000261e-02 2.140500000000000180e-01 9.973140000000000782e+00 6.178804999999999836e+01 1.993325000000000045e+03
4.300000000000000350e-02 2.140934999999999921e-01 1.013384999999999891e+01 6.320230000000000103e+01 1.993550000000000182e+03
4.400000000000000439e-02 2.141554999999999986e-01 1.040522999999999954e+01 6.491704999999998904e+01 1.993880000000000109e+03
4.499999999999999833e-02 2.142270000000000008e-01 1.070443000000000033e+01 6.668574999999999875e+01 1.994259999999999991e+03
4.599999999999999922e-02 2.142985000000000029e-01 1.095029999999999859e+01 6.825929999999999609e+01 1.994650000000000091e+03
4.700000000000000011e-02 2.143605000000000094e-01 1.107435000000000080e+01 6.942504999999999882e+01 1.994994999999999891e+03
4.800000000000000100e-02 2.144044999999999979e-01 1.102824999999999989e+01 7.003319999999999368e+01 1.995240000000000009e+03
4.900000000000000189e-02 2.144254999999999911e-01 1.078614999999999924e+01 7.000934999999999775e+01 1.995365000000000009e+03
5.000000000000000278e-02 2.144205000000000139e-01 1.034298000000000073e+01 6.935140000000001237e+01 1.995344999999999800e+03
5.100000000000000366e-02 2.143889999999999962e-01 9.710670000000000357e+00 6.811615000000000464e+01 1.995184999999999945e+03
5.200000000000000455e-02 2.143329999999999957e-01 8.912184999999999135e+00 6.639870000000000516e+01 1.994884999999999991e+03
5.300000000000000544e-02 2.142560000000000020e-01 7.976110000000000255e+00 6.431199999999999761e+01 1.994470000000000027e+03
5.399999999999999939e-02 2.141625000000000056e-01 6.932820000000000427e+00 6.196930000000000405e+01 1.993965000000000146e+03
5.500000000000000028e-02 2.140565000000000107e-01 5.811749999999999972e+00 5.947279999999999944e+01 1.993384999999999991e+03
5.600000000000000117e-02 2.139425000000000077e-01 4.640945000000000320e+00 5.690905000000000058e+01 1.992764999999999873e+03
5.700000000000000205e-02 2.138240000000000141e-01 3.447640500000000330e+00 5.435030000000000427e+01 1.992115000000000009e+03
5.800000000000000294e-02 2.137045000000000194e-01 2.259522000000000030e+00 5.185940000000000083e+01 1.991454999999999927e+03
5.900000000000000383e-02 2.135869999999999991e-01 1.106020000000000003e+00 4.949535000000000196e+01 1.990809999999999945e+03
6.000000000000000472e-02 2.134745000000000115e-01 1.905500000000004412e-02 4.731920000000000215e+01 1.990195000000000164e+03
6.099999999999999867e-02 2.133710000000000051e-01 -9.670100000000001472e-01 4.539665000000000106e+01 1.989619999999999891e+03
6.199999999999999956e-02 2.132795000000000107e-01 -1.816269999999999829e+00 4.379845000000000255e+01 1.989110000000000127e+03
6.300000000000000044e-02 2.132030000000000036e-01 -2.492999999999999883e+00 4.259735000000000582e+01 1.988684999999999945e+03
6.400000000000000133e-02 2.131454999999999878e-01 -2.963804999999999801e+00 4.186359999999999815e+01 1.988355000000000018e+03
6.500000000000000222e-02 2.131104999999999805e-01 -3.199905000000000221e+00 4.165890000000000271e+01 1.988150000000000091e+03
6.600000000000000311e-02 2.130994999999999973e-01 -3.179269999999999818e+00 4.203050000000000352e+01 1.988075000000000045e+03
6.700000000000000400e-02 2.131159999999999999e-01 -2.888234999999999886e+00 4.300645000000000095e+01 1.988144999999999982e+03
6.800000000000000488e-02 2.131605000000000028e-01 -2.322451000000000043e+00 4.459264999999999901e+01 1.988369999999999891e+03
6.900000000000000577e-02 2.132330000000000059e-01 -1.487188500000000024e+00 4.677185000000000059e+01 1.988750000000000000e+03
7.000000000000000666e-02 2.133335000000000092e-01 -3.969000000000000306e-01 4.950440000000000396e+01 1.989279999999999973e+03
7.100000000000000755e-02 2.134594999999999965e-01 9.257349999999999746e-01 5.273135000000000616e+01 1.989954999999999927e+03
7.200000000000000844e-02 2.136089999999999933e-01 2.451204999999999856e+00 5.637834999999999752e+01 1.990759999999999991e+03
7.300000000000000933e-02 2.137779999999999958e-01 4.144890000000000185e+00 6.036045000000000016e+01 1.991680000000000064e+03
7.399999999999999634e-02 2.139639999999999875e-01 5.968854999999999578e+00 6.458729999999999905e+01 1.992690000000000055e+03
7.499999999999999722e-02 2.141615000000000046e-01 7.883919999999999817e+00 6.896840000000000259e+01 1.993769999999999982e+03
7.599999999999999811e-02 2.143680000000000030e-01 9.851304999999999978e+00 7.341804999999999382e+01 1.994900000000000091e+03
7.699999999999999900e-02 2.145779999999999910e-01 1.183454500000000031e+01 7.785945000000000960e+01 1.996055000000000064e+03
7.799999999999999989e-02 2.147899999999999809e-01 1.380096999999999952e+01 8.222845000000000937e+01 1.997224999999999909e+03
7.900000000000000078e-02 2.149999999999999967e-01 1.572274999999999956e+01 8.647570000000000334e+01 1.998384999999999991e+03
8.000000000000000167e-02 2.152049999999999796e-01 1.757789999999999964e+01 9.056810000000000116e+01 1.999529999999999973e+03
8.100000000000000255e-02 2.154050000000000131e-01 1.935004999999999953e+01 9.448859999999999104e+01 2.000644999999999982e+03
8.200000000000000344e-02 2.155980000000000119e-01 2.102884999999999849e+01 9.823414999999999964e+01 2.001724999999999909e+03
8.300000000000000433e-02 2.157850000000000046e-01 2.260889999999999844e+01 1.018147999999999911e+02 2.002764999999999873e+03
8.400000000000000522e-02 2.159645000000000037e-01 2.408934999999999960e+01 1.052484499999999912e+02 2.003769999999999982e+03
8.500000000000000611e-02 2.161379999999999968e-01 2.547245000000000203e+01 1.085594999999999999e+02 2.004750000000000000e+03
8.600000000000000699e-02 2.163065000000000127e-01 2.676239999999999952e+01 1.117729999999999961e+02 2.005700000000000045e+03
8.700000000000000788e-02 2.164709999999999968e-01 2.796480000000000032e+01 1.149129999999999967e+02 2.006625000000000000e+03
8.800000000000000877e-02 2.166319999999999912e-01 2.908500000000000085e+01 1.179994999999999976e+02 2.007534999999999854e+03
8.899999999999999578e-02 2.167904999999999971e-01 3.012795000000000201e+01 1.210455000000000041e+02 2.008429999999999836e+03
8.999999999999999667e-02 2.169470000000000010e-01 3.109744999999999848e+01 1.240600000000000023e+02 2.009309999999999945e+03
9.099999999999999756e-02 2.171015000000000028e-01 3.199595000000000056e+01 1.270425000000000040e+02 2.010184999999999945e+03
9.199999999999999845e-02 2.172545000000000170e-01 3.282424999999999926e+01 1.299875000000000114e+02 2.011049999999999955e+03
9.299999999999999933e-02 2.174050000000000149e-01 3.358190000000000452e+01 1.328840000000000146e+02 2.011904999999999973e+03
9.400000000000000022e-02 2.175529999999999964e-01 3.426695000000000135e+01 1.357155000000000200e+02 2.012740000000000009e+03
9.500000000000000111e-02 2.176974999999999882e-01 3.487630000000000052e+01 1.384639999999999986e+02 2.013554999999999836e+03
9.600000000000000200e-02 2.178375000000000172e-01 3.540614999999999668e+01 1.411080000000000041e+02 2.014355000000000018e+03
9.700000000000000289e-02 2.179725000000000135e-01 3.585174999999999557e+01 1.436260000000000048e+02 2.015119999999999891e+03
9.800000000000000377e-02 2.181020000000000181e-01 3.620820000000000505e+01 1.459965000000000259e+02 2.015849999999999909e+03
9.900000000000000466e-02 2.182230000000000003e-01 3.647044999999999959e+01 1.481974999999999909e+02 2.016545000000000073e+03
1.000000000000000056e-01 2.183370000000000033e-01 3.663349999999999795e+01 1.502104999999999961e+02 2.017190000000000055e+03
1.010000000000000064e-01 2.184409999999999963e-01 3.669299999999999784e+01 1.520174999999999841e+02 2.017784999999999854e+03
1.020000000000000073e-01 2.185354999999999936e-01 3.664535000000000053e+01 1.536030000000000086e+02 2.018324999999999818e+03
1.030000000000000082e-01 2.186190000000000078e-01 3.648814999999999742e+01 1.549574999999999818e+02 2.018805000000000064e+03
1.040000000000000091e-01 2.186914999999999831e-01 3.622039999999999793e+01 1.560724999999999909e+02 2.019220000000000027e+03
1.050000000000000100e-01 2.187520000000000020e-01 3.584284999999999854e+01 1.569459999999999980e+02 2.019575000000000045e+03
1.059999999999999970e-01 2.188014999999999821e-01 3.535829999999999984e+01 1.575805000000000007e+02 2.019865000000000009e+03
1.069999999999999979e-01 2.188390000000000057e-01 3.477139999999999986e+01 1.579830000000000041e+02 2.020079999999999927e+03
1.079999999999999988e-01 2.188654999999999906e-01 3.408910000000000196e+01 1.581664999999999850e+02 2.020240000000000009e+03
1.089999999999999997e-01 2.188815000000000066e-01 3.332004999999999484e+01 1.581490000000000009e+02 2.020340000000000146e+03
1.100000000000000006e-01 2.188875000000000126e-01 3.247475000000000023e+01 1.579504999999999768e+02 2.020380000000000109e+03
1.110000000000000014e-01 2.188844999999999819e-01 3.156519999999999726e+01 1.575975000000000250e+02 2.020375000000000000e+03
1.120000000000000023e-01 2.188734999999999986e-01 3.060429999999999851e+01 1.571150000000000091e+02 2.020320000000000164e+03
1.130000000000000032e-01 2.188565000000000094e-01 2.960535000000000139e+01 1.565330000000000155e+02 2.020230000000000018e+03
1.140000000000000041e-01 2.188340000000000007e-01 2.858205000000000240e+01 1.558774999999999977e+02 2.020110000000000127e+03
1.150000000000000050e-01 2.188074999999999881e-01 2.754755000000000109e+01 1.551754999999999995e+02 2.019960000000000036e+03
1.160000000000000059e-01 2.187780000000000002e-01 2.651419999999999888e+01 1.544509999999999934e+02 2.019795000000000073e+03
1.170000000000000068e-01 2.187470000000000248e-01 2.549329999999999785e+01 1.537264999999999873e+02 2.019625000000000000e+03
1.180000000000000077e-01 2.187155000000000071e-01 2.449450000000000216e+01 1.530174999999999841e+02 2.019444999999999936e+03
1.190000000000000085e-01 2.186839999999999895e-01 2.352595000000000169e+01 1.523389999999999986e+02 2.019265000000000100e+03
1.200000000000000094e-01 2.186529999999999863e-01 2.259360000000000213e+01 1.516984999999999957e+02 2.019095000000000027e+03
1.209999999999999964e-01 2.186234999999999984e-01 2.170159999999999911e+01 1.511020000000000039e+02 2.018924999999999955e+03
1.219999999999999973e-01 2.185960000000000125e-01 2.085199999999999676e+01 1.505489999999999782e+02 2.018764999999999873e+03
1.229999999999999982e-01 2.185690000000000133e-01 2.004480000000000217e+01 1.500349999999999966e+02 2.018609999999999900e+03
1.239999999999999991e-01 2.185440000000000160e-01 1.927824999999999989e+01 1.495519999999999925e+02 2.018470000000000027e+03
1.250000000000000000e-01 2.185199999999999920e-01 1.854889999999999972e+01 1.490900000000000034e+02 2.018329999999999927e+03
1.260000000000000009e-01 2.184965000000000102e-01 1.785190000000000055e+01 1.486349999999999909e+02 2.018190000000000055e+03
1.270000000000000018e-01 2.184734999999999872e-01 1.718130000000000024e+01 1.481719999999999970e+02 2.018054999999999836e+03
1.280000000000000027e-01 2.184490000000000043e-01 1.653040000000000020e+01 1.476850000000000023e+02 2.017920000000000073e+03
1.290000000000000036e-01 2.184240000000000070e-01 1.589225000000000065e+01 1.471580000000000155e+02 2.017769999999999982e+03
1.300000000000000044e-01 2.183964999999999934e-01 1.525970000000000049e+01 1.465749999999999886e+02 2.017615000000000009e+03
1.310000000000000053e-01 2.183660000000000045e-01 1.462604999999999933e+01 1.459225000000000136e+02 2.017444999999999936e+03
1.320000000000000062e-01 2.183324999999999849e-01 1.398545000000000016e+01 1.451895000000000095e+02 2.017255000000000109e+03
1.330000000000000071e-01 2.182959999999999900e-01 1.333295000000000030e+01 1.443675000000000068e+02 2.017039999999999964e+03
1.340000000000000080e-01 2.182545000000000179e-01 1.266495000000000104e+01 1.434504999999999768e+02 2.016809999999999945e+03
1.350000000000000089e-01 2.182084999999999997e-01 1.197925000000000040e+01 1.424384999999999764e+02 2.016555000000000064e+03
1.360000000000000098e-01 2.181584999999999774e-01 1.127551000000000059e+01 1.413340000000000032e+02 2.016275000000000091e+03
1.370000000000000107e-01 2.181039999999999923e-01 1.055492999999999881e+01 1.401430000000000007e+02 2.015969999999999800e+03
1.380000000000000115e-01 2.180455000000000032e-01 9.820429999999999993e+00 1.388774999999999977e+02 2.015639999999999873e+03
1.390000000000000124e-01 2.179834999999999967e-01 9.076399999999999579e+00 1.375500000000000114e+02 2.015295000000000073e+03
1.400000000000000133e-01 2.179185000000000150e-01 8.328625000000000611e+00 1.361790000000000020e+02 2.014929999999999836e+03
1.410000000000000142e-01 2.178519999999999901e-01 7.584125000000000227e+00 1.347824999999999989e+02 2.014550000000000182e+03
1.420000000000000151e-01 2.177835000000000187e-01 6.850509999999999877e+00 1.333820000000000050e+02 2.014170000000000073e+03
1.430000000000000160e-01 2.177155000000000062e-01 6.135905000000000165e+00 1.319964999999999975e+02 2.013785000000000082e+03
1.440000000000000169e-01 2.176480000000000081e-01 5.448494999999999422e+00 1.306485000000000127e+02 2.013404999999999973e+03
1.450000000000000178e-01 2.175814999999999833e-01 4.796145000000000103e+00 1.293549999999999898e+02 2.013029999999999973e+03
1.459999999999999909e-01 2.175179999999999891e-01 4.186054999999999637e+00 1.281349999999999909e+02 2.012670000000000073e+03
1.469999999999999918e-01 2.174574999999999980e-01 3.624490000000000212e+00 1.270005000000000024e+02 2.012329999999999927e+03
1.479999999999999927e-01 2.174010000000000109e-01 3.116544999999999899e+00 1.259629999999999939e+02 2.012009999999999991e+03
1.489999999999999936e-01 2.173495000000000010e-01 2.665929999999999911e+00 1.250314999999999941e+02 2.011715000000000146e+03
1.499999999999999944e-01 2.173015000000000085e-01 2.274935000000000151e+00 1.242079999999999984e+02 2.011444999999999936e+03
1.509999999999999953e-01 2.172594999999999943e-01 1.944350000000000023e+00 1.234929999999999950e+02 2.011200000000000045e+03
1.519999999999999962e-01 2.172219999999999984e-01 1.673537000000000052e+00 1.228845000000000027e+02 2.010990000000000009e+03
1.529999999999999971e-01 2.171895000000000076e-01 1.460505500000000012e+00 1.223760000000000048e+02 2.010805000000000064e+03
1.539999999999999980e-01 2.171620000000000217e-01 1.302062499999999901e+00 1.219590000000000032e+02 2.010644999999999982e+03
1.549999999999999989e-01 2.171385000000000121e-01 1.193992500000000012e+00 1.216235000000000070e+02 2.010505000000000109e+03
1.559999999999999998e-01 2.171190000000000064e-01 1.131230500000000028e+00 1.213584999999999923e+02 2.010389999999999873e+03
1.570000000000000007e-01 2.171029999999999904e-01 1.108091500000000007e+00 1.211509999999999962e+02 2.010295000000000073e+03
1.580000000000000016e-01 2.170894999999999908e-01 1.118457999999999952e+00 1.209879999999999995e+02 2.010215000000000146e+03
1.590000000000000024e-01 2.170785000000000076e-01 1.155986999999999876e+00 1.208569999999999993e+02 2.010150000000000091e+03
