# t [s], A [cm^2], U [cm/s], P [cPa], c [cm/s]
1.000000000000000021e-03 8.119089999999999918e-01 4.765049999999999841e-03 9.242695000000000505e+01 1.590474999999999909e+03
2.000000000000000042e-03 8.118944999999999634e-01 -4.357980000000000013e-03 9.240100000000001046e+01 1.590470000000000027e+03
3.000000000000000062e-03 8.119465000000000154e-01 6.508084999999999565e-02 9.247169999999999845e+01 1.590485000000000127e+03
4.000000000000000083e-03 8.120149999999999313e-01 1.639216000000000006e-01 9.259264999999999191e+01 1.590515000000000100e+03
5.000000000000000104e-03 8.120069999999999233e-01 1.729920000000000069e-01 9.259035000000000082e+01 1.590514999999999873e+03
6.000000000000000125e-03 8.119324999999999459e-01 9.277750000000001274e-02 9.242759999999999820e+01 1.590480000000000018e+03
7.000000000000000146e-03 8.118655000000000177e-01 1.659800000000000164e-02 9.221020000000000039e+01 1.590440000000000055e+03
8.000000000000000167e-03 8.117885000000000240e-01 -8.145250000000003876e-02 9.192929999999999779e+01 1.590380000000000109e+03
9.000000000000001055e-03 8.116524999999999990e-01 -2.733999999999999764e-01 9.149545000000000528e+01 1.590284999999999854e+03
1.000000000000000194e-02 8.114479999999999471e-01 -5.736550000000000260e-01 9.086375000000001023e+01 1.590155000000000200e+03
1.099999999999999936e-02 8.111645000000000660e-01 -9.923800000000000399e-01 8.999184999999999945e+01 1.589974999999999909e+03
1.200000000000000025e-02 8.107800000000000562e-01 -1.548855000000000093e+00 8.882140000000001123e+01 1.589724999999999909e+03
1.300000000000000114e-02 8.103015000000000079e-01 -2.217810000000000059e+00 8.734479999999999222e+01 1.589409999999999854e+03
1.400000000000000203e-02 8.097829999999999195e-01 -2.903469999999999995e+00 8.565409999999999968e+01 1.589034999999999854e+03
1.499999999999999944e-02 8.092980000000000729e-01 -3.477274500000000046e+00 8.391219999999999857e+01 1.588644999999999982e+03
1.600000000000000033e-02 8.088980000000000059e-01 -3.837531999999999943e+00 8.227785000000000082e+01 1.588255000000000109e+03
1.700000000000000122e-02 8.085949999999999527e-01 -3.944455000000000044e+00 8.084505000000000052e+01 1.587894999999999982e+03
1.800000000000000211e-02 8.083629999999999427e-01 -3.820282000000000178e+00 7.962399999999999523e+01 1.587565000000000055e+03
1.900000000000000300e-02 8.081575000000000841e-01 -3.527317000000000036e+00 7.855599999999999739e+01 1.587269999999999982e+03
2.000000000000000042e-02 8.079340000000000410e-01 -3.139213000000000253e+00 7.754775000000000773e+01 1.586984999999999900e+03
2.100000000000000130e-02 8.076609999999999623e-01 -2.715750000000000330e+00 7.650874999999999204e+01 1.586690000000000055e+03
2.200000000000000219e-02 8.073299999999999921e-01 -2.287192499999999740e+00 7.538120000000000687e+01 1.586380000000000109e+03
2.299999999999999961e-02 8.069524999999999615e-01 -1.851599999999999913e+00 7.415404999999999802e+01 1.586049999999999955e+03
2.400000000000000050e-02 8.065539999999999932e-01 -1.384934999999999805e+00 7.285814999999999486e+01 1.585704999999999927e+03
2.500000000000000139e-02 8.061605000000000576e-01 -8.588500000000001133e-01 7.154585000000000150e+01 1.585349999999999909e+03
2.600000000000000228e-02 8.057874999999999899e-01 -2.585399999999997700e-01 7.026500000000000057e+01 1.585005000000000109e+03
2.700000000000000316e-02 8.054364999999999997e-01 4.058150000000002589e-01 6.903735000000000355e+01 1.584664999999999964e+03
2.800000000000000058e-02 8.050910000000000011e-01 1.096714999999999884e+00 6.784749999999999659e+01 1.584340000000000146e+03
2.900000000000000147e-02 8.047235000000000360e-01 1.755230000000000290e+00 6.664385000000000048e+01 1.584005000000000109e+03
3.000000000000000236e-02 8.043025000000000313e-01 2.312889999999999890e+00 6.535070000000000334e+01 1.583655000000000200e+03
3.099999999999999978e-02 8.037995000000000001e-01 2.706275000000000652e+00 6.388644999999999641e+01 1.583275000000000091e+03
3.200000000000000067e-02 8.031994999999999552e-01 2.891014999999999890e+00 6.218580000000000041e+01 1.582849999999999909e+03
3.300000000000000155e-02 8.025025000000000075e-01 2.851800000000000335e+00 6.021809999999999974e+01 1.582369999999999891e+03
3.400000000000000244e-02 8.017274999999999263e-01 2.605450000000000266e+00 5.799869999999999948e+01 1.581835000000000036e+03
3.500000000000000333e-02 8.009064999999999657e-01 2.196620000000000239e+00 5.558870000000000289e+01 1.581264999999999873e+03
3.600000000000000422e-02 8.000800000000000134e-01 1.687474999999999614e+00 5.308505000000000251e+01 1.580664999999999964e+03
3.700000000000000511e-02 7.992905000000000149e-01 1.145610000000000017e+00 5.060459999999999781e+01 1.580059999999999945e+03
3.799999999999999906e-02 7.985729999999999773e-01 6.330700000000000216e-01 4.826600000000000534e+01 1.579485000000000127e+03
3.899999999999999994e-02 7.979549999999999699e-01 1.992849999999997124e-01 4.617504999999999882e+01 1.578960000000000036e+03
4.000000000000000083e-02 7.974550000000000249e-01 -1.219299999999998718e-01 4.441519999999999868e+01 1.578500000000000000e+03
4.100000000000000172e-02 7.970790000000000930e-01 -3.115549999999998043e-01 4.304335000000000377e+01 1.578125000000000000e+03
4.200000000000000261e-02 7.968309999999999560e-01 -3.620900000000000230e-01 4.209059999999999491e+01 1.577845000000000027e+03
4.300000000000000350e-02 7.967070000000000540e-01 -2.730549999999999367e-01 4.156719999999999970e+01 1.577664999999999964e+03
4.400000000000000439e-02 7.967029999999999390e-01 -4.649600000000000954e-02 4.146869999999999834e+01 1.577590000000000146e+03
4.499999999999999833e-02 7.968144999999999811e-01 3.164080000000000226e-01 4.178255000000000052e+01 1.577605000000000018e+03
4.599999999999999922e-02 7.970390000000000530e-01 8.170950000000000157e-01 4.249354999999999905e+01 1.577724999999999909e+03
4.700000000000000011e-02 7.973734999999999573e-01 1.459435000000000038e+00 4.358684999999999832e+01 1.577940000000000055e+03
4.800000000000000100e-02 7.978160000000000807e-01 2.248060000000000169e+00 4.504814999999999969e+01 1.578244999999999891e+03
4.900000000000000189e-02 7.983645000000000325e-01 3.185800000000000409e+00 4.686249999999999716e+01 1.578639999999999873e+03
5.000000000000000278e-02 7.990135000000000431e-01 4.271160000000000068e+00 4.901135000000000019e+01 1.579119999999999891e+03
5.100000000000000366e-02 7.997544999999999238e-01 5.496434999999999960e+00 5.147025000000000006e+01 1.579684999999999945e+03
5.200000000000000455e-02 8.005765000000000242e-01 6.847055000000000113e+00 5.420680000000000121e+01 1.580315000000000055e+03
5.300000000000000544e-02 8.014649999999999830e-01 8.301764699999999664e+00 5.718050000000000210e+01 1.581009999999999991e+03
5.399999999999999939e-02 8.024044999999999650e-01 9.834294999999999121e+00 6.034364999999999668e+01 1.581755000000000109e+03
5.500000000000000028e-02 8.033764999999999379e-01 1.141530000000000022e+01 6.364350000000000307e+01 1.582545000000000073e+03
5.600000000000000117e-02 8.043655000000000665e-01 1.301459499999999991e+01 6.702555000000000973e+01 1.583360000000000127e+03
5.700000000000000205e-02 8.053550000000000431e-01 1.460341500000000003e+01 7.043690000000000850e+01 1.584194999999999936e+03
5.800000000000000294e-02 8.063314999999999788e-01 1.615619999999999834e+01 7.382904999999999518e+01 1.585034999999999854e+03
5.900000000000000383e-02 8.072859999999999481e-01 1.765184999999999960e+01 7.716079999999999472e+01 1.585869999999999891e+03
6.000000000000000472e-02 8.082095000000000251e-01 1.907424999999999926e+01 8.039990000000000236e+01 1.586684999999999945e+03
6.099999999999999867e-02 8.090984999999999427e-01 2.041229999999999833e+01 8.352355000000000018e+01 1.587484999999999900e+03
6.199999999999999956e-02 8.099510000000000876e-01 2.165980000000000061e+01 8.651850000000000307e+01 1.588255000000000109e+03
6.300000000000000044e-02 8.107679999999999332e-01 2.281419999999999959e+01 8.938025000000000375e+01 1.589000000000000000e+03
6.400000000000000133e-02 8.115510000000000224e-01 2.387650000000000006e+01 9.211144999999999072e+01 1.589715000000000146e+03
6.500000000000000222e-02 8.123034999999999561e-01 2.485004999999999953e+01 9.472039999999999793e+01 1.590405000000000200e+03
6.600000000000000311e-02 8.130299999999999194e-01 2.573969999999999914e+01 9.721989999999999554e+01 1.591065000000000055e+03
6.700000000000000400e-02 8.137339999999999574e-01 2.655129999999999768e+01 9.962475000000000591e+01 1.591704999999999927e+03
6.800000000000000488e-02 8.144200000000000328e-01 2.729094999999999871e+01 1.019492999999999938e+02 1.592324999999999818e+03
6.900000000000000577e-02 8.150919999999999277e-01 2.796430000000000149e+01 1.042083499999999958e+02 1.592924999999999955e+03
7.000000000000000666e-02 8.157524999999999915e-01 2.857630000000000337e+01 1.064129999999999967e+02 1.593514999999999873e+03
7.100000000000000755e-02 8.164019999999999611e-01 2.913040000000000163e+01 1.085720000000000027e+02 1.594085000000000036e+03
7.200000000000000844e-02 8.170410000000000172e-01 2.962875000000000014e+01 1.106895000000000095e+02 1.594650000000000091e+03
7.300000000000000933e-02 8.176685000000000203e-01 3.007180000000000319e+01 1.127634999999999934e+02 1.595200000000000045e+03
7.399999999999999634e-02 8.182819999999999538e-01 3.045844999999999914e+01 1.147909999999999968e+02 1.595744999999999891e+03
7.499999999999999722e-02 8.188790000000000235e-01 3.078640000000000043e+01 1.167614999999999981e+02 1.596269999999999982e+03
7.599999999999999811e-02 8.194535000000000569e-01 3.105259999999999820e+01 1.186640000000000015e+02 1.596779999999999973e+03
7.699999999999999900e-02 8.200024999999999675e-01 3.125334999999999752e+01 1.204840000000000089e+02 1.597264999999999873e+03
7.799999999999999989e-02 8.205204999999999860e-01 3.138524999999999920e+01 1.222065000000000055e+02 1.597735000000000127e+03
7.900000000000000078e-02 8.210044999999999149e-01 3.144514999999999816e+01 1.238164999999999907e+02 1.598170000000000073e+03
8.000000000000000167e-02 8.214500000000000135e-01 3.143055000000000021e+01 1.252999999999999972e+02 1.598579999999999927e+03
8.100000000000000255e-02 8.218535000000000146e-01 3.134009999999999962e+01 1.266454999999999984e+02 1.598960000000000036e+03
8.200000000000000344e-02 8.222125000000000128e-01 3.117324999999999946e+01 1.278430000000000035e+02 1.599295000000000073e+03
8.300000000000000433e-02 8.225260000000000904e-01 3.093064999999999998e+01 1.288849999999999909e+02 1.599595000000000027e+03
8.400000000000000522e-02 8.227929999999999966e-01 3.061415000000000219e+01 1.297690000000000055e+02 1.599855000000000018e+03
8.500000000000000611e-02 8.230129999999999946e-01 3.022650000000000148e+01 1.304925000000000068e+02 1.600074999999999818e+03
8.600000000000000699e-02 8.231874999999999609e-01 2.977145000000000152e+01 1.310579999999999927e+02 1.600255000000000109e+03
8.700000000000000788e-02 8.233174999999999244e-01 2.925410000000000110e+01 1.314705000000000155e+02 1.600394999999999982e+03
8.800000000000000877e-02 8.234055000000000124e-01 2.868014999999999759e+01 1.317364999999999782e+02 1.600494999999999891e+03
8.899999999999999578e-02 8.234544999999999781e-01 2.805655000000000143e+01 1.318654999999999973e+02 1.600559999999999945e+03
8.999999999999999667e-02 8.234685000000000477e-01 2.739094999999999658e+01 1.318709999999999809e+02 1.600595000000000027e+03
9.099999999999999756e-02 8.234504999999999741e-01 2.669164999999999921e+01 1.317659999999999911e+02 1.600595000000000027e+03
9.199999999999999845e-02 8.234055000000000124e-01 2.596764999999999901e+01 1.315655000000000143e+02 1.600570000000000164e+03
9.299999999999999933e-02 8.233395000000000019e-01 2.522809999999999775e+01 1.312864999999999895e+02 1.600525000000000091e+03
9.400000000000000022e-02 8.232559999999999878e-01 2.448219999999999885e+01 1.309459999999999980e+02 1.600460000000000036e+03
9.500000000000000111e-02 8.231610000000000316e-01 2.373894999999999911e+01 1.305614999999999952e+02 1.600375000000000000e+03
9.600000000000000200e-02 8.230589999999999851e-01 2.300634999999999764e+01 1.301485000000000127e+02 1.600285000000000082e+03
9.700000000000000289e-02 8.229530000000000456e-01 2.229185000000000016e+01 1.297230000000000132e+02 1.600184999999999945e+03
9.800000000000000377e-02 8.228474999999999540e-01 2.160135000000000005e+01 1.292984999999999900e+02 1.600085000000000036e+03
9.900000000000000466e-02 8.227455000000000185e-01 2.093925000000000125e+01 1.288859999999999957e+02 1.599985000000000127e+03
1.000000000000000056e-01 8.226485000000000047e-01 2.030835000000000079e+01 1.284934999999999832e+02 1.599884999999999991e+03
1.010000000000000064e-01 8.225575000000000525e-01 1.970980000000000132e+01 1.281270000000000095e+02 1.599784999999999854e+03
1.020000000000000073e-01 8.224735000000000795e-01 1.914305000000000234e+01 1.277895000000000039e+02 1.599694999999999936e+03
1.030000000000000082e-01 8.223949999999999871e-01 1.860594999999999999e+01 1.274805000000000064e+02 1.599610000000000127e+03
1.040000000000000091e-01 8.223219999999999974e-01 1.809515000000000029e+01 1.271964999999999861e+02 1.599529999999999973e+03
1.050000000000000100e-01 8.222519999999999829e-01 1.760600000000000165e+01 1.269335000000000093e+02 1.599454999999999927e+03
1.059999999999999970e-01 8.221829999999999972e-01 1.713325000000000031e+01 1.266839999999999975e+02 1.599384999999999991e+03
1.069999999999999979e-01 8.221130000000000937e-01 1.667105000000000103e+01 1.264415000000000049e+02 1.599315000000000055e+03
1.079999999999999988e-01 8.220395000000000341e-01 1.621325000000000216e+01 1.261965000000000003e+02 1.599244999999999891e+03
1.089999999999999997e-01 8.219594999999999541e-01 1.575399999999999956e+01 1.259399999999999977e+02 1.599180000000000064e+03
1.100000000000000006e-01 8.218715000000000881e-01 1.528744999999999976e+01 1.256645000000000039e+02 1.599105000000000018e+03
1.110000000000000014e-01 8.217734999999999346e-01 1.480869999999999997e+01 1.253629999999999995e+02 1.599025000000000091e+03
1.120000000000000023e-01 8.216645000000000199e-01 1.431344999999999956e+01 1.250285000000000082e+02 1.598940000000000055e+03
1.130000000000000032e-01 8.215434999999999821e-01 1.379850000000000065e+01 1.246574999999999989e+02 1.598845000000000027e+03
1.140000000000000041e-01 8.214099999999999735e-01 1.326173999999999964e+01 1.242475000000000023e+02 1.598744999999999891e+03
1.150000000000000050e-01 8.212639999999999940e-01 1.270233999999999952e+01 1.237974999999999994e+02 1.598634999999999991e+03
1.160000000000000059e-01 8.211070000000000313e-01 1.212069999999999936e+01 1.233089999999999975e+02 1.598514999999999873e+03
1.170000000000000068e-01 8.209414999999999907e-01 1.151861500000000049e+01 1.227864999999999895e+02 1.598384999999999991e+03
1.180000000000000077e-01 8.207679999999999421e-01 1.089904500000000098e+01 1.222369999999999948e+02 1.598255000000000109e+03
1.190000000000000085e-01 8.205910000000000704e-01 1.026596999999999937e+01 1.216675000000000040e+02 1.598110000000000127e+03
1.200000000000000094e-01 8.204115000000000713e-01 9.624545000000001238e+00 1.210865000000000009e+02 1.597970000000000027e+03
1.209999999999999964e-01 8.202344999999999775e-01 8.980385000000000062e+00 1.205054999999999978e+02 1.597824999999999818e+03
1.219999999999999973e-01 8.200635000000000563e-01 8.339900000000000091e+00 1.199360000000000070e+02 1.597684999999999945e+03
1.229999999999999982e-01 8.199005000000000321e-01 7.709500000000000242e+00 1.193894999999999982e+02 1.597539999999999964e+03
1.239999999999999991e-01 8.197505000000000486e-01 7.095674999999999955e+00 1.188770000000000095e+02 1.597410000000000082e+03
1.250000000000000000e-01 8.196155000000000523e-01 6.504704999999999515e+00 1.184089999999999918e+02 1.597289999999999964e+03
1.260000000000000009e-01 8.194989999999999775e-01 5.942249999999999588e+00 1.179950000000000045e+02 1.597179999999999836e+03
1.270000000000000018e-01 8.194019999999999637e-01 5.413235000000000241e+00 1.176440000000000055e+02 1.597085000000000036e+03
1.280000000000000027e-01 8.193269999999999165e-01 4.921654999999999447e+00 1.173609999999999900e+02 1.597005000000000109e+03
1.290000000000000036e-01 8.192740000000000578e-01 4.470419999999999838e+00 1.171500000000000057e+02 1.596944999999999936e+03
1.300000000000000044e-01 8.192429999999999435e-01 4.061289999999999623e+00 1.170125000000000028e+02 1.596894999999999982e+03
1.310000000000000053e-01 8.192340000000000177e-01 3.694824999999999804e+00 1.169480000000000075e+02 1.596869999999999891e+03
1.320000000000000062e-01 8.192459999999999187e-01 3.370410000000000128e+00 1.169534999999999911e+02 1.596855000000000018e+03
1.330000000000000071e-01 8.192755000000000454e-01 3.086380000000000123e+00 1.170240000000000009e+02 1.596859999999999900e+03
1.340000000000000080e-01 8.193220000000001058e-01 2.840079999999999938e+00 1.171514999999999986e+02 1.596884999999999991e+03
1.350000000000000089e-01 8.193814999999999849e-01 2.628085000000000004e+00 1.173290000000000077e+02 1.596914999999999964e+03
1.360000000000000098e-01 8.194520000000000692e-01 2.446360000000000312e+00 1.175465000000000089e+02 1.596960000000000036e+03
1.370000000000000107e-01 8.195300000000000917e-01 2.290420000000000122e+00 1.177939999999999969e+02 1.597009999999999991e+03
1.380000000000000115e-01 8.196125000000000771e-01 2.155599999999999739e+00 1.180610000000000070e+02 1.597075000000000045e+03
1.390000000000000124e-01 8.196970000000000089e-01 2.037150000000000016e+00 1.183370000000000033e+02 1.597134999999999991e+03
1.400000000000000133e-01 8.197790000000000354e-01 1.930444999999999967e+00 1.186119999999999948e+02 1.597200000000000045e+03
1.410000000000000142e-01 8.198579999999999757e-01 1.831115000000000048e+00 1.188774999999999977e+02 1.597259999999999991e+03
1.420000000000000151e-01 8.199305000000000065e-01 1.735135000000000094e+00 1.191254999999999882e+02 1.597324999999999818e+03
1.430000000000000160e-01 8.199955000000000993e-01 1.638910000000000089e+00 1.193489999999999895e+02 1.597380000000000109e+03
1.440000000000000169e-01 8.200510000000000854e-01 1.539360000000000062e+00 1.195415000000000134e+02 1.597425000000000182e+03
1.450000000000000178e-01 8.200954999999999773e-01 1.433904999999999985e+00 1.196990000000000123e+02 1.597474999999999909e+03
1.459999999999999909e-01 8.201289999999999969e-01 1.320520000000000138e+00 1.198190000000000026e+02 1.597505000000000109e+03
1.469999999999999918e-01 8.201509999999999634e-01 1.197729999999999961e+00 1.198985000000000127e+02 1.597530000000000200e+03
1.479999999999999927e-01 8.201609999999999179e-01 1.064585000000000115e+00 1.199369999999999976e+02 1.597545000000000073e+03
1.489999999999999936e-01 8.201589999999999714e-01 9.206404999999999728e-01 1.199344999999999999e+02 1.597549999999999955e+03
1.499999999999999944e-01 8.201460000000000417e-01 7.659540000000000237e-01 1.198919999999999959e+02 1.597539999999999964e+03
1.509999999999999953e-01 8.201214999999999478e-01 6.010060000000000402e-01 1.198114999999999952e+02 1.597529999999999973e+03
1.519999999999999962e-01 8.200875000000000803e-01 4.266731000000000273e-01 1.196949999999999932e+02 1.597509999999999991e+03
1.529999999999999971e-01 8.200439999999999952e-01 2.441715000000000135e-01 1.195455000000000041e+02 1.597474999999999909e+03
1.539999999999999980e-01 8.199924999999999020e-01 5.498949999999996896e-02 1.193669999999999902e+02 1.597434999999999945e+03
1.549999999999999989e-01 8.199339999999999407e-01 -1.391810000000000269e-01 1.191624999999999943e+02 1.597389999999999873e+03
1.559999999999999998e-01 8.198699999999999877e-01 -3.365160000000000373e-01 1.189350000000000023e+02 1.597340000000000146e+03
1.570000000000000007e-01 8.197999999999999732e-01 -5.351395000000001012e-01 1.186895000000000095e+02 1.597280000000000200e+03
1.580000000000000016e-01 8.197265000000000246e-01 -7.331860000000000044e-01 1.184284999999999997e+02 1.597214999999999918e+03
1.590000000000000024e-01 8.196499999999999897e-01 -9.288914999999999811e-01 1.181555000000000035e+02 1.597150000000000091e+03
