# t [s], A [cm^2], U [cm/s], P [cPa], c [cm/s]
1.000000000000000021e-03 5.266224999999999934e-01 2.793449999999995936e-03 9.751749999999999829e+01 1.506069999999999936e+03
2.000000000000000042e-03 5.266159999999999730e-01 1.899505000000000117e-03 9.749840000000000373e+01 1.506059999999999945e+03
3.000000000000000062e-03 5.266625000000000334e-01 9.427404999999999813e-02 9.758774999999999977e+01 1.506089999999999918e+03
4.000000000000000083e-03 5.267045000000000199e-01 1.815303550000000044e-01 9.769335000000000946e+01 1.506119999999999891e+03
5.000000000000000104e-03 5.266889999999999628e-01 1.608931000000000111e-01 9.765680000000000405e+01 1.506115000000000009e+03
6.000000000000000125e-03 5.266404999999999559e-01 7.126500000000002277e-02 9.747870000000000346e+01 1.506075000000000045e+03
7.000000000000000146e-03 5.265919999999999490e-01 -2.550599999999997314e-02 9.722585000000000832e+01 1.506009999999999991e+03
8.000000000000000167e-03 5.265195000000000292e-01 -1.784639999999999560e-01 9.685374999999999091e+01 1.505925000000000182e+03
9.000000000000001055e-03 5.263964999999999339e-01 -4.424000000000001265e-01 9.628095000000000425e+01 1.505775000000000091e+03
1.000000000000000194e-02 5.262179999999999636e-01 -8.223650000000000126e-01 9.546545000000000414e+01 1.505569999999999936e+03
1.099999999999999936e-02 5.259745000000000115e-01 -1.326309999999999878e+00 9.436404999999999177e+01 1.505285000000000082e+03
1.200000000000000025e-02 5.256549999999999834e-01 -1.962435000000000151e+00 9.293145000000001232e+01 1.504904999999999973e+03
1.300000000000000114e-02 5.252689999999999859e-01 -2.689995000000000136e+00 9.118025000000000091e+01 1.504429999999999836e+03
1.400000000000000203e-02 5.248559999999999892e-01 -3.403255000000000141e+00 8.921824999999999761e+01 1.503880000000000109e+03
1.499999999999999944e-02 5.244664999999999466e-01 -3.970124999999999460e+00 8.721954999999999814e+01 1.503304999999999836e+03
1.600000000000000033e-02 5.241394999999999804e-01 -4.287732499999999725e+00 8.535575000000000045e+01 1.502730000000000018e+03
1.700000000000000122e-02 5.238850000000000451e-01 -4.315965499999999899e+00 8.373709999999999809e+01 1.502210000000000036e+03
1.800000000000000211e-02 5.236895000000000300e-01 -4.079532500000000006e+00 8.238804999999999268e+01 1.501740000000000009e+03
1.900000000000000300e-02 5.235229999999999606e-01 -3.648064000000000195e+00 8.125614999999999100e+01 1.501320000000000164e+03
2.000000000000000042e-02 5.233544999999999447e-01 -3.107334999999999958e+00 8.024200000000000443e+01 1.500924999999999955e+03
2.100000000000000130e-02 5.231580000000000119e-01 -2.531626500000000224e+00 7.923770000000000380e+01 1.500545000000000073e+03
2.200000000000000219e-02 5.229219999999999979e-01 -1.964965000000000295e+00 7.816120000000000800e+01 1.500144999999999982e+03
2.299999999999999961e-02 5.226485000000000714e-01 -1.416059999999999874e+00 7.697624999999999318e+01 1.499720000000000027e+03
2.400000000000000050e-02 5.223524999999999974e-01 -8.673850000000000726e-01 7.569190000000000396e+01 1.499275000000000091e+03
2.500000000000000139e-02 5.220474999999999977e-01 -2.928650000000003750e-01 7.434624999999999773e+01 1.498815000000000055e+03
2.600000000000000228e-02 5.217469999999999608e-01 3.237550000000002370e-01 7.298144999999999527e+01 1.498344999999999800e+03
2.700000000000000316e-02 5.214520000000000266e-01 9.766449999999999854e-01 7.162205000000000155e+01 1.497875000000000000e+03
2.800000000000000058e-02 5.211544999999999650e-01 1.634395000000000042e+00 7.026210000000000377e+01 1.497400000000000091e+03
2.900000000000000147e-02 5.208399999999999697e-01 2.244870000000000143e+00 6.886299999999999955e+01 1.496914999999999964e+03
3.000000000000000236e-02 5.204885000000000206e-01 2.745804999999999829e+00 6.736235000000000639e+01 1.496404999999999973e+03
3.099999999999999978e-02 5.200839999999999907e-01 3.078265000000000029e+00 6.568930000000000291e+01 1.495849999999999909e+03
3.200000000000000067e-02 5.196140000000000203e-01 3.199650000000000105e+00 6.378405000000000058e+01 1.495240000000000009e+03
3.300000000000000155e-02 5.190774999999999695e-01 3.093615000000000226e+00 6.161499999999999488e+01 1.494565000000000055e+03
3.400000000000000244e-02 5.184850000000000847e-01 2.773925000000000196e+00 5.919120000000000203e+01 1.493820000000000164e+03
3.500000000000000333e-02 5.178534999999999666e-01 2.282905000000000406e+00 5.656600000000000250e+01 1.493019999999999982e+03
3.600000000000000422e-02 5.172124999999999639e-01 1.683440000000000492e+00 5.383149999999999835e+01 1.492184999999999945e+03
3.700000000000000511e-02 5.165899999999999936e-01 1.048810000000000464e+00 5.110665000000000191e+01 1.491345000000000027e+03
3.799999999999999906e-02 5.160154999999999603e-01 4.523049999999999571e-01 4.852179999999999893e+01 1.490534999999999854e+03
3.899999999999999994e-02 5.155140000000000278e-01 -4.153999999999991033e-02 4.620329999999999870e+01 1.489789999999999964e+03
4.000000000000000083e-02 5.151059999999999528e-01 -3.819649999999996659e-01 4.426115000000000066e+01 1.489134999999999991e+03
4.100000000000000172e-02 5.148040000000000393e-01 -5.338950000000002305e-01 4.278085000000000093e+01 1.488610000000000127e+03
4.200000000000000261e-02 5.146165000000000322e-01 -4.770250000000000323e-01 4.181980000000000075e+01 1.488220000000000027e+03
4.300000000000000350e-02 5.145450000000000301e-01 -2.029549999999999965e-01 4.140834999999999866e+01 1.487994999999999891e+03
4.400000000000000439e-02 5.145885000000000042e-01 2.884210000000000385e-01 4.155304999999999893e+01 1.487930000000000064e+03
4.499999999999999833e-02 5.147429999999999506e-01 9.923399999999999999e-01 4.224244999999999806e+01 1.488030000000000200e+03
4.599999999999999922e-02 5.150034999999999474e-01 1.901689999999999880e+00 4.345234999999999559e+01 1.488289999999999964e+03
4.700000000000000011e-02 5.153639999999999333e-01 3.008205000000000240e+00 4.515080000000000382e+01 1.488710000000000036e+03
4.800000000000000100e-02 5.158175000000000399e-01 4.302394999999999747e+00 4.730105000000000359e+01 1.489275000000000091e+03
4.900000000000000189e-02 5.163560000000000372e-01 5.772554999999999659e+00 4.986265000000000214e+01 1.489974999999999909e+03
5.000000000000000278e-02 5.169715000000000282e-01 7.403484999999999872e+00 5.279174999999999329e+01 1.490795000000000073e+03
5.100000000000000366e-02 5.176534999999999886e-01 9.175513249999999843e+00 5.604055000000000319e+01 1.491730000000000018e+03
5.200000000000000455e-02 5.183910000000000462e-01 1.106390500000000010e+01 5.955695000000000050e+01 1.492755000000000109e+03
5.300000000000000544e-02 5.191715000000000080e-01 1.303951499999999974e+01 6.328444999999999965e+01 1.493865000000000009e+03
5.399999999999999939e-02 5.199814999999999854e-01 1.506978999999999935e+01 6.716384999999999650e+01 1.495034999999999854e+03
5.500000000000000028e-02 5.208080000000000487e-01 1.712052500000000066e+01 7.113439999999999941e+01 1.496244999999999891e+03
5.600000000000000117e-02 5.216385000000000050e-01 1.915797500000000042e+01 7.513689999999999714e+01 1.497484999999999900e+03
5.700000000000000205e-02 5.224615000000000231e-01 2.115064999999999884e+01 7.911629999999999541e+01 1.498730000000000018e+03
5.800000000000000294e-02 5.232679999999999554e-01 2.307085000000000008e+01 8.302379999999999427e+01 1.499974999999999909e+03
5.900000000000000383e-02 5.240500000000000158e-01 2.489605000000000246e+01 8.681974999999999909e+01 1.501195000000000164e+03
6.000000000000000472e-02 5.248025000000000606e-01 2.660950000000000060e+01 9.047395000000000209e+01 1.502394999999999982e+03
6.099999999999999867e-02 5.255229999999999624e-01 2.820015000000000072e+01 9.396815000000000850e+01 1.503545000000000073e+03
6.199999999999999956e-02 5.262105000000000254e-01 2.966260000000000119e+01 9.729294999999999050e+01 1.504659999999999854e+03
6.300000000000000044e-02 5.268665000000000154e-01 3.099629999999999797e+01 1.004495500000000021e+02 1.505730000000000018e+03
6.400000000000000133e-02 5.274934999999999485e-01 3.220485000000000042e+01 1.034470499999999902e+02 1.506755000000000109e+03
6.500000000000000222e-02 5.280949999999999811e-01 3.329520000000000124e+01 1.063014500000000027e+02 1.507735000000000127e+03
6.600000000000000311e-02 5.286750000000000060e-01 3.427655000000000030e+01 1.090324999999999989e+02 1.508679999999999836e+03
6.700000000000000400e-02 5.292384999999999451e-01 3.515959999999999752e+01 1.116629999999999967e+02 1.509595000000000027e+03
6.800000000000000488e-02 5.297899999999999832e-01 3.595584999999999809e+01 1.142169999999999987e+02 1.510485000000000127e+03
6.900000000000000577e-02 5.303339999999999721e-01 3.667665000000000219e+01 1.167154999999999916e+02 1.511349999999999909e+03
7.000000000000000666e-02 5.308740000000000681e-01 3.733259999999999934e+01 1.191800000000000068e+02 1.512204999999999927e+03
7.100000000000000755e-02 5.314119999999999955e-01 3.793299999999999983e+01 1.216255000000000024e+02 1.513055000000000064e+03
7.200000000000000844e-02 5.319504999999999928e-01 3.848510000000000275e+01 1.240619999999999976e+02 1.513894999999999982e+03
7.300000000000000933e-02 5.324895000000000600e-01 3.899380000000000024e+01 1.264964999999999975e+02 1.514730000000000018e+03
7.399999999999999634e-02 5.330285000000000162e-01 3.946150000000000091e+01 1.289265000000000043e+02 1.515559999999999945e+03
7.499999999999999722e-02 5.335644999999999971e-01 3.988795000000000357e+01 1.313449999999999989e+02 1.516389999999999873e+03
7.599999999999999811e-02 5.340949999999999864e-01 4.027035000000000053e+01 1.337395000000000209e+02 1.517210000000000036e+03
7.699999999999999900e-02 5.346154999999999102e-01 4.060385000000000133e+01 1.360914999999999964e+02 1.518014999999999873e+03
7.799999999999999989e-02 5.351209999999999578e-01 4.088210000000000122e+01 1.383795000000000073e+02 1.518805000000000064e+03
7.900000000000000078e-02 5.356064999999999854e-01 4.109744999999999493e+01 1.405794999999999959e+02 1.519565000000000055e+03
8.000000000000000167e-02 5.360665000000000013e-01 4.124195000000000277e+01 1.426664999999999850e+02 1.520289999999999964e+03
8.100000000000000255e-02 5.364955000000000140e-01 4.130794999999999817e+01 1.446159999999999854e+02 1.520980000000000018e+03
8.200000000000000344e-02 5.368895000000000195e-01 4.128844999999999743e+01 1.464050000000000011e+02 1.521619999999999891e+03
8.300000000000000433e-02 5.372440000000000548e-01 4.117775000000000318e+01 1.480129999999999768e+02 1.522204999999999927e+03
8.400000000000000522e-02 5.375564999999999927e-01 4.097194999999999965e+01 1.494250000000000114e+02 1.522730000000000018e+03
8.500000000000000611e-02 5.378249999999999975e-01 4.066884999999999906e+01 1.506295000000000073e+02 1.523190000000000055e+03
8.600000000000000699e-02 5.380479999999999707e-01 4.026865000000000094e+01 1.516210000000000093e+02 1.523579999999999927e+03
8.700000000000000788e-02 5.382255000000000233e-01 3.977360000000000184e+01 1.523974999999999795e+02 1.523904999999999973e+03
8.800000000000000877e-02 5.383594999999999908e-01 3.918820000000000192e+01 1.529639999999999986e+02 1.524159999999999854e+03
8.899999999999999578e-02 5.384510000000000129e-01 3.851885000000000048e+01 1.533299999999999841e+02 1.524345000000000027e+03
8.999999999999999667e-02 5.385039999999999827e-01 3.777405000000000257e+01 1.535084999999999980e+02 1.524474999999999909e+03
9.099999999999999756e-02 5.385219999999999452e-01 3.696365000000000123e+01 1.535174999999999841e+02 1.524545000000000073e+03
9.199999999999999845e-02 5.385085000000000566e-01 3.609884999999999877e+01 1.533774999999999977e+02 1.524559999999999945e+03
9.299999999999999933e-02 5.384695000000000453e-01 3.519180000000000064e+01 1.531105000000000018e+02 1.524525000000000091e+03
9.400000000000000022e-02 5.384090000000000265e-01 3.425500000000000256e+01 1.527415000000000020e+02 1.524450000000000045e+03
9.500000000000000111e-02 5.383320000000000327e-01 3.330124999999999602e+01 1.522949999999999875e+02 1.524349999999999909e+03
9.600000000000000200e-02 5.382449999999999735e-01 3.234270000000000067e+01 1.517945000000000277e+02 1.524224999999999909e+03
9.700000000000000289e-02 5.381504999999999761e-01 3.139104999999999990e+01 1.512644999999999982e+02 1.524075000000000045e+03
9.800000000000000377e-02 5.380544999999999911e-01 3.045664999999999978e+01 1.507250000000000227e+02 1.523924999999999955e+03
9.900000000000000466e-02 5.379595000000000349e-01 2.954834999999999923e+01 1.501945000000000050e+02 1.523764999999999873e+03
1.000000000000000056e-01 5.378689999999999305e-01 2.867314999999999969e+01 1.496889999999999930e+02 1.523605000000000018e+03
1.010000000000000064e-01 5.377844999999999986e-01 2.783605000000000018e+01 1.492185000000000059e+02 1.523454999999999927e+03
1.020000000000000073e-01 5.377080000000000748e-01 2.703990000000000293e+01 1.487914999999999850e+02 1.523315000000000055e+03
1.030000000000000082e-01 5.376400000000000068e-01 2.628535000000000110e+01 1.484110000000000014e+02 1.523184999999999945e+03
1.040000000000000091e-01 5.375799999999999468e-01 2.557110000000000127e+01 1.480769999999999982e+02 1.523065000000000055e+03
1.050000000000000100e-01 5.375265000000000182e-01 2.489370000000000260e+01 1.477849999999999966e+02 1.522954999999999927e+03
1.059999999999999970e-01 5.374784999999999702e-01 2.424810000000000088e+01 1.475274999999999750e+02 1.522860000000000127e+03
1.069999999999999979e-01 5.374335000000000084e-01 2.362814999999999799e+01 1.472944999999999993e+02 1.522769999999999982e+03
1.079999999999999988e-01 5.373885000000000467e-01 2.302645000000000053e+01 1.470745000000000005e+02 1.522684999999999945e+03
1.089999999999999997e-01 5.373425000000000562e-01 2.243509999999999849e+01 1.468539999999999850e+02 1.522599999999999909e+03
1.100000000000000006e-01 5.372905000000000042e-01 2.184619999999999962e+01 1.466195000000000164e+02 1.522514999999999873e+03
1.110000000000000014e-01 5.372314999999999729e-01 2.125189999999999912e+01 1.463575000000000159e+02 1.522424999999999955e+03
1.120000000000000023e-01 5.371630000000000571e-01 2.064515000000000100e+01 1.460564999999999998e+02 1.522320000000000164e+03
1.130000000000000032e-01 5.370825000000000182e-01 2.001955000000000240e+01 1.457049999999999841e+02 1.522204999999999927e+03
1.140000000000000041e-01 5.369890000000000496e-01 1.937020000000000053e+01 1.452950000000000159e+02 1.522079999999999927e+03
1.150000000000000050e-01 5.368809999999999416e-01 1.869350000000000023e+01 1.448199999999999932e+02 1.521925000000000182e+03
1.160000000000000059e-01 5.367579999999999574e-01 1.798734999999999928e+01 1.442779999999999916e+02 1.521759999999999991e+03
1.170000000000000068e-01 5.366214999999999735e-01 1.725134999999999863e+01 1.436680000000000064e+02 1.521570000000000164e+03
1.180000000000000077e-01 5.364720000000000599e-01 1.648689999999999856e+01 1.429934999999999832e+02 1.521365000000000009e+03
1.190000000000000085e-01 5.363100000000000644e-01 1.569679999999999964e+01 1.422595000000000027e+02 1.521134999999999991e+03
1.200000000000000094e-01 5.361385000000000733e-01 1.488550000000000040e+01 1.414755000000000109e+02 1.520889999999999873e+03
1.209999999999999964e-01 5.359590000000000742e-01 1.405856499999999976e+01 1.406510000000000105e+02 1.520630000000000109e+03
1.219999999999999973e-01 5.357754999999999601e-01 1.322282999999999831e+01 1.397995000000000232e+02 1.520365000000000009e+03
1.229999999999999982e-01 5.355905000000000804e-01 1.238587000000000060e+01 1.389345000000000141e+02 1.520095000000000027e+03
1.239999999999999991e-01 5.354065000000000074e-01 1.155575999999999937e+01 1.380699999999999932e+02 1.519815000000000055e+03
1.250000000000000000e-01 5.352270000000000083e-01 1.074074000000000062e+01 1.372200000000000273e+02 1.519545000000000073e+03
1.260000000000000009e-01 5.350555000000000172e-01 9.949004999999999654e+00 1.364004999999999939e+02 1.519275000000000091e+03
1.270000000000000018e-01 5.348935000000000217e-01 9.188310000000001310e+00 1.356245000000000118e+02 1.519019999999999982e+03
1.280000000000000027e-01 5.347444999999999560e-01 8.465654999999999930e+00 1.349029999999999916e+02 1.518775000000000091e+03
1.290000000000000036e-01 5.346100000000000296e-01 7.787119999999999820e+00 1.342465000000000259e+02 1.518554999999999836e+03
1.300000000000000044e-01 5.344915000000000083e-01 7.157525000000000581e+00 1.336625000000000227e+02 1.518349999999999909e+03
1.310000000000000053e-01 5.343890000000000029e-01 6.580539999999999168e+00 1.331560000000000059e+02 1.518164999999999964e+03
1.320000000000000062e-01 5.343040000000000012e-01 6.058259999999999756e+00 1.327305000000000064e+02 1.518005000000000109e+03
1.330000000000000071e-01 5.342354999999999743e-01 5.591420000000000279e+00 1.323849999999999909e+02 1.517869999999999891e+03
1.340000000000000080e-01 5.341839999999999922e-01 5.179344999999999644e+00 1.321169999999999902e+02 1.517759999999999991e+03
1.350000000000000089e-01 5.341464999999999685e-01 4.820069999999999411e+00 1.319220000000000255e+02 1.517674999999999955e+03
1.360000000000000098e-01 5.341230000000000144e-01 4.510455000000000325e+00 1.317925000000000182e+02 1.517605000000000018e+03
1.370000000000000107e-01 5.341099999999999737e-01 4.246385000000000076e+00 1.317199999999999989e+02 1.517559999999999945e+03
1.380000000000000115e-01 5.341065000000000396e-01 4.022959999999999425e+00 1.316949999999999932e+02 1.517529999999999973e+03
1.390000000000000124e-01 5.341099999999999737e-01 3.834760000000000169e+00 1.317065000000000055e+02 1.517515000000000100e+03
1.400000000000000133e-01 5.341179999999999817e-01 3.676014999999999588e+00 1.317434999999999832e+02 1.517505000000000109e+03
1.410000000000000142e-01 5.341285000000000061e-01 3.540874999999999773e+00 1.317950000000000159e+02 1.517509999999999991e+03
1.420000000000000151e-01 5.341385000000000716e-01 3.423564999999999969e+00 1.318509999999999991e+02 1.517509999999999991e+03
1.430000000000000160e-01 5.341474999999999973e-01 3.318604999999999805e+00 1.319014999999999986e+02 1.517519999999999982e+03
1.440000000000000169e-01 5.341525000000000301e-01 3.220925000000000260e+00 1.319385000000000048e+02 1.517514999999999873e+03
1.450000000000000178e-01 5.341540000000000177e-01 3.126030000000000086e+00 1.319549999999999841e+02 1.517514999999999873e+03
1.459999999999999909e-01 5.341485000000000261e-01 3.030019999999999936e+00 1.319449999999999932e+02 1.517509999999999991e+03
1.469999999999999918e-01 5.341369999999999729e-01 2.929730000000000167e+00 1.319039999999999964e+02 1.517500000000000000e+03
1.479999999999999927e-01 5.341179999999999817e-01 2.822689999999999699e+00 1.318299999999999841e+02 1.517469999999999800e+03
1.489999999999999936e-01 5.340925000000000811e-01 2.707184999999999953e+00 1.317210000000000036e+02 1.517440000000000055e+03
1.499999999999999944e-01 5.340590000000000614e-01 2.582195000000000018e+00 1.315774999999999864e+02 1.517394999999999982e+03
1.509999999999999953e-01 5.340194999999999803e-01 2.447385000000000144e+00 1.314000000000000057e+02 1.517345000000000027e+03
1.519999999999999962e-01 5.339734999999999898e-01 2.303040000000000198e+00 1.311914999999999907e+02 1.517279999999999973e+03
1.529999999999999971e-01 5.339220000000000077e-01 2.149995000000000100e+00 1.309549999999999841e+02 1.517210000000000036e+03
1.539999999999999980e-01 5.338660000000000627e-01 1.989576999999999929e+00 1.306940000000000168e+02 1.517130000000000109e+03
1.549999999999999989e-01 5.338060000000000027e-01 1.823485500000000092e+00 1.304134999999999991e+02 1.517045000000000073e+03
1.559999999999999998e-01 5.337430000000000785e-01 1.653714499999999976e+00 1.301165000000000020e+02 1.516949999999999818e+03
1.570000000000000007e-01 5.336779999999999857e-01 1.482457999999999831e+00 1.298089999999999975e+02 1.516855000000000018e+03
1.580000000000000016e-01 5.336119999999999752e-01 1.311989500000000142e+00 1.294950000000000045e+02 1.516755000000000109e+03
1.590000000000000024e-01 5.335460000000000758e-01 1.144552849999999955e+00 1.291790000000000020e+02 1.516654999999999973e+03
