# t [s], A [cm^2], U [cm/s], P [cPa], c [cm/s]
1.000000000000000021e-03 7.701065000000000271e-01 4.844800000000003271e-03 9.188495000000000346e+01 1.670615000000000009e+03
2.000000000000000042e-03 7.700940000000000563e-01 -3.722345000000000168e-03 9.185949999999999704e+01 1.670605000000000018e+03
3.000000000000000062e-03 7.701385000000000591e-01 6.121170000000000083e-02 9.193049999999999500e+01 1.670619999999999891e+03
4.000000000000000083e-03 7.701979999999999382e-01 1.549222999999999850e-01 9.205369999999999209e+01 1.670650000000000091e+03
5.000000000000000104e-03 7.701934999999999754e-01 1.652170000000000027e-01 9.205840000000000600e+01 1.670654999999999973e+03
6.000000000000000125e-03 7.701350000000000140e-01 9.498049999999999549e-02 9.191140000000000043e+01 1.670630000000000109e+03
7.000000000000000146e-03 7.700830000000000730e-01 2.972350000000001380e-02 9.171424999999999272e+01 1.670585000000000036e+03
8.000000000000000167e-03 7.700240000000000418e-01 -5.270149999999995671e-02 9.145964999999999634e+01 1.670534999999999854e+03
9.000000000000001055e-03 7.699184999999999501e-01 -2.173870000000000524e-01 9.106374999999999886e+01 1.670449999999999818e+03
1.000000000000000194e-02 7.697540000000000493e-01 -4.864850000000000563e-01 9.047370000000000800e+01 1.670329999999999927e+03
1.099999999999999936e-02 7.695145000000001012e-01 -8.787399999999999656e-01 8.963519999999999754e+01 1.670159999999999854e+03
1.200000000000000025e-02 7.691859999999999253e-01 -1.408959999999999990e+00 8.849304999999999666e+01 1.669924999999999955e+03
1.300000000000000114e-02 7.687835000000000640e-01 -2.040599999999999969e+00 8.705665000000000475e+01 1.669619999999999891e+03
1.400000000000000203e-02 7.683569999999999567e-01 -2.676285000000000025e+00 8.543045000000000755e+01 1.669264999999999873e+03
1.499999999999999944e-02 7.679644999999999389e-01 -3.201979499999999756e+00 8.376984999999999104e+01 1.668894999999999982e+03
1.600000000000000033e-02 7.676399999999999890e-01 -3.538114000000000203e+00 8.220945000000000391e+01 1.668530000000000200e+03
1.700000000000000122e-02 7.673845000000000249e-01 -3.661775500000000072e+00 8.081719999999999970e+01 1.668190000000000055e+03
1.800000000000000211e-02 7.671740000000000226e-01 -3.598980999999999764e+00 7.958795000000000641e+01 1.667869999999999891e+03
1.900000000000000300e-02 7.669734999999999747e-01 -3.401997500000000230e+00 7.846500000000000341e+01 1.667565000000000055e+03
2.000000000000000042e-02 7.667539999999999356e-01 -3.125208500000000278e+00 7.737260000000000559e+01 1.667264999999999873e+03
2.100000000000000130e-02 7.664984999999999715e-01 -2.807288199999999900e+00 7.624584999999999013e+01 1.666960000000000036e+03
2.200000000000000219e-02 7.662050000000000249e-01 -2.462918500000000233e+00 7.505055000000000121e+01 1.666639999999999873e+03
2.299999999999999961e-02 7.658850000000000380e-01 -2.084810000000000052e+00 7.378849999999999909e+01 1.666305000000000064e+03
2.400000000000000050e-02 7.655564999999999731e-01 -1.654140000000000166e+00 7.248904999999999177e+01 1.665965000000000146e+03
2.500000000000000139e-02 7.652335000000000109e-01 -1.154744999999999910e+00 7.118975000000000364e+01 1.665615000000000009e+03
2.600000000000000228e-02 7.649219999999999908e-01 -5.852699999999999569e-01 6.991734999999999900e+01 1.665269999999999982e+03
2.700000000000000316e-02 7.646169999999999911e-01 3.466000000000013515e-02 6.867310000000000514e+01 1.664934999999999945e+03
2.800000000000000058e-02 7.643024999999999958e-01 6.656150000000000677e-01 6.742844999999999800e+01 1.664594999999999800e+03
2.900000000000000147e-02 7.639569999999999972e-01 1.255439999999999889e+00 6.613044999999999618e+01 1.664244999999999891e+03
3.000000000000000236e-02 7.635589999999999877e-01 1.750075000000000047e+00 6.471450000000000102e+01 1.663875000000000000e+03
3.099999999999999978e-02 7.630934999999999802e-01 2.105065000000000186e+00 6.312124999999999631e+01 1.663465000000000146e+03
3.200000000000000067e-02 7.625560000000000116e-01 2.295019999999999616e+00 6.131300000000000239e+01 1.663019999999999982e+03
3.300000000000000155e-02 7.619529999999999914e-01 2.318494999999999528e+00 5.928555000000000064e+01 1.662525000000000091e+03
3.400000000000000244e-02 7.613045000000000506e-01 2.197154999999999969e+00 5.707175000000000153e+01 1.661994999999999891e+03
3.500000000000000333e-02 7.606364999999999377e-01 1.969700000000000006e+00 5.473695000000000022e+01 1.661434999999999945e+03
3.600000000000000422e-02 7.599765000000000548e-01 1.682995000000000019e+00 5.236740000000000350e+01 1.660860000000000127e+03
3.700000000000000511e-02 7.593514999999999571e-01 1.383115000000000094e+00 5.005644999999999811e+01 1.660299999999999955e+03
3.799999999999999906e-02 7.587824999999999154e-01 1.108729999999999993e+00 4.789159999999999684e+01 1.659764999999999873e+03
3.899999999999999994e-02 7.582845000000000280e-01 8.878300000000001191e-01 4.594554999999999723e+01 1.659269999999999982e+03
4.000000000000000083e-02 7.578644999999999410e-01 7.376749999999998586e-01 4.427195000000000391e+01 1.658840000000000146e+03
4.100000000000000172e-02 7.575264999999999915e-01 6.671350000000002556e-01 4.290515000000000612e+01 1.658470000000000027e+03
4.200000000000000261e-02 7.572719999999999452e-01 6.801550000000002871e-01 4.186379999999999768e+01 1.658174999999999955e+03
4.300000000000000350e-02 7.570999999999999952e-01 7.793500000000000982e-01 4.115570000000000306e+01 1.657960000000000036e+03
4.400000000000000439e-02 7.570109999999999895e-01 9.686779999999999280e-01 4.078275000000000006e+01 1.657825000000000045e+03
4.499999999999999833e-02 7.570049999999999280e-01 1.254693000000000058e+00 4.074509999999999366e+01 1.657769999999999982e+03
4.599999999999999922e-02 7.570840000000000902e-01 1.646278999999999826e+00 4.104295000000000471e+01 1.657800000000000182e+03
4.700000000000000011e-02 7.572499999999999787e-01 2.153140000000000054e+00 4.167664999999999509e+01 1.657904999999999973e+03
4.800000000000000100e-02 7.575039999999999552e-01 2.783584400000000070e+00 4.264485000000000525e+01 1.658095000000000027e+03
4.900000000000000189e-02 7.578435000000000032e-01 3.542292499999999844e+00 4.394244999999999379e+01 1.658365000000000009e+03
5.000000000000000278e-02 7.582664999999999544e-01 4.428643049999999803e+00 4.555780000000000030e+01 1.658715000000000146e+03
5.100000000000000366e-02 7.587649999999999118e-01 5.435883999999999716e+00 4.747110000000000696e+01 1.659139999999999873e+03
5.200000000000000455e-02 7.593309999999999782e-01 6.551276000000000543e+00 4.965404999999999802e+01 1.659625000000000000e+03
5.300000000000000544e-02 7.599525000000000308e-01 7.757074999999999498e+00 5.207049999999999557e+01 1.660174999999999955e+03
5.399999999999999939e-02 7.606180000000000163e-01 9.032215000000000771e+00 5.467830000000000723e+01 1.660779999999999973e+03
5.500000000000000028e-02 7.613145000000000051e-01 1.035404999999999909e+01 5.743209999999999837e+01 1.661425000000000182e+03
5.600000000000000117e-02 7.620299999999999851e-01 1.170017999999999958e+01 6.028629999999999711e+01 1.662099999999999909e+03
5.700000000000000205e-02 7.627554999999999197e-01 1.305018000000000100e+01 6.319784999999999542e+01 1.662795000000000073e+03
5.800000000000000294e-02 7.634805000000000064e-01 1.438644500000000015e+01 6.612884999999999991e+01 1.663509999999999991e+03
5.900000000000000383e-02 7.642005000000000603e-01 1.569501999999999953e+01 6.904820000000000846e+01 1.664220000000000027e+03
6.000000000000000472e-02 7.649095000000000200e-01 1.696569999999999823e+01 7.193234999999999957e+01 1.664934999999999945e+03
6.099999999999999867e-02 7.656064999999999676e-01 1.819154999999999944e+01 7.476564999999999372e+01 1.665644999999999982e+03
6.199999999999999956e-02 7.662904999999999855e-01 1.936880000000000024e+01 7.753934999999999889e+01 1.666340000000000146e+03
6.300000000000000044e-02 7.669610000000000039e-01 2.049565000000000126e+01 8.025090000000000146e+01 1.667025000000000091e+03
6.400000000000000133e-02 7.676199999999999690e-01 2.157209999999999894e+01 8.290219999999999345e+01 1.667700000000000045e+03
6.500000000000000222e-02 7.682689999999999797e-01 2.259880000000000067e+01 8.549835000000000207e+01 1.668360000000000127e+03
6.600000000000000311e-02 7.689099999999999824e-01 2.357699999999999818e+01 8.804579999999999984e+01 1.669014999999999873e+03
6.700000000000000400e-02 7.695430000000000881e-01 2.450735000000000241e+01 9.055105000000000359e+01 1.669659999999999854e+03
6.800000000000000488e-02 7.701694999999999514e-01 2.539029999999999987e+01 9.301959999999999695e+01 1.670289999999999964e+03
6.900000000000000577e-02 7.707904999999999340e-01 2.622514999999999930e+01 9.545374999999999943e+01 1.670920000000000073e+03
7.000000000000000666e-02 7.714039999999999786e-01 2.701050000000000040e+01 9.785429999999999495e+01 1.671539999999999964e+03
7.100000000000000755e-02 7.720089999999999453e-01 2.774399999999999977e+01 1.002188999999999908e+02 1.672154999999999973e+03
7.200000000000000844e-02 7.726034999999999986e-01 2.842249999999999943e+01 1.025409999999999968e+02 1.672755000000000109e+03
7.300000000000000933e-02 7.731850000000000112e-01 2.904260000000000019e+01 1.048128499999999974e+02 1.673344999999999800e+03
7.399999999999999634e-02 7.737505000000000077e-01 2.960065000000000168e+01 1.070240000000000009e+02 1.673924999999999955e+03
7.499999999999999722e-02 7.742975000000000829e-01 3.009329999999999927e+01 1.091645000000000039e+02 1.674480000000000018e+03
7.599999999999999811e-02 7.748224999999999696e-01 3.051774999999999949e+01 1.112220000000000084e+02 1.675025000000000091e+03
7.699999999999999900e-02 7.753235000000000543e-01 3.087174999999999869e+01 1.131869999999999976e+02 1.675545000000000073e+03
7.799999999999999989e-02 7.757979999999999876e-01 3.115399999999999991e+01 1.150485000000000042e+02 1.676045000000000073e+03
7.900000000000000078e-02 7.762450000000000738e-01 3.136384999999999934e+01 1.167994999999999948e+02 1.676509999999999991e+03
8.000000000000000167e-02 7.766625000000000334e-01 3.150139999999999674e+01 1.184325000000000045e+02 1.676954999999999927e+03
8.100000000000000255e-02 7.770489999999999897e-01 3.156729999999999947e+01 1.199429999999999978e+02 1.677365000000000009e+03
8.200000000000000344e-02 7.774045000000000538e-01 3.156300000000000239e+01 1.213269999999999982e+02 1.677744999999999891e+03
8.300000000000000433e-02 7.777279999999999749e-01 3.149000000000000199e+01 1.225825000000000102e+02 1.678095000000000027e+03
8.400000000000000522e-02 7.780190000000000161e-01 3.135060000000000002e+01 1.237090000000000032e+02 1.678414999999999964e+03
8.500000000000000611e-02 7.782784999999999842e-01 3.114750000000000085e+01 1.247069999999999936e+02 1.678700000000000045e+03
8.600000000000000699e-02 7.785064999999999902e-01 3.088394999999999868e+01 1.255784999999999911e+02 1.678950000000000045e+03
8.700000000000000788e-02 7.787045000000000217e-01 3.056410000000000338e+01 1.263269999999999982e+02 1.679170000000000073e+03
8.800000000000000877e-02 7.788729999999999265e-01 3.019245000000000090e+01 1.269579999999999984e+02 1.679360000000000127e+03
8.899999999999999578e-02 7.790144999999999431e-01 2.977465000000000117e+01 1.274784999999999968e+02 1.679519999999999982e+03
8.999999999999999667e-02 7.791310000000000180e-01 2.931680000000000064e+01 1.278954999999999984e+02 1.679654999999999973e+03
9.099999999999999756e-02 7.792250000000000565e-01 2.882569999999999766e+01 1.282210000000000036e+02 1.679764999999999873e+03
9.199999999999999845e-02 7.792995000000000339e-01 2.830839999999999890e+01 1.284644999999999868e+02 1.679849999999999909e+03
9.299999999999999933e-02 7.793579999999999952e-01 2.777205000000000013e+01 1.286374999999999886e+02 1.679920000000000073e+03
9.400000000000000022e-02 7.794019999999999282e-01 2.722364999999999924e+01 1.287524999999999977e+02 1.679965000000000146e+03
9.500000000000000111e-02 7.794349999999999890e-01 2.666969999999999885e+01 1.288199999999999932e+02 1.680000000000000000e+03
9.600000000000000200e-02 7.794590000000000130e-01 2.611574999999999847e+01 1.288505000000000109e+02 1.680025000000000091e+03
9.700000000000000289e-02 7.794769999999999754e-01 2.556654999999999944e+01 1.288530000000000086e+02 1.680039999999999964e+03
9.800000000000000377e-02 7.794889999999999874e-01 2.502564999999999884e+01 1.288359999999999843e+02 1.680045000000000073e+03
9.900000000000000466e-02 7.794974999999999543e-01 2.449540000000000006e+01 1.288029999999999973e+02 1.680045000000000073e+03
1.000000000000000056e-01 7.795014999999999583e-01 2.397695000000000221e+01 1.287584999999999980e+02 1.680039999999999964e+03
1.010000000000000064e-01 7.795019999999999172e-01 2.347039999999999793e+01 1.287030000000000030e+02 1.680029999999999973e+03
1.020000000000000073e-01 7.794974999999999543e-01 2.297480000000000189e+01 1.286370000000000005e+02 1.680019999999999982e+03
1.030000000000000082e-01 7.794885000000000286e-01 2.248859999999999815e+01 1.285575000000000045e+02 1.680000000000000000e+03
1.040000000000000091e-01 7.794729999999999714e-01 2.200949999999999918e+01 1.284615000000000009e+02 1.679980000000000018e+03
1.050000000000000100e-01 7.794510000000000050e-01 2.153484999999999872e+01 1.283449999999999989e+02 1.679949999999999818e+03
1.059999999999999970e-01 7.794205000000000716e-01 2.106179999999999808e+01 1.282044999999999959e+02 1.679920000000000073e+03
1.069999999999999979e-01 7.793805000000000316e-01 2.058745000000000047e+01 1.280344999999999800e+02 1.679875000000000000e+03
1.079999999999999988e-01 7.793304999999999261e-01 2.010909999999999798e+01 1.278314999999999912e+02 1.679825000000000045e+03
1.089999999999999997e-01 7.792700000000000182e-01 1.962415000000000020e+01 1.275914999999999964e+02 1.679764999999999873e+03
1.100000000000000006e-01 7.791980000000000572e-01 1.913064999999999927e+01 1.273125000000000000e+02 1.679699999999999818e+03
1.110000000000000014e-01 7.791150000000000020e-01 1.862700000000000244e+01 1.269934999999999974e+02 1.679625000000000000e+03
1.120000000000000023e-01 7.790205000000000046e-01 1.811240000000000094e+01 1.266325000000000074e+02 1.679539999999999964e+03
1.130000000000000032e-01 7.789154999999999829e-01 1.758664999999999878e+01 1.262319999999999993e+02 1.679445000000000164e+03
1.140000000000000041e-01 7.788005000000000067e-01 1.705025000000000190e+01 1.257944999999999993e+02 1.679335000000000036e+03
1.150000000000000050e-01 7.786774999999999114e-01 1.650459999999999994e+01 1.253240000000000123e+02 1.679224999999999909e+03
1.160000000000000059e-01 7.785480000000000178e-01 1.595185000000000031e+01 1.248265000000000100e+02 1.679105000000000018e+03
1.170000000000000068e-01 7.784134999999999804e-01 1.539464999999999861e+01 1.243075000000000045e+02 1.678980000000000018e+03
1.180000000000000077e-01 7.782765000000000377e-01 1.483660000000000068e+01 1.237760000000000105e+02 1.678845000000000027e+03
1.190000000000000085e-01 7.781394999999999840e-01 1.428149999999999942e+01 1.232400000000000091e+02 1.678710000000000036e+03
1.200000000000000094e-01 7.780044999999999877e-01 1.373367000000000004e+01 1.227090000000000032e+02 1.678585000000000036e+03
1.209999999999999964e-01 7.778739999999999544e-01 1.319756500000000088e+01 1.221920000000000073e+02 1.678450000000000045e+03
1.219999999999999973e-01 7.777514999999999290e-01 1.267767999999999873e+01 1.216995000000000005e+02 1.678329999999999927e+03
1.229999999999999982e-01 7.776374999999999815e-01 1.217831999999999937e+01 1.212400000000000091e+02 1.678210000000000036e+03
1.239999999999999991e-01 7.775354999999999350e-01 1.170355499999999971e+01 1.208220000000000027e+02 1.678099999999999909e+03
1.250000000000000000e-01 7.774469999999999992e-01 1.125688500000000047e+01 1.204515000000000100e+02 1.678000000000000000e+03
1.260000000000000009e-01 7.773725000000000218e-01 1.084120000000000061e+01 1.201359999999999957e+02 1.677909999999999854e+03
1.270000000000000018e-01 7.773134999999999906e-01 1.045868000000000109e+01 1.198789999999999907e+02 1.677839999999999918e+03
1.280000000000000027e-01 7.772699999999999054e-01 1.011078999999999972e+01 1.196829999999999927e+02 1.677785000000000082e+03
1.290000000000000036e-01 7.772425000000000583e-01 9.798000000000000043e+00 1.195490000000000066e+02 1.677735000000000127e+03
1.300000000000000044e-01 7.772304999999999353e-01 9.520115000000000549e+00 1.194759999999999991e+02 1.677704999999999927e+03
1.310000000000000053e-01 7.772324999999999928e-01 9.276229999999999976e+00 1.194629999999999939e+02 1.677694999999999936e+03
1.320000000000000062e-01 7.772490000000000787e-01 9.064705000000000013e+00 1.195045000000000073e+02 1.677690000000000055e+03
1.330000000000000071e-01 7.772764999999999258e-01 8.883324999999999250e+00 1.195960000000000036e+02 1.677700000000000045e+03
1.340000000000000080e-01 7.773149999999999782e-01 8.729514999999999247e+00 1.197319999999999993e+02 1.677730000000000018e+03
1.350000000000000089e-01 7.773624999999999563e-01 8.600384999999999280e+00 1.199064999999999941e+02 1.677759999999999991e+03
1.360000000000000098e-01 7.774170000000000247e-01 8.492884999999999351e+00 1.201124999999999972e+02 1.677799999999999955e+03
1.370000000000000107e-01 7.774769999999999737e-01 8.403895000000000337e+00 1.203435000000000059e+02 1.677849999999999909e+03
1.380000000000000115e-01 7.775404999999999678e-01 8.330359999999998877e+00 1.205925000000000011e+02 1.677904999999999973e+03
1.390000000000000124e-01 7.776069999999999371e-01 8.269320000000000448e+00 1.208539999999999992e+02 1.677964999999999918e+03
1.400000000000000133e-01 7.776750000000000052e-01 8.218025000000000801e+00 1.211229999999999905e+02 1.678030000000000200e+03
1.410000000000000142e-01 7.777429999999999621e-01 8.173925000000000551e+00 1.213930000000000007e+02 1.678095000000000027e+03
1.420000000000000151e-01 7.778100000000000014e-01 8.134730000000001127e+00 1.216615000000000038e+02 1.678154999999999973e+03
1.430000000000000160e-01 7.778760000000000119e-01 8.098425000000000651e+00 1.219244999999999948e+02 1.678219999999999800e+03
1.440000000000000169e-01 7.779390000000000471e-01 8.063250000000000028e+00 1.221794999999999902e+02 1.678280000000000200e+03
1.450000000000000178e-01 7.780000000000000249e-01 8.027744999999999465e+00 1.224230000000000018e+02 1.678340000000000146e+03
1.459999999999999909e-01 7.780580000000000274e-01 7.990724999999999412e+00 1.226555000000000035e+02 1.678400000000000091e+03
1.469999999999999918e-01 7.781124999999999847e-01 7.951290000000000191e+00 1.228739999999999952e+02 1.678454999999999927e+03
1.479999999999999927e-01 7.781639999999999668e-01 7.908784999999999954e+00 1.230799999999999983e+02 1.678509999999999991e+03
1.489999999999999936e-01 7.782120000000000148e-01 7.862845000000000084e+00 1.232715000000000032e+02 1.678559999999999945e+03
1.499999999999999944e-01 7.782575000000000465e-01 7.813320000000000043e+00 1.234505000000000052e+02 1.678610000000000127e+03
1.509999999999999953e-01 7.782999999999999918e-01 7.760265000000000413e+00 1.236175000000000068e+02 1.678650000000000091e+03
1.519999999999999962e-01 7.783400000000000318e-01 7.703910000000000480e+00 1.237725000000000080e+02 1.678695000000000164e+03
1.529999999999999971e-01 7.783769999999999856e-01 7.644625000000000448e+00 1.239170000000000016e+02 1.678735000000000127e+03
1.539999999999999980e-01 7.784130000000000216e-01 7.582874999999999588e+00 1.240519999999999925e+02 1.678764999999999873e+03
1.549999999999999989e-01 7.784465000000000412e-01 7.519175000000000608e+00 1.241794999999999902e+02 1.678804999999999836e+03
1.559999999999999998e-01 7.784784999999999622e-01 7.454039999999999111e+00 1.242990000000000066e+02 1.678835000000000036e+03
1.570000000000000007e-01 7.785094999999999654e-01 7.387974999999999959e+00 1.244120000000000061e+02 1.678865000000000009e+03
1.580000000000000016e-01 7.785389999999999810e-01 7.321405000000000385e+00 1.245200000000000102e+02 1.678900000000000091e+03
1.590000000000000024e-01 7.785675000000000789e-01 7.254699999999999704e+00 1.246225000000000023e+02 1.678925000000000182e+03
