# t [s], A [cm^2], U [cm/s], P [cPa], c [cm/s]
1.000000000000000021e-03 2.045514999999999972e-01 1.478865000000000041e-01 8.828190000000000737e+01 2.103139999999999873e+03
2.000000000000000042e-03 2.045210000000000083e-01 1.286234000000000099e+00 8.580570000000000164e+01 2.102914999999999964e+03
3.000000000000000062e-03 2.044170000000000154e-01 2.748493499999999923e+00 8.233764999999999645e+01 2.102199999999999818e+03
4.000000000000000083e-03 2.042645000000000155e-01 4.411042000000000129e+00 7.830970000000000653e+01 2.101159999999999854e+03
5.000000000000000104e-03 2.040909999999999946e-01 6.229334999999999845e+00 7.441140000000000043e+01 2.099984999999999673e+03
6.000000000000000125e-03 2.039169999999999872e-01 8.107855000000000700e+00 7.104574999999999818e+01 2.098820000000000164e+03
7.000000000000000146e-03 2.037505000000000011e-01 9.886715000000000586e+00 6.819174999999999898e+01 2.097720000000000255e+03
8.000000000000000167e-03 2.035934999999999828e-01 1.144440999999999953e+01 6.564150000000000773e+01 2.096704999999999927e+03
9.000000000000001055e-03 2.034509999999999930e-01 1.276623999999999981e+01 6.333755000000000024e+01 2.095795000000000073e+03
1.000000000000000194e-02 2.033250000000000057e-01 1.388196499999999922e+01 6.135300000000000153e+01 2.095005000000000109e+03
1.099999999999999936e-02 2.032184999999999964e-01 1.481020000000000003e+01 5.972735000000000127e+01 2.094340000000000146e+03
1.200000000000000025e-02 2.031310000000000060e-01 1.555845000000000056e+01 5.843529999999999802e+01 2.093800000000000182e+03
1.300000000000000114e-02 2.030599999999999905e-01 1.612640000000000029e+01 5.740630000000000166e+01 2.093364999999999782e+03
1.400000000000000203e-02 2.030005000000000004e-01 1.650975000000000037e+01 5.653495000000000203e+01 2.093014999999999873e+03
1.499999999999999944e-02 2.029504999999999781e-01 1.672449999999999903e+01 5.573944999999999794e+01 2.092720000000000255e+03
1.600000000000000033e-02 2.029084999999999916e-01 1.683380000000000010e+01 5.505669999999999931e+01 2.092480000000000018e+03
1.700000000000000122e-02 2.028789999999999760e-01 1.694330000000000069e+01 5.467539999999999623e+01 2.092315000000000055e+03
1.800000000000000211e-02 2.028705000000000092e-01 1.715995000000000203e+01 5.485415000000000418e+01 2.092269999999999982e+03
1.900000000000000300e-02 2.028880000000000128e-01 1.754445000000000121e+01 5.577609999999999957e+01 2.092380000000000109e+03
2.000000000000000042e-02 2.029334999999999889e-01 1.808539999999999992e+01 5.743529999999999802e+01 2.092670000000000073e+03
2.100000000000000130e-02 2.030020000000000158e-01 1.870629999999999882e+01 5.961504999999999654e+01 2.093100000000000364e+03
2.200000000000000219e-02 2.030839999999999868e-01 1.929789999999999850e+01 6.195784999999999343e+01 2.093614999999999782e+03
2.299999999999999961e-02 2.031675000000000009e-01 1.975710000000000122e+01 6.408220000000000027e+01 2.094154999999999745e+03
2.400000000000000050e-02 2.032410000000000050e-01 2.001729999999999876e+01 6.569480000000000075e+01 2.094635000000000218e+03
2.500000000000000139e-02 2.032975000000000199e-01 2.006165000000000020e+01 6.665874999999999773e+01 2.095010000000000218e+03
2.600000000000000228e-02 2.033335000000000004e-01 1.991819999999999879e+01 6.700245000000001028e+01 2.095260000000000218e+03
2.700000000000000316e-02 2.033520000000000050e-01 1.964119999999999777e+01 6.687630000000000052e+01 2.095389999999999873e+03
2.800000000000000058e-02 2.033570000000000100e-01 1.928800000000000026e+01 6.647899999999999920e+01 2.095434999999999945e+03
2.900000000000000147e-02 2.033524999999999916e-01 1.889939999999999998e+01 6.598390000000000555e+01 2.095414999999999964e+03
3.000000000000000236e-02 2.033439999999999970e-01 1.848955000000000126e+01 6.548810000000000286e+01 2.095364999999999782e+03
3.099999999999999978e-02 2.033314999999999984e-01 1.804760000000000275e+01 6.499864999999999782e+01 2.095289999999999964e+03
3.200000000000000067e-02 2.033159999999999967e-01 1.754814999999999969e+01 6.445260000000000389e+01 2.095190000000000055e+03
3.300000000000000155e-02 2.032935000000000159e-01 1.696635000000000204e+01 6.376044999999999874e+01 2.095054999999999836e+03
3.400000000000000244e-02 2.032640000000000002e-01 1.629194999999999993e+01 6.285484999999999900e+01 2.094875000000000000e+03
3.500000000000000333e-02 2.032255000000000034e-01 1.553879999999999839e+01 6.173024999999999807e+01 2.094635000000000218e+03
3.600000000000000422e-02 2.031799999999999995e-01 1.474639999999999951e+01 6.046050000000000324e+01 2.094355000000000018e+03
3.700000000000000511e-02 2.031319999999999792e-01 1.397325000000000017e+01 5.918970000000000198e+01 2.094054999999999836e+03
3.799999999999999906e-02 2.030869999999999898e-01 1.328425000000000011e+01 5.810040000000000049e+01 2.093765000000000327e+03
3.899999999999999994e-02 2.030500000000000083e-01 1.273659999999999926e+01 5.736910000000000309e+01 2.093529999999999745e+03
4.000000000000000083e-02 2.030279999999999863e-01 1.236660000000000004e+01 5.712234999999999729e+01 2.093380000000000109e+03
4.100000000000000172e-02 2.030230000000000090e-01 1.218270000000000053e+01 5.740630000000000166e+01 2.093340000000000146e+03
4.200000000000000261e-02 2.030365000000000086e-01 1.216479999999999961e+01 5.817655000000000598e+01 2.093404999999999745e+03
4.300000000000000350e-02 2.030655000000000099e-01 1.226964999999999861e+01 5.930895000000000294e+01 2.093579999999999927e+03
4.400000000000000439e-02 2.031060000000000088e-01 1.243984999999999985e+01 6.062584999999999980e+01 2.093824999999999818e+03
4.499999999999999833e-02 2.031514999999999849e-01 1.261449999999999960e+01 6.193075000000000330e+01 2.094110000000000127e+03
4.599999999999999922e-02 2.031955000000000011e-01 1.273850000000000016e+01 6.304090000000000060e+01 2.094380000000000109e+03
4.700000000000000011e-02 2.032319999999999960e-01 1.276885000000000048e+01 6.381324999999999648e+01 2.094614999999999782e+03
4.800000000000000100e-02 2.032565000000000066e-01 1.267784999999999940e+01 6.415789999999999793e+01 2.094779999999999745e+03
4.900000000000000189e-02 2.032665000000000166e-01 1.245294999999999952e+01 6.404044999999999277e+01 2.094845000000000255e+03
5.000000000000000278e-02 2.032599999999999962e-01 1.209365000000000023e+01 6.347355000000000302e+01 2.094809999999999945e+03
5.100000000000000366e-02 2.032375000000000154e-01 1.160810000000000031e+01 6.250294999999999845e+01 2.094675000000000182e+03
5.200000000000000455e-02 2.031999999999999917e-01 1.100909000000000049e+01 6.119214999999999804e+01 2.094445000000000164e+03
5.300000000000000544e-02 2.031499999999999972e-01 1.031090999999999980e+01 5.960855000000000103e+01 2.094135000000000218e+03
5.399999999999999939e-02 2.030879999999999908e-01 9.527934999999999377e+00 5.781480000000000530e+01 2.093744999999999891e+03
5.500000000000000028e-02 2.030175000000000174e-01 8.674305000000000376e+00 5.586504999999999654e+01 2.093304999999999836e+03
5.600000000000000117e-02 2.029400000000000093e-01 7.764464999999999506e+00 5.380580000000000496e+01 2.092820000000000164e+03
5.700000000000000205e-02 2.028570000000000095e-01 6.814700000000000202e+00 5.168030000000000257e+01 2.092295000000000073e+03
5.800000000000000294e-02 2.027714999999999934e-01 5.844219999999999970e+00 4.953329999999999700e+01 2.091750000000000000e+03
5.900000000000000383e-02 2.026834999999999887e-01 4.876065000000000538e+00 4.741570000000000107e+01 2.091195000000000164e+03
6.000000000000000472e-02 2.025974999999999859e-01 3.937209999999999877e+00 4.538739999999999952e+01 2.090644999999999982e+03
6.099999999999999867e-02 2.025144999999999862e-01 3.057884000000000047e+00 4.351694999999999425e+01 2.090119999999999891e+03
6.199999999999999956e-02 2.024380000000000068e-01 2.270181500000000074e+00 4.187930000000000064e+01 2.089630000000000109e+03
6.300000000000000044e-02 2.023709999999999953e-01 1.606179999999999941e+00 4.055110000000000525e+01 2.089199999999999818e+03
6.400000000000000133e-02 2.023169999999999968e-01 1.095814499999999914e+00 3.960495000000000232e+01 2.088849999999999909e+03
6.500000000000000222e-02 2.022774999999999990e-01 7.648599999999999843e-01 3.910360000000000014e+01 2.088590000000000146e+03
6.600000000000000311e-02 2.022559999999999913e-01 6.332124999999999559e-01 3.909475000000000477e+01 2.088439999999999600e+03
6.700000000000000400e-02 2.022545000000000037e-01 7.136800000000000921e-01 3.960714999999999719e+01 2.088414999999999964e+03
6.800000000000000488e-02 2.022730000000000083e-01 1.011344999999999938e+00 4.064894999999999925e+01 2.088514999999999873e+03
6.900000000000000577e-02 2.023129999999999928e-01 1.523534999999999862e+00 4.220735000000000525e+01 2.088755000000000109e+03
7.000000000000000666e-02 2.023729999999999973e-01 2.240345999999999727e+00 4.425030000000000285e+01 2.089114999999999782e+03
7.100000000000000755e-02 2.024519999999999931e-01 3.145575000000000010e+00 4.672974999999999568e+01 2.089605000000000018e+03
7.200000000000000844e-02 2.025494999999999934e-01 4.218029999999999724e+00 4.958525000000000205e+01 2.090210000000000036e+03
7.300000000000000933e-02 2.026625000000000232e-01 5.433035000000000281e+00 5.274920000000000186e+01 2.090909999999999854e+03
7.399999999999999634e-02 2.027880000000000238e-01 6.764050000000000118e+00 5.615115000000000123e+01 2.091699999999999818e+03
7.499999999999999722e-02 2.029239999999999933e-01 8.184215000000000018e+00 5.972275000000000489e+01 2.092559999999999945e+03
7.599999999999999811e-02 2.030675000000000119e-01 9.667830000000000368e+00 6.340160000000000196e+01 2.093465000000000146e+03
7.699999999999999900e-02 2.032170000000000087e-01 1.119144000000000005e+01 6.713445000000000107e+01 2.094409999999999854e+03
7.799999999999999989e-02 2.033694999999999808e-01 1.273467499999999930e+01 7.087924999999999898e+01 2.095380000000000109e+03
7.900000000000000078e-02 2.035244999999999971e-01 1.428064999999999962e+01 7.460560000000000969e+01 2.096364999999999782e+03
8.000000000000000167e-02 2.036795000000000133e-01 1.581625000000000014e+01 7.829484999999999673e+01 2.097360000000000127e+03
8.100000000000000255e-02 2.038345000000000018e-01 1.733149999999999835e+01 8.193800000000000239e+01 2.098355000000000018e+03
8.200000000000000344e-02 2.039890000000000037e-01 1.881929999999999836e+01 8.553374999999999773e+01 2.099340000000000146e+03
8.300000000000000433e-02 2.041419999999999901e-01 2.027454999999999785e+01 8.908574999999999022e+01 2.100324999999999818e+03
8.400000000000000522e-02 2.042940000000000034e-01 2.169375000000000142e+01 9.259964999999999691e+01 2.101305000000000291e+03
8.500000000000000611e-02 2.044449999999999878e-01 2.307404999999999973e+01 9.608119999999999550e+01 2.102279999999999745e+03
8.600000000000000699e-02 2.045954999999999857e-01 2.441304999999999836e+01 9.953425000000000011e+01 2.103250000000000000e+03
8.700000000000000788e-02 2.047444999999999959e-01 2.570819999999999794e+01 1.029594999999999914e+02 2.104215000000000146e+03
8.800000000000000877e-02 2.048935000000000062e-01 2.695664999999999978e+01 1.063539999999999992e+02 2.105175000000000182e+03
8.899999999999999578e-02 2.050410000000000010e-01 2.815554999999999808e+01 1.097115000000000009e+02 2.106130000000000109e+03
8.999999999999999667e-02 2.051864999999999939e-01 2.930160000000000053e+01 1.130229999999999961e+02 2.107079999999999927e+03
9.099999999999999756e-02 2.053304999999999991e-01 3.039159999999999684e+01 1.162789999999999964e+02 2.108015000000000327e+03
9.199999999999999845e-02 2.054719999999999880e-01 3.142210000000000036e+01 1.194669999999999987e+02 2.108934999999999945e+03
9.299999999999999933e-02 2.056109999999999882e-01 3.238974999999999937e+01 1.225739999999999981e+02 2.109835000000000036e+03
9.400000000000000022e-02 2.057470000000000132e-01 3.329115000000000180e+01 1.255879999999999939e+02 2.110720000000000255e+03
9.500000000000000111e-02 2.058790000000000064e-01 3.412265000000000015e+01 1.284939999999999998e+02 2.111579999999999927e+03
9.600000000000000200e-02 2.060064999999999813e-01 3.488089999999999691e+01 1.312805000000000177e+02 2.112414999999999964e+03
9.700000000000000289e-02 2.061290000000000067e-01 3.556189999999999429e+01 1.339329999999999927e+02 2.113210000000000036e+03
9.800000000000000377e-02 2.062459999999999849e-01 3.616195000000000448e+01 1.364370000000000118e+02 2.113980000000000018e+03
9.900000000000000466e-02 2.063564999999999983e-01 3.667725000000000080e+01 1.387800000000000011e+02 2.114704999999999927e+03
1.000000000000000056e-01 2.064610000000000056e-01 3.710405000000000086e+01 1.409474999999999909e+02 2.115385000000000218e+03
1.010000000000000064e-01 2.065569999999999906e-01 3.743925000000000125e+01 1.429275000000000091e+02 2.116024999999999636e+03
1.020000000000000073e-01 2.066465000000000107e-01 3.768040000000000589e+01 1.447099999999999795e+02 2.116610000000000127e+03
1.030000000000000082e-01 2.067264999999999797e-01 3.782600000000000051e+01 1.462864999999999895e+02 2.117140000000000327e+03
1.040000000000000091e-01 2.067990000000000106e-01 3.787595000000000312e+01 1.476529999999999916e+02 2.117619999999999891e+03
1.050000000000000100e-01 2.068625000000000047e-01 3.783155000000000001e+01 1.488089999999999975e+02 2.118045000000000073e+03
1.059999999999999970e-01 2.069170000000000176e-01 3.769579999999999842e+01 1.497590000000000146e+02 2.118404999999999745e+03
1.069999999999999979e-01 2.069630000000000081e-01 3.747325000000000017e+01 1.505104999999999791e+02 2.118715000000000146e+03
1.079999999999999988e-01 2.070009999999999906e-01 3.716984999999999673e+01 1.510759999999999934e+02 2.118965000000000146e+03
1.089999999999999997e-01 2.070305000000000062e-01 3.679309999999999548e+01 1.514714999999999918e+02 2.119170000000000073e+03
1.100000000000000006e-01 2.070535000000000014e-01 3.635125000000000028e+01 1.517164999999999964e+02 2.119324999999999818e+03
1.110000000000000014e-01 2.070700000000000041e-01 3.585349999999999682e+01 1.518294999999999959e+02 2.119440000000000055e+03
1.120000000000000023e-01 2.070805000000000007e-01 3.530915000000000248e+01 1.518319999999999936e+02 2.119510000000000218e+03
1.130000000000000032e-01 2.070855000000000057e-01 3.472780000000000200e+01 1.517454999999999927e+02 2.119554999999999836e+03
1.140000000000000041e-01 2.070874999999999799e-01 3.411854999999999905e+01 1.515889999999999986e+02 2.119570000000000164e+03
1.150000000000000050e-01 2.070850000000000191e-01 3.348995000000000033e+01 1.513799999999999955e+02 2.119560000000000400e+03
1.160000000000000059e-01 2.070805000000000007e-01 3.284975000000000023e+01 1.511345000000000027e+02 2.119534999999999854e+03
1.170000000000000068e-01 2.070739999999999803e-01 3.220475000000000421e+01 1.508644999999999925e+02 2.119494999999999891e+03
1.180000000000000077e-01 2.070660000000000001e-01 3.156060000000000088e+01 1.505805000000000007e+02 2.119440000000000055e+03
1.190000000000000085e-01 2.070569999999999911e-01 3.092145000000000010e+01 1.502884999999999991e+02 2.119380000000000109e+03
1.200000000000000094e-01 2.070470000000000088e-01 3.029049999999999798e+01 1.499920000000000186e+02 2.119315000000000055e+03
1.209999999999999964e-01 2.070365000000000122e-01 2.966949999999999932e+01 1.496920000000000073e+02 2.119250000000000000e+03
1.219999999999999973e-01 2.070249999999999868e-01 2.905904999999999916e+01 1.493859999999999957e+02 2.119175000000000182e+03
1.229999999999999982e-01 2.070124999999999882e-01 2.845864999999999867e+01 1.490704999999999814e+02 2.119095000000000255e+03
1.239999999999999991e-01 2.070004999999999762e-01 2.786670000000000158e+01 1.487379999999999995e+02 2.119010000000000218e+03
1.250000000000000000e-01 2.069865000000000177e-01 2.728089999999999904e+01 1.483814999999999884e+02 2.118925000000000182e+03
1.260000000000000009e-01 2.069719999999999893e-01 2.669845000000000113e+01 1.479920000000000186e+02 2.118824999999999818e+03
1.270000000000000018e-01 2.069555000000000144e-01 2.611585000000000178e+01 1.475600000000000023e+02 2.118720000000000255e+03
1.280000000000000027e-01 2.069370000000000098e-01 2.552980000000000160e+01 1.470774999999999864e+02 2.118599999999999909e+03
1.290000000000000036e-01 2.069165000000000032e-01 2.493674999999999997e+01 1.465349999999999966e+02 2.118465000000000146e+03
1.300000000000000044e-01 2.068935000000000080e-01 2.433375000000000199e+01 1.459265000000000043e+02 2.118315000000000055e+03
1.310000000000000053e-01 2.068674999999999820e-01 2.371815000000000140e+01 1.452454999999999927e+02 2.118149999999999636e+03
1.320000000000000062e-01 2.068389999999999951e-01 2.308825000000000216e+01 1.444894999999999925e+02 2.117960000000000036e+03
1.330000000000000071e-01 2.068070000000000186e-01 2.244294999999999973e+01 1.436574999999999989e+02 2.117750000000000000e+03
1.340000000000000080e-01 2.067720000000000113e-01 2.178249999999999886e+01 1.427520000000000095e+02 2.117525000000000091e+03
1.350000000000000089e-01 2.067335000000000145e-01 2.110804999999999865e+01 1.417769999999999868e+02 2.117275000000000091e+03
1.360000000000000098e-01 2.066930000000000156e-01 2.042190000000000083e+01 1.407415000000000020e+02 2.117014999999999873e+03
1.370000000000000107e-01 2.066494999999999860e-01 1.972740000000000293e+01 1.396550000000000011e+02 2.116730000000000018e+03
1.380000000000000115e-01 2.066040000000000099e-01 1.902884999999999849e+01 1.385305000000000177e+02 2.116440000000000055e+03
1.390000000000000124e-01 2.065575000000000050e-01 1.833145000000000024e+01 1.373824999999999932e+02 2.116135000000000218e+03
1.400000000000000133e-01 2.065095000000000125e-01 1.764069999999999894e+01 1.362264999999999873e+02 2.115824999999999818e+03
1.410000000000000142e-01 2.064610000000000056e-01 1.696280000000000143e+01 1.350794999999999959e+02 2.115510000000000218e+03
1.420000000000000151e-01 2.064124999999999988e-01 1.630379999999999896e+01 1.339569999999999936e+02 2.115199999999999818e+03
1.430000000000000160e-01 2.063655000000000073e-01 1.566959999999999908e+01 1.328750000000000000e+02 2.114889999999999873e+03
1.440000000000000169e-01 2.063200000000000034e-01 1.506585000000000107e+01 1.318464999999999918e+02 2.114590000000000146e+03
1.450000000000000178e-01 2.062760000000000149e-01 1.449729999999999919e+01 1.308849999999999909e+02 2.114305000000000291e+03
1.459999999999999909e-01 2.062350000000000017e-01 1.396825000000000117e+01 1.299995000000000118e+02 2.114029999999999745e+03
1.469999999999999918e-01 2.061970000000000192e-01 1.348174999999999990e+01 1.291974999999999909e+02 2.113784999999999854e+03
1.479999999999999927e-01 2.061620000000000119e-01 1.304010000000000069e+01 1.284834999999999923e+02 2.113555000000000291e+03
1.489999999999999936e-01 2.061304999999999943e-01 1.264450000000000074e+01 1.278594999999999970e+02 2.113345000000000255e+03
1.499999999999999944e-01 2.061024999999999940e-01 1.229534999999999911e+01 1.273259999999999934e+02 2.113159999999999854e+03
1.509999999999999953e-01 2.060779999999999834e-01 1.199200000000000088e+01 1.268790000000000049e+02 2.112994999999999891e+03
1.519999999999999962e-01 2.060569999999999902e-01 1.173305000000000042e+01 1.265164999999999935e+02 2.112859999999999673e+03
1.529999999999999971e-01 2.060400000000000009e-01 1.151624999999999943e+01 1.262314999999999969e+02 2.112744999999999891e+03
1.539999999999999980e-01 2.060259999999999869e-01 1.133910000000000018e+01 1.260174999999999983e+02 2.112644999999999982e+03
1.549999999999999989e-01 2.060139999999999749e-01 1.119834999999999958e+01 1.258675000000000068e+02 2.112569999999999709e+03
1.559999999999999998e-01 2.060059999999999947e-01 1.109045000000000059e+01 1.257729999999999961e+02 2.112510000000000218e+03
1.570000000000000007e-01 2.059995000000000021e-01 1.101164999999999949e+01 1.257270000000000039e+02 2.112470000000000255e+03
1.580000000000000016e-01 2.059949999999999837e-01 1.095805000000000007e+01 1.257205000000000013e+02 2.112434999999999945e+03
1.590000000000000024e-01 2.059929999999999817e-01 1.092579999999999885e+01 1.257454999999999927e+02 2.112420000000000073e+03
