# t [s], A [cm^2], U [cm/s], P [cPa], c [cm/s]
1.000000000000000021e-03 2.137989999999999891e-01 1.487304999999999877e-01 8.802955000000000041e+01 2.064875000000000000e+03
2.000000000000000042e-03 2.137584999999999902e-01 1.354820500000000205e+00 8.548564999999999259e+01 2.064570000000000164e+03
3.000000000000000062e-03 2.136335000000000039e-01 2.913547000000000331e+00 8.182810000000000628e+01 2.063684999999999945e+03
4.000000000000000083e-03 2.134530000000000038e-01 4.694055000000000533e+00 7.757515000000000782e+01 2.062440000000000055e+03
5.000000000000000104e-03 2.132505000000000095e-01 6.646325000000000038e+00 7.349154999999998950e+01 2.061050000000000182e+03
6.000000000000000125e-03 2.130525000000000058e-01 8.655969999999999942e+00 7.000305000000000177e+01 2.059704999999999927e+03
7.000000000000000146e-03 2.128654999999999853e-01 1.053383000000000003e+01 6.705404999999998950e+01 2.058449999999999818e+03
8.000000000000000167e-03 2.126910000000000189e-01 1.214647500000000058e+01 6.440614999999999668e+01 2.057310000000000400e+03
9.000000000000001055e-03 2.125340000000000007e-01 1.349151499999999970e+01 6.202349999999999852e+01 2.056295000000000073e+03
1.000000000000000194e-02 2.123984999999999901e-01 1.460759999999999970e+01 5.999860000000000326e+01 2.055430000000000291e+03
1.099999999999999936e-02 2.122855000000000159e-01 1.551630000000000109e+01 5.836449999999999250e+01 2.054720000000000255e+03
1.200000000000000025e-02 2.121945000000000081e-01 1.623329999999999984e+01 5.709489999999999554e+01 2.054154999999999745e+03
1.300000000000000114e-02 2.121230000000000060e-01 1.676719999999999899e+01 5.612715000000000032e+01 2.053715000000000146e+03
1.400000000000000203e-02 2.120659999999999767e-01 1.711485000000000056e+01 5.534975000000000023e+01 2.053375000000000000e+03
1.499999999999999944e-02 2.120190000000000130e-01 1.729200000000000159e+01 5.466320000000000334e+01 2.053099999999999909e+03
1.600000000000000033e-02 2.119814999999999894e-01 1.737259999999999849e+01 5.410654999999999859e+01 2.052880000000000109e+03
1.700000000000000122e-02 2.119595000000000229e-01 1.748515000000000086e+01 5.390729999999999933e+01 2.052759999999999764e+03
1.800000000000000211e-02 2.119639999999999858e-01 1.775789999999999935e+01 5.437480000000000047e+01 2.052800000000000182e+03
1.900000000000000300e-02 2.120019999999999960e-01 1.825359999999999872e+01 5.570909999999999940e+01 2.053034999999999854e+03
2.000000000000000042e-02 2.120739999999999847e-01 1.893625000000000114e+01 5.785484999999999900e+01 2.053494999999999891e+03
2.100000000000000130e-02 2.121709999999999985e-01 1.968540000000000134e+01 6.048534999999999684e+01 2.054114999999999782e+03
2.200000000000000219e-02 2.122780000000000222e-01 2.034490000000000265e+01 6.310999999999999943e+01 2.054804999999999836e+03
2.299999999999999961e-02 2.123760000000000092e-01 2.077955000000000041e+01 6.524354999999999905e+01 2.055449999999999818e+03
2.400000000000000050e-02 2.124510000000000010e-01 2.091734999999999900e+01 6.655899999999999750e+01 2.055954999999999927e+03
2.500000000000000139e-02 2.124960000000000182e-01 2.076395000000000124e+01 6.696984999999999388e+01 2.056270000000000437e+03
2.600000000000000228e-02 2.125110000000000054e-01 2.038864999999999839e+01 6.662254999999998972e+01 2.056394999999999982e+03
2.700000000000000316e-02 2.125029999999999974e-01 1.989170000000000016e+01 6.581260000000000332e+01 2.056364999999999782e+03
2.800000000000000058e-02 2.124825000000000186e-01 1.936599999999999966e+01 6.486565000000000225e+01 2.056239999999999782e+03
2.900000000000000147e-02 2.124574999999999936e-01 1.886864999999999881e+01 6.402790000000000248e+01 2.056079999999999927e+03
3.000000000000000236e-02 2.124349999999999850e-01 1.840905000000000058e+01 6.340184999999999604e+01 2.055929999999999836e+03
3.099999999999999978e-02 2.124150000000000205e-01 1.795510000000000161e+01 6.294010000000000105e+01 2.055804999999999836e+03
3.200000000000000067e-02 2.123955000000000148e-01 1.745274999999999821e+01 6.249034999999999940e+01 2.055675000000000182e+03
3.300000000000000155e-02 2.123700000000000032e-01 1.685125000000000028e+01 6.187035000000000196e+01 2.055515000000000327e+03
3.400000000000000244e-02 2.123349999999999960e-01 1.612640000000000029e+01 6.094695000000000107e+01 2.055300000000000182e+03
3.500000000000000333e-02 2.122875000000000179e-01 1.529439999999999955e+01 5.969604999999999961e+01 2.055000000000000000e+03
3.600000000000000422e-02 2.122300000000000020e-01 1.441344999999999921e+01 5.822509999999999764e+01 2.054640000000000327e+03
3.700000000000000511e-02 2.121685000000000099e-01 1.357140000000000057e+01 5.675275000000000603e+01 2.054250000000000000e+03
3.799999999999999906e-02 2.121129999999999960e-01 1.286410000000000053e+01 5.555245000000000033e+01 2.053885000000000218e+03
3.899999999999999994e-02 2.120730000000000115e-01 1.237154999999999916e+01 5.487834999999999752e+01 2.053614999999999782e+03
4.000000000000000083e-02 2.120555000000000079e-01 1.213830000000000098e+01 5.489770000000000039e+01 2.053489999999999782e+03
4.100000000000000172e-02 2.120660000000000045e-01 1.216404999999999959e+01 5.564784999999999826e+01 2.053534999999999854e+03
4.200000000000000261e-02 2.121035000000000004e-01 1.240450000000000053e+01 5.702794999999999703e+01 2.053760000000000218e+03
4.300000000000000350e-02 2.121620000000000172e-01 1.278260000000000041e+01 5.882305000000000206e+01 2.054119999999999891e+03
4.400000000000000439e-02 2.122324999999999906e-01 1.320410000000000039e+01 6.075055000000000405e+01 2.054565000000000055e+03
4.499999999999999833e-02 2.123055000000000081e-01 1.357450000000000045e+01 6.251500000000000057e+01 2.055029999999999745e+03
4.599999999999999922e-02 2.123694999999999888e-01 1.381350000000000122e+01 6.385854999999999393e+01 2.055440000000000055e+03
4.700000000000000011e-02 2.124150000000000205e-01 1.386444999999999972e+01 6.459714999999999918e+01 2.055744999999999891e+03
4.800000000000000100e-02 2.124369999999999870e-01 1.369785000000000075e+01 6.463775000000001114e+01 2.055900000000000091e+03
4.900000000000000189e-02 2.124320000000000097e-01 1.330959999999999965e+01 6.397650000000000148e+01 2.055880000000000109e+03
5.000000000000000278e-02 2.123994999999999911e-01 1.271579999999999977e+01 6.268134999999999479e+01 2.055684999999999945e+03
5.100000000000000366e-02 2.123430000000000040e-01 1.194516499999999937e+01 6.086674999999999613e+01 2.055335000000000036e+03
5.200000000000000455e-02 2.122650000000000092e-01 1.103209499999999998e+01 5.866639999999999588e+01 2.054845000000000255e+03
5.300000000000000544e-02 2.121719999999999995e-01 1.001117499999999971e+01 5.621090000000000231e+01 2.054250000000000000e+03
5.399999999999999939e-02 2.120674999999999921e-01 8.914360000000000284e+00 5.361355000000000359e+01 2.053585000000000036e+03
5.500000000000000028e-02 2.119559999999999778e-01 7.770400000000000418e+00 5.096519999999999584e+01 2.052860000000000127e+03
5.600000000000000117e-02 2.118404999999999871e-01 6.605665000000000120e+00 4.833689999999999998e+01 2.052119999999999891e+03
5.700000000000000205e-02 2.117249999999999965e-01 5.446469999999999700e+00 4.578725000000000023e+01 2.051375000000000000e+03
5.800000000000000294e-02 2.116120000000000223e-01 4.320904999999999774e+00 4.337089999999999890e+01 2.050644999999999982e+03
5.900000000000000383e-02 2.115049999999999986e-01 3.260083999999999982e+00 4.114655000000000484e+01 2.049954999999999927e+03
6.000000000000000472e-02 2.114055000000000240e-01 2.298335499999999865e+00 3.918070000000000164e+01 2.049304999999999836e+03
6.099999999999999867e-02 2.113184999999999925e-01 1.472138500000000016e+00 3.754789999999999850e+01 2.048739999999999782e+03
6.199999999999999956e-02 2.112465000000000037e-01 8.181305000000000938e-01 3.632720000000000482e+01 2.048260000000000218e+03
6.300000000000000044e-02 2.111935000000000062e-01 3.704540000000000610e-01 3.559544999999999959e+01 2.047904999999999973e+03
6.400000000000000133e-02 2.111620000000000164e-01 1.580580000000000040e-01 3.541989999999999839e+01 2.047684999999999945e+03
6.500000000000000222e-02 2.111549999999999816e-01 2.022700000000000053e-01 3.585065000000000168e+01 2.047629999999999882e+03
6.600000000000000311e-02 2.111755000000000160e-01 5.150644999999999252e-01 3.691550000000000153e+01 2.047734999999999900e+03
6.700000000000000400e-02 2.112235000000000085e-01 1.098180500000000004e+00 3.861605000000000132e+01 2.048024999999999636e+03
6.800000000000000488e-02 2.112985000000000002e-01 1.943087900000000090e+00 4.092770000000000152e+01 2.048484999999999673e+03
6.900000000000000577e-02 2.114004999999999912e-01 3.031767499999999949e+00 4.380134999999999934e+01 2.049125000000000000e+03
7.000000000000000666e-02 2.115265000000000062e-01 4.338074999999999903e+00 4.716729999999999734e+01 2.049920000000000073e+03
7.100000000000000755e-02 2.116744999999999877e-01 5.829520000000000479e+00 5.094084999999999752e+01 2.050855000000000018e+03
7.200000000000000844e-02 2.118400000000000005e-01 7.469359999999999999e+00 5.502785000000000082e+01 2.051909999999999854e+03
7.300000000000000933e-02 2.120199999999999863e-01 9.218704999999999927e+00 5.933145000000000380e+01 2.053065000000000055e+03
7.399999999999999634e-02 2.122100000000000097e-01 1.103881499999999960e+01 6.375745000000000573e+01 2.054284999999999854e+03
7.499999999999999722e-02 2.124059999999999837e-01 1.289277999999999835e+01 6.822030000000000882e+01 2.055550000000000182e+03
7.599999999999999811e-02 2.126049999999999884e-01 1.474774999999999991e+01 7.264730000000000132e+01 2.056840000000000146e+03
7.699999999999999900e-02 2.128034999999999788e-01 1.657594999999999885e+01 7.698179999999999268e+01 2.058130000000000109e+03
7.799999999999999989e-02 2.129995000000000083e-01 1.835559999999999903e+01 8.118545000000000300e+01 2.059409999999999854e+03
7.900000000000000078e-02 2.131905000000000050e-01 2.007155000000000200e+01 8.523779999999999291e+01 2.060659999999999854e+03
8.000000000000000167e-02 2.133769999999999833e-01 2.171480000000000032e+01 8.913559999999999661e+01 2.061885000000000218e+03
8.100000000000000255e-02 2.135579999999999978e-01 2.328180000000000049e+01 9.288935000000000741e+01 2.063074999999999818e+03
8.200000000000000344e-02 2.137330000000000063e-01 2.477355000000000018e+01 9.652065000000000339e+01 2.064230000000000018e+03
8.300000000000000433e-02 2.139039999999999830e-01 2.619440000000000168e+01 1.000557499999999891e+02 2.065359999999999673e+03
8.400000000000000522e-02 2.140719999999999845e-01 2.755015000000000214e+01 1.035237500000000068e+02 2.066465000000000146e+03
8.500000000000000611e-02 2.142370000000000108e-01 2.884740000000000038e+01 1.069509999999999934e+02 2.067559999999999945e+03
8.600000000000000699e-02 2.144004999999999939e-01 3.009214999999999662e+01 1.103584999999999923e+02 2.068644999999999982e+03
8.700000000000000788e-02 2.145630000000000037e-01 3.128914999999999935e+01 1.137595000000000027e+02 2.069720000000000255e+03
8.800000000000000877e-02 2.147255000000000136e-01 3.244129999999999825e+01 1.171595000000000084e+02 2.070795000000000073e+03
8.899999999999999578e-02 2.148869999999999947e-01 3.354930000000000234e+01 1.205560000000000116e+02 2.071864999999999782e+03
8.999999999999999667e-02 2.150479999999999892e-01 3.461199999999999477e+01 1.239375000000000000e+02 2.072934999999999945e+03
9.099999999999999756e-02 2.152085000000000248e-01 3.562624999999999886e+01 1.272880000000000109e+02 2.073994999999999891e+03
9.199999999999999845e-02 2.153670000000000029e-01 3.658714999999999407e+01 1.305854999999999961e+02 2.075050000000000182e+03
9.299999999999999933e-02 2.155219999999999914e-01 3.748855000000000359e+01 1.338050000000000068e+02 2.076085000000000036e+03
9.400000000000000022e-02 2.156735000000000180e-01 3.832314999999999827e+01 1.369189999999999827e+02 2.077095000000000255e+03
9.500000000000000111e-02 2.158204999999999985e-01 3.908299999999999841e+01 1.398994999999999891e+02 2.078074999999999818e+03
9.600000000000000200e-02 2.159604999999999997e-01 3.975995000000000346e+01 1.427189999999999941e+02 2.079010000000000218e+03
9.700000000000000289e-02 2.160940000000000083e-01 4.034570000000000078e+01 1.453519999999999754e+02 2.079904999999999745e+03
9.800000000000000377e-02 2.162179999999999935e-01 4.083244999999999436e+01 1.477729999999999961e+02 2.080730000000000018e+03
9.900000000000000466e-02 2.163329999999999975e-01 4.121314999999999884e+01 1.499604999999999961e+02 2.081505000000000109e+03
1.000000000000000056e-01 2.164369999999999905e-01 4.148199999999999932e+01 1.518975000000000080e+02 2.082204999999999927e+03
1.010000000000000064e-01 2.165300000000000002e-01 4.163495000000000346e+01 1.535705000000000098e+02 2.082835000000000036e+03
1.020000000000000073e-01 2.166109999999999980e-01 4.166960000000000264e+01 1.549719999999999800e+02 2.083385000000000218e+03
1.030000000000000082e-01 2.166794999999999971e-01 4.158624999999999972e+01 1.560999999999999943e+02 2.083849999999999909e+03
1.040000000000000091e-01 2.167359999999999842e-01 4.138739999999999952e+01 1.569594999999999914e+02 2.084239999999999782e+03
1.050000000000000100e-01 2.167804999999999871e-01 4.107814999999999372e+01 1.575609999999999786e+02 2.084545000000000073e+03
1.059999999999999970e-01 2.168134999999999923e-01 4.066620000000000346e+01 1.579214999999999804e+02 2.084775000000000091e+03
1.069999999999999979e-01 2.168355000000000143e-01 4.016120000000000090e+01 1.580634999999999764e+02 2.084935000000000400e+03
1.079999999999999988e-01 2.168474999999999986e-01 3.957464999999999833e+01 1.580140000000000100e+02 2.085024999999999636e+03
1.089999999999999997e-01 2.168510000000000160e-01 3.891949999999999932e+01 1.578020000000000209e+02 2.085059999999999945e+03
1.100000000000000006e-01 2.168470000000000120e-01 3.820955000000000013e+01 1.574594999999999914e+02 2.085039999999999964e+03
1.110000000000000014e-01 2.168370000000000020e-01 3.745864999999999867e+01 1.570169999999999959e+02 2.084974999999999909e+03
1.120000000000000023e-01 2.168215000000000003e-01 3.668054999999999666e+01 1.565045000000000073e+02 2.084885000000000218e+03
1.130000000000000032e-01 2.168029999999999957e-01 3.588814999999999600e+01 1.559505000000000052e+02 2.084760000000000218e+03
1.140000000000000041e-01 2.167820000000000025e-01 3.509320000000000306e+01 1.553790000000000191e+02 2.084625000000000000e+03
1.150000000000000050e-01 2.167594999999999938e-01 3.430589999999999407e+01 1.548104999999999905e+02 2.084475000000000364e+03
1.160000000000000059e-01 2.167370000000000130e-01 3.353459999999999752e+01 1.542595000000000027e+02 2.084329999999999927e+03
1.170000000000000068e-01 2.167145000000000044e-01 3.278570000000000562e+01 1.537379999999999995e+02 2.084175000000000182e+03
1.180000000000000077e-01 2.166930000000000245e-01 3.206350000000000477e+01 1.532509999999999764e+02 2.084029999999999745e+03
1.190000000000000085e-01 2.166719999999999757e-01 3.137014999999999887e+01 1.528000000000000114e+02 2.083889999999999873e+03
1.200000000000000094e-01 2.166520000000000112e-01 3.070570000000000022e+01 1.523810000000000002e+02 2.083760000000000218e+03
1.209999999999999964e-01 2.166329999999999922e-01 3.006845000000000212e+01 1.519865000000000066e+02 2.083630000000000109e+03
1.219999999999999973e-01 2.166150000000000020e-01 2.945469999999999899e+01 1.516055000000000064e+02 2.083505000000000109e+03
1.229999999999999982e-01 2.165969999999999840e-01 2.885960000000000036e+01 1.512235000000000014e+02 2.083380000000000109e+03
1.239999999999999991e-01 2.165785000000000071e-01 2.827710000000000079e+01 1.508245000000000005e+02 2.083260000000000218e+03
1.250000000000000000e-01 2.165590000000000015e-01 2.770045000000000002e+01 1.503919999999999959e+02 2.083125000000000000e+03
1.260000000000000009e-01 2.165380000000000082e-01 2.712270000000000181e+01 1.499085000000000036e+02 2.082980000000000018e+03
1.270000000000000018e-01 2.165144999999999986e-01 2.653694999999999737e+01 1.493584999999999923e+02 2.082824999999999818e+03
1.280000000000000027e-01 2.164874999999999994e-01 2.593679999999999808e+01 1.487280000000000086e+02 2.082649999999999636e+03
1.290000000000000036e-01 2.164574999999999971e-01 2.531690000000000040e+01 1.480045000000000073e+02 2.082449999999999818e+03
1.300000000000000044e-01 2.164230000000000043e-01 2.467304999999999993e+01 1.471820000000000164e+02 2.082220000000000255e+03
1.310000000000000053e-01 2.163849999999999940e-01 2.400254999999999939e+01 1.462549999999999955e+02 2.081960000000000036e+03
1.320000000000000062e-01 2.163415000000000199e-01 2.330445000000000277e+01 1.452255000000000109e+02 2.081680000000000291e+03
1.330000000000000071e-01 2.162934999999999997e-01 2.257959999999999923e+01 1.440969999999999800e+02 2.081359999999999673e+03
1.340000000000000080e-01 2.162419999999999898e-01 2.183055000000000234e+01 1.428799999999999955e+02 2.081020000000000437e+03
1.350000000000000089e-01 2.161859999999999893e-01 2.106190000000000140e+01 1.415880000000000223e+02 2.080654999999999745e+03
1.360000000000000098e-01 2.161270000000000135e-01 2.027959999999999852e+01 1.402375000000000114e+02 2.080265000000000327e+03
1.370000000000000107e-01 2.160654999999999937e-01 1.949099999999999966e+01 1.388499999999999943e+02 2.079859999999999673e+03
1.380000000000000115e-01 2.160024999999999862e-01 1.870445000000000135e+01 1.374470000000000027e+02 2.079440000000000055e+03
1.390000000000000124e-01 2.159384999999999777e-01 1.792895000000000039e+01 1.360525000000000091e+02 2.079019999999999982e+03
1.400000000000000133e-01 2.158760000000000123e-01 1.717379999999999995e+01 1.346899999999999977e+02 2.078600000000000364e+03
1.410000000000000142e-01 2.158140000000000058e-01 1.644780000000000086e+01 1.333810000000000002e+02 2.078189999999999600e+03
1.420000000000000151e-01 2.157545000000000157e-01 1.575949999999999918e+01 1.321465000000000032e+02 2.077789999999999964e+03
1.430000000000000160e-01 2.156980000000000008e-01 1.511625000000000085e+01 1.310040000000000191e+02 2.077414999999999964e+03
1.440000000000000169e-01 2.156454999999999900e-01 1.452424999999999855e+01 1.299669999999999845e+02 2.077065000000000055e+03
1.450000000000000178e-01 2.155974999999999975e-01 1.398825000000000074e+01 1.290469999999999970e+02 2.076744999999999891e+03
1.459999999999999909e-01 2.155544999999999822e-01 1.351135000000000019e+01 1.282479999999999905e+02 2.076449999999999818e+03
1.469999999999999918e-01 2.155170000000000141e-01 1.309515000000000029e+01 1.275739999999999981e+02 2.076199999999999818e+03
1.479999999999999927e-01 2.154845000000000232e-01 1.273949999999999960e+01 1.270215000000000032e+02 2.075980000000000018e+03
1.489999999999999936e-01 2.154574999999999962e-01 1.244289999999999985e+01 1.265870000000000033e+02 2.075795000000000073e+03
1.499999999999999944e-01 2.154355000000000020e-01 1.220244999999999891e+01 1.262609999999999957e+02 2.075644999999999982e+03
1.509999999999999953e-01 2.154185000000000128e-01 1.201425000000000054e+01 1.260335000000000036e+02 2.075524999999999636e+03
1.519999999999999962e-01 2.154059999999999864e-01 1.187335000000000029e+01 1.258930000000000007e+02 2.075430000000000291e+03
1.529999999999999971e-01 2.153964999999999907e-01 1.177424999999999855e+01 1.258255000000000052e+02 2.075364999999999782e+03
1.539999999999999980e-01 2.153909999999999991e-01 1.171085000000000065e+01 1.258185000000000002e+02 2.075324999999999818e+03
1.549999999999999989e-01 2.153884999999999827e-01 1.167699999999999960e+01 1.258580000000000041e+02 2.075304999999999836e+03
1.559999999999999998e-01 2.153880000000000239e-01 1.166644999999999932e+01 1.259304999999999950e+02 2.075300000000000182e+03
1.570000000000000007e-01 2.153884999999999827e-01 1.167309999999999981e+01 1.260234999999999985e+02 2.075300000000000182e+03
1.580000000000000016e-01 2.153909999999999991e-01 1.169109999999999872e+01 1.261264999999999930e+02 2.075315000000000055e+03
1.590000000000000024e-01 2.153940000000000021e-01 1.171515000000000128e+01 1.262280000000000086e+02 2.075329999999999927e+03
