# t [s], A [cm^2], U [cm/s], P [cPa], c [cm/s]
1.000000000000000021e-03 1.361374999999999946e-01 3.872875000000000068e-01 8.772704999999999131e+01 1.826855000000000018e+03
2.000000000000000042e-03 1.361094999999999944e-01 1.895519999999999872e+00 8.469339999999999691e+01 1.826570000000000164e+03
3.000000000000000062e-03 1.360194999999999876e-01 3.690918499999999991e+00 8.080625000000000568e+01 1.825674999999999955e+03
4.000000000000000083e-03 1.358894999999999964e-01 5.666033999999999793e+00 7.669435000000000002e+01 1.824414999999999964e+03
5.000000000000000104e-03 1.357430000000000025e-01 7.768534999999999968e+00 7.304200000000000159e+01 1.823005000000000109e+03
6.000000000000000125e-03 1.355974999999999819e-01 9.870740000000001402e+00 7.007909999999999684e+01 1.821605000000000018e+03
7.000000000000000146e-03 1.354580000000000228e-01 1.180954999999999977e+01 6.762584999999999980e+01 1.820289999999999964e+03
8.000000000000000167e-03 1.353270000000000028e-01 1.349834500000000048e+01 6.544790000000000418e+01 1.819069999999999936e+03
9.000000000000001055e-03 1.352069999999999939e-01 1.495045000000000002e+01 6.350889999999999702e+01 1.817969999999999800e+03
1.000000000000000194e-02 1.351009999999999989e-01 1.619910000000000139e+01 6.186379999999999768e+01 1.817005000000000109e+03
1.099999999999999936e-02 1.350095000000000045e-01 1.725560000000000116e+01 6.050639999999999930e+01 1.816184999999999945e+03
1.200000000000000025e-02 1.349314999999999820e-01 1.812565000000000026e+01 5.938485000000000014e+01 1.815490000000000009e+03
1.300000000000000114e-02 1.348659999999999859e-01 1.881844999999999857e+01 5.844700000000000273e+01 1.814914999999999964e+03
1.400000000000000203e-02 1.348104999999999998e-01 1.934189999999999898e+01 5.763709999999999667e+01 1.814434999999999945e+03
1.499999999999999944e-02 1.347635000000000083e-01 1.971470000000000056e+01 5.691205000000000069e+01 1.814029999999999973e+03
1.600000000000000033e-02 1.347234999999999960e-01 1.998780000000000001e+01 5.630134999999999934e+01 1.813690000000000055e+03
1.700000000000000122e-02 1.346924999999999928e-01 2.024889999999999901e+01 5.594669999999999987e+01 1.813429999999999836e+03
1.800000000000000211e-02 1.346749999999999892e-01 2.059539999999999793e+01 5.605870000000000175e+01 1.813300000000000182e+03
1.900000000000000300e-02 1.346769999999999912e-01 2.109235000000000326e+01 5.680720000000000169e+01 1.813324999999999818e+03
2.000000000000000042e-02 1.346999999999999864e-01 2.174174999999999969e+01 5.821535000000000082e+01 1.813534999999999854e+03
2.100000000000000130e-02 1.347424999999999873e-01 2.247854999999999848e+01 6.011764999999999759e+01 1.813925000000000182e+03
2.200000000000000219e-02 1.347990000000000022e-01 2.319375000000000142e+01 6.219894999999999641e+01 1.814434999999999945e+03
2.299999999999999961e-02 1.348599999999999799e-01 2.376970000000000027e+01 6.408934999999999604e+01 1.814994999999999891e+03
2.400000000000000050e-02 1.349164999999999948e-01 2.411549999999999727e+01 6.547129999999999939e+01 1.815514999999999873e+03
2.500000000000000139e-02 1.349600000000000244e-01 2.418905000000000172e+01 6.616214999999999691e+01 1.815929999999999836e+03
2.600000000000000228e-02 1.349859999999999949e-01 2.400234999999999985e+01 6.614700000000000557e+01 1.816190000000000055e+03
2.700000000000000316e-02 1.349950000000000039e-01 2.361009999999999920e+01 6.555915000000000248e+01 1.816285000000000082e+03
2.800000000000000058e-02 1.349885000000000113e-01 2.308774999999999977e+01 6.461990000000000123e+01 1.816244999999999891e+03
2.900000000000000147e-02 1.349715000000000220e-01 2.250775000000000148e+01 6.356394999999999840e+01 1.816109999999999900e+03
3.000000000000000236e-02 1.349500000000000144e-01 2.192159999999999798e+01 6.257370000000000232e+01 1.815920000000000073e+03
3.099999999999999978e-02 1.349274999999999780e-01 2.135194999999999865e+01 6.174254999999999427e+01 1.815720000000000027e+03
3.200000000000000067e-02 1.349059999999999981e-01 2.079485000000000028e+01 6.107150000000000034e+01 1.815529999999999973e+03
3.300000000000000155e-02 1.348854999999999915e-01 2.023010000000000019e+01 6.049360000000000070e+01 1.815345000000000027e+03
3.400000000000000244e-02 1.348650000000000126e-01 1.963455000000000084e+01 5.991509999999999536e+01 1.815164999999999964e+03
3.500000000000000333e-02 1.348435000000000050e-01 1.899490000000000123e+01 5.925719999999999743e+01 1.814974999999999909e+03
3.600000000000000422e-02 1.348190000000000222e-01 1.831604999999999706e+01 5.848874999999999602e+01 1.814759999999999991e+03
3.700000000000000511e-02 1.347924999999999818e-01 1.762385000000000090e+01 5.764215000000000089e+01 1.814514999999999873e+03
3.799999999999999906e-02 1.347639999999999949e-01 1.696164999999999878e+01 5.680839999999999890e+01 1.814265000000000100e+03
3.899999999999999994e-02 1.347369999999999957e-01 1.638119999999999976e+01 5.611650000000000205e+01 1.814019999999999982e+03
4.000000000000000083e-02 1.347145000000000148e-01 1.593140000000000001e+01 5.570029999999999859e+01 1.813820000000000164e+03
4.100000000000000172e-02 1.347010000000000152e-01 1.564739999999999931e+01 5.566505000000000081e+01 1.813690000000000055e+03
4.200000000000000261e-02 1.346990000000000132e-01 1.554190000000000182e+01 5.605930000000000035e+01 1.813664999999999964e+03
4.300000000000000350e-02 1.347094999999999820e-01 1.560185000000000066e+01 5.686055000000000348e+01 1.813750000000000000e+03
4.400000000000000439e-02 1.347315000000000040e-01 1.578979999999999961e+01 5.797605000000000075e+01 1.813940000000000055e+03
4.499999999999999833e-02 1.347629999999999939e-01 1.604984999999999928e+01 5.925759999999999650e+01 1.814210000000000036e+03
4.599999999999999922e-02 1.347995000000000165e-01 1.631579999999999941e+01 6.052544999999999931e+01 1.814539999999999964e+03
4.700000000000000011e-02 1.348364999999999980e-01 1.652045000000000030e+01 6.159590000000000032e+01 1.814865000000000009e+03
4.800000000000000100e-02 1.348685000000000023e-01 1.660405000000000086e+01 6.230669999999999931e+01 1.815150000000000091e+03
4.900000000000000189e-02 1.348909999999999831e-01 1.651995000000000147e+01 6.253655000000000541e+01 1.815349999999999909e+03
5.000000000000000278e-02 1.348989999999999911e-01 1.623845000000000027e+01 6.221555000000000035e+01 1.815434999999999945e+03
5.100000000000000366e-02 1.348914999999999975e-01 1.574749999999999872e+01 6.132689999999999486e+01 1.815375000000000000e+03
5.200000000000000455e-02 1.348670000000000146e-01 1.505089999999999861e+01 5.990129999999999910e+01 1.815154999999999973e+03
5.300000000000000544e-02 1.348254999999999870e-01 1.416590000000000060e+01 5.800659999999999883e+01 1.814784999999999854e+03
5.399999999999999939e-02 1.347674999999999845e-01 1.311939999999999884e+01 5.573470000000000368e+01 1.814275000000000091e+03
5.500000000000000028e-02 1.346970000000000112e-01 1.194459499999999963e+01 5.318979999999999819e+01 1.813640000000000100e+03
5.600000000000000117e-02 1.346160000000000134e-01 1.067839000000000027e+01 5.047804999999999609e+01 1.812914999999999964e+03
5.700000000000000205e-02 1.345270000000000077e-01 9.359049999999999869e+00 4.770125000000000171e+01 1.812119999999999891e+03
5.800000000000000294e-02 1.344345000000000123e-01 8.025195000000000078e+00 4.495329999999999870e+01 1.811285000000000082e+03
5.900000000000000383e-02 1.343395000000000006e-01 6.715065000000000062e+00 4.231954999999999956e+01 1.810430000000000064e+03
6.000000000000000472e-02 1.342470000000000052e-01 5.466364999999999696e+00 3.987765000000000271e+01 1.809599999999999909e+03
6.099999999999999867e-02 1.341585000000000139e-01 4.315834999999999866e+00 3.769904999999999973e+01 1.808799999999999955e+03
6.199999999999999956e-02 1.340775000000000161e-01 3.299040499999999820e+00 3.585009999999999764e+01 1.808065000000000055e+03
6.300000000000000044e-02 1.340065000000000006e-01 2.449669684999999930e+00 3.439235000000000042e+01 1.807420000000000073e+03
6.400000000000000133e-02 1.339469999999999827e-01 1.798599000000000059e+00 3.338145000000000095e+01 1.806880000000000109e+03
6.500000000000000222e-02 1.339020000000000210e-01 1.372731949999999923e+00 3.286554999999999893e+01 1.806464999999999918e+03
6.600000000000000311e-02 1.338734999999999786e-01 1.193733500000000003e+00 3.288235000000000241e+01 1.806195000000000164e+03
6.700000000000000400e-02 1.338624999999999954e-01 1.276869999999999949e+00 3.345669999999999789e+01 1.806074999999999818e+03
6.800000000000000488e-02 1.338705000000000034e-01 1.630024999999999835e+00 3.459825000000000017e+01 1.806134999999999991e+03
6.900000000000000577e-02 1.338975000000000026e-01 2.253140000000000143e+00 3.629964999999999975e+01 1.806365000000000009e+03
7.000000000000000666e-02 1.339444999999999941e-01 3.138114999999999988e+00 3.853624999999999545e+01 1.806769999999999982e+03
7.100000000000000755e-02 1.340105000000000046e-01 4.269149999999999778e+00 4.126709999999999923e+01 1.807349999999999909e+03
7.200000000000000844e-02 1.340939999999999910e-01 5.623559999999999448e+00 4.443684999999999974e+01 1.808085000000000036e+03
7.300000000000000933e-02 1.341944999999999943e-01 7.172950000000000159e+00 4.797854999999999848e+01 1.808974999999999909e+03
7.399999999999999634e-02 1.343094999999999983e-01 8.884674999999999656e+00 5.181765000000000043e+01 1.809994999999999891e+03
7.499999999999999722e-02 1.344365000000000143e-01 1.072328000000000081e+01 5.587560000000000571e+01 1.811134999999999991e+03
7.599999999999999811e-02 1.345729999999999982e-01 1.265225500000000025e+01 6.007374999999999687e+01 1.812360000000000127e+03
7.699999999999999900e-02 1.347165000000000168e-01 1.463535000000000075e+01 6.433715000000000828e+01 1.813650000000000091e+03
7.799999999999999989e-02 1.348650000000000126e-01 1.663830000000000098e+01 6.859739999999999327e+01 1.814990000000000009e+03
7.900000000000000078e-02 1.350159999999999971e-01 1.862955000000000183e+01 7.279529999999999745e+01 1.816355000000000018e+03
8.000000000000000167e-02 1.351664999999999950e-01 2.058180000000000121e+01 7.688294999999999391e+01 1.817730000000000018e+03
8.100000000000000255e-02 1.353154999999999775e-01 2.247254999999999825e+01 8.082460000000000377e+01 1.819090000000000146e+03
8.200000000000000344e-02 1.354615000000000125e-01 2.428444999999999965e+01 8.459759999999999991e+01 1.820424999999999955e+03
8.300000000000000433e-02 1.356040000000000023e-01 2.600580000000000069e+01 8.819184999999998809e+01 1.821724999999999909e+03
8.400000000000000522e-02 1.357410000000000005e-01 2.763040000000000163e+01 9.160939999999999372e+01 1.822985000000000127e+03
8.500000000000000611e-02 1.358729999999999938e-01 2.915709999999999980e+01 9.486269999999998959e+01 1.824204999999999927e+03
8.600000000000000699e-02 1.360000000000000098e-01 3.058930000000000149e+01 9.797265000000000157e+01 1.825380000000000109e+03
8.700000000000000788e-02 1.361229999999999940e-01 3.193400000000000105e+01 1.009663000000000039e+02 1.826519999999999982e+03
8.800000000000000877e-02 1.362420000000000020e-01 3.320114999999999839e+01 1.038753499999999974e+02 1.827619999999999891e+03
8.899999999999999578e-02 1.363575000000000204e-01 3.440205000000000268e+01 1.067305000000000064e+02 1.828695000000000164e+03
8.999999999999999667e-02 1.364719999999999822e-01 3.554885000000000161e+01 1.095625000000000000e+02 1.829755000000000109e+03
9.099999999999999756e-02 1.365839999999999832e-01 3.665314999999999657e+01 1.123979999999999961e+02 1.830799999999999955e+03
9.199999999999999845e-02 1.366964999999999986e-01 3.772529999999999717e+01 1.152570000000000050e+02 1.831845000000000027e+03
9.299999999999999933e-02 1.368090000000000139e-01 3.877344999999999686e+01 1.181544999999999987e+02 1.832894999999999982e+03
9.400000000000000022e-02 1.369219999999999882e-01 3.980339999999999634e+01 1.210960000000000036e+02 1.833945000000000164e+03
9.500000000000000111e-02 1.370365000000000055e-01 4.081780000000000541e+01 1.240794999999999959e+02 1.835014999999999873e+03
9.600000000000000200e-02 1.371519999999999961e-01 4.181640000000000157e+01 1.270955000000000155e+02 1.836079999999999927e+03
9.700000000000000289e-02 1.372680000000000011e-01 4.279594999999999771e+01 1.301270000000000095e+02 1.837164999999999964e+03
9.800000000000000377e-02 1.373840000000000061e-01 4.375029999999999575e+01 1.331510000000000105e+02 1.838250000000000000e+03
9.900000000000000466e-02 1.375004999999999977e-01 4.467125000000000057e+01 1.361399999999999864e+02 1.839335000000000036e+03
1.000000000000000056e-01 1.376149999999999873e-01 4.554874999999999829e+01 1.390640000000000214e+02 1.840409999999999854e+03
1.010000000000000064e-01 1.377280000000000171e-01 4.637144999999999584e+01 1.418894999999999982e+02 1.841464999999999918e+03
1.020000000000000073e-01 1.378375000000000017e-01 4.712740000000000151e+01 1.445855000000000246e+02 1.842490000000000009e+03
1.030000000000000082e-01 1.379429999999999823e-01 4.780474999999999852e+01 1.471204999999999927e+02 1.843474999999999909e+03
1.040000000000000091e-01 1.380430000000000268e-01 4.839215000000000089e+01 1.494669999999999845e+02 1.844420000000000073e+03
1.050000000000000100e-01 1.381370000000000098e-01 4.887940000000000396e+01 1.515994999999999777e+02 1.845300000000000182e+03
1.059999999999999970e-01 1.382234999999999991e-01 4.925780000000000314e+01 1.534985000000000070e+02 1.846114999999999782e+03
1.069999999999999979e-01 1.383024999999999949e-01 4.952060000000000173e+01 1.551494999999999891e+02 1.846860000000000127e+03
1.079999999999999988e-01 1.383725000000000094e-01 4.966344999999999743e+01 1.565425000000000182e+02 1.847525000000000091e+03
1.089999999999999997e-01 1.384340000000000015e-01 4.968404999999999916e+01 1.576739999999999782e+02 1.848110000000000127e+03
1.100000000000000006e-01 1.384854999999999836e-01 4.958310000000000173e+01 1.585475000000000136e+02 1.848610000000000127e+03
1.110000000000000014e-01 1.385284999999999989e-01 4.936334999999999695e+01 1.591689999999999827e+02 1.849025000000000091e+03
1.120000000000000023e-01 1.385629999999999917e-01 4.903045000000000186e+01 1.595520000000000209e+02 1.849349999999999909e+03
1.130000000000000032e-01 1.385875000000000024e-01 4.859179999999999922e+01 1.597135000000000105e+02 1.849595000000000027e+03
1.140000000000000041e-01 1.386050000000000060e-01 4.805720000000000169e+01 1.596754999999999995e+02 1.849759999999999991e+03
1.150000000000000050e-01 1.386140000000000150e-01 4.743784999999999741e+01 1.594615000000000009e+02 1.849860000000000127e+03
1.160000000000000059e-01 1.386159999999999892e-01 4.674635000000000673e+01 1.590970000000000084e+02 1.849889999999999873e+03
1.170000000000000068e-01 1.386120000000000130e-01 4.599590000000000600e+01 1.586109999999999900e+02 1.849860000000000127e+03
1.180000000000000077e-01 1.386034999999999906e-01 4.520040000000000191e+01 1.580300000000000011e+02 1.849780000000000200e+03
1.190000000000000085e-01 1.385899999999999910e-01 4.437324999999999875e+01 1.573804999999999836e+02 1.849664999999999964e+03
1.200000000000000094e-01 1.385730000000000017e-01 4.352769999999999584e+01 1.566885000000000048e+02 1.849509999999999991e+03
1.209999999999999964e-01 1.385540000000000105e-01 4.267584999999999695e+01 1.559764999999999873e+02 1.849335000000000036e+03
1.219999999999999973e-01 1.385325000000000029e-01 4.182860000000000156e+01 1.552634999999999934e+02 1.849139999999999873e+03
1.229999999999999982e-01 1.385109999999999952e-01 4.099524999999999864e+01 1.545660000000000025e+02 1.848934999999999945e+03
1.239999999999999991e-01 1.384880000000000000e-01 4.018354999999999677e+01 1.538960000000000150e+02 1.848724999999999909e+03
1.250000000000000000e-01 1.384660000000000057e-01 3.939894999999999925e+01 1.532615000000000123e+02 1.848519999999999982e+03
1.260000000000000009e-01 1.384440000000000115e-01 3.864535000000000053e+01 1.526664999999999850e+02 1.848309999999999945e+03
1.270000000000000018e-01 1.384230000000000183e-01 3.792430000000000234e+01 1.521109999999999900e+02 1.848115000000000009e+03
1.280000000000000027e-01 1.384024999999999839e-01 3.723574999999999591e+01 1.515914999999999964e+02 1.847920000000000073e+03
1.290000000000000036e-01 1.383830000000000060e-01 3.657795000000000130e+01 1.511009999999999991e+02 1.847735000000000127e+03
1.300000000000000044e-01 1.383645000000000014e-01 3.594740000000000180e+01 1.506299999999999955e+02 1.847559999999999945e+03
1.310000000000000053e-01 1.383459999999999968e-01 3.533960000000000434e+01 1.501659999999999968e+02 1.847384999999999991e+03
1.320000000000000062e-01 1.383285000000000209e-01 3.474895000000000067e+01 1.496979999999999791e+02 1.847210000000000036e+03
1.330000000000000071e-01 1.383099999999999885e-01 3.416929999999999978e+01 1.492094999999999914e+02 1.847039999999999964e+03
1.340000000000000080e-01 1.382909999999999973e-01 3.359404999999999575e+01 1.486889999999999930e+02 1.846855000000000018e+03
1.350000000000000089e-01 1.382709999999999773e-01 3.301679999999999637e+01 1.481214999999999975e+02 1.846670000000000073e+03
1.360000000000000098e-01 1.382490000000000108e-01 3.243115000000000236e+01 1.474964999999999975e+02 1.846465000000000146e+03
1.370000000000000107e-01 1.382260000000000155e-01 3.183160000000000167e+01 1.468020000000000209e+02 1.846244999999999891e+03
1.380000000000000115e-01 1.382005000000000039e-01 3.121340000000000003e+01 1.460314999999999941e+02 1.846000000000000000e+03
1.390000000000000124e-01 1.381720000000000170e-01 3.057269999999999754e+01 1.451779999999999973e+02 1.845735000000000127e+03
1.400000000000000133e-01 1.381415000000000004e-01 2.990709999999999980e+01 1.442400000000000091e+02 1.845450000000000045e+03
1.410000000000000142e-01 1.381074999999999942e-01 2.921549999999999869e+01 1.432180000000000177e+02 1.845134999999999991e+03
1.420000000000000151e-01 1.380709999999999993e-01 2.849814999999999898e+01 1.421145000000000209e+02 1.844789999999999964e+03
1.430000000000000160e-01 1.380315000000000014e-01 2.775690000000000168e+01 1.409375000000000000e+02 1.844425000000000182e+03
1.440000000000000169e-01 1.379890000000000005e-01 2.699480000000000146e+01 1.396959999999999980e+02 1.844034999999999854e+03
1.450000000000000178e-01 1.379449999999999843e-01 2.621634999999999849e+01 1.384019999999999868e+02 1.843615000000000009e+03
1.459999999999999909e-01 1.378980000000000206e-01 2.542705000000000126e+01 1.370690000000000168e+02 1.843179999999999836e+03
1.469999999999999918e-01 1.378500000000000003e-01 2.463340000000000174e+01 1.357144999999999868e+02 1.842735000000000127e+03
1.479999999999999927e-01 1.378004999999999924e-01 2.384264999999999901e+01 1.343545000000000016e+02 1.842275000000000091e+03
1.489999999999999936e-01 1.377510000000000123e-01 2.306235000000000213e+01 1.330060000000000002e+02 1.841815000000000055e+03
1.499999999999999944e-01 1.377015000000000045e-01 2.230024999999999835e+01 1.316875000000000000e+02 1.841349999999999909e+03
1.509999999999999953e-01 1.376525000000000110e-01 2.156405000000000172e+01 1.304145000000000039e+02 1.840894999999999982e+03
1.519999999999999962e-01 1.376044999999999907e-01 2.086095000000000255e+01 1.292034999999999911e+02 1.840450000000000045e+03
1.529999999999999971e-01 1.375585000000000002e-01 2.019764999999999944e+01 1.280674999999999955e+02 1.840014999999999873e+03
1.539999999999999980e-01 1.375149999999999983e-01 1.957970000000000255e+01 1.270180000000000007e+02 1.839605000000000018e+03
1.549999999999999989e-01 1.374739999999999851e-01 1.901189999999999714e+01 1.260649999999999977e+02 1.839224999999999909e+03
1.559999999999999998e-01 1.374354999999999882e-01 1.849770000000000181e+01 1.252129999999999939e+02 1.838865000000000009e+03
1.570000000000000007e-01 1.374009999999999954e-01 1.803940000000000055e+01 1.244669999999999987e+02 1.838535000000000082e+03
1.580000000000000016e-01 1.373695000000000055e-01 1.763799999999999812e+01 1.238269999999999982e+02 1.838244999999999891e+03
1.590000000000000024e-01 1.373419999999999919e-01 1.729309999999999903e+01 1.232904999999999944e+02 1.837985000000000127e+03
