# t [s], A [cm^2], U [cm/s], P [cPa], c [cm/s]
1.000000000000000021e-03 4.507579999999999920e-01 2.059300000000000019e-03 9.221309999999999718e+01 1.540529999999999973e+03
2.000000000000000042e-03 4.507535000000000291e-01 5.328839999999999619e-03 9.219505000000000905e+01 1.540525000000000091e+03
3.000000000000000062e-03 4.507989999999999498e-01 1.148999000000000131e-01 9.230395000000000039e+01 1.540555000000000064e+03
4.000000000000000083e-03 4.508300000000000085e-01 1.959006500000000095e-01 9.240364999999999895e+01 1.540579999999999927e+03
5.000000000000000104e-03 4.508075000000000276e-01 1.537963999999999998e-01 9.233105000000000473e+01 1.540570000000000164e+03
6.000000000000000125e-03 4.507629999999999693e-01 5.164750000000001284e-02 9.211359999999999104e+01 1.540525000000000091e+03
7.000000000000000146e-03 4.507164999999999644e-01 -6.370850000000000124e-02 9.180910000000000082e+01 1.540454999999999927e+03
8.000000000000000167e-03 4.506390000000000118e-01 -2.638849999999999252e-01 9.134090000000000487e+01 1.540355000000000018e+03
9.000000000000001055e-03 4.505115000000000092e-01 -5.933450000000001223e-01 9.062600000000000477e+01 1.540190000000000055e+03
1.000000000000000194e-02 4.503319999999999546e-01 -1.052375000000000060e+00 8.962299999999999045e+01 1.539965000000000146e+03
1.099999999999999936e-02 4.500885000000000025e-01 -1.652899999999999814e+00 8.828110000000000923e+01 1.539644999999999982e+03
1.200000000000000025e-02 4.497765000000000235e-01 -2.389624999999999666e+00 8.656759999999999877e+01 1.539235000000000127e+03
1.300000000000000114e-02 4.494164999999999965e-01 -3.188254999999999839e+00 8.454025000000000034e+01 1.538735000000000127e+03
1.400000000000000203e-02 4.490524999999999656e-01 -3.912259999999999849e+00 8.236359999999999104e+01 1.538184999999999945e+03
1.499999999999999944e-02 4.487295000000000034e-01 -4.422101999999999755e+00 8.024885000000000446e+01 1.537625000000000000e+03
1.600000000000000033e-02 4.484730000000000105e-01 -4.632777499999999549e+00 7.837014999999999532e+01 1.537095000000000027e+03
1.700000000000000122e-02 4.482814999999999994e-01 -4.536254500000000078e+00 7.680989999999999895e+01 1.536625000000000000e+03
1.800000000000000211e-02 4.481339999999999768e-01 -4.189894999999999925e+00 7.554894999999999072e+01 1.536210000000000036e+03
1.900000000000000300e-02 4.480004999999999682e-01 -3.686109000000000080e+00 7.449145000000000039e+01 1.535840000000000146e+03
2.000000000000000042e-02 4.478524999999999867e-01 -3.117622499999999963e+00 7.350909999999998945e+01 1.535494999999999891e+03
2.100000000000000130e-02 4.476735000000000020e-01 -2.549375500000000017e+00 7.248770000000000380e+01 1.535139999999999873e+03
2.200000000000000219e-02 4.474599999999999689e-01 -2.005279999999999951e+00 7.136029999999999518e+01 1.534779999999999973e+03
2.299999999999999961e-02 4.472224999999999673e-01 -1.473240000000000105e+00 7.011709999999999354e+01 1.534390000000000100e+03
2.400000000000000050e-02 4.469744999999999968e-01 -9.241699999999999360e-01 6.879059999999999775e+01 1.533980000000000018e+03
2.500000000000000139e-02 4.467269999999999852e-01 -3.350550000000001027e-01 6.742734999999998990e+01 1.533559999999999945e+03
2.600000000000000228e-02 4.464835000000000331e-01 2.936700000000000976e-01 6.605809999999999604e+01 1.533135000000000218e+03
2.700000000000000316e-02 4.462384999999999824e-01 9.315649999999999764e-01 6.467924999999999613e+01 1.532704999999999927e+03
2.800000000000000058e-02 4.459764999999999979e-01 1.522469999999999990e+00 6.324799999999999756e+01 1.532259999999999991e+03
2.900000000000000147e-02 4.456809999999999938e-01 1.996865000000000112e+00 6.169134999999999991e+01 1.531789999999999964e+03
3.000000000000000236e-02 4.453329999999999789e-01 2.288199999999999346e+00 5.992544999999999789e+01 1.531269999999999982e+03
3.099999999999999978e-02 4.449224999999999985e-01 2.349035000000000206e+00 5.787940000000000396e+01 1.530690000000000055e+03
3.200000000000000067e-02 4.444489999999999830e-01 2.163159999999999528e+00 5.551784999999999570e+01 1.530039999999999964e+03
3.300000000000000155e-02 4.439214999999999689e-01 1.750694999999999446e+00 5.285625000000000284e+01 1.529315000000000055e+03
3.400000000000000244e-02 4.433599999999999763e-01 1.165125000000000632e+00 4.996500000000000341e+01 1.528529999999999973e+03
3.500000000000000333e-02 4.427909999999999902e-01 4.834600000000000009e-01 4.696184999999999832e+01 1.527715000000000146e+03
3.600000000000000422e-02 4.422455000000000136e-01 -2.066599999999993997e-01 4.399559999999999604e+01 1.526894999999999982e+03
3.700000000000000511e-02 4.417495000000000172e-01 -8.199700000000000877e-01 4.122619999999999862e+01 1.526119999999999891e+03
3.799999999999999906e-02 4.413295000000000412e-01 -1.283364999999999423e+00 3.880535000000000423e+01 1.525404999999999973e+03
3.899999999999999994e-02 4.410014999999999907e-01 -1.541475000000000151e+00 3.686140000000000327e+01 1.524809999999999945e+03
4.000000000000000083e-02 4.407790000000000319e-01 -1.557965000000000044e+00 3.549065000000000225e+01 1.524349999999999909e+03
4.100000000000000172e-02 4.406679999999999486e-01 -1.313565500000000164e+00 3.475405000000000655e+01 1.524045000000000073e+03
4.200000000000000261e-02 4.406695000000000473e-01 -8.020479999999999832e-01 3.467980000000000018e+01 1.523909999999999854e+03
4.300000000000000350e-02 4.407820000000000071e-01 -2.574500000000001787e-02 3.526879999999999882e+01 1.523960000000000036e+03
4.400000000000000439e-02 4.410015000000000462e-01 1.008325000000000138e+00 3.650215000000000032e+01 1.524180000000000064e+03
4.499999999999999833e-02 4.413224999999999509e-01 2.290814999999999824e+00 3.834749999999999659e+01 1.524570000000000164e+03
4.599999999999999922e-02 4.417389999999999928e-01 3.810764999999999958e+00 4.076420000000000243e+01 1.525125000000000000e+03
4.700000000000000011e-02 4.422445000000000404e-01 5.554764999999999731e+00 4.370620000000000260e+01 1.525835000000000036e+03
4.800000000000000100e-02 4.428300000000000014e-01 7.505669999999999398e+00 4.712265000000000015e+01 1.526684999999999945e+03
4.900000000000000189e-02 4.434869999999999646e-01 9.640845999999999805e+00 5.095730000000000359e+01 1.527659999999999854e+03
5.000000000000000278e-02 4.442040000000000433e-01 1.193160449999999884e+01 5.514829999999999188e+01 1.528750000000000000e+03
5.100000000000000366e-02 4.449699999999999767e-01 1.434338999999999942e+01 5.962800000000000011e+01 1.529934999999999945e+03
5.200000000000000455e-02 4.457704999999999584e-01 1.683690499999999801e+01 6.432404999999999973e+01 1.531190000000000055e+03
5.300000000000000544e-02 4.465934999999999766e-01 1.937030499999999833e+01 6.916164999999999452e+01 1.532505000000000109e+03
5.399999999999999939e-02 4.474254999999999760e-01 2.190155000000000030e+01 7.406674999999999898e+01 1.533860000000000127e+03
5.500000000000000028e-02 4.482549999999999590e-01 2.439090000000000202e+01 7.896959999999999980e+01 1.535230000000000018e+03
5.600000000000000117e-02 4.490720000000000267e-01 2.680320000000000036e+01 8.380809999999999604e+01 1.536605000000000018e+03
5.700000000000000205e-02 4.498679999999999346e-01 2.910925000000000296e+01 8.853014999999999191e+01 1.537960000000000036e+03
5.800000000000000294e-02 4.506379999999999830e-01 3.128679999999999950e+01 9.309645000000000437e+01 1.539295000000000073e+03
5.900000000000000383e-02 4.513785000000000158e-01 3.332070000000000221e+01 9.748189999999999600e+01 1.540585000000000036e+03
6.000000000000000472e-02 4.520890000000000186e-01 3.520279999999999632e+01 1.016728999999999985e+02 1.541835000000000036e+03
6.099999999999999867e-02 4.527695000000000469e-01 3.693099999999999739e+01 1.056693500000000085e+02 1.543045000000000073e+03
6.199999999999999956e-02 4.534225000000000061e-01 3.850844999999999629e+01 1.094809999999999945e+02 1.544204999999999927e+03
6.300000000000000044e-02 4.540520000000000111e-01 3.994275000000000375e+01 1.131254999999999882e+02 1.545324999999999818e+03
6.400000000000000133e-02 4.546609999999999818e-01 4.124429999999999552e+01 1.166274999999999977e+02 1.546409999999999854e+03
6.500000000000000222e-02 4.552549999999999653e-01 4.242605000000000359e+01 1.200144999999999982e+02 1.547460000000000036e+03
6.600000000000000311e-02 4.558379999999999654e-01 4.350189999999999912e+01 1.233160000000000025e+02 1.548485000000000127e+03
6.700000000000000400e-02 4.564150000000000151e-01 4.448579999999999757e+01 1.265585000000000093e+02 1.549484999999999900e+03
6.800000000000000488e-02 4.569895000000000485e-01 4.539110000000000156e+01 1.297674999999999841e+02 1.550480000000000018e+03
6.900000000000000577e-02 4.575639999999999707e-01 4.622939999999999827e+01 1.329630000000000223e+02 1.551470000000000027e+03
7.000000000000000666e-02 4.581405000000000061e-01 4.700990000000000180e+01 1.361580000000000155e+02 1.552450000000000045e+03
7.100000000000000755e-02 4.587189999999999879e-01 4.773870000000000147e+01 1.393584999999999923e+02 1.553429999999999836e+03
7.200000000000000844e-02 4.592985000000000539e-01 4.841870000000000118e+01 1.425625000000000000e+02 1.554409999999999854e+03
7.300000000000000933e-02 4.598774999999999391e-01 4.904925000000000068e+01 1.457595000000000027e+02 1.555384999999999991e+03
7.399999999999999634e-02 4.604515000000000136e-01 4.962644999999999840e+01 1.489329999999999927e+02 1.556355000000000018e+03
7.499999999999999722e-02 4.610159999999999814e-01 5.014400000000000546e+01 1.520585000000000093e+02 1.557315000000000055e+03
7.599999999999999811e-02 4.615660000000000318e-01 5.059319999999999595e+01 1.551069999999999993e+02 1.558250000000000000e+03
7.699999999999999900e-02 4.620960000000000067e-01 5.096425000000000693e+01 1.580484999999999900e+02 1.559159999999999854e+03
7.799999999999999989e-02 4.626004999999999701e-01 5.124689999999999657e+01 1.608494999999999777e+02 1.560034999999999854e+03
7.900000000000000078e-02 4.630739999999999856e-01 5.143134999999999479e+01 1.634784999999999968e+02 1.560859999999999900e+03
8.000000000000000167e-02 4.635114999999999652e-01 5.150879999999999370e+01 1.659069999999999823e+02 1.561630000000000109e+03
8.100000000000000255e-02 4.639094999999999747e-01 5.147225000000000250e+01 1.681105000000000018e+02 1.562344999999999800e+03
8.200000000000000344e-02 4.642645000000000244e-01 5.131674999999999898e+01 1.700699999999999932e+02 1.562994999999999891e+03
8.300000000000000433e-02 4.645750000000000157e-01 5.104014999999999702e+01 1.717715000000000032e+02 1.563565000000000055e+03
8.400000000000000522e-02 4.648400000000000309e-01 5.064280000000000115e+01 1.732094999999999914e+02 1.564070000000000164e+03
8.500000000000000611e-02 4.650590000000000002e-01 5.012800000000000011e+01 1.743845000000000027e+02 1.564490000000000009e+03
8.600000000000000699e-02 4.652350000000000096e-01 4.950164999999999793e+01 1.753029999999999973e+02 1.564835000000000036e+03
8.700000000000000788e-02 4.653684999999999627e-01 4.877244999999999919e+01 1.759780000000000086e+02 1.565115000000000009e+03
8.800000000000000877e-02 4.654639999999999889e-01 4.795120000000000005e+01 1.764290000000000020e+02 1.565324999999999818e+03
8.899999999999999578e-02 4.655255000000000365e-01 4.705069999999999908e+01 1.766775000000000091e+02 1.565470000000000027e+03
8.999999999999999667e-02 4.655569999999999986e-01 4.608539999999999992e+01 1.767515000000000214e+02 1.565559999999999945e+03
9.099999999999999756e-02 4.655635000000000190e-01 4.507054999999999723e+01 1.766790000000000020e+02 1.565599999999999909e+03
9.199999999999999845e-02 4.655509999999999926e-01 4.402200000000000557e+01 1.764920000000000186e+02 1.565599999999999909e+03
9.299999999999999933e-02 4.655234999999999790e-01 4.295544999999999902e+01 1.762189999999999941e+02 1.565570000000000164e+03
9.400000000000000022e-02 4.654864999999999697e-01 4.188599999999999568e+01 1.758905000000000030e+02 1.565514999999999873e+03
9.500000000000000111e-02 4.654439999999999689e-01 4.082744999999999891e+01 1.755339999999999918e+02 1.565440000000000055e+03
9.600000000000000200e-02 4.654004999999999947e-01 3.979180000000000206e+01 1.751734999999999900e+02 1.565355000000000018e+03
9.700000000000000289e-02 4.653590000000000226e-01 3.878909999999999769e+01 1.748280000000000030e+02 1.565275000000000091e+03
9.800000000000000377e-02 4.653220000000000134e-01 3.782665000000000077e+01 1.745140000000000100e+02 1.565190000000000055e+03
9.900000000000000466e-02 4.652910000000000101e-01 3.690935000000000343e+01 1.742425000000000068e+02 1.565110000000000127e+03
1.000000000000000056e-01 4.652665000000000273e-01 3.603905000000000314e+01 1.740165000000000077e+02 1.565045000000000073e+03
1.010000000000000064e-01 4.652479999999999949e-01 3.521519999999999584e+01 1.738385000000000105e+02 1.564990000000000009e+03
1.020000000000000073e-01 4.652355000000000240e-01 3.443449999999999989e+01 1.737019999999999982e+02 1.564940000000000055e+03
1.030000000000000082e-01 4.652270000000000016e-01 3.369169999999999732e+01 1.735980000000000132e+02 1.564900000000000091e+03
1.040000000000000091e-01 4.652189999999999381e-01 3.297959999999999781e+01 1.735149999999999864e+02 1.564865000000000009e+03
1.050000000000000100e-01 4.652104999999999713e-01 3.228974999999999795e+01 1.734370000000000118e+02 1.564835000000000036e+03
1.059999999999999970e-01 4.651980000000000004e-01 3.161280000000000001e+01 1.733470000000000084e+02 1.564799999999999955e+03
1.069999999999999979e-01 4.651790000000000092e-01 3.093934999999999746e+01 1.732284999999999968e+02 1.564759999999999991e+03
1.079999999999999988e-01 4.651505000000000223e-01 3.025999999999999801e+01 1.730640000000000214e+02 1.564710000000000036e+03
1.089999999999999997e-01 4.651089999999999947e-01 2.956605000000000061e+01 1.728379999999999939e+02 1.564644999999999982e+03
1.100000000000000006e-01 4.650544999999999818e-01 2.885009999999999764e+01 1.725369999999999777e+02 1.564559999999999945e+03
1.110000000000000014e-01 4.649845000000000228e-01 2.810614999999999952e+01 1.721504999999999939e+02 1.564454999999999927e+03
1.120000000000000023e-01 4.648970000000000047e-01 2.732985000000000042e+01 1.716705000000000041e+02 1.564325000000000045e+03
1.130000000000000032e-01 4.647924999999999973e-01 2.651894999999999669e+01 1.710949999999999989e+02 1.564170000000000073e+03
1.140000000000000041e-01 4.646725000000000438e-01 2.567314999999999969e+01 1.704225000000000136e+02 1.563989999999999782e+03
1.150000000000000050e-01 4.645365000000000189e-01 2.479424999999999812e+01 1.696589999999999918e+02 1.563779999999999973e+03
1.160000000000000059e-01 4.643865000000000354e-01 2.388589999999999947e+01 1.688115000000000236e+02 1.563549999999999955e+03
1.170000000000000068e-01 4.642239999999999700e-01 2.295364999999999966e+01 1.678910000000000196e+02 1.563295000000000073e+03
1.180000000000000077e-01 4.640524999999999789e-01 2.200450000000000017e+01 1.669114999999999895e+02 1.563025000000000091e+03
1.190000000000000085e-01 4.638750000000000373e-01 2.104679999999999751e+01 1.658894999999999982e+02 1.562740000000000009e+03
1.200000000000000094e-01 4.636934999999999807e-01 2.008970000000000056e+01 1.648419999999999845e+02 1.562445000000000164e+03
1.209999999999999964e-01 4.635124999999999940e-01 1.914269999999999783e+01 1.637875000000000227e+02 1.562144999999999982e+03
1.219999999999999973e-01 4.633335000000000647e-01 1.821569999999999823e+01 1.627439999999999998e+02 1.561844999999999800e+03
1.229999999999999982e-01 4.631609999999999894e-01 1.731804999999999950e+01 1.617284999999999968e+02 1.561545000000000073e+03
1.239999999999999991e-01 4.629964999999999775e-01 1.645860000000000056e+01 1.607579999999999814e+02 1.561260000000000218e+03
1.250000000000000000e-01 4.628425000000000455e-01 1.564505000000000123e+01 1.598460000000000036e+02 1.560985000000000127e+03
1.260000000000000009e-01 4.627009999999999734e-01 1.488389999999999880e+01 1.590029999999999859e+02 1.560724999999999909e+03
1.270000000000000018e-01 4.625734999999999708e-01 1.418022500000000008e+01 1.582379999999999995e+02 1.560490000000000009e+03
1.280000000000000027e-01 4.624599999999999822e-01 1.353732000000000113e+01 1.575560000000000116e+02 1.560269999999999982e+03
1.290000000000000036e-01 4.623614999999999808e-01 1.295682499999999848e+01 1.569599999999999795e+02 1.560074999999999818e+03
1.300000000000000044e-01 4.622759999999999647e-01 1.243872500000000159e+01 1.564470000000000027e+02 1.559900000000000091e+03
1.310000000000000053e-01 4.622049999999999770e-01 1.198134500000000102e+01 1.560140000000000100e+02 1.559750000000000000e+03
1.320000000000000062e-01 4.621450000000000280e-01 1.158166999999999902e+01 1.556539999999999964e+02 1.559619999999999891e+03
1.330000000000000071e-01 4.620960000000000067e-01 1.123531999999999975e+01 1.553584999999999923e+02 1.559509999999999991e+03
1.340000000000000080e-01 4.620549999999999935e-01 1.093702000000000041e+01 1.551165000000000020e+02 1.559414999999999964e+03
1.350000000000000089e-01 4.620204999999999451e-01 1.068076999999999899e+01 1.549174999999999898e+02 1.559335000000000036e+03
1.360000000000000098e-01 4.619905000000000261e-01 1.046006000000000036e+01 1.547484999999999786e+02 1.559264999999999873e+03
1.370000000000000107e-01 4.619635000000000269e-01 1.026828499999999877e+01 1.545989999999999895e+02 1.559204999999999927e+03
1.380000000000000115e-01 4.619365000000000276e-01 1.009895000000000032e+01 1.544560000000000173e+02 1.559150000000000091e+03
1.390000000000000124e-01 4.619084999999999996e-01 9.945729999999999293e+00 1.543104999999999905e+02 1.559090000000000146e+03
1.400000000000000133e-01 4.618780000000000108e-01 9.802955000000000751e+00 1.541519999999999868e+02 1.559034999999999854e+03
1.410000000000000142e-01 4.618435000000000179e-01 9.665430000000000632e+00 1.539750000000000227e+02 1.558970000000000027e+03
1.420000000000000151e-01 4.618050000000000210e-01 9.528859999999999886e+00 1.537715000000000032e+02 1.558905000000000200e+03
1.430000000000000160e-01 4.617605000000000182e-01 9.389604999999999535e+00 1.535389999999999873e+02 1.558835000000000036e+03
1.440000000000000169e-01 4.617109999999999825e-01 9.244949999999999335e+00 1.532744999999999891e+02 1.558750000000000000e+03
1.450000000000000178e-01 4.616554999999999964e-01 9.092990000000000350e+00 1.529769999999999754e+02 1.558670000000000073e+03
1.459999999999999909e-01 4.615950000000000331e-01 8.932669999999999888e+00 1.526479999999999961e+02 1.558569999999999936e+03
1.469999999999999918e-01 4.615294999999999814e-01 8.763624999999999332e+00 1.522889999999999873e+02 1.558470000000000027e+03
1.479999999999999927e-01 4.614595000000000224e-01 8.586265000000000924e+00 1.519030000000000200e+02 1.558355000000000018e+03
1.489999999999999936e-01 4.613859999999999628e-01 8.401540000000000674e+00 1.514944999999999879e+02 1.558239999999999782e+03
1.499999999999999944e-01 4.613099999999999978e-01 8.211000000000000298e+00 1.510679999999999836e+02 1.558119999999999891e+03
1.509999999999999953e-01 4.612314999999999610e-01 8.016564999999999941e+00 1.506279999999999859e+02 1.557994999999999891e+03
1.519999999999999962e-01 4.611524999999999652e-01 7.820515000000000327e+00 1.501814999999999998e+02 1.557865000000000009e+03
1.529999999999999971e-01 4.610729999999999551e-01 7.625329999999999941e+00 1.497324999999999875e+02 1.557735000000000127e+03
1.539999999999999980e-01 4.609950000000000436e-01 7.433664999999999523e+00 1.492870000000000061e+02 1.557605000000000018e+03
1.549999999999999989e-01 4.609185000000000088e-01 7.248075000000000045e+00 1.488505000000000109e+02 1.557474999999999909e+03
1.559999999999999998e-01 4.608450000000000046e-01 7.071039999999999992e+00 1.484259999999999877e+02 1.557349999999999909e+03
1.570000000000000007e-01 4.607740000000000169e-01 6.904835000000000278e+00 1.480190000000000055e+02 1.557224999999999909e+03
1.580000000000000016e-01 4.607069999999999776e-01 6.751394999999999591e+00 1.476310000000000002e+02 1.557110000000000127e+03
1.590000000000000024e-01 4.606439999999999979e-01 6.612280000000000157e+00 1.472665000000000077e+02 1.557000000000000000e+03
