# t [s], A [cm^2], U [cm/s], P [cPa], c [cm/s]
1.000000000000000021e-03 1.611805000000000043e-01 2.961550000000000016e-01 1.000486500000000092e+02 1.817590000000000146e+03
2.000000000000000042e-03 1.611495000000000011e-01 1.863440499999999833e+00 9.706844999999999857e+01 1.817309999999999945e+03
3.000000000000000062e-03 1.610364999999999991e-01 3.789235500000000201e+00 9.312344999999999118e+01 1.816345000000000027e+03
4.000000000000000083e-03 1.608685000000000254e-01 5.923470000000000013e+00 8.869620000000000459e+01 1.814934999999999945e+03
5.000000000000000104e-03 1.606744999999999979e-01 8.211259999999999337e+00 8.451454999999999984e+01 1.813319999999999936e+03
6.000000000000000125e-03 1.604774999999999952e-01 1.054184000000000054e+01 8.096150000000000091e+01 1.811694999999999936e+03
7.000000000000000146e-03 1.602885000000000004e-01 1.274985500000000016e+01 7.800624999999999432e+01 1.810154999999999973e+03
8.000000000000000167e-03 1.601104999999999889e-01 1.470626000000000033e+01 7.543269999999999698e+01 1.808730000000000018e+03
9.000000000000001055e-03 1.599470000000000058e-01 1.638490000000000180e+01 7.313644999999999641e+01 1.807445000000000164e+03
1.000000000000000194e-02 1.598019999999999996e-01 1.781640000000000157e+01 7.115534999999999854e+01 1.806315000000000055e+03
1.099999999999999936e-02 1.596764999999999990e-01 1.902475000000000094e+01 6.952129999999999654e+01 1.805345000000000027e+03
1.200000000000000025e-02 1.595714999999999772e-01 2.002274999999999849e+01 6.821094999999999686e+01 1.804545000000000073e+03
1.300000000000000114e-02 1.594849999999999879e-01 2.082310000000000016e+01 6.718035000000000423e+01 1.803889999999999873e+03
1.400000000000000203e-02 1.594145000000000145e-01 2.143554999999999922e+01 6.637340000000000373e+01 1.803365000000000009e+03
1.499999999999999944e-02 1.593579999999999997e-01 2.186849999999999739e+01 6.572055000000000291e+01 1.802954999999999927e+03
1.600000000000000033e-02 1.593114999999999948e-01 2.214860000000000184e+01 6.517945000000000277e+01 1.802619999999999891e+03
1.700000000000000122e-02 1.592749999999999999e-01 2.233924999999999983e+01 6.479670000000000130e+01 1.802375000000000000e+03
1.800000000000000211e-02 1.592530000000000057e-01 2.253399999999999892e+01 6.472245000000000914e+01 1.802224999999999909e+03
1.900000000000000300e-02 1.592494999999999883e-01 2.282424999999999926e+01 6.514839999999999520e+01 1.802215000000000146e+03
2.000000000000000042e-02 1.592695000000000083e-01 2.326120000000000232e+01 6.620449999999999591e+01 1.802380000000000109e+03
2.100000000000000130e-02 1.593144999999999978e-01 2.383364999999999867e+01 6.787524999999999409e+01 1.802735000000000127e+03
2.200000000000000219e-02 1.593809999999999949e-01 2.447160000000000224e+01 6.997894999999999754e+01 1.803255000000000109e+03
2.299999999999999961e-02 1.594619999999999926e-01 2.507039999999999935e+01 7.221344999999999459e+01 1.803884999999999991e+03
2.400000000000000050e-02 1.595449999999999924e-01 2.552420000000000044e+01 7.424230000000000018e+01 1.804545000000000073e+03
2.500000000000000139e-02 1.596210000000000129e-01 2.575585000000000235e+01 7.578745000000000687e+01 1.805144999999999982e+03
2.600000000000000228e-02 1.596809999999999896e-01 2.573499999999999943e+01 7.669585000000000719e+01 1.805634999999999991e+03
2.700000000000000316e-02 1.597210000000000019e-01 2.547995000000000232e+01 7.696405000000000030e+01 1.805965000000000146e+03
2.800000000000000058e-02 1.597409999999999941e-01 2.504589999999999961e+01 7.671805000000000518e+01 1.806144999999999982e+03
2.900000000000000147e-02 1.597454999999999847e-01 2.450439999999999685e+01 7.615954999999999586e+01 1.806200000000000045e+03
3.000000000000000236e-02 1.597389999999999921e-01 2.392164999999999964e+01 7.549970000000000425e+01 1.806164999999999964e+03
3.099999999999999978e-02 1.597279999999999811e-01 2.334250000000000114e+01 7.490155000000000030e+01 1.806085000000000036e+03
3.200000000000000067e-02 1.597164999999999835e-01 2.278334999999999866e+01 7.444630000000000791e+01 1.806000000000000000e+03
3.300000000000000155e-02 1.597055000000000002e-01 2.223474999999999824e+01 7.412924999999999898e+01 1.805920000000000073e+03
3.400000000000000244e-02 1.596970000000000056e-01 2.167125000000000057e+01 7.388034999999999286e+01 1.805849999999999909e+03
3.500000000000000333e-02 1.596870000000000234e-01 2.106419999999999959e+01 7.360075000000000500e+01 1.805779999999999973e+03
3.600000000000000422e-02 1.596739999999999826e-01 2.039459999999999695e+01 7.320269999999999300e+01 1.805679999999999836e+03
3.700000000000000511e-02 1.596555000000000057e-01 1.966210000000000235e+01 7.264224999999999000e+01 1.805545000000000073e+03
3.799999999999999906e-02 1.596325000000000105e-01 1.888895000000000124e+01 7.193819999999999482e+01 1.805369999999999891e+03
3.899999999999999994e-02 1.596049999999999969e-01 1.811730000000000018e+01 7.117220000000000368e+01 1.805159999999999854e+03
4.000000000000000083e-02 1.595765000000000100e-01 1.740135000000000076e+01 7.047190000000000509e+01 1.804944999999999936e+03
4.100000000000000172e-02 1.595524999999999860e-01 1.679640000000000200e+01 6.998195000000001187e+01 1.804755000000000109e+03
4.200000000000000261e-02 1.595364999999999978e-01 1.634694999999999965e+01 6.983029999999999404e+01 1.804630000000000109e+03
4.300000000000000350e-02 1.595340000000000091e-01 1.607770000000000010e+01 7.009784999999999400e+01 1.804594999999999800e+03
4.400000000000000439e-02 1.595459999999999934e-01 1.598819999999999908e+01 7.079974999999998886e+01 1.804679999999999836e+03
4.499999999999999833e-02 1.595730000000000204e-01 1.605290000000000106e+01 7.188034999999999286e+01 1.804880000000000109e+03
4.599999999999999922e-02 1.596134999999999915e-01 1.622529999999999717e+01 7.322195000000000675e+01 1.805180000000000064e+03
4.700000000000000011e-02 1.596625000000000127e-01 1.644545000000000101e+01 7.466500000000000625e+01 1.805554999999999836e+03
4.800000000000000100e-02 1.597159999999999969e-01 1.664889999999999759e+01 7.603294999999999959e+01 1.805960000000000036e+03
4.900000000000000189e-02 1.597660000000000191e-01 1.677479999999999905e+01 7.715794999999999959e+01 1.806349999999999909e+03
5.000000000000000278e-02 1.598080000000000056e-01 1.677264999999999873e+01 7.790219999999999345e+01 1.806674999999999955e+03
5.100000000000000366e-02 1.598364999999999925e-01 1.660670000000000002e+01 7.817170000000000130e+01 1.806900000000000091e+03
5.200000000000000455e-02 1.598475000000000035e-01 1.625750000000000028e+01 7.792234999999999445e+01 1.807000000000000000e+03
5.300000000000000544e-02 1.598399999999999821e-01 1.572119999999999962e+01 7.715780000000000882e+01 1.806949999999999818e+03
5.399999999999999939e-02 1.598134999999999972e-01 1.500714999999999932e+01 7.592125000000000057e+01 1.806750000000000000e+03
5.500000000000000028e-02 1.597684999999999800e-01 1.413485000000000014e+01 7.428449999999999420e+01 1.806409999999999854e+03
5.600000000000000117e-02 1.597075000000000022e-01 1.313034999999999997e+01 7.233535000000000537e+01 1.805945000000000164e+03
5.700000000000000205e-02 1.596335000000000115e-01 1.202335000000000065e+01 7.016720000000000823e+01 1.805375000000000000e+03
5.800000000000000294e-02 1.595485000000000098e-01 1.084518999999999878e+01 6.787099999999999511e+01 1.804720000000000027e+03
5.900000000000000383e-02 1.594570000000000154e-01 9.627655000000000740e+00 6.553085000000000093e+01 1.804009999999999991e+03
6.000000000000000472e-02 1.593620000000000037e-01 8.402219999999999800e+00 6.322254999999999825e+01 1.803269999999999982e+03
6.099999999999999867e-02 1.592665000000000053e-01 7.200504999999999711e+00 6.101439999999999486e+01 1.802530000000000200e+03
6.199999999999999956e-02 1.591730000000000089e-01 6.054014999999999702e+00 5.896940000000000026e+01 1.801805000000000064e+03
6.300000000000000044e-02 1.590845000000000176e-01 4.994570000000000398e+00 5.714705000000000013e+01 1.801115000000000009e+03
6.400000000000000133e-02 1.590044999999999931e-01 4.053955000000000197e+00 5.560504999999999853e+01 1.800490000000000009e+03
6.500000000000000222e-02 1.589355000000000073e-01 3.263390000000000235e+00 5.439985000000000070e+01 1.799944999999999936e+03
6.600000000000000311e-02 1.588784999999999781e-01 2.652584500000000123e+00 5.358509999999999707e+01 1.799494999999999891e+03
6.700000000000000400e-02 1.588379999999999792e-01 2.248515000000000263e+00 5.321014999999999873e+01 1.799170000000000073e+03
6.800000000000000488e-02 1.588150000000000117e-01 2.074049999999999727e+00 5.331669999999999732e+01 1.798980000000000018e+03
6.900000000000000577e-02 1.588120000000000087e-01 2.146614999999999718e+00 5.393599999999999994e+01 1.798940000000000055e+03
7.000000000000000666e-02 1.588299999999999990e-01 2.477094999999999825e+00 5.508594999999999686e+01 1.799059999999999945e+03
7.100000000000000755e-02 1.588700000000000112e-01 3.069045000000000023e+00 5.676909999999999457e+01 1.799355000000000018e+03
7.200000000000000844e-02 1.589325000000000043e-01 3.918399999999999661e+00 5.897180000000000177e+01 1.799820000000000164e+03
7.300000000000000933e-02 1.590165000000000051e-01 5.013550000000000395e+00 6.166409999999999769e+01 1.800454999999999927e+03
7.399999999999999634e-02 1.591219999999999857e-01 6.335960000000000036e+00 6.480145000000000266e+01 1.801255000000000109e+03
7.499999999999999722e-02 1.592459999999999987e-01 7.861044999999998950e+00 6.832689999999999486e+01 1.802204999999999927e+03
7.599999999999999811e-02 1.593884999999999885e-01 9.559490000000000265e+00 7.217419999999999902e+01 1.803295000000000073e+03
7.699999999999999900e-02 1.595455000000000068e-01 1.139841499999999996e+01 7.627119999999999322e+01 1.804509999999999991e+03
7.799999999999999989e-02 1.597139999999999949e-01 1.334292999999999907e+01 8.054349999999999454e+01 1.805815000000000055e+03
7.900000000000000078e-02 1.598924999999999930e-01 1.535749999999999993e+01 8.491765000000000896e+01 1.807195000000000164e+03
8.000000000000000167e-02 1.600765000000000104e-01 1.740749999999999886e+01 8.932460000000000377e+01 1.808634999999999991e+03
8.100000000000000255e-02 1.602639999999999898e-01 1.945994999999999919e+01 9.370199999999999818e+01 1.810099999999999909e+03
8.200000000000000344e-02 1.604530000000000123e-01 2.148525000000000063e+01 9.799664999999998827e+01 1.811579999999999927e+03
8.300000000000000433e-02 1.606400000000000050e-01 2.345739999999999981e+01 1.021651500000000112e+02 1.813050000000000182e+03
8.400000000000000522e-02 1.608235000000000081e-01 2.535515000000000185e+01 1.061777000000000015e+02 1.814505000000000109e+03
8.500000000000000611e-02 1.610024999999999928e-01 2.716210000000000235e+01 1.100130000000000052e+02 1.815920000000000073e+03
8.600000000000000699e-02 1.611754999999999993e-01 2.886675000000000324e+01 1.136649999999999920e+02 1.817295000000000073e+03
8.700000000000000788e-02 1.613419999999999854e-01 3.046260000000000190e+01 1.171334999999999980e+02 1.818619999999999891e+03
8.800000000000000877e-02 1.615019999999999789e-01 3.194750000000000156e+01 1.204304999999999950e+02 1.819894999999999982e+03
8.899999999999999578e-02 1.616555000000000075e-01 3.332294999999999874e+01 1.235734999999999957e+02 1.821125000000000000e+03
8.999999999999999667e-02 1.618025000000000158e-01 3.459375000000000000e+01 1.265840000000000032e+02 1.822305000000000064e+03
9.099999999999999756e-02 1.619444999999999912e-01 3.576655000000000229e+01 1.294859999999999900e+02 1.823450000000000045e+03
9.199999999999999845e-02 1.620820000000000038e-01 3.684940000000000282e+01 1.323034999999999854e+02 1.824559999999999945e+03
9.299999999999999933e-02 1.622159999999999991e-01 3.785065000000000168e+01 1.350584999999999809e+02 1.825634999999999991e+03
9.400000000000000022e-02 1.623470000000000191e-01 3.877819999999999823e+01 1.377674999999999841e+02 1.826690000000000055e+03
9.500000000000000111e-02 1.624754999999999949e-01 3.963904999999999745e+01 1.404440000000000168e+02 1.827730000000000018e+03
9.600000000000000200e-02 1.626015000000000099e-01 4.043850000000000477e+01 1.430944999999999823e+02 1.828755000000000109e+03
9.700000000000000289e-02 1.627270000000000105e-01 4.118019999999999925e+01 1.457199999999999989e+02 1.829764999999999873e+03
9.800000000000000377e-02 1.628505000000000091e-01 4.186560000000000059e+01 1.483149999999999977e+02 1.830764999999999873e+03
9.900000000000000466e-02 1.629720000000000057e-01 4.249434999999999718e+01 1.508679999999999950e+02 1.831750000000000000e+03
1.000000000000000056e-01 1.630920000000000147e-01 4.306414999999999793e+01 1.533650000000000091e+02 1.832719999999999800e+03
1.010000000000000064e-01 1.632095000000000073e-01 4.357115000000000293e+01 1.557875000000000227e+02 1.833670000000000073e+03
1.020000000000000073e-01 1.633224999999999816e-01 4.401040000000000418e+01 1.581125000000000114e+02 1.834590000000000146e+03
1.030000000000000082e-01 1.634319999999999939e-01 4.437579999999999814e+01 1.603199999999999932e+02 1.835474999999999909e+03
1.040000000000000091e-01 1.635365000000000013e-01 4.466094999999999970e+01 1.623865000000000123e+02 1.836329999999999927e+03
1.050000000000000100e-01 1.636349999999999749e-01 4.485940000000000083e+01 1.642915000000000134e+02 1.837130000000000109e+03
1.059999999999999970e-01 1.637264999999999970e-01 4.496495000000000175e+01 1.660134999999999934e+02 1.837875000000000000e+03
1.069999999999999979e-01 1.638100000000000112e-01 4.497220000000000084e+01 1.675374999999999943e+02 1.838559999999999945e+03
1.079999999999999988e-01 1.638850000000000029e-01 4.487650000000000006e+01 1.688489999999999895e+02 1.839175000000000182e+03
1.089999999999999997e-01 1.639519999999999866e-01 4.467480000000000473e+01 1.699375000000000000e+02 1.839719999999999800e+03
1.100000000000000006e-01 1.640085000000000015e-01 4.436525000000000318e+01 1.707975000000000136e+02 1.840195000000000164e+03
1.110000000000000014e-01 1.640554999999999930e-01 4.394780000000000086e+01 1.714270000000000209e+02 1.840585000000000036e+03
1.120000000000000023e-01 1.640924999999999745e-01 4.342430000000000234e+01 1.718269999999999982e+02 1.840894999999999982e+03
1.130000000000000032e-01 1.641195000000000015e-01 4.279820000000000135e+01 1.720049999999999955e+02 1.841119999999999891e+03
1.140000000000000041e-01 1.641370000000000051e-01 4.207505000000000450e+01 1.719705000000000155e+02 1.841275000000000091e+03
1.150000000000000050e-01 1.641449999999999854e-01 4.126189999999999714e+01 1.717390000000000043e+02 1.841349999999999909e+03
1.160000000000000059e-01 1.641440000000000121e-01 4.036759999999999593e+01 1.713269999999999982e+02 1.841355000000000018e+03
1.170000000000000068e-01 1.641354999999999897e-01 3.940225000000000222e+01 1.707545000000000073e+02 1.841289999999999964e+03
1.180000000000000077e-01 1.641185000000000005e-01 3.837725000000000364e+01 1.700449999999999875e+02 1.841160000000000082e+03
1.190000000000000085e-01 1.640960000000000196e-01 3.730454999999999899e+01 1.692214999999999918e+02 1.840985000000000127e+03
1.200000000000000094e-01 1.640669999999999906e-01 3.619669999999999987e+01 1.683084999999999809e+02 1.840759999999999991e+03
1.209999999999999964e-01 1.640340000000000131e-01 3.506620000000000203e+01 1.673305000000000007e+02 1.840494999999999891e+03
1.219999999999999973e-01 1.639970000000000039e-01 3.392539999999999623e+01 1.663110000000000070e+02 1.840200000000000045e+03
1.229999999999999982e-01 1.639574999999999783e-01 3.278584999999999638e+01 1.652700000000000102e+02 1.839884999999999991e+03
1.239999999999999991e-01 1.639160000000000061e-01 3.165810000000000102e+01 1.642280000000000086e+02 1.839550000000000182e+03
1.250000000000000000e-01 1.638740000000000197e-01 3.055154999999999887e+01 1.632015000000000100e+02 1.839210000000000036e+03
1.260000000000000009e-01 1.638310000000000044e-01 2.947399999999999665e+01 1.622024999999999864e+02 1.838875000000000000e+03
1.270000000000000018e-01 1.637895000000000045e-01 2.843164999999999765e+01 1.612400000000000091e+02 1.838530000000000200e+03
1.280000000000000027e-01 1.637480000000000047e-01 2.742885000000000062e+01 1.603209999999999980e+02 1.838195000000000164e+03
1.290000000000000036e-01 1.637085000000000068e-01 2.646824999999999761e+01 1.594474999999999909e+02 1.837869999999999891e+03
1.300000000000000044e-01 1.636694999999999955e-01 2.555064999999999742e+01 1.586165000000000020e+02 1.837554999999999836e+03
1.310000000000000053e-01 1.636319999999999997e-01 2.467515000000000214e+01 1.578245000000000005e+02 1.837250000000000000e+03
1.320000000000000062e-01 1.635960000000000192e-01 2.383924999999999983e+01 1.570629999999999882e+02 1.836954999999999927e+03
1.330000000000000071e-01 1.635610000000000119e-01 2.303925000000000267e+01 1.563230000000000075e+02 1.836664999999999964e+03
1.340000000000000080e-01 1.635265000000000191e-01 2.227015000000000100e+01 1.555919999999999845e+02 1.836385000000000218e+03
1.350000000000000089e-01 1.634924999999999851e-01 2.152615000000000123e+01 1.548569999999999993e+02 1.836099999999999909e+03
1.360000000000000098e-01 1.634579999999999922e-01 2.080080000000000240e+01 1.541050000000000182e+02 1.835825000000000045e+03
1.370000000000000107e-01 1.634229999999999849e-01 2.008760000000000190e+01 1.533204999999999814e+02 1.835535000000000082e+03
1.380000000000000115e-01 1.633864999999999901e-01 1.937980000000000302e+01 1.524919999999999902e+02 1.835240000000000009e+03
1.390000000000000124e-01 1.633490000000000220e-01 1.867115000000000080e+01 1.516075000000000159e+02 1.834930000000000064e+03
1.400000000000000133e-01 1.633084999999999953e-01 1.795579999999999998e+01 1.506564999999999941e+02 1.834605000000000018e+03
1.410000000000000142e-01 1.632649999999999935e-01 1.722899999999999920e+01 1.496304999999999836e+02 1.834259999999999991e+03
1.420000000000000151e-01 1.632194999999999896e-01 1.648679999999999879e+01 1.485250000000000057e+02 1.833884999999999991e+03
1.430000000000000160e-01 1.631699999999999817e-01 1.572665000000000113e+01 1.473369999999999891e+02 1.833490000000000009e+03
1.440000000000000169e-01 1.631179999999999852e-01 1.494715000000000060e+01 1.460670000000000073e+02 1.833065000000000055e+03
1.450000000000000178e-01 1.630614999999999981e-01 1.414845000000000041e+01 1.447180000000000177e+02 1.832615000000000009e+03
1.459999999999999909e-01 1.630024999999999946e-01 1.333210000000000051e+01 1.432975000000000136e+02 1.832139999999999873e+03
1.469999999999999918e-01 1.629400000000000015e-01 1.250112999999999985e+01 1.418139999999999930e+02 1.831639999999999873e+03
1.479999999999999927e-01 1.628749999999999920e-01 1.165963999999999956e+01 1.402794999999999845e+02 1.831119999999999891e+03
1.489999999999999936e-01 1.628074999999999939e-01 1.081298999999999921e+01 1.387085000000000150e+02 1.830579999999999927e+03
1.499999999999999944e-01 1.627385000000000081e-01 9.967480000000000118e+00 1.371154999999999973e+02 1.830025000000000091e+03
1.509999999999999953e-01 1.626680000000000070e-01 9.130110000000000170e+00 1.355180000000000007e+02 1.829460000000000036e+03
1.519999999999999962e-01 1.625975000000000059e-01 8.308284999999999698e+00 1.339334999999999809e+02 1.828894999999999982e+03
1.529999999999999971e-01 1.625270000000000048e-01 7.509539999999999438e+00 1.323785000000000025e+02 1.828329999999999927e+03
1.539999999999999980e-01 1.624575000000000047e-01 6.741464999999999819e+00 1.308700000000000045e+02 1.827775000000000091e+03
1.549999999999999989e-01 1.623894999999999922e-01 6.011055000000000703e+00 1.294230000000000018e+02 1.827224999999999909e+03
1.559999999999999998e-01 1.623235000000000094e-01 5.324794999999999945e+00 1.280504999999999995e+02 1.826699999999999818e+03
1.570000000000000007e-01 1.622609999999999886e-01 4.688265000000000349e+00 1.267639999999999958e+02 1.826195000000000164e+03
1.580000000000000016e-01 1.622014999999999985e-01 4.106040000000000134e+00 1.255720000000000027e+02 1.825715000000000146e+03
1.590000000000000024e-01 1.621460000000000123e-01 3.581515000000000004e+00 1.244809999999999945e+02 1.825264999999999873e+03
