# t [s], A [cm^2], U [cm/s], P [cPa], c [cm/s]
1.000000000000000021e-03 4.800805000000000211e-01 1.878599999999994163e-03 1.071585000000000036e+02 1.514480000000000018e+03
2.000000000000000042e-03 4.800780000000000047e-01 9.923504999999999132e-03 1.071440000000000055e+02 1.514474999999999909e+03
3.000000000000000062e-03 4.801314999999999333e-01 1.272700499999999957e-01 1.072620000000000005e+02 1.514509999999999991e+03
4.000000000000000083e-03 4.801625000000000476e-01 1.982482500000000147e-01 1.073520000000000039e+02 1.514539999999999964e+03
5.000000000000000104e-03 4.801345000000000196e-01 1.422329999999999983e-01 1.072595000000000027e+02 1.514519999999999982e+03
6.000000000000000125e-03 4.800860000000000127e-01 3.337350000000000039e-02 1.070204999999999984e+02 1.514470000000000027e+03
7.000000000000000146e-03 4.800305000000000266e-01 -9.863150000000003859e-02 1.066754999999999995e+02 1.514389999999999873e+03
8.000000000000000167e-03 4.799324999999999841e-01 -3.325049999999999395e-01 1.061324999999999932e+02 1.514269999999999982e+03
9.000000000000001055e-03 4.797750000000000070e-01 -7.045049999999999368e-01 1.053089999999999975e+02 1.514075000000000045e+03
1.000000000000000194e-02 4.795550000000000646e-01 -1.210294999999999899e+00 1.041640000000000015e+02 1.513795000000000073e+03
1.099999999999999936e-02 4.792595000000000049e-01 -1.858579999999999899e+00 1.026457499999999925e+02 1.513414999999999964e+03
1.200000000000000025e-02 4.788850000000000051e-01 -2.635524999999999896e+00 1.007286000000000001e+02 1.512924999999999955e+03
1.300000000000000114e-02 4.784564999999999513e-01 -3.453629999999999534e+00 9.848490000000001032e+01 1.512335000000000036e+03
1.400000000000000203e-02 4.780269999999999797e-01 -4.163784999999999847e+00 9.609659999999999513e+01 1.511684999999999945e+03
1.499999999999999944e-02 4.776460000000000150e-01 -4.619302000000000241e+00 9.379064999999999941e+01 1.511025000000000091e+03
1.600000000000000033e-02 4.773414999999999742e-01 -4.735376000000000474e+00 9.174889999999999191e+01 1.510409999999999854e+03
1.700000000000000122e-02 4.771104999999999929e-01 -4.510734500000000757e+00 9.005400000000000205e+01 1.509855000000000018e+03
1.800000000000000211e-02 4.769284999999999775e-01 -4.014083000000000290e+00 8.867785000000000650e+01 1.509365000000000009e+03
1.900000000000000300e-02 4.767590000000000439e-01 -3.350567999999999991e+00 8.751044999999999163e+01 1.508929999999999836e+03
2.000000000000000042e-02 4.765690000000000204e-01 -2.623907499999999615e+00 8.640784999999999627e+01 1.508509999999999991e+03
2.100000000000000130e-02 4.763395000000000268e-01 -1.906200000000000117e+00 8.524299999999999500e+01 1.508079999999999927e+03
2.200000000000000219e-02 4.760665000000000036e-01 -1.224604999999999944e+00 8.394129999999999825e+01 1.507630000000000109e+03
2.299999999999999961e-02 4.757605000000000306e-01 -5.679850000000001842e-01 8.249014999999999986e+01 1.507144999999999982e+03
2.400000000000000050e-02 4.754365000000000396e-01 9.209500000000003794e-02 8.092244999999999777e+01 1.506630000000000109e+03
2.500000000000000139e-02 4.751075000000000159e-01 7.771050000000001567e-01 7.928620000000000800e+01 1.506099999999999909e+03
2.600000000000000228e-02 4.747765000000000457e-01 1.483954999999999913e+00 7.761390000000000100e+01 1.505554999999999836e+03
2.700000000000000316e-02 4.744375000000000120e-01 2.178939999999999877e+00 7.590330000000000155e+01 1.504990000000000009e+03
2.800000000000000058e-02 4.740744999999999543e-01 2.802864999999999718e+00 7.411275000000000546e+01 1.504405000000000200e+03
2.900000000000000147e-02 4.736694999999999656e-01 3.284079999999999888e+00 7.217099999999999227e+01 1.503785000000000082e+03
3.000000000000000236e-02 4.732034999999999991e-01 3.555174999999999752e+00 6.999625000000000341e+01 1.503110000000000127e+03
3.099999999999999978e-02 4.726659999999999751e-01 3.569260000000000321e+00 6.752029999999999177e+01 1.502360000000000127e+03
3.200000000000000067e-02 4.720560000000000311e-01 3.311490000000000045e+00 6.471090000000000941e+01 1.501525000000000091e+03
3.300000000000000155e-02 4.713849999999999985e-01 2.804145000000000110e+00 6.158689999999999998e+01 1.500615000000000009e+03
3.400000000000000244e-02 4.706744999999999957e-01 2.103299999999999947e+00 5.822185000000000343e+01 1.499630000000000109e+03
3.500000000000000333e-02 4.699534999999999685e-01 1.289315000000000211e+00 5.473734999999999928e+01 1.498615000000000009e+03
3.600000000000000422e-02 4.692570000000000352e-01 4.541000000000003922e-01 5.128679999999999950e+01 1.497595000000000027e+03
3.700000000000000511e-02 4.686150000000000038e-01 -3.119949999999995782e-01 4.803594999999999970e+01 1.496614999999999782e+03
3.799999999999999906e-02 4.680570000000000008e-01 -9.300600000000005529e-01 4.514339999999999975e+01 1.495714999999999918e+03
3.899999999999999994e-02 4.676029999999999909e-01 -1.338880000000000070e+00 4.274484999999999957e+01 1.494934999999999945e+03
4.000000000000000083e-02 4.672695000000000043e-01 -1.496999999999999886e+00 4.094289999999999452e+01 1.494304999999999836e+03
4.100000000000000172e-02 4.670634999999999648e-01 -1.381359999999999921e+00 3.980334999999999468e+01 1.493849999999999909e+03
4.200000000000000261e-02 4.669869999999999854e-01 -9.838725000000000387e-01 3.935620000000000118e+01 1.493585000000000036e+03
4.300000000000000350e-02 4.670384999999999676e-01 -3.071384999999999810e-01 3.960079999999999956e+01 1.493515000000000100e+03
4.400000000000000439e-02 4.672115000000000018e-01 6.394449999999999301e-01 4.051285000000000025e+01 1.493644999999999982e+03
4.499999999999999833e-02 4.674989999999999979e-01 1.842380000000000129e+00 4.205169999999999675e+01 1.493954999999999927e+03
4.599999999999999922e-02 4.678924999999999890e-01 3.285254999999999814e+00 4.416575000000000273e+01 1.494445000000000164e+03
4.700000000000000011e-02 4.683809999999999918e-01 4.948679999999999524e+00 4.679654999999999632e+01 1.495099999999999909e+03
4.800000000000000100e-02 4.689544999999999408e-01 6.809379999999999988e+00 4.988074999999999903e+01 1.495900000000000091e+03
4.900000000000000189e-02 4.696000000000000174e-01 8.839368000000000336e+00 5.335035000000000593e+01 1.496829999999999927e+03
5.000000000000000278e-02 4.703030000000000266e-01 1.100541000000000125e+01 5.713385000000000247e+01 1.497865000000000009e+03
5.100000000000000366e-02 4.710505000000000386e-01 1.326953999999999922e+01 6.115585000000000093e+01 1.498985000000000127e+03
5.200000000000000455e-02 4.718269999999999964e-01 1.559041500000000013e+01 6.533939999999999770e+01 1.500175000000000182e+03
5.300000000000000544e-02 4.726179999999999826e-01 1.792546000000000106e+01 6.960784999999999911e+01 1.501414999999999964e+03
5.399999999999999939e-02 4.734089999999999687e-01 2.023304999999999865e+01 7.388800000000000523e+01 1.502670000000000073e+03
5.500000000000000028e-02 4.741885000000000128e-01 2.247504999999999953e+01 7.811339999999999861e+01 1.503934999999999945e+03
5.600000000000000117e-02 4.749465000000000492e-01 2.461894999999999811e+01 8.222759999999999536e+01 1.505184999999999945e+03
5.700000000000000205e-02 4.756765000000000576e-01 2.663920000000000243e+01 8.618649999999999523e+01 1.506410000000000082e+03
5.800000000000000294e-02 4.763725000000000320e-01 2.851789999999999736e+01 8.996070000000000277e+01 1.507590000000000146e+03
5.900000000000000383e-02 4.770339999999999581e-01 3.024530000000000030e+01 9.353479999999998995e+01 1.508730000000000018e+03
6.000000000000000472e-02 4.776614999999999611e-01 3.181885000000000119e+01 9.690674999999998818e+01 1.509819999999999936e+03
6.099999999999999867e-02 4.782575000000000021e-01 3.324269999999999925e+01 1.000893499999999960e+02 1.510860000000000127e+03
6.199999999999999956e-02 4.788270000000000026e-01 3.452609999999999957e+01 1.031028000000000020e+02 1.511860000000000127e+03
6.300000000000000044e-02 4.793749999999999956e-01 3.568264999999999532e+01 1.059772999999999996e+02 1.512809999999999945e+03
6.400000000000000133e-02 4.799090000000000300e-01 3.672870000000000346e+01 1.087475000000000023e+02 1.513735000000000127e+03
6.500000000000000222e-02 4.804344999999999866e-01 3.768205000000000382e+01 1.114499999999999886e+02 1.514639999999999873e+03
6.600000000000000311e-02 4.809589999999999699e-01 3.856109999999999616e+01 1.141209999999999951e+02 1.515525000000000091e+03
6.700000000000000400e-02 4.814869999999999983e-01 3.938380000000000081e+01 1.167955000000000041e+02 1.516409999999999854e+03
6.800000000000000488e-02 4.820244999999999669e-01 4.016634999999999422e+01 1.195014999999999930e+02 1.517299999999999955e+03
6.900000000000000577e-02 4.825745000000000173e-01 4.092244999999999777e+01 1.222624999999999886e+02 1.518200000000000045e+03
7.000000000000000666e-02 4.831395000000000550e-01 4.166270000000000095e+01 1.250929999999999893e+02 1.519115000000000009e+03
7.100000000000000755e-02 4.837200000000000388e-01 4.239359999999999928e+01 1.280000000000000000e+02 1.520050000000000182e+03
7.200000000000000844e-02 4.843144999999999811e-01 4.311730000000000018e+01 1.309789999999999850e+02 1.521005000000000109e+03
7.300000000000000933e-02 4.849200000000000177e-01 4.383169999999999789e+01 1.340185000000000173e+02 1.521974999999999909e+03
7.399999999999999634e-02 4.855319999999999636e-01 4.453029999999999688e+01 1.370955000000000155e+02 1.522960000000000036e+03
7.499999999999999722e-02 4.861440000000000206e-01 4.520274999999999466e+01 1.401820000000000164e+02 1.523950000000000045e+03
7.599999999999999811e-02 4.867495000000000571e-01 4.583575000000000443e+01 1.432409999999999854e+02 1.524934999999999945e+03
7.699999999999999900e-02 4.873399999999999954e-01 4.641405000000000314e+01 1.462334999999999923e+02 1.525900000000000091e+03
7.799999999999999989e-02 4.879084999999999672e-01 4.692119999999999891e+01 1.491184999999999832e+02 1.526839999999999918e+03
7.900000000000000078e-02 4.884475000000000344e-01 4.734099999999999397e+01 1.518544999999999732e+02 1.527740000000000009e+03
8.000000000000000167e-02 4.889485000000000081e-01 4.765814999999999912e+01 1.544030000000000200e+02 1.528595000000000027e+03
8.100000000000000255e-02 4.894074999999999953e-01 4.785954999999999870e+01 1.567300000000000182e+02 1.529384999999999991e+03
8.200000000000000344e-02 4.898175000000000168e-01 4.793480000000000274e+01 1.588070000000000164e+02 1.530105000000000018e+03
8.300000000000000433e-02 4.901759999999999451e-01 4.787659999999999627e+01 1.606154999999999973e+02 1.530744999999999891e+03
8.400000000000000522e-02 4.904809999999999448e-01 4.768160000000000309e+01 1.621415000000000077e+02 1.531305000000000064e+03
8.500000000000000611e-02 4.907325000000000159e-01 4.734999999999999432e+01 1.633815000000000168e+02 1.531784999999999854e+03
8.600000000000000699e-02 4.909310000000000063e-01 4.688585000000000491e+01 1.643410000000000082e+02 1.532174999999999955e+03
8.700000000000000788e-02 4.910789999999999877e-01 4.629670000000000130e+01 1.650300000000000011e+02 1.532480000000000018e+03
8.800000000000000877e-02 4.911805000000000199e-01 4.559324999999999761e+01 1.654694999999999823e+02 1.532704999999999927e+03
8.899999999999999578e-02 4.912400000000000100e-01 4.478910000000000480e+01 1.656829999999999927e+02 1.532855000000000018e+03
8.999999999999999667e-02 4.912630000000000052e-01 4.389985000000000070e+01 1.657010000000000218e+02 1.532945000000000164e+03
9.099999999999999756e-02 4.912560000000000260e-01 4.294270000000000209e+01 1.655545000000000186e+02 1.532974999999999909e+03
9.199999999999999845e-02 4.912250000000000227e-01 4.193590000000000373e+01 1.652785000000000082e+02 1.532954999999999927e+03
9.299999999999999933e-02 4.911760000000000015e-01 4.089764999999999873e+01 1.649069999999999823e+02 1.532894999999999982e+03
9.400000000000000022e-02 4.911155000000000381e-01 3.984599999999999653e+01 1.644744999999999777e+02 1.532809999999999945e+03
9.500000000000000111e-02 4.910489999999999577e-01 3.879755000000000109e+01 1.640109999999999957e+02 1.532704999999999927e+03
9.600000000000000200e-02 4.909815000000000151e-01 3.776760000000000161e+01 1.635455000000000041e+02 1.532595000000000027e+03
9.700000000000000289e-02 4.909175000000000066e-01 3.676885000000000048e+01 1.630999999999999943e+02 1.532480000000000018e+03
9.800000000000000377e-02 4.908599999999999630e-01 3.581165000000000020e+01 1.626939999999999884e+02 1.532360000000000127e+03
9.900000000000000466e-02 4.908109999999999973e-01 3.490330000000000155e+01 1.623404999999999916e+02 1.532259999999999991e+03
1.000000000000000056e-01 4.907719999999999860e-01 3.404805000000000348e+01 1.620459999999999923e+02 1.532170000000000073e+03
1.010000000000000064e-01 4.907424999999999704e-01 3.324709999999999610e+01 1.618120000000000118e+02 1.532085000000000036e+03
1.020000000000000073e-01 4.907219999999999915e-01 3.249880000000000280e+01 1.616355000000000075e+02 1.532025000000000091e+03
1.030000000000000082e-01 4.907084999999999919e-01 3.179885000000000161e+01 1.615065000000000168e+02 1.531974999999999909e+03
1.040000000000000091e-01 4.907000000000000250e-01 3.114049999999999940e+01 1.614130000000000109e+02 1.531930000000000064e+03
1.050000000000000100e-01 4.906930000000000458e-01 3.051534999999999798e+01 1.613379999999999939e+02 1.531894999999999982e+03
1.059999999999999970e-01 4.906834999999999947e-01 2.991384999999999650e+01 1.612634999999999934e+02 1.531860000000000127e+03
1.069999999999999979e-01 4.906689999999999663e-01 2.932549999999999812e+01 1.611709999999999923e+02 1.531824999999999818e+03
1.079999999999999988e-01 4.906455000000000122e-01 2.873989999999999867e+01 1.610399999999999920e+02 1.531775000000000091e+03
1.089999999999999997e-01 4.906090000000000173e-01 2.814694999999999681e+01 1.608530000000000086e+02 1.531714999999999918e+03
1.100000000000000006e-01 4.905580000000000496e-01 2.753744999999999976e+01 1.605929999999999893e+02 1.531634999999999991e+03
1.110000000000000014e-01 4.904899999999999816e-01 2.690375000000000227e+01 1.602470000000000141e+02 1.531529999999999973e+03
1.120000000000000023e-01 4.904020000000000046e-01 2.623959999999999937e+01 1.598050000000000068e+02 1.531405000000000200e+03
1.130000000000000032e-01 4.902944999999999665e-01 2.554119999999999990e+01 1.592609999999999957e+02 1.531244999999999891e+03
1.140000000000000041e-01 4.901675000000000337e-01 2.480655000000000143e+01 1.586125000000000114e+02 1.531059999999999945e+03
1.150000000000000050e-01 4.900204999999999700e-01 2.403609999999999758e+01 1.578625000000000114e+02 1.530845000000000027e+03
1.160000000000000059e-01 4.898564999999999725e-01 2.323254999999999981e+01 1.570174999999999841e+02 1.530599999999999909e+03
1.170000000000000068e-01 4.896770000000000289e-01 2.240064999999999884e+01 1.560880000000000223e+02 1.530324999999999818e+03
1.180000000000000077e-01 4.894844999999999891e-01 2.154704999999999870e+01 1.550879999999999939e+02 1.530029999999999973e+03
1.190000000000000085e-01 4.892830000000000235e-01 2.068005000000000138e+01 1.540339999999999918e+02 1.529719999999999800e+03
1.200000000000000094e-01 4.890749999999999820e-01 1.980935000000000201e+01 1.529460000000000264e+02 1.529394999999999982e+03
1.209999999999999964e-01 4.888655000000000639e-01 1.894525000000000148e+01 1.518430000000000177e+02 1.529059999999999945e+03
1.219999999999999973e-01 4.886584999999999956e-01 1.809864999999999924e+01 1.507460000000000093e+02 1.528724999999999909e+03
1.229999999999999982e-01 4.884569999999999745e-01 1.728049999999999997e+01 1.496769999999999925e+02 1.528389999999999873e+03
1.239999999999999991e-01 4.882650000000000046e-01 1.650114999999999910e+01 1.486535000000000082e+02 1.528069999999999936e+03
1.250000000000000000e-01 4.880860000000000198e-01 1.577005000000000123e+01 1.476940000000000168e+02 1.527759999999999991e+03
1.260000000000000009e-01 4.879225000000000367e-01 1.509544999999999959e+01 1.468139999999999930e+02 1.527470000000000027e+03
1.270000000000000018e-01 4.877759999999999874e-01 1.448396499999999953e+01 1.460244999999999891e+02 1.527210000000000036e+03
1.280000000000000027e-01 4.876484999999999848e-01 1.394049500000000030e+01 1.453349999999999795e+02 1.526970000000000027e+03
1.290000000000000036e-01 4.875410000000000021e-01 1.346785999999999994e+01 1.447495000000000118e+02 1.526759999999999991e+03
1.300000000000000044e-01 4.874530000000000252e-01 1.306693499999999908e+01 1.442694999999999936e+02 1.526585000000000036e+03
1.310000000000000053e-01 4.873834999999999695e-01 1.273668999999999940e+01 1.438924999999999841e+02 1.526430000000000064e+03
1.320000000000000062e-01 4.873319999999999874e-01 1.247409999999999997e+01 1.436125000000000114e+02 1.526315000000000055e+03
1.330000000000000071e-01 4.872960000000000069e-01 1.227468000000000004e+01 1.434214999999999804e+02 1.526219999999999800e+03
1.340000000000000080e-01 4.872744999999999438e-01 1.213246000000000002e+01 1.433075000000000045e+02 1.526154999999999973e+03
1.350000000000000089e-01 4.872644999999999893e-01 1.204047500000000070e+01 1.432590000000000146e+02 1.526110000000000127e+03
1.360000000000000098e-01 4.872624999999999873e-01 1.199094999999999978e+01 1.432609999999999957e+02 1.526079999999999927e+03
1.370000000000000107e-01 4.872670000000000057e-01 1.197579999999999956e+01 1.433004999999999995e+02 1.526070000000000164e+03
1.380000000000000115e-01 4.872744999999999993e-01 1.198685000000000045e+01 1.433619999999999948e+02 1.526065000000000055e+03
1.390000000000000124e-01 4.872834999999999805e-01 1.201604999999999990e+01 1.434335000000000093e+02 1.526065000000000055e+03
1.400000000000000133e-01 4.872920000000000029e-01 1.205600000000000094e+01 1.435029999999999859e+02 1.526070000000000164e+03
1.410000000000000142e-01 4.872974999999999945e-01 1.209989999999999988e+01 1.435595000000000141e+02 1.526075000000000045e+03
1.420000000000000151e-01 4.872984999999999678e-01 1.214184999999999981e+01 1.435955000000000155e+02 1.526075000000000045e+03
1.430000000000000160e-01 4.872945000000000193e-01 1.217689999999999984e+01 1.436039999999999850e+02 1.526070000000000164e+03
1.440000000000000169e-01 4.872845000000000093e-01 1.220134999999999970e+01 1.435810000000000173e+02 1.526065000000000055e+03
1.450000000000000178e-01 4.872684999999999933e-01 1.221239999999999881e+01 1.435244999999999891e+02 1.526045000000000073e+03
1.459999999999999909e-01 4.872465000000000268e-01 1.220830000000000126e+01 1.434345000000000141e+02 1.526014999999999873e+03
1.469999999999999918e-01 4.872184999999999988e-01 1.218839499999999987e+01 1.433129999999999882e+02 1.525980000000000018e+03
1.479999999999999927e-01 4.871854999999999936e-01 1.215291999999999994e+01 1.431614999999999895e+02 1.525940000000000055e+03
1.489999999999999936e-01 4.871489999999999987e-01 1.210285000000000011e+01 1.429859999999999900e+02 1.525884999999999991e+03
1.499999999999999944e-01 4.871084999999999443e-01 1.203977500000000056e+01 1.427899999999999920e+02 1.525835000000000036e+03
1.509999999999999953e-01 4.870659999999999989e-01 1.196583499999999844e+01 1.425794999999999959e+02 1.525769999999999982e+03
1.519999999999999962e-01 4.870225000000000248e-01 1.188358999999999988e+01 1.423609999999999900e+02 1.525704999999999927e+03
1.529999999999999971e-01 4.869789999999999952e-01 1.179560999999999993e+01 1.421394999999999982e+02 1.525644999999999982e+03
1.539999999999999980e-01 4.869360000000000355e-01 1.170477999999999952e+01 1.419205000000000041e+02 1.525579999999999927e+03
1.549999999999999989e-01 4.868954999999999811e-01 1.161368500000000026e+01 1.417090000000000032e+02 1.525509999999999991e+03
1.559999999999999998e-01 4.868574999999999986e-01 1.152498500000000092e+01 1.415095000000000027e+02 1.525450000000000045e+03
1.570000000000000007e-01 4.868219999999999770e-01 1.144080500000000100e+01 1.413255000000000052e+02 1.525389999999999873e+03
1.580000000000000016e-01 4.867905000000000149e-01 1.136315000000000097e+01 1.411585000000000036e+02 1.525339999999999918e+03
1.590000000000000024e-01 4.867630000000000567e-01 1.129350499999999968e+01 1.410110000000000241e+02 1.525289999999999964e+03
