# t [s], A [cm^2], U [cm/s], P [cPa], c [cm/s]
1.000000000000000021e-03 1.275275000000000158e-01 5.860616500000001006e-01 1.008555499999999938e+02 1.906795000000000073e+03
2.000000000000000042e-03 1.274889999999999912e-01 2.486467999999999900e+00 9.680344999999999800e+01 1.906320000000000164e+03
3.000000000000000062e-03 1.273814999999999809e-01 4.706044000000000338e+00 9.172114999999999441e+01 1.905059999999999945e+03
4.000000000000000083e-03 1.272345000000000004e-01 7.137685000000000279e+00 8.667400000000000659e+01 1.903360000000000127e+03
5.000000000000000104e-03 1.270775000000000099e-01 9.681709999999998928e+00 8.247679999999999723e+01 1.901549999999999955e+03
6.000000000000000125e-03 1.269244999999999957e-01 1.212769499999999923e+01 7.916745000000000232e+01 1.899804999999999836e+03
7.000000000000000146e-03 1.267800000000000038e-01 1.428894499999999823e+01 7.636400000000000432e+01 1.898190000000000055e+03
8.000000000000000167e-03 1.266470000000000096e-01 1.613250000000000028e+01 7.386679999999999779e+01 1.896720000000000027e+03
9.000000000000001055e-03 1.265284999999999882e-01 1.770700000000000074e+01 7.173335000000000150e+01 1.895429999999999836e+03
1.000000000000000194e-02 1.264259999999999828e-01 1.903645000000000209e+01 6.998189999999999600e+01 1.894324999999999818e+03
1.099999999999999936e-02 1.263394999999999935e-01 2.012899999999999778e+01 6.854175000000000750e+01 1.893400000000000091e+03
1.200000000000000025e-02 1.262665000000000037e-01 2.100055000000000049e+01 6.734515000000000384e+01 1.892630000000000109e+03
1.300000000000000114e-02 1.262064999999999992e-01 2.166579999999999728e+01 6.632779999999999632e+01 1.892000000000000000e+03
1.400000000000000203e-02 1.261545000000000027e-01 2.214799999999999969e+01 6.543224999999999625e+01 1.891470000000000027e+03
1.499999999999999944e-02 1.261120000000000019e-01 2.251324999999999932e+01 6.469874999999998977e+01 1.891034999999999854e+03
1.600000000000000033e-02 1.260795000000000110e-01 2.288005000000000067e+01 6.433445000000000391e+01 1.890720000000000027e+03
1.700000000000000122e-02 1.260644999999999960e-01 2.337679999999999936e+01 6.463974999999999227e+01 1.890575000000000045e+03
1.800000000000000211e-02 1.260709999999999886e-01 2.407520000000000238e+01 6.582115000000000293e+01 1.890664999999999964e+03
1.900000000000000300e-02 1.261019999999999919e-01 2.494794999999999874e+01 6.782849999999999113e+01 1.891005000000000109e+03
2.000000000000000042e-02 1.261535000000000017e-01 2.587460000000000093e+01 7.032150000000000034e+01 1.891554999999999836e+03
2.100000000000000130e-02 1.262149999999999939e-01 2.668734999999999857e+01 7.277604999999999791e+01 1.892230000000000018e+03
2.200000000000000219e-02 1.262759999999999994e-01 2.723209999999999908e+01 7.466489999999998872e+01 1.892900000000000091e+03
2.299999999999999961e-02 1.263245000000000062e-01 2.741724999999999923e+01 7.562825000000000841e+01 1.893440000000000055e+03
2.400000000000000050e-02 1.263524999999999787e-01 2.723590000000000089e+01 7.557005000000000905e+01 1.893775000000000091e+03
2.500000000000000139e-02 1.263595000000000135e-01 2.675629999999999953e+01 7.465465000000000373e+01 1.893869999999999891e+03
2.600000000000000228e-02 1.263465000000000005e-01 2.608990000000000009e+01 7.321800000000000352e+01 1.893755000000000109e+03
2.700000000000000316e-02 1.263219999999999898e-01 2.535074999999999790e+01 7.163800000000000523e+01 1.893505000000000109e+03
2.800000000000000058e-02 1.262919999999999876e-01 2.462330000000000041e+01 7.021414999999998940e+01 1.893194999999999936e+03
2.900000000000000147e-02 1.262620000000000131e-01 2.394615000000000293e+01 6.909759999999999991e+01 1.892880000000000109e+03
3.000000000000000236e-02 1.262360000000000149e-01 2.331494999999999962e+01 6.828350000000000364e+01 1.892599999999999909e+03
3.099999999999999978e-02 1.262135000000000062e-01 2.269834999999999781e+01 6.765520000000000778e+01 1.892360000000000127e+03
3.200000000000000067e-02 1.261929999999999996e-01 2.206015000000000015e+01 6.705604999999999905e+01 1.892139999999999873e+03
3.300000000000000155e-02 1.261720000000000064e-01 2.137919999999999732e+01 6.636090000000000089e+01 1.891914999999999964e+03
3.400000000000000244e-02 1.261484999999999967e-01 2.066199999999999903e+01 6.552680000000000859e+01 1.891664999999999964e+03
3.500000000000000333e-02 1.261224999999999985e-01 1.994539999999999935e+01 6.461175000000000068e+01 1.891389999999999873e+03
3.600000000000000422e-02 1.260954999999999993e-01 1.928819999999999979e+01 6.375829999999999842e+01 1.891105000000000018e+03
3.700000000000000511e-02 1.260724999999999763e-01 1.875679999999999836e+01 6.315080000000000382e+01 1.890849999999999909e+03
3.799999999999999906e-02 1.260560000000000014e-01 1.840690000000000026e+01 6.295965000000000344e+01 1.890664999999999964e+03
3.899999999999999994e-02 1.260499999999999954e-01 1.826810000000000045e+01 6.328954999999999842e+01 1.890599999999999909e+03
4.000000000000000083e-02 1.260574999999999890e-01 1.833474999999999966e+01 6.414509999999999934e+01 1.890670000000000073e+03
4.100000000000000172e-02 1.260779999999999956e-01 1.856494999999999962e+01 6.542279999999999518e+01 1.890880000000000109e+03
4.200000000000000261e-02 1.261089999999999989e-01 1.888705000000000211e+01 6.692740000000000578e+01 1.891200000000000045e+03
4.300000000000000350e-02 1.261454999999999937e-01 1.921184999999999832e+01 6.840809999999999036e+01 1.891585000000000036e+03
4.400000000000000439e-02 1.261819999999999886e-01 1.944679999999999964e+01 6.960264999999999702e+01 1.891974999999999909e+03
4.499999999999999833e-02 1.262125000000000052e-01 1.950910000000000011e+01 7.027960000000000207e+01 1.892295000000000073e+03
4.599999999999999922e-02 1.262300000000000089e-01 1.933569999999999922e+01 7.027039999999999509e+01 1.892490000000000009e+03
4.700000000000000011e-02 1.262310000000000099e-01 1.888895000000000124e+01 6.948714999999999975e+01 1.892505000000000109e+03
4.800000000000000100e-02 1.262119999999999909e-01 1.815800000000000125e+01 6.792449999999999477e+01 1.892304999999999836e+03
4.900000000000000189e-02 1.261730000000000074e-01 1.715605000000000047e+01 6.564930000000001087e+01 1.891889999999999873e+03
5.000000000000000278e-02 1.261134999999999895e-01 1.591584999999999894e+01 6.278249999999999886e+01 1.891264999999999873e+03
5.100000000000000366e-02 1.260374999999999968e-01 1.448409999999999975e+01 5.947769999999999868e+01 1.890454999999999927e+03
5.200000000000000455e-02 1.259474999999999900e-01 1.291586999999999819e+01 5.590200000000000102e+01 1.889494999999999891e+03
5.300000000000000544e-02 1.258475000000000010e-01 1.127041499999999985e+01 5.222119999999999607e+01 1.888424999999999955e+03
5.399999999999999939e-02 1.257420000000000204e-01 9.608230000000000715e+00 4.859029999999999916e+01 1.887295000000000073e+03
5.500000000000000028e-02 1.256355000000000111e-01 7.988984999999999559e+00 4.515009999999999479e+01 1.886144999999999982e+03
5.600000000000000117e-02 1.255310000000000037e-01 6.470559999999999867e+00 4.202674999999999983e+01 1.885029999999999973e+03
5.700000000000000205e-02 1.254335000000000033e-01 5.108259999999999579e+00 3.933310000000000173e+01 1.883985000000000127e+03
5.800000000000000294e-02 1.253464999999999996e-01 3.954214499999999965e+00 3.717040000000000077e+01 1.883039999999999964e+03
5.900000000000000383e-02 1.252729999999999955e-01 3.056067499999999715e+00 3.562845000000000084e+01 1.882240000000000009e+03
6.000000000000000472e-02 1.252165000000000084e-01 2.455627500000000296e+00 3.478425000000000011e+01 1.881625000000000000e+03
6.099999999999999867e-02 1.251789999999999847e-01 2.187025000000000219e+00 3.469904999999999973e+01 1.881210000000000036e+03
6.199999999999999956e-02 1.251629999999999965e-01 2.274849999999999817e+00 3.541424999999999557e+01 1.881019999999999982e+03
6.300000000000000044e-02 1.251705000000000179e-01 2.732499999999999929e+00 3.694724999999999682e+01 1.881079999999999927e+03
6.400000000000000133e-02 1.252020000000000077e-01 3.561010000000000009e+00 3.928865000000000407e+01 1.881400000000000091e+03
6.500000000000000222e-02 1.252574999999999938e-01 4.748675000000000423e+00 4.240094999999999459e+01 1.881969999999999800e+03
6.600000000000000311e-02 1.253364999999999896e-01 6.271524999999999572e+00 4.621925000000000239e+01 1.882804999999999836e+03
6.700000000000000400e-02 1.254379999999999939e-01 8.094654999999999490e+00 5.065500000000000114e+01 1.883865000000000009e+03
6.800000000000000488e-02 1.255590000000000039e-01 1.017417000000000016e+01 5.560089999999999577e+01 1.885150000000000091e+03
6.900000000000000577e-02 1.256980000000000042e-01 1.245981000000000094e+01 6.093760000000000332e+01 1.886625000000000000e+03
7.000000000000000666e-02 1.258505000000000040e-01 1.489770000000000039e+01 6.654110000000000014e+01 1.888255000000000109e+03
7.100000000000000755e-02 1.260135000000000005e-01 1.743299999999999983e+01 7.228929999999999723e+01 1.890009999999999991e+03
7.200000000000000844e-02 1.261840000000000184e-01 2.001225000000000165e+01 7.806829999999999359e+01 1.891849999999999909e+03
7.300000000000000933e-02 1.263584999999999847e-01 2.258589999999999876e+01 8.377719999999999345e+01 1.893735000000000127e+03
7.399999999999999634e-02 1.265339999999999798e-01 2.510989999999999966e+01 8.933195000000000618e+01 1.895634999999999991e+03
7.499999999999999722e-02 1.267075000000000007e-01 2.754724999999999824e+01 9.466785000000000139e+01 1.897525000000000091e+03
7.599999999999999811e-02 1.268775000000000042e-01 2.986865000000000236e+01 9.973935000000000173e+01 1.899375000000000000e+03
7.699999999999999900e-02 1.270415000000000016e-01 3.205364999999999753e+01 1.045233999999999952e+02 1.901174999999999955e+03
7.799999999999999989e-02 1.271990000000000065e-01 3.409050000000000580e+01 1.090155000000000030e+02 1.902904999999999973e+03
7.900000000000000078e-02 1.273489999999999900e-01 3.597570000000000334e+01 1.132284999999999968e+02 1.904565000000000055e+03
8.000000000000000167e-02 1.274919999999999942e-01 3.771380000000000621e+01 1.171929999999999978e+02 1.906144999999999982e+03
8.100000000000000255e-02 1.276279999999999915e-01 3.931605000000000416e+01 1.209505000000000052e+02 1.907660000000000082e+03
8.200000000000000344e-02 1.277580000000000104e-01 4.079885000000000161e+01 1.245510000000000161e+02 1.909105000000000018e+03
8.300000000000000433e-02 1.278834999999999833e-01 4.218234999999999957e+01 1.280494999999999948e+02 1.910500000000000000e+03
8.400000000000000522e-02 1.280054999999999943e-01 4.348855000000000359e+01 1.315004999999999882e+02 1.911860000000000127e+03
8.500000000000000611e-02 1.281249999999999889e-01 4.473924999999999841e+01 1.349530000000000030e+02 1.913194999999999936e+03
8.600000000000000699e-02 1.282445000000000113e-01 4.595454999999999757e+01 1.384504999999999768e+02 1.914529999999999973e+03
8.700000000000000788e-02 1.283639999999999781e-01 4.715120000000000289e+01 1.420230000000000246e+02 1.915860000000000127e+03
8.800000000000000877e-02 1.284845000000000015e-01 4.834154999999999802e+01 1.456879999999999882e+02 1.917210000000000036e+03
8.899999999999999578e-02 1.286075000000000135e-01 4.953265000000000384e+01 1.494485000000000241e+02 1.918585000000000036e+03
8.999999999999999667e-02 1.287324999999999997e-01 5.072594999999999743e+01 1.532930000000000064e+02 1.919980000000000018e+03
9.099999999999999756e-02 1.288590000000000013e-01 5.191705000000000325e+01 1.571965000000000146e+02 1.921400000000000091e+03
9.199999999999999845e-02 1.289875000000000049e-01 5.309659999999999513e+01 1.611214999999999975e+02 1.922829999999999927e+03
9.299999999999999933e-02 1.291160000000000085e-01 5.425079999999999814e+01 1.650225000000000080e+02 1.924275000000000091e+03
9.400000000000000022e-02 1.292435000000000112e-01 5.536225000000000307e+01 1.688469999999999800e+02 1.925704999999999927e+03
9.500000000000000111e-02 1.293690000000000118e-01 5.641134999999999877e+01 1.725400000000000205e+02 1.927115000000000009e+03
9.600000000000000200e-02 1.294914999999999816e-01 5.737730000000000530e+01 1.760444999999999993e+02 1.928490000000000009e+03
9.700000000000000289e-02 1.296085000000000154e-01 5.823969999999999914e+01 1.793089999999999975e+02 1.929809999999999945e+03
9.800000000000000377e-02 1.297185000000000143e-01 5.897914999999999708e+01 1.822860000000000014e+02 1.931055000000000064e+03
9.900000000000000466e-02 1.298209999999999920e-01 5.957859999999999445e+01 1.849339999999999975e+02 1.932210000000000036e+03
1.000000000000000056e-01 1.299135000000000151e-01 6.002410000000000423e+01 1.872230000000000132e+02 1.933264999999999873e+03
1.010000000000000064e-01 1.299954999999999861e-01 6.030540000000000589e+01 1.891320000000000050e+02 1.934200000000000045e+03
1.020000000000000073e-01 1.300669999999999882e-01 6.041639999999999588e+01 1.906504999999999939e+02 1.935014999999999873e+03
1.030000000000000082e-01 1.301265000000000061e-01 6.035545000000000471e+01 1.917769999999999868e+02 1.935700000000000045e+03
1.040000000000000091e-01 1.301744999999999985e-01 6.012545000000000073e+01 1.925219999999999914e+02 1.936250000000000000e+03
1.050000000000000100e-01 1.302105000000000068e-01 5.973335000000000150e+01 1.929050000000000011e+02 1.936674999999999955e+03
1.059999999999999970e-01 1.302359999999999907e-01 5.919035000000000224e+01 1.929534999999999911e+02 1.936970000000000027e+03
1.069999999999999979e-01 1.302499999999999769e-01 5.851095000000000113e+01 1.927015000000000100e+02 1.937139999999999873e+03
1.079999999999999988e-01 1.302544999999999953e-01 5.771254999999999313e+01 1.921899999999999977e+02 1.937204999999999927e+03
1.089999999999999997e-01 1.302504999999999913e-01 5.681499999999999773e+01 1.914619999999999891e+02 1.937170000000000073e+03
1.100000000000000006e-01 1.302379999999999927e-01 5.583910000000000196e+01 1.905645000000000095e+02 1.937045000000000073e+03
1.110000000000000014e-01 1.302200000000000024e-01 5.480660000000000309e+01 1.895420000000000016e+02 1.936849999999999909e+03
1.120000000000000023e-01 1.301970000000000072e-01 5.373890000000000100e+01 1.884399999999999977e+02 1.936594999999999800e+03
1.130000000000000032e-01 1.301700000000000079e-01 5.265639999999999787e+01 1.873000000000000114e+02 1.936300000000000182e+03
1.140000000000000041e-01 1.301404999999999923e-01 5.157779999999999632e+01 1.861580000000000155e+02 1.935974999999999909e+03
1.150000000000000050e-01 1.301095000000000168e-01 5.051944999999999908e+01 1.850464999999999804e+02 1.935630000000000109e+03
1.160000000000000059e-01 1.300784999999999858e-01 4.949484999999999957e+01 1.839884999999999877e+02 1.935279999999999973e+03
1.170000000000000068e-01 1.300479999999999969e-01 4.851449999999999818e+01 1.830029999999999859e+02 1.934930000000000064e+03
1.180000000000000077e-01 1.300185000000000091e-01 4.758535000000000537e+01 1.820989999999999895e+02 1.934595000000000027e+03
1.190000000000000085e-01 1.299905000000000088e-01 4.671099999999999852e+01 1.812794999999999845e+02 1.934279999999999973e+03
1.200000000000000094e-01 1.299645000000000106e-01 4.589164999999999850e+01 1.805395000000000039e+02 1.933980000000000018e+03
1.209999999999999964e-01 1.299399999999999999e-01 4.512449999999999761e+01 1.798689999999999998e+02 1.933699999999999818e+03
1.219999999999999973e-01 1.299170000000000047e-01 4.440390000000000015e+01 1.792524999999999977e+02 1.933440000000000055e+03
1.229999999999999982e-01 1.298954999999999971e-01 4.372194999999999965e+01 1.786684999999999945e+02 1.933190000000000055e+03
1.239999999999999991e-01 1.298750000000000182e-01 4.306905000000000427e+01 1.780944999999999823e+02 1.932960000000000036e+03
1.250000000000000000e-01 1.298544999999999838e-01 4.243429999999999325e+01 1.775054999999999836e+02 1.932724999999999909e+03
1.260000000000000009e-01 1.298340000000000050e-01 4.180635000000000190e+01 1.768770000000000095e+02 1.932485000000000127e+03
1.270000000000000018e-01 1.298124999999999973e-01 4.117390000000000327e+01 1.761850000000000023e+02 1.932240000000000009e+03
1.280000000000000027e-01 1.297895000000000021e-01 4.052599999999999625e+01 1.754069999999999823e+02 1.931980000000000018e+03
1.290000000000000036e-01 1.297639999999999905e-01 3.985330000000000439e+01 1.745255000000000223e+02 1.931690000000000055e+03
1.300000000000000044e-01 1.297355000000000036e-01 3.914764999999999873e+01 1.735260000000000105e+02 1.931369999999999891e+03
1.310000000000000053e-01 1.297040000000000137e-01 3.840299999999999869e+01 1.724000000000000057e+02 1.931014999999999873e+03
1.320000000000000062e-01 1.296690000000000065e-01 3.761574999999999847e+01 1.711430000000000007e+02 1.930625000000000000e+03
1.330000000000000071e-01 1.296305000000000096e-01 3.678459999999999752e+01 1.697570000000000050e+02 1.930184999999999945e+03
1.340000000000000080e-01 1.295879999999999810e-01 3.591075000000000017e+01 1.682495000000000118e+02 1.929715000000000146e+03
1.350000000000000089e-01 1.295419999999999905e-01 3.499804999999999922e+01 1.666334999999999980e+02 1.929195000000000164e+03
1.360000000000000098e-01 1.294919999999999960e-01 3.405249999999999488e+01 1.649275000000000091e+02 1.928640000000000100e+03
1.370000000000000107e-01 1.294394999999999851e-01 3.308220000000000027e+01 1.631525000000000034e+02 1.928054999999999836e+03
1.380000000000000115e-01 1.293850000000000000e-01 3.209700000000000131e+01 1.613335000000000150e+02 1.927445000000000164e+03
1.390000000000000124e-01 1.293289999999999995e-01 3.110795000000000243e+01 1.594985000000000070e+02 1.926815000000000055e+03
1.400000000000000133e-01 1.292719999999999980e-01 3.012689999999999912e+01 1.576750000000000114e+02 1.926179999999999836e+03
1.410000000000000142e-01 1.292145000000000099e-01 2.916610000000000014e+01 1.558919999999999959e+02 1.925534999999999854e+03
1.420000000000000151e-01 1.291579999999999950e-01 2.823744999999999905e+01 1.541750000000000114e+02 1.924904999999999973e+03
1.430000000000000160e-01 1.291029999999999955e-01 2.735219999999999985e+01 1.525504999999999995e+02 1.924284999999999854e+03
1.440000000000000169e-01 1.290499999999999980e-01 2.652044999999999675e+01 1.510384999999999991e+02 1.923690000000000055e+03
1.450000000000000178e-01 1.289994999999999892e-01 2.575065000000000026e+01 1.496564999999999941e+02 1.923130000000000109e+03
1.459999999999999909e-01 1.289529999999999843e-01 2.504970000000000141e+01 1.484180000000000064e+02 1.922605000000000018e+03
1.469999999999999918e-01 1.289104999999999834e-01 2.442215000000000202e+01 1.473305000000000007e+02 1.922130000000000109e+03
1.479999999999999927e-01 1.288719999999999866e-01 2.387059999999999960e+01 1.463974999999999795e+02 1.921690000000000055e+03
1.489999999999999936e-01 1.288380000000000081e-01 2.339545000000000030e+01 1.456175000000000068e+02 1.921309999999999945e+03
1.499999999999999944e-01 1.288084999999999924e-01 2.299504999999999910e+01 1.449839999999999804e+02 1.920974999999999909e+03
1.509999999999999953e-01 1.287834999999999952e-01 2.266584999999999894e+01 1.444875000000000114e+02 1.920684999999999945e+03
1.519999999999999962e-01 1.287625000000000020e-01 2.240269999999999939e+01 1.441145000000000209e+02 1.920450000000000045e+03
1.529999999999999971e-01 1.287454999999999850e-01 2.219900000000000162e+01 1.438499999999999943e+02 1.920250000000000000e+03
1.539999999999999980e-01 1.287320000000000131e-01 2.204729999999999990e+01 1.436764999999999759e+02 1.920095000000000027e+03
1.549999999999999989e-01 1.287214999999999887e-01 2.193919999999999959e+01 1.435749999999999886e+02 1.919974999999999909e+03
1.559999999999999998e-01 1.287139999999999951e-01 2.186630000000000251e+01 1.435289999999999964e+02 1.919880000000000109e+03
1.570000000000000007e-01 1.287085000000000035e-01 2.182005000000000194e+01 1.435199999999999818e+02 1.919815000000000055e+03
1.580000000000000016e-01 1.287044999999999995e-01 2.179220000000000113e+01 1.435314999999999941e+02 1.919769999999999982e+03
1.590000000000000024e-01 1.287014999999999965e-01 2.177515000000000001e+01 1.435495000000000232e+02 1.919730000000000018e+03
