# t [s], A [cm^2], U [cm/s], P [cPa], c [cm/s]
1.000000000000000021e-03 1.333350000000000091e-01 3.603945000000000065e-01 1.047319999999999993e+02 2.069909999999999854e+03
2.000000000000000042e-03 1.332955000000000112e-01 2.062657499999999811e+00 1.010734499999999940e+02 2.069414999999999964e+03
3.000000000000000062e-03 1.331864999999999855e-01 4.159704500000000138e+00 9.602524999999999977e+01 2.068135000000000218e+03
4.000000000000000083e-03 1.330390000000000184e-01 6.513745499999999744e+00 9.057959999999999923e+01 2.066409999999999854e+03
5.000000000000000104e-03 1.328809999999999991e-01 9.034370000000000900e+00 8.573874999999999602e+01 2.064590000000000146e+03
6.000000000000000125e-03 1.327295000000000003e-01 1.151210999999999984e+01 8.179364999999999952e+01 2.062859999999999673e+03
7.000000000000000146e-03 1.325874999999999970e-01 1.370420499999999997e+01 7.843139999999999645e+01 2.061280000000000200e+03
8.000000000000000167e-03 1.324585000000000068e-01 1.553225000000000122e+01 7.540559999999999263e+01 2.059864999999999782e+03
9.000000000000001055e-03 1.323455000000000048e-01 1.704824999999999946e+01 7.279940000000000566e+01 2.058639999999999873e+03
1.000000000000000194e-02 1.322510000000000074e-01 1.829149999999999920e+01 7.069174999999999898e+01 2.057625000000000000e+03
1.099999999999999936e-02 1.321745000000000003e-01 1.928334999999999866e+01 6.905010000000000048e+01 2.056815000000000055e+03
1.200000000000000025e-02 1.321140000000000092e-01 2.004694999999999894e+01 6.781399999999999295e+01 2.056185000000000400e+03
1.300000000000000114e-02 1.320675000000000043e-01 2.058955000000000268e+01 6.687594999999998890e+01 2.055704999999999927e+03
1.400000000000000203e-02 1.320294999999999941e-01 2.092214999999999847e+01 6.609850000000000136e+01 2.055335000000000036e+03
1.499999999999999944e-02 1.320004999999999928e-01 2.111805000000000021e+01 6.547889999999999588e+01 2.055045000000000073e+03
1.600000000000000033e-02 1.319825000000000026e-01 2.132974999999999710e+01 6.527089999999999748e+01 2.054880000000000109e+03
1.700000000000000122e-02 1.319839999999999902e-01 2.172384999999999877e+01 6.587569999999999482e+01 2.054914999999999964e+03
1.800000000000000211e-02 1.320109999999999895e-01 2.238485000000000014e+01 6.756444999999999368e+01 2.055210000000000036e+03
1.900000000000000300e-02 1.320645000000000013e-01 2.326064999999999827e+01 7.024739999999999895e+01 2.055779999999999745e+03
2.000000000000000042e-02 1.321364999999999901e-01 2.418110000000000070e+01 7.344405000000000427e+01 2.056555000000000291e+03
2.100000000000000130e-02 1.322135000000000116e-01 2.493035000000000068e+01 7.645420000000000016e+01 2.057404999999999745e+03
2.200000000000000219e-02 1.322810000000000097e-01 2.533234999999999815e+01 7.862209999999998900e+01 2.058154999999999745e+03
2.299999999999999961e-02 1.323270000000000002e-01 2.531194999999999951e+01 7.956755000000001132e+01 2.058680000000000291e+03
2.400000000000000050e-02 1.323465000000000058e-01 2.491015000000000157e+01 7.929240000000000066e+01 2.058930000000000291e+03
2.500000000000000139e-02 1.323425000000000018e-01 2.425509999999999877e+01 7.813370000000000459e+01 2.058909999999999854e+03
2.600000000000000228e-02 1.323219999999999952e-01 2.350384999999999991e+01 7.659929999999999950e+01 2.058710000000000036e+03
2.700000000000000316e-02 1.322959999999999969e-01 2.278385000000000105e+01 7.516560000000001196e+01 2.058435000000000400e+03
2.800000000000000058e-02 1.322714999999999863e-01 2.215530000000000044e+01 7.411979999999999791e+01 2.058170000000000073e+03
2.900000000000000147e-02 1.322530000000000094e-01 2.160474999999999923e+01 7.349770000000000891e+01 2.057960000000000036e+03
3.000000000000000236e-02 1.322389999999999954e-01 2.106629999999999825e+01 7.312180000000000746e+01 2.057809999999999945e+03
3.099999999999999978e-02 1.322260000000000102e-01 2.045830000000000126e+01 7.270840000000001169e+01 2.057670000000000073e+03
3.200000000000000067e-02 1.322085000000000066e-01 1.972210000000000107e+01 7.199860000000001037e+01 2.057484999999999673e+03
3.300000000000000155e-02 1.321835000000000093e-01 1.885000000000000142e+01 7.086894999999999811e+01 2.057220000000000255e+03
3.400000000000000244e-02 1.321490000000000165e-01 1.789560000000000173e+01 6.938925000000000409e+01 2.056859999999999673e+03
3.500000000000000333e-02 1.321104999999999918e-01 1.696255000000000024e+01 6.781210000000000093e+01 2.056444999999999709e+03
3.600000000000000422e-02 1.320735000000000103e-01 1.617654999999999887e+01 6.649864999999999782e+01 2.056039999999999964e+03
3.700000000000000511e-02 1.320459999999999967e-01 1.564910000000000068e+01 6.580825000000000102e+01 2.055735000000000127e+03
3.799999999999999906e-02 1.320365000000000011e-01 1.544655000000000022e+01 6.598884999999999934e+01 2.055614999999999782e+03
3.899999999999999994e-02 1.320469999999999977e-01 1.557189999999999941e+01 6.710300000000000864e+01 2.055710000000000036e+03
4.000000000000000083e-02 1.320790000000000020e-01 1.596424999999999983e+01 6.900849999999999795e+01 2.056034999999999854e+03
4.100000000000000172e-02 1.321269999999999945e-01 1.651364999999999839e+01 7.139279999999999404e+01 2.056534999999999854e+03
4.200000000000000261e-02 1.321839999999999959e-01 1.708435000000000059e+01 7.384444999999999482e+01 2.057139999999999873e+03
4.300000000000000350e-02 1.322404999999999831e-01 1.754115000000000180e+01 7.593965000000000032e+01 2.057744999999999891e+03
4.400000000000000439e-02 1.322865000000000013e-01 1.777125000000000199e+01 7.731960000000000832e+01 2.058250000000000000e+03
4.499999999999999833e-02 1.323140000000000149e-01 1.769845000000000113e+01 7.774484999999999957e+01 2.058570000000000164e+03
4.599999999999999922e-02 1.323195000000000066e-01 1.728849999999999909e+01 7.711844999999999573e+01 2.058640000000000327e+03
4.700000000000000011e-02 1.323000000000000009e-01 1.654630000000000223e+01 7.547845000000000937e+01 2.058440000000000055e+03
4.800000000000000100e-02 1.322559999999999847e-01 1.550725000000000087e+01 7.296774999999999523e+01 2.057980000000000018e+03
4.900000000000000189e-02 1.321910000000000029e-01 1.422579999999999956e+01 6.979214999999999236e+01 2.057295000000000073e+03
5.000000000000000278e-02 1.321094999999999908e-01 1.276506499999999988e+01 6.617830000000000723e+01 2.056420000000000073e+03
5.100000000000000366e-02 1.320155000000000078e-01 1.118847500000000039e+01 6.234129999999999683e+01 2.055414999999999964e+03
5.200000000000000455e-02 1.319150000000000045e-01 9.555799999999999628e+00 5.846580000000000155e+01 2.054335000000000036e+03
5.300000000000000544e-02 1.318124999999999991e-01 7.921755000000000102e+00 5.470120000000000005e+01 2.053224999999999909e+03
5.399999999999999939e-02 1.317114999999999814e-01 6.337315000000000254e+00 5.116715000000000657e+01 2.052130000000000109e+03
5.500000000000000028e-02 1.316160000000000108e-01 4.851669999999999483e+00 4.796450000000000102e+01 2.051079999999999927e+03
5.600000000000000117e-02 1.315274999999999916e-01 3.513911499999999855e+00 4.518619999999999948e+01 2.050119999999999891e+03
5.700000000000000205e-02 1.314504999999999979e-01 2.373356999999999939e+00 4.292464999999999975e+01 2.049279999999999745e+03
5.800000000000000294e-02 1.313864999999999894e-01 1.478469499999999881e+00 4.127360000000000184e+01 2.048574999999999818e+03
5.900000000000000383e-02 1.313400000000000123e-01 8.743340000000000556e-01 4.032424999999999926e+01 2.048050000000000182e+03
6.000000000000000472e-02 1.313120000000000120e-01 5.993239999999999679e-01 4.015730000000000643e+01 2.047735000000000127e+03
6.099999999999999867e-02 1.313054999999999917e-01 6.815795000000000048e-01 4.083310000000000173e+01 2.047635000000000218e+03
6.199999999999999956e-02 1.313225000000000087e-01 1.136149499999999923e+00 4.238269999999999982e+01 2.047789999999999964e+03
6.300000000000000044e-02 1.313624999999999932e-01 1.963250500000000009e+00 4.480134999999999934e+01 2.048190000000000055e+03
6.400000000000000133e-02 1.314255000000000007e-01 3.147932999999999648e+00 4.804679999999999751e+01 2.048855000000000018e+03
6.500000000000000222e-02 1.315109999999999890e-01 4.661120000000000374e+00 5.204120000000000346e+01 2.049755000000000109e+03
6.600000000000000311e-02 1.316174999999999984e-01 6.461759999999999948e+00 5.667694999999999794e+01 2.050880000000000109e+03
6.700000000000000400e-02 1.317409999999999970e-01 8.499615000000000364e+00 6.182500000000000284e+01 2.052199999999999818e+03
6.800000000000000488e-02 1.318789999999999962e-01 1.071843999999999930e+01 6.734380000000000166e+01 2.053680000000000291e+03
6.900000000000000577e-02 1.320280000000000065e-01 1.305907000000000018e+01 7.308854999999999791e+01 2.055289999999999964e+03
7.000000000000000666e-02 1.321835000000000093e-01 1.546240000000000059e+01 7.891925000000000523e+01 2.056974999999999909e+03
7.100000000000000755e-02 1.323429999999999884e-01 1.787205000000000155e+01 8.470744999999999436e+01 2.058710000000000036e+03
7.200000000000000844e-02 1.325020000000000087e-01 2.023689999999999856e+01 9.034229999999999450e+01 2.060454999999999927e+03
7.300000000000000933e-02 1.326585000000000125e-01 2.251299999999999812e+01 9.573480000000000700e+01 2.062170000000000073e+03
7.399999999999999634e-02 1.328094999999999970e-01 2.466564999999999941e+01 1.008215500000000020e+02 2.063835000000000036e+03
7.499999999999999722e-02 1.329540000000000166e-01 2.667009999999999792e+01 1.055652499999999918e+02 2.065434999999999945e+03
7.599999999999999811e-02 1.330905000000000005e-01 2.851229999999999976e+01 1.099565000000000055e+02 2.066940000000000055e+03
7.699999999999999900e-02 1.332174999999999887e-01 3.018854999999999933e+01 1.140109999999999957e+02 2.068364999999999782e+03
7.799999999999999989e-02 1.333374999999999977e-01 3.170424999999999827e+01 1.177639999999999958e+02 2.069699999999999818e+03
7.900000000000000078e-02 1.334500000000000131e-01 3.307235000000000014e+01 1.212690000000000055e+02 2.070954999999999927e+03
8.000000000000000167e-02 1.335554999999999937e-01 3.431119999999999948e+01 1.245859999999999843e+02 2.072144999999999982e+03
8.100000000000000255e-02 1.336565000000000114e-01 3.544194999999999851e+01 1.277785000000000082e+02 2.073274999999999636e+03
8.200000000000000344e-02 1.337544999999999984e-01 3.648624999999999829e+01 1.309060000000000059e+02 2.074375000000000000e+03
8.300000000000000433e-02 1.338499999999999968e-01 3.746419999999999817e+01 1.340165000000000077e+02 2.075449999999999818e+03
8.400000000000000522e-02 1.339454999999999951e-01 3.839230000000000587e+01 1.371454999999999984e+02 2.076514999999999873e+03
8.500000000000000611e-02 1.340399999999999925e-01 3.928265000000000384e+01 1.403115000000000236e+02 2.077579999999999927e+03
8.600000000000000699e-02 1.341355000000000186e-01 4.014185000000000514e+01 1.435159999999999911e+02 2.078649999999999636e+03
8.700000000000000788e-02 1.342309999999999892e-01 4.097115000000000151e+01 1.467454999999999927e+02 2.079725000000000364e+03
8.800000000000000877e-02 1.343270000000000020e-01 4.176644999999999897e+01 1.499705000000000155e+02 2.080800000000000182e+03
8.899999999999999578e-02 1.344219999999999859e-01 4.251935000000000286e+01 1.531525000000000034e+02 2.081859999999999673e+03
8.999999999999999667e-02 1.345155000000000101e-01 4.321770000000000067e+01 1.562434999999999832e+02 2.082909999999999854e+03
9.099999999999999756e-02 1.346060000000000034e-01 4.384680000000000177e+01 1.591915000000000191e+02 2.083930000000000291e+03
9.199999999999999845e-02 1.346920000000000062e-01 4.439059999999999917e+01 1.619454999999999814e+02 2.084894999999999982e+03
9.299999999999999933e-02 1.347730000000000039e-01 4.483279999999999887e+01 1.644544999999999959e+02 2.085810000000000400e+03
9.400000000000000022e-02 1.348465000000000080e-01 4.515800000000000125e+01 1.666734999999999900e+02 2.086644999999999982e+03
9.500000000000000111e-02 1.349119999999999764e-01 4.535235000000000127e+01 1.685654999999999859e+02 2.087390000000000327e+03
9.600000000000000200e-02 1.349684999999999913e-01 4.540489999999999782e+01 1.701000000000000227e+02 2.088034999999999854e+03
9.700000000000000289e-02 1.350159999999999971e-01 4.530790000000000362e+01 1.712574999999999932e+02 2.088574999999999818e+03
9.800000000000000377e-02 1.350524999999999920e-01 4.505734999999999957e+01 1.720299999999999727e+02 2.088994999999999891e+03
9.900000000000000466e-02 1.350784999999999902e-01 4.465344999999999942e+01 1.724194999999999993e+02 2.089300000000000182e+03
1.000000000000000056e-01 1.350935000000000052e-01 4.410074999999999790e+01 1.724389999999999930e+02 2.089489999999999782e+03
1.010000000000000064e-01 1.350989999999999969e-01 4.340794999999999959e+01 1.721115000000000066e+02 2.089559999999999945e+03
1.020000000000000073e-01 1.350945000000000062e-01 4.258749999999999858e+01 1.714689999999999941e+02 2.089524999999999636e+03
1.030000000000000082e-01 1.350815000000000210e-01 4.165534999999999854e+01 1.705509999999999877e+02 2.089389999999999873e+03
1.040000000000000091e-01 1.350605000000000000e-01 4.063009999999999877e+01 1.694039999999999964e+02 2.089159999999999854e+03
1.050000000000000100e-01 1.350330000000000141e-01 3.953215000000000146e+01 1.680749999999999886e+02 2.088859999999999673e+03
1.059999999999999970e-01 1.350000000000000089e-01 3.838280000000000314e+01 1.666154999999999973e+02 2.088500000000000000e+03
1.069999999999999979e-01 1.349629999999999996e-01 3.720369999999999777e+01 1.650740000000000123e+02 2.088095000000000255e+03
1.079999999999999988e-01 1.349230000000000151e-01 3.601559999999999917e+01 1.634970000000000141e+02 2.087654999999999745e+03
1.089999999999999997e-01 1.348820000000000019e-01 3.483769999999999811e+01 1.619275000000000091e+02 2.087190000000000055e+03
1.100000000000000006e-01 1.348400000000000154e-01 3.368719999999999715e+01 1.604000000000000057e+02 2.086725000000000364e+03
1.110000000000000014e-01 1.347990000000000022e-01 3.257835000000000036e+01 1.589445000000000050e+02 2.086264999999999873e+03
1.120000000000000023e-01 1.347595000000000043e-01 3.152234999999999943e+01 1.575819999999999936e+02 2.085820000000000164e+03
1.130000000000000032e-01 1.347214999999999940e-01 3.052684999999999604e+01 1.563249999999999886e+02 2.085394999999999982e+03
1.140000000000000041e-01 1.346860000000000002e-01 2.959595000000000198e+01 1.551779999999999973e+02 2.084994999999999891e+03
1.150000000000000050e-01 1.346535000000000093e-01 2.873000000000000043e+01 1.541374999999999886e+02 2.084619999999999891e+03
1.160000000000000059e-01 1.346229999999999927e-01 2.792609999999999815e+01 1.531914999999999907e+02 2.084275000000000091e+03
1.170000000000000068e-01 1.345949999999999924e-01 2.717804999999999893e+01 1.523224999999999909e+02 2.083954999999999927e+03
1.180000000000000077e-01 1.345684999999999798e-01 2.647700000000000031e+01 1.515065000000000168e+02 2.083650000000000091e+03
1.190000000000000085e-01 1.345434999999999826e-01 2.581184999999999974e+01 1.507144999999999868e+02 2.083369999999999891e+03
1.200000000000000094e-01 1.345189999999999997e-01 2.517024999999999935e+01 1.499170000000000016e+02 2.083085000000000036e+03
1.209999999999999964e-01 1.344940000000000024e-01 2.453889999999999816e+01 1.490815000000000055e+02 2.082805000000000291e+03
1.219999999999999973e-01 1.344684999999999908e-01 2.390455000000000041e+01 1.481784999999999854e+02 2.082510000000000218e+03
1.229999999999999982e-01 1.344404999999999906e-01 2.325469999999999970e+01 1.471790000000000020e+02 2.082199999999999818e+03
1.239999999999999991e-01 1.344104999999999883e-01 2.257829999999999870e+01 1.460600000000000023e+02 2.081859999999999673e+03
1.250000000000000000e-01 1.343769999999999964e-01 2.186645000000000039e+01 1.448045000000000186e+02 2.081489999999999782e+03
1.260000000000000009e-01 1.343400000000000150e-01 2.111280000000000001e+01 1.434010000000000105e+02 2.081079999999999927e+03
1.270000000000000018e-01 1.342990000000000017e-01 2.031400000000000006e+01 1.418464999999999918e+02 2.080619999999999891e+03
1.280000000000000027e-01 1.342544999999999988e-01 1.946979999999999933e+01 1.401460000000000150e+02 2.080125000000000000e+03
1.290000000000000036e-01 1.342055000000000053e-01 1.858350000000000080e+01 1.383120000000000118e+02 2.079590000000000146e+03
1.300000000000000044e-01 1.341534999999999811e-01 1.766124999999999901e+01 1.363659999999999854e+02 2.079010000000000218e+03
1.310000000000000053e-01 1.340985000000000094e-01 1.671225000000000094e+01 1.343329999999999984e+02 2.078394999999999982e+03
1.320000000000000062e-01 1.340409999999999935e-01 1.574794999999999945e+01 1.322460000000000093e+02 2.077760000000000218e+03
1.330000000000000071e-01 1.339819999999999900e-01 1.478160000000000096e+01 1.301405000000000030e+02 2.077109999999999673e+03
1.340000000000000080e-01 1.339224999999999999e-01 1.382765000000000022e+01 1.280535000000000139e+02 2.076449999999999818e+03
1.350000000000000089e-01 1.338634999999999964e-01 1.290090000000000003e+01 1.260219999999999914e+02 2.075795000000000073e+03
1.360000000000000098e-01 1.338064999999999949e-01 1.201578500000000105e+01 1.240819999999999936e+02 2.075154999999999745e+03
1.370000000000000107e-01 1.337510000000000088e-01 1.118571499999999830e+01 1.222650000000000006e+02 2.074539999999999964e+03
1.380000000000000115e-01 1.336994999999999989e-01 1.042256000000000071e+01 1.205990000000000038e+02 2.073960000000000036e+03
1.390000000000000124e-01 1.336509999999999920e-01 9.735834999999999795e+00 1.191034999999999968e+02 2.073420000000000073e+03
1.400000000000000133e-01 1.336074999999999902e-01 9.132749999999999702e+00 1.177940000000000111e+02 2.072930000000000291e+03
1.410000000000000142e-01 1.335689999999999933e-01 8.617689999999999628e+00 1.166779999999999973e+02 2.072494999999999891e+03
1.420000000000000151e-01 1.335350000000000148e-01 8.192205000000001291e+00 1.157555000000000121e+02 2.072114999999999782e+03
1.430000000000000160e-01 1.335065000000000002e-01 7.855214999999999392e+00 1.150210000000000008e+02 2.071795000000000073e+03
1.440000000000000169e-01 1.334834999999999772e-01 7.603075000000000472e+00 1.144639999999999986e+02 2.071525000000000091e+03
1.450000000000000178e-01 1.334644999999999859e-01 7.429935000000000400e+00 1.140660000000000025e+02 2.071309999999999945e+03
1.459999999999999909e-01 1.334504999999999997e-01 7.328115000000000379e+00 1.138089999999999975e+02 2.071150000000000091e+03
1.469999999999999918e-01 1.334405000000000174e-01 7.288534999999999542e+00 1.136694999999999993e+02 2.071024999999999636e+03
1.479999999999999927e-01 1.334334999999999827e-01 7.301144999999999996e+00 1.136244999999999976e+02 2.070944999999999709e+03
1.489999999999999936e-01 1.334295000000000064e-01 7.355404999999999305e+00 1.136495000000000033e+02 2.070894999999999982e+03
1.499999999999999944e-01 1.334275000000000044e-01 7.440649999999999764e+00 1.137205000000000013e+02 2.070864999999999782e+03
1.509999999999999953e-01 1.334270000000000178e-01 7.546540000000000248e+00 1.138160000000000025e+02 2.070855000000000018e+03
1.519999999999999962e-01 1.334269999999999901e-01 7.663349999999999440e+00 1.139164999999999992e+02 2.070855000000000018e+03
1.529999999999999971e-01 1.334279999999999911e-01 7.782275000000000276e+00 1.140039999999999907e+02 2.070864999999999782e+03
1.539999999999999980e-01 1.334289999999999921e-01 7.895674999999999777e+00 1.140649999999999977e+02 2.070864999999999782e+03
1.549999999999999989e-01 1.334289999999999921e-01 7.997199999999999420e+00 1.140885000000000105e+02 2.070869999999999891e+03
1.559999999999999998e-01 1.334285000000000054e-01 8.081955000000000666e+00 1.140665000000000049e+02 2.070859999999999673e+03
1.570000000000000007e-01 1.334274999999999767e-01 8.146509999999999252e+00 1.139954999999999927e+02 2.070845000000000255e+03
1.580000000000000016e-01 1.334245000000000014e-01 8.188905000000000101e+00 1.138739999999999952e+02 2.070819999999999709e+03
1.590000000000000024e-01 1.334204999999999974e-01 8.208579999999999544e+00 1.137044999999999959e+02 2.070775000000000091e+03
