# t [s], A [cm^2], U [cm/s], P [cPa], c [cm/s]
1.000000000000000021e-03 5.019645000000000357e-01 6.364950000000001162e-03 1.096989999999999981e+02 1.644110000000000127e+03
2.000000000000000042e-03 5.019564999999999166e-01 -7.229849999999997737e-04 1.096684999999999945e+02 1.644105000000000018e+03
3.000000000000000062e-03 5.020044999999999646e-01 1.086769000000000207e-01 1.097905000000000086e+02 1.644134999999999991e+03
4.000000000000000083e-03 5.020409999999999595e-01 2.038479500000000000e-01 1.099085000000000036e+02 1.644164999999999964e+03
5.000000000000000104e-03 5.020090000000000385e-01 1.570101000000000135e-01 1.098094999999999999e+02 1.644144999999999982e+03
6.000000000000000125e-03 5.019500000000000073e-01 4.215150000000000841e-02 1.095374999999999943e+02 1.644085000000000036e+03
7.000000000000000146e-03 5.018964999999999677e-01 -6.928900000000004500e-02 1.091970000000000027e+02 1.644009999999999991e+03
8.000000000000000167e-03 5.018065000000000442e-01 -2.801899999999999391e-01 1.086754999999999995e+02 1.643889999999999873e+03
9.000000000000001055e-03 5.016614999999999824e-01 -6.322300000000000697e-01 1.078845000000000027e+02 1.643714999999999918e+03
1.000000000000000194e-02 5.014620000000000744e-01 -1.118514999999999926e+00 1.067864999999999895e+02 1.643460000000000036e+03
1.099999999999999936e-02 5.011894999999999545e-01 -1.765265000000000084e+00 1.053019999999999925e+02 1.643115000000000009e+03
1.200000000000000025e-02 5.008365000000000178e-01 -2.564634999999999998e+00 1.033837000000000046e+02 1.642664999999999964e+03
1.300000000000000114e-02 5.004410000000000247e-01 -3.399419999999999664e+00 1.011371000000000038e+02 1.642119999999999891e+03
1.400000000000000203e-02 5.000685000000000269e-01 -4.079241999999999813e+00 9.880854999999999677e+01 1.641534999999999854e+03
1.499999999999999944e-02 4.997700000000000475e-01 -4.442640499999999548e+00 9.666110000000000468e+01 1.640965000000000146e+03
1.600000000000000033e-02 4.995585000000000164e-01 -4.427777499999999478e+00 9.485429999999999495e+01 1.640450000000000045e+03
1.700000000000000122e-02 4.994100000000000206e-01 -4.078914000000000151e+00 9.339609999999998990e+01 1.640005000000000109e+03
1.800000000000000211e-02 4.992794999999999872e-01 -3.508980999999999906e+00 9.216935000000000855e+01 1.639605000000000018e+03
1.900000000000000300e-02 4.991219999999999546e-01 -2.846865500000000271e+00 9.099545000000000528e+01 1.639224999999999909e+03
2.000000000000000042e-02 4.989084999999999770e-01 -2.189529999999999976e+00 8.971014999999999873e+01 1.638815000000000055e+03
2.100000000000000130e-02 4.986360000000000237e-01 -1.573784999999999989e+00 8.822360000000000468e+01 1.638369999999999891e+03
2.200000000000000219e-02 4.983230000000000159e-01 -9.769800000000001816e-01 8.654155000000000086e+01 1.637875000000000000e+03
2.299999999999999961e-02 4.979970000000000230e-01 -3.440849999999997522e-01 8.474414999999999054e+01 1.637355000000000018e+03
2.400000000000000050e-02 4.976835000000000009e-01 3.743299999999996075e-01 8.293590000000000373e+01 1.636829999999999927e+03
2.500000000000000139e-02 4.973925000000000152e-01 1.191404999999999603e+00 8.119280000000000541e+01 1.636309999999999945e+03
2.600000000000000228e-02 4.971160000000000023e-01 2.070734999999999992e+00 7.952805000000000746e+01 1.635804999999999836e+03
2.700000000000000316e-02 4.968320000000000514e-01 2.931395000000000195e+00 7.788240000000000407e+01 1.635304999999999836e+03
2.800000000000000058e-02 4.965105000000000213e-01 3.666635000000000311e+00 7.613929999999999154e+01 1.634784999999999854e+03
2.900000000000000147e-02 4.961214999999999931e-01 4.170040000000000191e+00 7.415715000000000146e+01 1.634220000000000027e+03
3.000000000000000236e-02 4.956464999999999899e-01 4.362859999999999516e+00 7.181200000000001182e+01 1.633579999999999927e+03
3.099999999999999978e-02 4.950809999999999933e-01 4.215010000000000367e+00 6.903694999999999027e+01 1.632845000000000027e+03
3.200000000000000067e-02 4.944425000000000070e-01 3.753480000000000150e+00 6.584839999999999804e+01 1.632009999999999991e+03
3.300000000000000155e-02 4.937614999999999643e-01 3.055330000000000101e+00 6.234895000000000209e+01 1.631099999999999909e+03
3.400000000000000244e-02 4.930784999999999751e-01 2.228700000000000792e+00 5.870924999999999727e+01 1.630144999999999982e+03
3.500000000000000333e-02 4.924324999999999952e-01 1.389375000000000249e+00 5.513500000000000512e+01 1.629194999999999936e+03
3.600000000000000422e-02 4.918604999999999783e-01 6.409599999999997522e-01 5.183265000000000100e+01 1.628299999999999955e+03
3.700000000000000511e-02 4.913865000000000594e-01 6.209500000000023334e-02 4.898040000000000305e+01 1.627500000000000000e+03
3.799999999999999906e-02 4.910259999999999625e-01 -2.978199999999997516e-01 4.671059999999999945e+01 1.626829999999999927e+03
3.899999999999999994e-02 4.907839999999999980e-01 -4.163250000000000561e-01 4.510304999999999609e+01 1.626315000000000055e+03
4.000000000000000083e-02 4.906590000000000118e-01 -2.911649999999998961e-01 4.418809999999999860e+01 1.625980000000000018e+03
4.100000000000000172e-02 4.906460000000000266e-01 6.833499999999997909e-02 4.395725000000000193e+01 1.625815000000000055e+03
4.200000000000000261e-02 4.907360000000000055e-01 6.492774999999999519e-01 4.437650000000000006e+01 1.625835000000000036e+03
4.300000000000000350e-02 4.909224999999999839e-01 1.440825000000000244e+00 4.540010000000000190e+01 1.626009999999999991e+03
4.400000000000000439e-02 4.911984999999999824e-01 2.436275000000000190e+00 4.698010000000000019e+01 1.626345000000000027e+03
4.499999999999999833e-02 4.915599999999999969e-01 3.631689999999999863e+00 4.907104999999999961e+01 1.626820000000000164e+03
4.599999999999999922e-02 4.919999999999999929e-01 5.022220000000000795e+00 5.162944999999999851e+01 1.627429999999999836e+03
4.700000000000000011e-02 4.925120000000000609e-01 6.597709999999999297e+00 5.461029999999999518e+01 1.628170000000000073e+03
4.800000000000000100e-02 4.930875000000000119e-01 8.339470699999999681e+00 5.796235000000000070e+01 1.629005000000000109e+03
4.900000000000000189e-02 4.937139999999999862e-01 1.021893500000000010e+01 6.162500000000000000e+01 1.629940000000000055e+03
5.000000000000000278e-02 4.943790000000000129e-01 1.219849999999999923e+01 6.552779999999999916e+01 1.630950000000000045e+03
5.100000000000000366e-02 4.950664999999999649e-01 1.423424999999999940e+01 6.959199999999999875e+01 1.632014999999999873e+03
5.200000000000000455e-02 4.957619999999999805e-01 1.627998000000000189e+01 7.373525000000000773e+01 1.633115000000000009e+03
5.300000000000000544e-02 4.964514999999999900e-01 1.829100999999999999e+01 7.787720000000000198e+01 1.634230000000000018e+03
5.399999999999999939e-02 4.971229999999999816e-01 2.022785000000000011e+01 8.194505000000000905e+01 1.635345000000000027e+03
5.500000000000000028e-02 4.977684999999999471e-01 2.205870000000000175e+01 8.587850000000000250e+01 1.636434999999999945e+03
5.600000000000000117e-02 4.983819999999999917e-01 2.376095000000000113e+01 8.963349999999999795e+01 1.637485000000000127e+03
5.700000000000000205e-02 4.989609999999999879e-01 2.532075000000000031e+01 9.318184999999999718e+01 1.638500000000000000e+03
5.800000000000000294e-02 4.995049999999999768e-01 2.673275000000000290e+01 9.651419999999998822e+01 1.639460000000000036e+03
5.900000000000000383e-02 5.000169999999999337e-01 2.799844999999999828e+01 9.963339999999999463e+01 1.640375000000000000e+03
6.000000000000000472e-02 5.004994999999999861e-01 2.912480000000000047e+01 1.025564499999999981e+02 1.641235000000000127e+03
6.099999999999999867e-02 5.009584999999999733e-01 3.012269999999999825e+01 1.053088500000000067e+02 1.642055000000000064e+03
6.199999999999999956e-02 5.013985000000000802e-01 3.100554999999999950e+01 1.079205000000000041e+02 1.642824999999999818e+03
6.300000000000000044e-02 5.018255000000000354e-01 3.178835000000000122e+01 1.104260000000000019e+02 1.643575000000000045e+03
6.400000000000000133e-02 5.022455000000000114e-01 3.248644999999999783e+01 1.128580000000000041e+02 1.644299999999999955e+03
6.500000000000000222e-02 5.026614999999999833e-01 3.311455000000000126e+01 1.152485000000000070e+02 1.645014999999999873e+03
6.600000000000000311e-02 5.030784999999999840e-01 3.368590000000000373e+01 1.176225000000000023e+02 1.645710000000000036e+03
6.700000000000000400e-02 5.034980000000000011e-01 3.421085000000000065e+01 1.199989999999999952e+02 1.646410000000000082e+03
6.800000000000000488e-02 5.039210000000000633e-01 3.469615000000000293e+01 1.223884999999999934e+02 1.647105000000000018e+03
6.900000000000000577e-02 5.043474999999999486e-01 3.514480000000000359e+01 1.247899999999999920e+02 1.647809999999999945e+03
7.000000000000000666e-02 5.047734999999999861e-01 3.555545000000000044e+01 1.271939999999999884e+02 1.648505000000000109e+03
7.100000000000000755e-02 5.051959999999999784e-01 3.592280000000000229e+01 1.295819999999999936e+02 1.649200000000000045e+03
7.200000000000000844e-02 5.056095000000000450e-01 3.623855000000000359e+01 1.319259999999999877e+02 1.649880000000000109e+03
7.300000000000000933e-02 5.060069999999999846e-01 3.649210000000000065e+01 1.341940000000000168e+02 1.650545000000000073e+03
7.399999999999999634e-02 5.063834999999999864e-01 3.667199999999999704e+01 1.363505000000000109e+02 1.651179999999999836e+03
7.499999999999999722e-02 5.067325000000000301e-01 3.676670000000000016e+01 1.383600000000000136e+02 1.651779999999999973e+03
7.599999999999999811e-02 5.070480000000000542e-01 3.676585000000000036e+01 1.401875000000000000e+02 1.652329999999999927e+03
7.699999999999999900e-02 5.073265000000000136e-01 3.666100000000000136e+01 1.418054999999999950e+02 1.652829999999999927e+03
7.799999999999999989e-02 5.075644999999999740e-01 3.644620000000000459e+01 1.431899999999999977e+02 1.653259999999999991e+03
7.900000000000000078e-02 5.077585000000000015e-01 3.611849999999999739e+01 1.443240000000000123e+02 1.653630000000000109e+03
8.000000000000000167e-02 5.079089999999999439e-01 3.567779999999999774e+01 1.451995000000000005e+02 1.653934999999999945e+03
8.100000000000000255e-02 5.080154999999999532e-01 3.512740000000000151e+01 1.458160000000000025e+02 1.654164999999999964e+03
8.200000000000000344e-02 5.080805000000000460e-01 3.447339999999999804e+01 1.461809999999999832e+02 1.654315000000000055e+03
8.300000000000000433e-02 5.081060000000000576e-01 3.372464999999999691e+01 1.463070000000000164e+02 1.654409999999999854e+03
8.400000000000000522e-02 5.080949999999999633e-01 3.289260000000000161e+01 1.462150000000000034e+02 1.654434999999999945e+03
8.500000000000000611e-02 5.080529999999999768e-01 3.199054999999999893e+01 1.459295000000000186e+02 1.654404999999999973e+03
8.600000000000000699e-02 5.079845000000000610e-01 3.103345000000000198e+01 1.454784999999999968e+02 1.654325000000000045e+03
8.700000000000000788e-02 5.078949999999999854e-01 3.003730000000000189e+01 1.448944999999999936e+02 1.654200000000000045e+03
8.800000000000000877e-02 5.077895000000000048e-01 2.901834999999999809e+01 1.442094999999999914e+02 1.654045000000000073e+03
8.899999999999999578e-02 5.076734999999999998e-01 2.799295000000000044e+01 1.434555000000000007e+02 1.653860000000000127e+03
8.999999999999999667e-02 5.075530000000000319e-01 2.697625000000000028e+01 1.426639999999999873e+02 1.653659999999999854e+03
9.099999999999999756e-02 5.074309999999999654e-01 2.598214999999999719e+01 1.418629999999999995e+02 1.653454999999999927e+03
9.199999999999999845e-02 5.073119999999999852e-01 2.502235000000000298e+01 1.410769999999999982e+02 1.653244999999999891e+03
9.299999999999999933e-02 5.071984999999999966e-01 2.410624999999999929e+01 1.403260000000000218e+02 1.653035000000000082e+03
9.400000000000000022e-02 5.070934999999999748e-01 2.324009999999999820e+01 1.396245000000000118e+02 1.652840000000000146e+03
9.500000000000000111e-02 5.069979999999999487e-01 2.242745000000000033e+01 1.389809999999999945e+02 1.652650000000000091e+03
9.600000000000000200e-02 5.069105000000000416e-01 2.166864999999999952e+01 1.383985000000000127e+02 1.652480000000000018e+03
9.700000000000000289e-02 5.068319999999999492e-01 2.096130000000000138e+01 1.378740000000000236e+02 1.652319999999999936e+03
9.800000000000000377e-02 5.067605000000000581e-01 2.030045000000000144e+01 1.374005000000000223e+02 1.652170000000000073e+03
9.900000000000000466e-02 5.066924999999999901e-01 1.967900000000000205e+01 1.369654999999999916e+02 1.652034999999999854e+03
1.000000000000000056e-01 5.066269999999999385e-01 1.908820000000000050e+01 1.365534999999999854e+02 1.651904999999999973e+03
1.010000000000000064e-01 5.065595000000000514e-01 1.851825000000000188e+01 1.361474999999999795e+02 1.651779999999999973e+03
1.020000000000000073e-01 5.064874999999999794e-01 1.795874999999999844e+01 1.357275000000000205e+02 1.651654999999999973e+03
1.030000000000000082e-01 5.064079999999999693e-01 1.739939999999999998e+01 1.352754999999999939e+02 1.651519999999999982e+03
1.040000000000000091e-01 5.063185000000000047e-01 1.683030000000000115e+01 1.347740000000000009e+02 1.651380000000000109e+03
1.050000000000000100e-01 5.062155000000000404e-01 1.624275000000000091e+01 1.342065000000000055e+02 1.651215000000000146e+03
1.059999999999999970e-01 5.060985000000000067e-01 1.562964999999999982e+01 1.335604999999999905e+02 1.651039999999999964e+03
1.069999999999999979e-01 5.059655000000000680e-01 1.498570000000000135e+01 1.328280000000000030e+02 1.650840000000000146e+03
1.079999999999999988e-01 5.058160000000000434e-01 1.430796999999999919e+01 1.320020000000000095e+02 1.650615000000000009e+03
1.089999999999999997e-01 5.056509999999999616e-01 1.359584000000000081e+01 1.310844999999999914e+02 1.650369999999999891e+03
1.100000000000000006e-01 5.054720000000000324e-01 1.285117999999999938e+01 1.300790000000000077e+02 1.650099999999999909e+03
1.110000000000000014e-01 5.052794999999999925e-01 1.207845000000000013e+01 1.289954999999999927e+02 1.649809999999999945e+03
1.120000000000000023e-01 5.050775000000000681e-01 1.128420999999999985e+01 1.278465000000000060e+02 1.649494999999999891e+03
1.130000000000000032e-01 5.048690000000000122e-01 1.047705999999999982e+01 1.266499999999999915e+02 1.649174999999999955e+03
1.140000000000000041e-01 5.046574999999999811e-01 9.667214999999998781e+00 1.254259999999999877e+02 1.648840000000000146e+03
1.150000000000000050e-01 5.044465000000000199e-01 8.865800000000000125e+00 1.241975000000000051e+02 1.648500000000000000e+03
1.160000000000000059e-01 5.042404999999999804e-01 8.084735000000000227e+00 1.229870000000000090e+02 1.648159999999999854e+03
1.170000000000000068e-01 5.040434999999999777e-01 7.335620000000000474e+00 1.218174999999999955e+02 1.647835000000000036e+03
1.180000000000000077e-01 5.038595000000000157e-01 6.629719999999999835e+00 1.207115000000000009e+02 1.647519999999999982e+03
1.190000000000000085e-01 5.036899999999999711e-01 5.977140000000000342e+00 1.196885000000000048e+02 1.647224999999999909e+03
1.200000000000000094e-01 5.035389999999999588e-01 5.386345000000000383e+00 1.187655000000000030e+02 1.646950000000000045e+03
1.209999999999999964e-01 5.034080000000000776e-01 4.863945000000000185e+00 1.179540000000000077e+02 1.646704999999999927e+03
1.219999999999999973e-01 5.032980000000000231e-01 4.414340000000000153e+00 1.172634999999999934e+02 1.646490000000000009e+03
1.229999999999999982e-01 5.032090000000000174e-01 4.039604999999999890e+00 1.166970000000000027e+02 1.646315000000000055e+03
1.239999999999999991e-01 5.031404999999999905e-01 3.739465000000000039e+00 1.162545000000000073e+02 1.646159999999999854e+03
1.250000000000000000e-01 5.030915000000000248e-01 3.511445000000000149e+00 1.159290000000000020e+02 1.646045000000000073e+03
1.260000000000000009e-01 5.030605000000000215e-01 3.351039999999999797e+00 1.157135000000000105e+02 1.645960000000000036e+03
1.270000000000000018e-01 5.030440000000000467e-01 3.252044999999999852e+00 1.155935000000000059e+02 1.645900000000000091e+03
1.280000000000000027e-01 5.030400000000000427e-01 3.206949999999999967e+00 1.155554999999999950e+02 1.645865000000000009e+03
1.290000000000000036e-01 5.030459999999999932e-01 3.207300000000000040e+00 1.155824999999999960e+02 1.645849999999999909e+03
1.300000000000000044e-01 5.030584999999999640e-01 3.244134999999999991e+00 1.156570000000000107e+02 1.645845000000000027e+03
1.310000000000000053e-01 5.030750000000000499e-01 3.308370000000000033e+00 1.157620000000000005e+02 1.645860000000000127e+03
1.320000000000000062e-01 5.030924999999999425e-01 3.391175000000000050e+00 1.158815000000000026e+02 1.645880000000000109e+03
1.330000000000000071e-01 5.031090000000000284e-01 3.484244999999999592e+00 1.160000000000000000e+02 1.645900000000000091e+03
1.340000000000000080e-01 5.031225000000000280e-01 3.580090000000000217e+00 1.161059999999999945e+02 1.645914999999999964e+03
1.350000000000000089e-01 5.031309999999999949e-01 3.672209999999999752e+00 1.161875000000000000e+02 1.645934999999999945e+03
1.360000000000000098e-01 5.031339999999999701e-01 3.755200000000000315e+00 1.162365000000000066e+02 1.645944999999999936e+03
1.370000000000000107e-01 5.031299999999999661e-01 3.824840000000000018e+00 1.162485000000000070e+02 1.645950000000000045e+03
1.380000000000000115e-01 5.031200000000000117e-01 3.878095000000000070e+00 1.162199999999999989e+02 1.645940000000000055e+03
1.390000000000000124e-01 5.031025000000000080e-01 3.913124999999999964e+00 1.161500000000000057e+02 1.645924999999999955e+03
1.400000000000000133e-01 5.030784999999999840e-01 3.929149999999999920e+00 1.160399999999999920e+02 1.645900000000000091e+03
1.410000000000000142e-01 5.030490000000000794e-01 3.926425000000000054e+00 1.158930000000000007e+02 1.645860000000000127e+03
1.420000000000000151e-01 5.030145000000000310e-01 3.906074999999999964e+00 1.157135000000000105e+02 1.645815000000000055e+03
1.430000000000000160e-01 5.029759999999999787e-01 3.869975000000000165e+00 1.155070000000000050e+02 1.645764999999999873e+03
1.440000000000000169e-01 5.029350000000000209e-01 3.820565000000000211e+00 1.152794999999999987e+02 1.645704999999999927e+03
1.450000000000000178e-01 5.028920000000000057e-01 3.760720000000000063e+00 1.150374999999999943e+02 1.645644999999999982e+03
1.459999999999999909e-01 5.028479999999999617e-01 3.693550000000000111e+00 1.147884999999999991e+02 1.645579999999999927e+03
1.469999999999999918e-01 5.028049999999999464e-01 3.622234999999999872e+00 1.145379999999999967e+02 1.645514999999999873e+03
1.479999999999999927e-01 5.027635000000000298e-01 3.549864999999999604e+00 1.142925000000000040e+02 1.645444999999999936e+03
1.489999999999999936e-01 5.027234999999999898e-01 3.479289999999999772e+00 1.140564999999999998e+02 1.645380000000000109e+03
1.499999999999999944e-01 5.026865000000000361e-01 3.412980000000000125e+00 1.138335000000000008e+02 1.645320000000000164e+03
1.509999999999999953e-01 5.026524999999999466e-01 3.352965000000000195e+00 1.136269999999999953e+02 1.645260000000000218e+03
1.519999999999999962e-01 5.026220000000000132e-01 3.300734999999999975e+00 1.134385000000000048e+02 1.645210000000000036e+03
1.529999999999999971e-01 5.025945000000000551e-01 3.257229999999999848e+00 1.132685000000000031e+02 1.645159999999999854e+03
1.539999999999999980e-01 5.025699999999999612e-01 3.222865000000000091e+00 1.131159999999999997e+02 1.645115000000000009e+03
1.549999999999999989e-01 5.025479999999999947e-01 3.197550000000000114e+00 1.129799999999999898e+02 1.645074999999999818e+03
1.559999999999999998e-01 5.025285000000000446e-01 3.180769999999999875e+00 1.128569999999999993e+02 1.645039999999999964e+03
1.570000000000000007e-01 5.025100000000000122e-01 3.171689999999999898e+00 1.127445000000000022e+02 1.645005000000000109e+03
1.580000000000000016e-01 5.024925000000000086e-01 3.169215000000000337e+00 1.126394999999999982e+02 1.644965000000000146e+03
1.590000000000000024e-01 5.024755000000000749e-01 3.172114999999999796e+00 1.125384999999999991e+02 1.644940000000000055e+03
