# t [s], A [cm^2], U [cm/s], P [cPa], c [cm/s]
1.000000000000000021e-03 4.686445000000000194e-01 1.164300000000000057e-03 1.056984999999999957e+02 1.445009999999999991e+03
2.000000000000000042e-03 4.686434999999999906e-01 1.099025999999999996e-02 1.056844999999999999e+02 1.445009999999999991e+03
3.000000000000000062e-03 4.687000000000000055e-01 1.338085999999999998e-01 1.057994999999999948e+02 1.445039999999999964e+03
4.000000000000000083e-03 4.687310000000000088e-01 2.041774000000000089e-01 1.058845000000000027e+02 1.445075000000000045e+03
5.000000000000000104e-03 4.687000000000000055e-01 1.415720000000000312e-01 1.057835000000000036e+02 1.445054999999999836e+03
6.000000000000000125e-03 4.686465000000000214e-01 2.149500000000004185e-02 1.055324999999999989e+02 1.445000000000000000e+03
7.000000000000000146e-03 4.685840000000000005e-01 -1.261569999999999636e-01 1.051670000000000016e+02 1.444909999999999854e+03
8.000000000000000167e-03 4.684740000000000015e-01 -3.823649999999999549e-01 1.045955000000000013e+02 1.444769999999999982e+03
9.000000000000001055e-03 4.682994999999999797e-01 -7.823849999999999971e-01 1.037369999999999948e+02 1.444555000000000064e+03
1.000000000000000194e-02 4.680615000000000192e-01 -1.312664999999999971e+00 1.025597999999999956e+02 1.444255000000000109e+03
1.099999999999999936e-02 4.677474999999999827e-01 -1.976415000000000033e+00 1.010236000000000018e+02 1.443844999999999800e+03
1.200000000000000025e-02 4.673490000000000144e-01 -2.768195000000000405e+00 9.909700000000000841e+01 1.443324999999999818e+03
1.300000000000000114e-02 4.668870000000000520e-01 -3.614224999999999799e+00 9.683169999999999789e+01 1.442690000000000055e+03
1.400000000000000203e-02 4.664130000000000220e-01 -4.367234999999999978e+00 9.439685000000000059e+01 1.441985000000000127e+03
1.499999999999999944e-02 4.659854999999999414e-01 -4.864945000000000519e+00 9.202530000000000143e+01 1.441269999999999982e+03
1.600000000000000033e-02 4.656434999999999880e-01 -4.998910999999999660e+00 8.992650000000000432e+01 1.440595000000000027e+03
1.700000000000000122e-02 4.653924999999999867e-01 -4.748869000000000007e+00 8.821449999999998681e+01 1.440000000000000000e+03
1.800000000000000211e-02 4.652100000000000124e-01 -4.177993999999999986e+00 8.688460000000000605e+01 1.439485000000000127e+03
1.900000000000000300e-02 4.650555000000000105e-01 -3.401551500000000061e+00 8.583119999999999550e+01 1.439045000000000073e+03
2.000000000000000042e-02 4.648880000000000234e-01 -2.545763500000000068e+00 8.489390000000000214e+01 1.438639999999999873e+03
2.100000000000000130e-02 4.646775000000000211e-01 -1.710139999999999993e+00 8.391344999999999743e+01 1.438230000000000018e+03
2.200000000000000219e-02 4.644125000000000059e-01 -9.451400000000000912e-01 8.277864999999999895e+01 1.437799999999999955e+03
2.299999999999999961e-02 4.640985000000000249e-01 -2.517849999999999255e-01 8.144759999999999422e+01 1.437325000000000045e+03
2.400000000000000050e-02 4.637519999999999420e-01 3.996500000000002828e-01 7.994015000000000271e+01 1.436804999999999836e+03
2.500000000000000139e-02 4.633900000000000241e-01 1.042554999999999676e+00 7.830894999999999584e+01 1.436250000000000000e+03
2.600000000000000228e-02 4.630230000000000179e-01 1.690814999999999735e+00 7.660509999999999309e+01 1.435670000000000073e+03
2.700000000000000316e-02 4.626489999999999769e-01 2.326759999999999717e+00 7.485150000000000148e+01 1.435070000000000164e+03
2.800000000000000058e-02 4.622580000000000022e-01 2.901705000000000201e+00 7.303055000000000518e+01 1.434444999999999936e+03
2.900000000000000147e-02 4.618300000000000183e-01 3.346299999999999830e+00 7.108705000000000496e+01 1.433784999999999854e+03
3.000000000000000236e-02 4.613460000000000338e-01 3.586720000000000130e+00 6.894310000000000116e+01 1.433074999999999818e+03
3.099999999999999978e-02 4.607884999999999898e-01 3.562355000000000160e+00 6.652055000000000007e+01 1.432295000000000073e+03
3.200000000000000067e-02 4.601509999999999767e-01 3.240624999999999645e+00 6.376520000000000010e+01 1.431424999999999955e+03
3.300000000000000155e-02 4.594384999999999719e-01 2.626125000000000043e+00 6.066655000000000086e+01 1.430464999999999918e+03
3.400000000000000244e-02 4.586675000000000058e-01 1.761919999999999931e+00 5.726850000000000307e+01 1.429425000000000182e+03
3.500000000000000333e-02 4.578659999999999952e-01 7.233999999999998209e-01 5.366920000000000357e+01 1.428319999999999936e+03
3.600000000000000422e-02 4.570680000000000298e-01 -3.930500000000005656e-01 5.001059999999999661e+01 1.427190000000000055e+03
3.700000000000000511e-02 4.563099999999999934e-01 -1.483679999999999666e+00 4.646105000000000018e+01 1.426075000000000045e+03
3.799999999999999906e-02 4.556280000000000330e-01 -2.449544999999999639e+00 4.319554999999999723e+01 1.425019999999999982e+03
3.899999999999999994e-02 4.550514999999999421e-01 -3.205884999999999874e+00 4.037749999999999773e+01 1.424075000000000045e+03
4.000000000000000083e-02 4.546035000000000492e-01 -3.687689999999999912e+00 3.814395000000000380e+01 1.423284999999999854e+03
4.100000000000000172e-02 4.543010000000000104e-01 -3.851264499999999646e+00 3.659635000000000105e+01 1.422675000000000182e+03
4.200000000000000261e-02 4.541509999999999714e-01 -3.672784999999999744e+00 3.579744999999999777e+01 1.422279999999999973e+03
4.300000000000000350e-02 4.541560000000000041e-01 -3.145279999999999632e+00 3.577205000000000013e+01 1.422110000000000127e+03
4.400000000000000439e-02 4.543120000000000491e-01 -2.274622499999999992e+00 3.651225000000000165e+01 1.422170000000000073e+03
4.499999999999999833e-02 4.546109999999999873e-01 -1.075965000000000060e+00 3.798369999999999891e+01 1.422454999999999927e+03
4.599999999999999922e-02 4.550429999999999753e-01 4.288449999999999207e-01 4.013264999999999816e+01 1.422965000000000146e+03
4.700000000000000011e-02 4.555945000000000134e-01 2.212695000000000078e+00 4.289164999999999850e+01 1.423670000000000073e+03
4.800000000000000100e-02 4.562510000000000177e-01 4.243440000000000545e+00 4.618389999999999418e+01 1.424555000000000064e+03
4.900000000000000189e-02 4.569960000000000133e-01 6.483855000000001034e+00 4.992564999999999742e+01 1.425594999999999800e+03
5.000000000000000278e-02 4.578119999999999967e-01 8.891479999999999606e+00 5.402830000000000155e+01 1.426775000000000091e+03
5.100000000000000366e-02 4.586804999999999910e-01 1.141888550000000002e+01 5.839979999999999905e+01 1.428059999999999945e+03
5.200000000000000455e-02 4.595829999999999638e-01 1.401478000000000002e+01 6.294610000000000127e+01 1.429420000000000073e+03
5.300000000000000544e-02 4.604994999999999505e-01 1.662603500000000167e+01 6.757375000000000398e+01 1.430835000000000036e+03
5.399999999999999939e-02 4.614125000000000032e-01 1.920009500000000102e+01 7.219259999999999877e+01 1.432264999999999873e+03
5.500000000000000028e-02 4.623055000000000359e-01 2.168744999999999834e+01 7.671970000000000312e+01 1.433704999999999927e+03
5.600000000000000117e-02 4.631644999999999790e-01 2.404435000000000144e+01 8.108244999999999436e+01 1.435110000000000127e+03
5.700000000000000205e-02 4.639794999999999892e-01 2.623495000000000132e+01 8.522169999999999845e+01 1.436474999999999909e+03
5.800000000000000294e-02 4.647415000000000296e-01 2.823250000000000171e+01 8.909510000000000218e+01 1.437769999999999982e+03
5.900000000000000383e-02 4.654485000000000428e-01 3.002045000000000030e+01 9.267640000000000100e+01 1.439000000000000000e+03
6.000000000000000472e-02 4.660990000000000411e-01 3.159215000000000018e+01 9.595865000000000578e+01 1.440144999999999982e+03
6.099999999999999867e-02 4.666954999999999854e-01 3.295019999999999527e+01 9.894904999999999973e+01 1.441210000000000036e+03
6.199999999999999956e-02 4.672444999999999515e-01 3.410535000000000139e+01 1.016717500000000030e+02 1.442199999999999818e+03
6.300000000000000044e-02 4.677525000000000155e-01 3.507489999999999952e+01 1.041609499999999997e+02 1.443115000000000009e+03
6.400000000000000133e-02 4.682280000000000331e-01 3.588124999999999432e+01 1.064609999999999985e+02 1.443970000000000027e+03
6.500000000000000222e-02 4.686810000000000143e-01 3.655030000000000001e+01 1.086200000000000045e+02 1.444775000000000091e+03
6.600000000000000311e-02 4.691214999999999691e-01 3.710985000000000156e+01 1.106899999999999977e+02 1.445549999999999955e+03
6.700000000000000400e-02 4.695590000000000042e-01 3.758840000000000003e+01 1.127210000000000036e+02 1.446295000000000073e+03
6.800000000000000488e-02 4.700014999999999610e-01 3.801404999999999745e+01 1.147609999999999957e+02 1.447045000000000073e+03
6.900000000000000577e-02 4.704579999999999873e-01 3.841310000000000002e+01 1.168520000000000039e+02 1.447795000000000073e+03
7.000000000000000666e-02 4.709339999999999637e-01 3.880920000000000414e+01 1.190305000000000035e+02 1.448565000000000055e+03
7.100000000000000755e-02 4.714355000000000073e-01 3.922225000000000250e+01 1.213230000000000075e+02 1.449360000000000127e+03
7.200000000000000844e-02 4.719639999999999946e-01 3.966745000000000232e+01 1.237460000000000093e+02 1.450190000000000055e+03
7.300000000000000933e-02 4.725215000000000387e-01 4.015435000000000088e+01 1.263075000000000045e+02 1.451059999999999945e+03
7.399999999999999634e-02 4.731049999999999978e-01 4.068665000000000020e+01 1.290030000000000143e+02 1.451965000000000146e+03
7.499999999999999722e-02 4.737119999999999664e-01 4.126149999999999807e+01 1.318164999999999907e+02 1.452900000000000091e+03
7.599999999999999811e-02 4.743364999999999942e-01 4.187010000000000076e+01 1.347205000000000155e+02 1.453869999999999891e+03
7.699999999999999900e-02 4.749694999999999889e-01 4.249779999999999802e+01 1.376804999999999950e+02 1.454860000000000127e+03
7.799999999999999989e-02 4.756029999999999980e-01 4.312565000000000026e+01 1.406525000000000034e+02 1.455855000000000018e+03
7.900000000000000078e-02 4.762255000000000238e-01 4.373094999999999999e+01 1.435869999999999891e+02 1.456845000000000027e+03
8.000000000000000167e-02 4.768270000000000008e-01 4.428920000000000101e+01 1.464304999999999950e+02 1.457815000000000055e+03
8.100000000000000255e-02 4.773965000000000014e-01 4.477535000000000309e+01 1.491310000000000002e+02 1.458744999999999891e+03
8.200000000000000344e-02 4.779245000000000299e-01 4.516525000000000034e+01 1.516390000000000100e+02 1.459625000000000000e+03
8.300000000000000433e-02 4.784019999999999939e-01 4.543715000000000259e+01 1.539080000000000155e+02 1.460434999999999945e+03
8.400000000000000522e-02 4.788219999999999699e-01 4.557254999999999967e+01 1.559010000000000105e+02 1.461164999999999964e+03
8.500000000000000611e-02 4.791790000000000216e-01 4.555734999999999957e+01 1.575885000000000105e+02 1.461805000000000064e+03
8.600000000000000699e-02 4.794694999999999929e-01 4.538224999999999909e+01 1.589515000000000100e+02 1.462344999999999800e+03
8.700000000000000788e-02 4.796924999999999661e-01 4.504314999999999714e+01 1.599820000000000277e+02 1.462785000000000082e+03
8.800000000000000877e-02 4.798495000000000399e-01 4.454115000000000180e+01 1.606809999999999832e+02 1.463119999999999891e+03
8.899999999999999578e-02 4.799415000000000209e-01 4.388244999999999862e+01 1.610614999999999952e+02 1.463349999999999909e+03
8.999999999999999667e-02 4.799744999999999706e-01 4.307784999999999798e+01 1.611449999999999818e+02 1.463480000000000018e+03
9.099999999999999756e-02 4.799539999999999917e-01 4.214230000000000587e+01 1.609605000000000246e+02 1.463514999999999873e+03
9.199999999999999845e-02 4.798870000000000635e-01 4.109409999999999741e+01 1.605430000000000064e+02 1.463480000000000018e+03
9.299999999999999933e-02 4.797814999999999719e-01 3.995435000000000514e+01 1.599329999999999927e+02 1.463365000000000009e+03
9.400000000000000022e-02 4.796470000000000455e-01 3.874595000000000056e+01 1.591734999999999900e+02 1.463190000000000055e+03
9.500000000000000111e-02 4.794910000000000005e-01 3.749264999999999759e+01 1.583084999999999809e+02 1.462974999999999909e+03
9.600000000000000200e-02 4.793235000000000134e-01 3.621849999999999881e+01 1.573820000000000050e+02 1.462724999999999909e+03
9.700000000000000289e-02 4.791515000000000080e-01 3.494669999999999987e+01 1.564360000000000070e+02 1.462460000000000036e+03
9.800000000000000377e-02 4.789825000000000332e-01 3.369885000000000019e+01 1.555074999999999932e+02 1.462179999999999836e+03
9.900000000000000466e-02 4.788244999999999862e-01 3.249429999999999552e+01 1.546320000000000050e+02 1.461914999999999964e+03
1.000000000000000056e-01 4.786805000000000088e-01 3.134939999999999927e+01 1.538350000000000080e+02 1.461659999999999854e+03
1.010000000000000064e-01 4.785570000000000102e-01 3.027700000000000102e+01 1.531399999999999864e+02 1.461430000000000064e+03
1.020000000000000073e-01 4.784549999999999637e-01 2.928624999999999901e+01 1.525600000000000023e+02 1.461220000000000027e+03
1.030000000000000082e-01 4.783764999999999823e-01 2.838215000000000288e+01 1.521024999999999920e+02 1.461054999999999836e+03
1.040000000000000091e-01 4.783209999999999962e-01 2.756564999999999799e+01 1.517680000000000007e+02 1.460920000000000073e+03
1.050000000000000100e-01 4.782874999999999766e-01 2.683399999999999963e+01 1.515490000000000066e+02 1.460809999999999945e+03
1.059999999999999970e-01 4.782719999999999749e-01 2.618074999999999974e+01 1.514339999999999975e+02 1.460744999999999891e+03
1.069999999999999979e-01 4.782719999999999749e-01 2.559649999999999892e+01 1.514039999999999964e+02 1.460699999999999818e+03
1.079999999999999988e-01 4.782824999999999438e-01 2.506920000000000215e+01 1.514385000000000048e+02 1.460679999999999836e+03
1.089999999999999997e-01 4.782994999999999886e-01 2.458505000000000251e+01 1.515115000000000123e+02 1.460675000000000182e+03
1.100000000000000006e-01 4.783159999999999634e-01 2.412915000000000276e+01 1.515975000000000250e+02 1.460674999999999955e+03
1.110000000000000014e-01 4.783285000000000453e-01 2.368599999999999994e+01 1.516684999999999945e+02 1.460679999999999836e+03
1.120000000000000023e-01 4.783304999999999918e-01 2.324060000000000059e+01 1.517005000000000052e+02 1.460680000000000064e+03
1.130000000000000032e-01 4.783184999999999798e-01 2.277870000000000061e+01 1.516684999999999945e+02 1.460660000000000082e+03
1.140000000000000041e-01 4.782885000000000053e-01 2.228760000000000119e+01 1.515519999999999925e+02 1.460615000000000009e+03
1.150000000000000050e-01 4.782370000000000232e-01 2.175675000000000026e+01 1.513340000000000032e+02 1.460550000000000182e+03
1.160000000000000059e-01 4.781615000000000171e-01 2.117800000000000082e+01 1.510024999999999977e+02 1.460450000000000045e+03
1.170000000000000068e-01 4.780619999999999870e-01 2.054585000000000150e+01 1.505509999999999877e+02 1.460315000000000055e+03
1.180000000000000077e-01 4.779369999999999452e-01 1.985784999999999911e+01 1.499759999999999991e+02 1.460150000000000091e+03
1.190000000000000085e-01 4.777890000000000192e-01 1.911444999999999794e+01 1.492814999999999941e+02 1.459940000000000055e+03
1.200000000000000094e-01 4.776185000000000569e-01 1.831895000000000095e+01 1.484755000000000109e+02 1.459699999999999818e+03
1.209999999999999964e-01 4.774295000000000067e-01 1.747744999999999749e+01 1.475699999999999932e+02 1.459425000000000182e+03
1.219999999999999973e-01 4.772244999999999959e-01 1.659860000000000113e+01 1.465825000000000102e+02 1.459125000000000000e+03
1.229999999999999982e-01 4.770079999999999876e-01 1.569294499999999992e+01 1.455319999999999823e+02 1.458799999999999955e+03
1.239999999999999991e-01 4.767845000000000000e-01 1.477279000000000053e+01 1.444420000000000073e+02 1.458454999999999927e+03
1.250000000000000000e-01 4.765590000000000104e-01 1.385165999999999897e+01 1.433354999999999961e+02 1.458110000000000127e+03
1.260000000000000009e-01 4.763370000000000104e-01 1.294362500000000082e+01 1.422375000000000114e+02 1.457755000000000109e+03
1.270000000000000018e-01 4.761220000000000452e-01 1.206265499999999946e+01 1.411709999999999923e+02 1.457404999999999973e+03
1.280000000000000027e-01 4.759194999999999398e-01 1.122247999999999912e+01 1.401610000000000014e+02 1.457069999999999936e+03
1.290000000000000036e-01 4.757334999999999758e-01 1.043547500000000028e+01 1.392264999999999873e+02 1.456755000000000109e+03
1.300000000000000044e-01 4.755665000000000031e-01 9.712669999999999249e+00 1.383855000000000075e+02 1.456465000000000146e+03
1.310000000000000053e-01 4.754224999999999701e-01 9.063079999999999359e+00 1.376524999999999750e+02 1.456199999999999818e+03
1.320000000000000062e-01 4.753025000000000166e-01 8.493370000000000530e+00 1.370380000000000109e+02 1.455970000000000027e+03
1.330000000000000071e-01 4.752075000000000049e-01 8.007819999999998828e+00 1.365464999999999804e+02 1.455779999999999973e+03
1.340000000000000080e-01 4.751370000000000315e-01 7.608125000000000249e+00 1.361804999999999950e+02 1.455619999999999891e+03
1.350000000000000089e-01 4.750909999999999855e-01 7.293324999999999392e+00 1.359359999999999786e+02 1.455505000000000109e+03
1.360000000000000098e-01 4.750674999999999759e-01 7.060095000000000454e+00 1.358064999999999998e+02 1.455425000000000182e+03
1.370000000000000107e-01 4.750645000000000007e-01 6.902849999999999930e+00 1.357814999999999941e+02 1.455375000000000000e+03
1.380000000000000115e-01 4.750785000000000147e-01 6.814095000000000013e+00 1.358464999999999918e+02 1.455360000000000127e+03
1.390000000000000124e-01 4.751064999999999872e-01 6.784755000000000535e+00 1.359859999999999900e+02 1.455369999999999891e+03
1.400000000000000133e-01 4.751449999999999840e-01 6.804599999999999760e+00 1.361820000000000164e+02 1.455400000000000091e+03
1.410000000000000142e-01 4.751895000000000424e-01 6.862655000000000172e+00 1.364155000000000086e+02 1.455450000000000045e+03
1.420000000000000151e-01 4.752375000000000349e-01 6.947639999999999816e+00 1.366680000000000064e+02 1.455505000000000109e+03
1.430000000000000160e-01 4.752844999999999986e-01 7.048389999999999489e+00 1.369214999999999804e+02 1.455565000000000055e+03
1.440000000000000169e-01 4.753279999999999728e-01 7.154209999999999958e+00 1.371599999999999966e+02 1.455625000000000000e+03
1.450000000000000178e-01 4.753640000000000088e-01 7.255250000000000199e+00 1.373670000000000186e+02 1.455684999999999945e+03
1.459999999999999909e-01 4.753914999999999669e-01 7.342764999999999986e+00 1.375310000000000059e+02 1.455735000000000127e+03
1.469999999999999918e-01 4.754079999999999973e-01 7.409365000000000201e+00 1.376419999999999959e+02 1.455764999999999873e+03
1.479999999999999927e-01 4.754120000000000013e-01 7.449149999999999494e+00 1.376920000000000073e+02 1.455785000000000082e+03
1.489999999999999936e-01 4.754030000000000200e-01 7.457824999999999704e+00 1.376769999999999925e+02 1.455784999999999854e+03
1.499999999999999944e-01 4.753804999999999836e-01 7.432725000000000470e+00 1.375955000000000155e+02 1.455764999999999873e+03
1.509999999999999953e-01 4.753454999999999764e-01 7.372790000000000177e+00 1.374480000000000075e+02 1.455730000000000018e+03
1.519999999999999962e-01 4.752984999999999571e-01 7.278475000000000250e+00 1.372384999999999877e+02 1.455675000000000182e+03
1.529999999999999971e-01 4.752404999999999546e-01 7.151604999999999990e+00 1.369724999999999966e+02 1.455605000000000018e+03
1.539999999999999980e-01 4.751739999999999853e-01 6.995230000000000281e+00 1.366570000000000107e+02 1.455510000000000218e+03
1.549999999999999989e-01 4.750989999999999935e-01 6.813385000000000247e+00 1.363004999999999995e+02 1.455409999999999854e+03
1.559999999999999998e-01 4.750189999999999690e-01 6.610889999999999489e+00 1.359120000000000061e+02 1.455289999999999964e+03
1.570000000000000007e-01 4.749349999999999961e-01 6.393095000000000638e+00 1.355024999999999977e+02 1.455170000000000073e+03
1.580000000000000016e-01 4.748495000000000354e-01 6.165630000000000166e+00 1.350810000000000173e+02 1.455039999999999964e+03
1.590000000000000024e-01 4.747635000000000050e-01 5.934180000000000454e+00 1.346569999999999823e+02 1.454909999999999854e+03
