# t [s], A [cm^2], U [cm/s], P [cPa], c [cm/s]
1.000000000000000021e-03 1.336160000000000125e-01 2.527090000000000169e-01 9.751550000000000296e+01 1.832429999999999836e+03
2.000000000000000042e-03 1.335919999999999885e-01 1.736040000000000028e+00 9.467859999999998877e+01 1.832159999999999854e+03
3.000000000000000062e-03 1.335029999999999828e-01 3.581949499999999897e+00 9.088259999999999650e+01 1.831204999999999927e+03
4.000000000000000083e-03 1.333690000000000153e-01 5.640518500000000657e+00 8.655870000000000175e+01 1.829799999999999955e+03
5.000000000000000104e-03 1.332134999999999847e-01 7.859765000000000335e+00 8.240885000000000105e+01 1.828184999999999945e+03
6.000000000000000125e-03 1.330544999999999922e-01 1.013874999999999993e+01 7.883199999999999363e+01 1.826554999999999836e+03
7.000000000000000146e-03 1.329025000000000067e-01 1.231846499999999978e+01 7.582909999999999684e+01 1.825005000000000109e+03
8.000000000000000167e-03 1.327585000000000015e-01 1.426477500000000020e+01 7.319435000000000002e+01 1.823559999999999945e+03
9.000000000000001055e-03 1.326249999999999929e-01 1.594395000000000095e+01 7.081524999999999181e+01 1.822250000000000000e+03
1.000000000000000194e-02 1.325054999999999983e-01 1.738520000000000110e+01 6.872944999999999993e+01 1.821090000000000146e+03
1.099999999999999936e-02 1.324025000000000063e-01 1.861360000000000170e+01 6.697889999999999588e+01 1.820090000000000146e+03
1.200000000000000025e-02 1.323145000000000016e-01 1.964225000000000065e+01 6.554984999999999218e+01 1.819255000000000109e+03
1.300000000000000114e-02 1.322415000000000118e-01 2.048380000000000223e+01 6.440465000000000373e+01 1.818565000000000055e+03
1.400000000000000203e-02 1.321815000000000073e-01 2.114710000000000178e+01 6.349119999999999919e+01 1.818005000000000109e+03
1.499999999999999944e-02 1.321325000000000138e-01 2.163705000000000211e+01 6.273754999999999882e+01 1.817559999999999945e+03
1.600000000000000033e-02 1.320919999999999872e-01 2.197409999999999997e+01 6.209009999999999962e+01 1.817195000000000164e+03
1.700000000000000122e-02 1.320589999999999820e-01 2.221600000000000108e+01 6.158055000000000234e+01 1.816904999999999973e+03
1.800000000000000211e-02 1.320365000000000011e-01 2.245425000000000182e+01 6.135044999999999504e+01 1.816710000000000036e+03
1.900000000000000300e-02 1.320284999999999931e-01 2.278340000000000032e+01 6.159609999999999985e+01 1.816655000000000200e+03
2.000000000000000042e-02 1.320395000000000041e-01 2.326095000000000113e+01 6.246444999999999936e+01 1.816769999999999982e+03
2.100000000000000130e-02 1.320709999999999940e-01 2.388230000000000075e+01 6.396160000000000423e+01 1.817075000000000045e+03
2.200000000000000219e-02 1.321209999999999885e-01 2.458124999999999716e+01 6.592284999999999684e+01 1.817555000000000064e+03
2.299999999999999961e-02 1.321825000000000083e-01 2.525330000000000297e+01 6.805280000000000484e+01 1.818154999999999973e+03
2.400000000000000050e-02 1.322464999999999891e-01 2.578960000000000008e+01 7.001050000000000750e+01 1.818789999999999964e+03
2.500000000000000139e-02 1.323055000000000203e-01 2.610849999999999937e+01 7.150524999999998954e+01 1.819369999999999891e+03
2.600000000000000228e-02 1.323509999999999964e-01 2.617544999999999789e+01 7.236875000000000568e+01 1.819840000000000146e+03
2.700000000000000316e-02 1.323799999999999977e-01 2.600649999999999906e+01 7.258574999999999022e+01 1.820144999999999982e+03
2.800000000000000058e-02 1.323929999999999829e-01 2.565715000000000146e+01 7.227719999999999345e+01 1.820289999999999964e+03
2.900000000000000147e-02 1.323930000000000107e-01 2.520150000000000290e+01 7.164754999999999541e+01 1.820304999999999836e+03
3.000000000000000236e-02 1.323840000000000017e-01 2.470895000000000152e+01 7.091599999999999682e+01 1.820240000000000009e+03
3.099999999999999978e-02 1.323719999999999897e-01 2.422700000000000031e+01 7.025520000000000209e+01 1.820125000000000000e+03
3.200000000000000067e-02 1.323599999999999777e-01 2.377295000000000158e+01 6.975300000000000011e+01 1.820014999999999873e+03
3.300000000000000155e-02 1.323499999999999954e-01 2.333570000000000277e+01 6.940529999999999688e+01 1.819914999999999964e+03
3.400000000000000244e-02 1.323404999999999998e-01 2.288564999999999827e+01 6.913589999999999236e+01 1.819825000000000045e+03
3.500000000000000333e-02 1.323310000000000042e-01 2.238889999999999958e+01 6.883435000000000059e+01 1.819739999999999782e+03
3.600000000000000422e-02 1.323190000000000199e-01 2.182079999999999842e+01 6.839885000000001014e+01 1.819625000000000000e+03
3.700000000000000511e-02 1.323015000000000163e-01 2.117689999999999984e+01 6.777324999999999022e+01 1.819460000000000036e+03
3.799999999999999906e-02 1.322790000000000077e-01 2.047744999999999749e+01 6.696909999999999741e+01 1.819255000000000109e+03
3.899999999999999994e-02 1.322530000000000094e-01 1.976539999999999964e+01 6.606855000000000189e+01 1.819000000000000000e+03
4.000000000000000083e-02 1.322249999999999814e-01 1.909859999999999758e+01 6.520784999999999343e+01 1.818735000000000127e+03
4.100000000000000172e-02 1.322000000000000119e-01 1.853739999999999810e+01 6.454609999999999559e+01 1.818490000000000009e+03
4.200000000000000261e-02 1.321809999999999929e-01 1.813204999999999956e+01 6.422844999999999516e+01 1.818304999999999836e+03
4.300000000000000350e-02 1.321740000000000137e-01 1.791205000000000069e+01 6.435245000000000459e+01 1.818224999999999909e+03
4.400000000000000439e-02 1.321795000000000053e-01 1.788004999999999711e+01 6.494534999999999059e+01 1.818264999999999873e+03
4.499999999999999833e-02 1.321984999999999966e-01 1.801194999999999879e+01 6.595789999999999509e+01 1.818434999999999945e+03
4.599999999999999922e-02 1.322290000000000132e-01 1.826050000000000040e+01 6.727279999999998950e+01 1.818719999999999800e+03
4.700000000000000011e-02 1.322685000000000111e-01 1.856414999999999793e+01 6.872530000000000427e+01 1.819095000000000027e+03
4.800000000000000100e-02 1.323114999999999986e-01 1.885589999999999833e+01 7.013085000000000946e+01 1.819500000000000000e+03
4.900000000000000189e-02 1.323529999999999984e-01 1.907249999999999801e+01 7.131239999999999668e+01 1.819900000000000091e+03
5.000000000000000278e-02 1.323880000000000057e-01 1.916194999999999737e+01 7.212364999999999782e+01 1.820244999999999891e+03
5.100000000000000366e-02 1.324124999999999885e-01 1.908765000000000001e+01 7.246500000000000341e+01 1.820485000000000127e+03
5.200000000000000455e-02 1.324234999999999995e-01 1.883039999999999736e+01 7.228929999999999723e+01 1.820595000000000027e+03
5.300000000000000544e-02 1.324184999999999945e-01 1.838739999999999952e+01 7.160020000000000095e+01 1.820565000000000055e+03
5.399999999999999939e-02 1.323985000000000023e-01 1.776939999999999742e+01 7.044310000000000116e+01 1.820380000000000109e+03
5.500000000000000028e-02 1.323634999999999950e-01 1.699714999999999776e+01 6.889275000000000659e+01 1.820049999999999955e+03
5.600000000000000117e-02 1.323159999999999892e-01 1.609730000000000061e+01 6.703944999999998799e+01 1.819599999999999909e+03
5.700000000000000205e-02 1.322580000000000144e-01 1.509955000000000069e+01 6.497740000000000293e+01 1.819045000000000073e+03
5.800000000000000294e-02 1.321915000000000173e-01 1.403384999999999927e+01 6.279609999999999559e+01 1.818405000000000200e+03
5.900000000000000383e-02 1.321209999999999885e-01 1.292976000000000170e+01 6.057580000000000098e+01 1.817719999999999800e+03
6.000000000000000472e-02 1.320469999999999977e-01 1.181579999999999941e+01 5.838640000000000185e+01 1.817009999999999991e+03
6.099999999999999867e-02 1.319724999999999926e-01 1.072017999999999915e+01 5.628929999999999723e+01 1.816284999999999854e+03
6.199999999999999956e-02 1.318995000000000029e-01 9.671050000000001035e+00 5.434009999999999962e+01 1.815579999999999927e+03
6.300000000000000044e-02 1.318314999999999904e-01 8.697169999999999845e+00 5.259244999999999948e+01 1.814914999999999964e+03
6.400000000000000133e-02 1.317689999999999972e-01 7.827960000000000917e+00 5.109949999999999903e+01 1.814305000000000064e+03
6.500000000000000222e-02 1.317139999999999977e-01 7.093109999999999360e+00 4.991559999999999775e+01 1.813769999999999982e+03
6.600000000000000311e-02 1.316694999999999949e-01 6.521865000000000023e+00 4.909510000000000218e+01 1.813329999999999927e+03
6.700000000000000400e-02 1.316370000000000040e-01 6.141625000000000334e+00 4.869024999999999892e+01 1.813000000000000000e+03
6.800000000000000488e-02 1.316184999999999994e-01 5.976580000000000226e+00 4.874819999999999709e+01 1.812815000000000055e+03
6.900000000000000577e-02 1.316149999999999820e-01 6.046205000000000496e+00 4.930705000000000382e+01 1.812764999999999873e+03
7.000000000000000666e-02 1.316289999999999960e-01 6.364029999999999632e+00 5.039289999999999736e+01 1.812884999999999991e+03
7.100000000000000755e-02 1.316615000000000146e-01 6.936659999999999826e+00 5.201670000000000016e+01 1.813174999999999955e+03
7.200000000000000844e-02 1.317115000000000091e-01 7.763315000000000410e+00 5.417360000000000042e+01 1.813639999999999873e+03
7.300000000000000933e-02 1.317800000000000082e-01 8.835844999999999061e+00 5.684185000000000088e+01 1.814284999999999854e+03
7.399999999999999634e-02 1.318664999999999976e-01 1.013909500000000108e+01 5.998434999999999917e+01 1.815110000000000127e+03
7.499999999999999722e-02 1.319694999999999896e-01 1.165192499999999853e+01 6.355095000000000027e+01 1.816090000000000146e+03
7.599999999999999811e-02 1.320880000000000110e-01 1.334811499999999995e+01 6.748064999999999714e+01 1.817224999999999909e+03
7.699999999999999900e-02 1.322200000000000042e-01 1.519770000000000110e+01 7.170560000000000400e+01 1.818489999999999782e+03
7.799999999999999989e-02 1.323630000000000084e-01 1.716829999999999856e+01 7.615434999999999377e+01 1.819875000000000000e+03
7.900000000000000078e-02 1.325149999999999939e-01 1.922664999999999935e+01 8.075489999999999213e+01 1.821349999999999909e+03
8.000000000000000167e-02 1.326740000000000141e-01 2.133975000000000222e+01 8.543845000000000312e+01 1.822890000000000100e+03
8.100000000000000255e-02 1.328370000000000106e-01 2.347610000000000241e+01 9.014185000000000514e+01 1.824484999999999900e+03
8.200000000000000344e-02 1.330024999999999957e-01 2.560689999999999955e+01 9.480995000000000061e+01 1.826105000000000018e+03
8.300000000000000433e-02 1.331685000000000230e-01 2.770689999999999742e+01 9.939730000000000132e+01 1.827735000000000127e+03
8.400000000000000522e-02 1.333334999999999937e-01 2.975515000000000043e+01 1.038704000000000036e+02 1.829360000000000127e+03
8.500000000000000611e-02 1.334950000000000025e-01 3.173530000000000229e+01 1.082052500000000066e+02 1.830960000000000036e+03
8.600000000000000699e-02 1.336539999999999950e-01 3.363584999999999781e+01 1.123919999999999959e+02 1.832529999999999973e+03
8.700000000000000788e-02 1.338084999999999969e-01 3.544984999999999786e+01 1.164290000000000020e+02 1.834074999999999818e+03
8.800000000000000877e-02 1.339589999999999947e-01 3.717475000000000307e+01 1.203245000000000005e+02 1.835570000000000164e+03
8.899999999999999578e-02 1.341054999999999886e-01 3.881135000000000446e+01 1.240920000000000130e+02 1.837034999999999854e+03
8.999999999999999667e-02 1.342479999999999785e-01 4.036330000000000240e+01 1.277520000000000095e+02 1.838460000000000036e+03
9.099999999999999756e-02 1.343864999999999921e-01 4.183605000000000018e+01 1.313255000000000052e+02 1.839849999999999909e+03
9.199999999999999845e-02 1.345230000000000037e-01 4.323590000000000089e+01 1.348324999999999818e+02 1.841219999999999800e+03
9.299999999999999933e-02 1.346570000000000267e-01 4.456935000000000002e+01 1.382909999999999968e+02 1.842565000000000055e+03
9.400000000000000022e-02 1.347889999999999922e-01 4.584199999999999875e+01 1.417150000000000034e+02 1.843894999999999982e+03
9.500000000000000111e-02 1.349194999999999978e-01 4.705819999999999936e+01 1.451119999999999948e+02 1.845210000000000036e+03
9.600000000000000200e-02 1.350485000000000158e-01 4.822069999999999368e+01 1.484844999999999970e+02 1.846514999999999873e+03
9.700000000000000289e-02 1.351765000000000050e-01 4.933004999999999995e+01 1.518280000000000030e+02 1.847804999999999836e+03
9.800000000000000377e-02 1.353034999999999932e-01 5.038514999999999588e+01 1.551315000000000168e+02 1.849085000000000036e+03
9.900000000000000466e-02 1.354285000000000072e-01 5.138264999999999816e+01 1.583804999999999836e+02 1.850349999999999909e+03
1.000000000000000056e-01 1.355514999999999914e-01 5.231775000000000375e+01 1.615554999999999950e+02 1.851594999999999800e+03
1.010000000000000064e-01 1.356715000000000004e-01 5.318415000000000248e+01 1.646335000000000264e+02 1.852815000000000055e+03
1.020000000000000073e-01 1.357879999999999920e-01 5.397459999999999525e+01 1.675894999999999868e+02 1.854000000000000000e+03
1.030000000000000082e-01 1.359009999999999940e-01 5.468144999999999811e+01 1.703994999999999891e+02 1.855144999999999982e+03
1.040000000000000091e-01 1.360079999999999900e-01 5.529664999999999964e+01 1.730384999999999991e+02 1.856235000000000127e+03
1.050000000000000100e-01 1.361090000000000078e-01 5.581274999999999409e+01 1.754839999999999804e+02 1.857269999999999982e+03
1.059999999999999970e-01 1.362039999999999917e-01 5.622265000000000157e+01 1.777155000000000200e+02 1.858235000000000127e+03
1.069999999999999979e-01 1.362909999999999955e-01 5.652044999999999675e+01 1.797164999999999964e+02 1.859130000000000109e+03
1.079999999999999988e-01 1.363699999999999912e-01 5.670154999999999745e+01 1.814735000000000014e+02 1.859950000000000045e+03
1.089999999999999997e-01 1.364410000000000067e-01 5.676285000000000025e+01 1.829770000000000039e+02 1.860674999999999955e+03
1.100000000000000006e-01 1.365029999999999855e-01 5.670300000000000296e+01 1.842230000000000132e+02 1.861319999999999936e+03
1.110000000000000014e-01 1.365554999999999963e-01 5.652275000000000205e+01 1.852100000000000080e+02 1.861865000000000009e+03
1.120000000000000023e-01 1.365994999999999848e-01 5.622459999999999525e+01 1.859440000000000168e+02 1.862320000000000164e+03
1.130000000000000032e-01 1.366340000000000054e-01 5.581314999999999316e+01 1.864335000000000093e+02 1.862684999999999945e+03
1.140000000000000041e-01 1.366605000000000181e-01 5.529489999999999839e+01 1.866910000000000025e+02 1.862964999999999918e+03
1.150000000000000050e-01 1.366775000000000073e-01 5.467815000000000225e+01 1.867340000000000089e+02 1.863154999999999973e+03
1.160000000000000059e-01 1.366875000000000173e-01 5.397275000000000489e+01 1.865830000000000268e+02 1.863264999999999873e+03
1.170000000000000068e-01 1.366899999999999782e-01 5.318980000000000530e+01 1.862599999999999909e+02 1.863299999999999955e+03
1.180000000000000077e-01 1.366860000000000019e-01 5.234139999999999304e+01 1.857900000000000205e+02 1.863269999999999982e+03
1.190000000000000085e-01 1.366760000000000197e-01 5.144015000000000271e+01 1.851980000000000075e+02 1.863180000000000064e+03
1.200000000000000094e-01 1.366614999999999913e-01 5.049895000000000067e+01 1.845110000000000241e+02 1.863035000000000082e+03
1.209999999999999964e-01 1.366425000000000001e-01 4.953029999999999688e+01 1.837524999999999977e+02 1.862849999999999909e+03
1.219999999999999973e-01 1.366205000000000058e-01 4.854635000000000389e+01 1.829455000000000098e+02 1.862634999999999991e+03
1.229999999999999982e-01 1.365965000000000096e-01 4.755819999999999936e+01 1.821119999999999948e+02 1.862389999999999873e+03
1.239999999999999991e-01 1.365709999999999980e-01 4.657569999999999766e+01 1.812694999999999936e+02 1.862130000000000109e+03
1.250000000000000000e-01 1.365434999999999843e-01 4.560755000000000337e+01 1.804339999999999975e+02 1.861860000000000127e+03
1.260000000000000009e-01 1.365159999999999985e-01 4.466060000000000230e+01 1.796159999999999854e+02 1.861579999999999927e+03
1.270000000000000018e-01 1.364885000000000126e-01 4.374009999999999820e+01 1.788245000000000005e+02 1.861300000000000182e+03
1.280000000000000027e-01 1.364615000000000133e-01 4.284950000000000614e+01 1.780629999999999882e+02 1.861025000000000091e+03
1.290000000000000036e-01 1.364350000000000007e-01 4.199074999999999847e+01 1.773335000000000150e+02 1.860750000000000000e+03
1.300000000000000044e-01 1.364090000000000025e-01 4.116379999999999484e+01 1.766320000000000050e+02 1.860485000000000127e+03
1.310000000000000053e-01 1.363834999999999908e-01 4.036740000000000350e+01 1.759555000000000007e+02 1.860224999999999909e+03
1.320000000000000062e-01 1.363590000000000080e-01 3.959875000000000256e+01 1.752955000000000041e+02 1.859970000000000027e+03
1.330000000000000071e-01 1.363344999999999974e-01 3.885394999999999754e+01 1.746419999999999959e+02 1.859719999999999800e+03
1.340000000000000080e-01 1.363099999999999867e-01 3.812825000000000131e+01 1.739850000000000136e+02 1.859465000000000146e+03
1.350000000000000089e-01 1.362849999999999895e-01 3.741620000000000346e+01 1.733115000000000236e+02 1.859215000000000146e+03
1.360000000000000098e-01 1.362599999999999922e-01 3.671189999999999998e+01 1.726089999999999804e+02 1.858954999999999927e+03
1.370000000000000107e-01 1.362335000000000074e-01 3.600934999999999775e+01 1.718665000000000020e+02 1.858680000000000064e+03
1.380000000000000115e-01 1.362055000000000071e-01 3.530279999999999774e+01 1.710715000000000146e+02 1.858400000000000091e+03
1.390000000000000124e-01 1.361760000000000193e-01 3.458674999999999500e+01 1.702150000000000034e+02 1.858099999999999909e+03
1.400000000000000133e-01 1.361450000000000160e-01 3.385645000000000238e+01 1.692869999999999777e+02 1.857779999999999973e+03
1.410000000000000142e-01 1.361109999999999820e-01 3.310795000000000243e+01 1.682824999999999989e+02 1.857429999999999836e+03
1.420000000000000151e-01 1.360740000000000005e-01 3.233840000000000003e+01 1.671974999999999909e+02 1.857065000000000055e+03
1.430000000000000160e-01 1.360354999999999759e-01 3.154590000000000316e+01 1.660294999999999845e+02 1.856670000000000073e+03
1.440000000000000169e-01 1.359930000000000028e-01 3.073015000000000185e+01 1.647814999999999941e+02 1.856244999999999891e+03
1.450000000000000178e-01 1.359484999999999999e-01 2.989195000000000135e+01 1.634569999999999936e+02 1.855789999999999964e+03
1.459999999999999909e-01 1.359009999999999940e-01 2.903334999999999866e+01 1.620634999999999764e+02 1.855315000000000055e+03
1.469999999999999918e-01 1.358509999999999995e-01 2.815794999999999959e+01 1.606100000000000136e+02 1.854815000000000055e+03
1.479999999999999927e-01 1.357995000000000174e-01 2.727025000000000077e+01 1.591095000000000255e+02 1.854289999999999964e+03
1.489999999999999936e-01 1.357460000000000055e-01 2.637580000000000169e+01 1.575754999999999768e+02 1.853750000000000000e+03
1.499999999999999944e-01 1.356910000000000061e-01 2.548114999999999952e+01 1.560235000000000127e+02 1.853200000000000045e+03
1.509999999999999953e-01 1.356350000000000056e-01 2.459324999999999761e+01 1.544705000000000155e+02 1.852639999999999873e+03
1.519999999999999962e-01 1.355790000000000051e-01 2.371954999999999814e+01 1.529325000000000045e+02 1.852074999999999818e+03
1.529999999999999971e-01 1.355234999999999912e-01 2.286739999999999995e+01 1.514270000000000209e+02 1.851514999999999873e+03
1.539999999999999980e-01 1.354684999999999917e-01 2.204415000000000191e+01 1.499699999999999989e+02 1.850960000000000036e+03
1.549999999999999989e-01 1.354154999999999942e-01 2.125659999999999883e+01 1.485765000000000100e+02 1.850420000000000073e+03
1.559999999999999998e-01 1.353639999999999843e-01 2.051084999999999781e+01 1.472579999999999814e+02 1.849900000000000091e+03
1.570000000000000007e-01 1.353150000000000186e-01 1.981220000000000070e+01 1.460264999999999986e+02 1.849404999999999973e+03
1.580000000000000016e-01 1.352685000000000137e-01 1.916469999999999985e+01 1.448894999999999982e+02 1.848934999999999945e+03
1.590000000000000024e-01 1.352254999999999985e-01 1.857150000000000034e+01 1.438534999999999968e+02 1.848494999999999891e+03
