# t [s], A [cm^2], U [cm/s], P [cPa], c [cm/s]
1.000000000000000021e-03 5.362900000000000444e-01 4.918399999999996386e-03 1.012990000000000066e+02 1.608099999999999909e+03
2.000000000000000042e-03 5.362815000000000776e-01 -1.140791499999999894e-03 1.012734999999999985e+02 1.608090000000000146e+03
3.000000000000000062e-03 5.363260000000000804e-01 8.888619999999998467e-02 1.013695000000000022e+02 1.608119999999999891e+03
4.000000000000000083e-03 5.363670000000000382e-01 1.824652499999999955e-01 1.014879999999999995e+02 1.608144999999999982e+03
5.000000000000000104e-03 5.363495000000000346e-01 1.633972000000000202e-01 1.014449999999999932e+02 1.608139999999999873e+03
6.000000000000000125e-03 5.362974999999999826e-01 6.981800000000001893e-02 1.012439999999999998e+02 1.608099999999999909e+03
7.000000000000000146e-03 5.362504999999999633e-01 -1.961400000000002031e-02 1.009819999999999993e+02 1.608039999999999964e+03
8.000000000000000167e-03 5.361819999999999364e-01 -1.652710000000000012e-01 1.006025000000000063e+02 1.607964999999999918e+03
9.000000000000001055e-03 5.360645000000000548e-01 -4.261100000000000998e-01 1.000155000000000030e+02 1.607840000000000146e+03
1.000000000000000194e-02 5.358945000000000514e-01 -8.077050000000000063e-01 9.917669999999999675e+01 1.607654999999999973e+03
1.099999999999999936e-02 5.356594999999999551e-01 -1.326359999999999983e+00 9.802774999999999750e+01 1.607404999999999973e+03
1.200000000000000025e-02 5.353480000000000461e-01 -1.988599999999999923e+00 9.651670000000000016e+01 1.607070000000000164e+03
1.300000000000000114e-02 5.349800000000000111e-01 -2.731770000000000032e+00 9.468139999999999645e+01 1.606654999999999973e+03
1.400000000000000203e-02 5.346030000000000504e-01 -3.424409999999999954e+00 9.267125000000000057e+01 1.606190000000000055e+03
1.499999999999999944e-02 5.342695000000000638e-01 -3.927270000000000039e+00 9.068665000000000020e+01 1.605704999999999927e+03
1.600000000000000033e-02 5.340030000000000054e-01 -4.154191850000000130e+00 8.888949999999999818e+01 1.605240000000000009e+03
1.700000000000000122e-02 5.338015000000000398e-01 -4.094981999999999900e+00 8.735004999999999598e+01 1.604824999999999818e+03
1.800000000000000211e-02 5.336385000000000156e-01 -3.802127999999999730e+00 8.604160000000000252e+01 1.604445000000000164e+03
1.900000000000000300e-02 5.334794999999999954e-01 -3.359616500000000006e+00 8.487004999999999200e+01 1.604090000000000146e+03
2.000000000000000042e-02 5.332945000000000046e-01 -2.849325649999999932e+00 8.371909999999999741e+01 1.603735000000000127e+03
2.100000000000000130e-02 5.330684999999999452e-01 -2.325241000000000113e+00 8.249399999999999977e+01 1.603375000000000000e+03
2.200000000000000219e-02 5.328034999999999854e-01 -1.802304999999999824e+00 8.115024999999999977e+01 1.602990000000000009e+03
2.299999999999999961e-02 5.325125000000000552e-01 -1.262390000000000123e+00 7.969935000000000969e+01 1.602575000000000045e+03
2.400000000000000050e-02 5.322160000000000224e-01 -6.734299999999999731e-01 7.819065000000000509e+01 1.602150000000000091e+03
2.500000000000000139e-02 5.319274999999999975e-01 -1.209000000000015618e-02 7.668094999999999573e+01 1.601724999999999909e+03
2.600000000000000228e-02 5.316505000000000258e-01 7.193199999999997374e-01 7.520510000000000161e+01 1.601300000000000182e+03
2.700000000000000316e-02 5.313780000000000170e-01 1.486790000000000278e+00 7.375780000000000314e+01 1.600884999999999991e+03
2.800000000000000058e-02 5.310905000000000209e-01 2.229410000000000114e+00 7.229059999999999775e+01 1.600460000000000036e+03
2.900000000000000147e-02 5.307665000000000299e-01 2.872200000000000308e+00 7.072275000000000489e+01 1.600014999999999873e+03
3.000000000000000236e-02 5.303849999999999953e-01 3.343120000000000314e+00 6.896245000000000402e+01 1.599529999999999973e+03
3.099999999999999978e-02 5.299335000000000573e-01 3.589850000000000207e+00 6.693259999999999366e+01 1.598994999999999891e+03
3.200000000000000067e-02 5.294100000000000472e-01 3.592264999999999819e+00 6.459395000000000664e+01 1.598389999999999873e+03
3.300000000000000155e-02 5.288275000000000059e-01 3.367259999999999920e+00 6.196049999999999613e+01 1.597724999999999909e+03
3.400000000000000244e-02 5.282089999999999286e-01 2.964485000000000259e+00 5.910119999999999862e+01 1.597009999999999991e+03
3.500000000000000333e-02 5.275845000000000118e-01 2.455074999999999896e+00 5.612969999999999970e+01 1.596255000000000109e+03
3.600000000000000422e-02 5.269854999999999956e-01 1.917719999999999647e+00 5.318560000000000088e+01 1.595505000000000109e+03
3.700000000000000511e-02 5.264394999999999492e-01 1.425640000000000018e+00 5.041295000000000215e+01 1.594779999999999973e+03
3.799999999999999906e-02 5.259684999999999500e-01 1.037725000000000009e+00 4.794209999999999638e+01 1.594125000000000000e+03
3.899999999999999994e-02 5.255879999999999441e-01 7.949250000000001037e-01 4.587685000000000457e+01 1.593549999999999955e+03
4.000000000000000083e-02 5.253039999999999932e-01 7.205799999999999983e-01 4.428879999999999484e+01 1.593085000000000036e+03
4.100000000000000172e-02 5.251200000000000312e-01 8.241499999999999382e-01 4.321760000000000446e+01 1.592739999999999782e+03
4.200000000000000261e-02 5.250344999999999596e-01 1.106314500000000089e+00 4.267614999999999981e+01 1.592525000000000091e+03
4.300000000000000350e-02 5.250440000000000662e-01 1.564030000000000031e+00 4.265794999999999959e+01 1.592440000000000055e+03
4.400000000000000439e-02 5.251445000000000141e-01 2.194364999999999899e+00 4.314539999999999509e+01 1.592485000000000127e+03
4.499999999999999833e-02 5.253339999999999677e-01 2.996348000000000233e+00 4.411589999999999634e+01 1.592659999999999854e+03
4.599999999999999922e-02 5.256085000000000340e-01 3.970704000000000011e+00 4.554569999999999652e+01 1.592954999999999927e+03
4.700000000000000011e-02 5.259654999999999747e-01 5.117942100000000494e+00 4.741055000000000064e+01 1.593360000000000127e+03
4.800000000000000100e-02 5.263999999999999790e-01 6.435691000000000273e+00 4.968449999999999989e+01 1.593875000000000000e+03
4.900000000000000189e-02 5.269070000000000142e-01 7.916151000000000160e+00 5.233700000000000330e+01 1.594500000000000000e+03
5.000000000000000278e-02 5.274790000000000312e-01 9.544689999999999230e+00 5.533095000000000141e+01 1.595215000000000146e+03
5.100000000000000366e-02 5.281055000000000055e-01 1.129933500000000102e+01 5.862105000000000388e+01 1.596009999999999991e+03
5.200000000000000455e-02 5.287760000000000238e-01 1.315192499999999853e+01 6.215424999999999756e+01 1.596875000000000000e+03
5.300000000000000544e-02 5.294775000000000453e-01 1.507019999999999982e+01 6.587170000000000414e+01 1.597804999999999836e+03
5.399999999999999939e-02 5.301979999999999471e-01 1.702002999999999844e+01 6.971174999999999500e+01 1.598769999999999982e+03
5.500000000000000028e-02 5.309260000000000090e-01 1.896819999999999951e+01 7.361350000000000193e+01 1.599760000000000218e+03
5.600000000000000117e-02 5.316505000000000258e-01 2.088469999999999871e+01 7.752100000000000080e+01 1.600775000000000091e+03
5.700000000000000205e-02 5.323639999999999484e-01 2.274419999999999931e+01 8.138595000000000823e+01 1.601785000000000082e+03
5.800000000000000294e-02 5.330615000000000769e-01 2.452725000000000222e+01 8.517024999999999579e+01 1.602789999999999964e+03
5.900000000000000383e-02 5.337380000000000457e-01 2.622029999999999816e+01 8.884780000000000655e+01 1.603775000000000091e+03
6.000000000000000472e-02 5.343934999999999658e-01 2.781550000000000011e+01 9.240285000000000082e+01 1.604735000000000127e+03
6.099999999999999867e-02 5.350274999999999892e-01 2.930984999999999729e+01 9.583070000000000732e+01 1.605670000000000073e+03
6.199999999999999956e-02 5.356414999999999926e-01 3.070449999999999946e+01 9.913604999999999734e+01 1.606575000000000045e+03
6.300000000000000044e-02 5.362389999999999102e-01 3.200359999999999872e+01 1.023298499999999933e+02 1.607460000000000036e+03
6.400000000000000133e-02 5.368230000000000501e-01 3.321325000000000216e+01 1.054282499999999914e+02 1.608320000000000164e+03
6.500000000000000222e-02 5.373965000000000547e-01 3.434094999999999942e+01 1.084505499999999927e+02 1.609159999999999854e+03
6.600000000000000311e-02 5.379635000000000389e-01 3.539435000000000286e+01 1.114159999999999968e+02 1.609990000000000009e+03
6.700000000000000400e-02 5.385265000000000191e-01 3.638070000000000448e+01 1.143425000000000011e+02 1.610805000000000064e+03
6.800000000000000488e-02 5.390880000000000116e-01 3.730599999999999739e+01 1.172435000000000116e+02 1.611610000000000127e+03
6.900000000000000577e-02 5.396490000000000453e-01 3.817475000000000307e+01 1.201304999999999978e+02 1.612414999999999964e+03
7.000000000000000666e-02 5.402095000000000091e-01 3.898910000000000053e+01 1.230060000000000002e+02 1.613210000000000036e+03
7.100000000000000755e-02 5.407679999999999154e-01 3.974890000000000612e+01 1.258689999999999998e+02 1.614009999999999991e+03
7.200000000000000844e-02 5.413229999999999986e-01 4.045180000000000575e+01 1.287100000000000080e+02 1.614799999999999955e+03
7.300000000000000933e-02 5.418699999999999628e-01 4.109335000000000093e+01 1.315144999999999982e+02 1.615575000000000045e+03
7.399999999999999634e-02 5.424050000000000260e-01 4.166745000000000232e+01 1.342640000000000100e+02 1.616345000000000027e+03
7.499999999999999722e-02 5.429249999999999909e-01 4.216705000000000325e+01 1.369360000000000070e+02 1.617095000000000027e+03
7.599999999999999811e-02 5.434240000000000181e-01 4.258480000000000132e+01 1.395060000000000002e+02 1.617820000000000164e+03
7.699999999999999900e-02 5.438969999999999638e-01 4.291344999999999743e+01 1.419490000000000123e+02 1.618514999999999873e+03
7.799999999999999989e-02 5.443405000000000049e-01 4.314665000000000106e+01 1.442420000000000186e+02 1.619170000000000073e+03
7.900000000000000078e-02 5.447509999999999852e-01 4.327925000000000466e+01 1.463640000000000043e+02 1.619784999999999854e+03
8.000000000000000167e-02 5.451249999999999707e-01 4.330760000000000076e+01 1.482984999999999900e+02 1.620355000000000018e+03
8.100000000000000255e-02 5.454600000000000559e-01 4.322979999999999734e+01 1.500310000000000059e+02 1.620865000000000009e+03
8.200000000000000344e-02 5.457560000000000189e-01 4.304605000000000103e+01 1.515534999999999854e+02 1.621324999999999818e+03
8.300000000000000433e-02 5.460114999999999830e-01 4.275815000000000055e+01 1.528619999999999948e+02 1.621735000000000127e+03
8.400000000000000522e-02 5.462265000000000592e-01 4.237004999999999910e+01 1.539579999999999984e+02 1.622079999999999927e+03
8.500000000000000611e-02 5.464040000000000008e-01 4.188759999999999906e+01 1.548464999999999918e+02 1.622380000000000109e+03
8.600000000000000699e-02 5.465444999999999887e-01 4.131820000000000448e+01 1.555374999999999943e+02 1.622615000000000009e+03
8.700000000000000788e-02 5.466509999999999980e-01 4.067105000000000103e+01 1.560450000000000159e+02 1.622809999999999945e+03
8.800000000000000877e-02 5.467279999999999918e-01 3.995659999999999457e+01 1.563860000000000241e+02 1.622949999999999818e+03
8.899999999999999578e-02 5.467774999999999164e-01 3.918640000000000612e+01 1.565790000000000077e+02 1.623049999999999955e+03
8.999999999999999667e-02 5.468039999999999567e-01 3.837270000000000181e+01 1.566465000000000032e+02 1.623110000000000127e+03
9.099999999999999756e-02 5.468129999999999935e-01 3.752819999999999823e+01 1.566109999999999900e+02 1.623134999999999991e+03
9.199999999999999845e-02 5.468064999999999731e-01 3.666519999999999868e+01 1.564945000000000164e+02 1.623139999999999873e+03
9.299999999999999933e-02 5.467904999999999571e-01 3.579570000000000363e+01 1.563189999999999884e+02 1.623119999999999891e+03
9.400000000000000022e-02 5.467670000000000030e-01 3.493059999999999832e+01 1.561050000000000182e+02 1.623085000000000036e+03
9.500000000000000111e-02 5.467400000000000038e-01 3.407920000000000016e+01 1.558694999999999879e+02 1.623039999999999964e+03
9.600000000000000200e-02 5.467119999999999758e-01 3.324915000000000020e+01 1.556290000000000191e+02 1.622990000000000009e+03
9.700000000000000289e-02 5.466845000000000176e-01 3.244620000000000459e+01 1.553935000000000173e+02 1.622934999999999945e+03
9.800000000000000377e-02 5.466584999999999361e-01 3.167364999999999853e+01 1.551705000000000041e+02 1.622880000000000109e+03
9.900000000000000466e-02 5.466345000000000232e-01 3.093289999999999651e+01 1.549639999999999986e+02 1.622829999999999927e+03
1.000000000000000056e-01 5.466119999999999868e-01 3.022309999999999874e+01 1.547729999999999961e+02 1.622775000000000091e+03
1.010000000000000064e-01 5.465889999999999915e-01 2.954169999999999874e+01 1.545939999999999941e+02 1.622730000000000018e+03
1.020000000000000073e-01 5.465659999999999963e-01 2.888465000000000060e+01 1.544194999999999993e+02 1.622674999999999955e+03
1.030000000000000082e-01 5.465400000000000258e-01 2.824669999999999703e+01 1.542400000000000091e+02 1.622625000000000000e+03
1.040000000000000091e-01 5.465090000000000225e-01 2.762170000000000059e+01 1.540455000000000041e+02 1.622569999999999936e+03
1.050000000000000100e-01 5.464704999999999702e-01 2.700334999999999752e+01 1.538240000000000123e+02 1.622509999999999991e+03
1.059999999999999970e-01 5.464229999999999920e-01 2.638510000000000133e+01 1.535645000000000095e+02 1.622440000000000055e+03
1.069999999999999979e-01 5.463644999999999197e-01 2.576080000000000325e+01 1.532549999999999955e+02 1.622355000000000018e+03
1.079999999999999988e-01 5.462930000000000286e-01 2.512509999999999977e+01 1.528874999999999886e+02 1.622259999999999991e+03
1.089999999999999997e-01 5.462080000000000268e-01 2.447334999999999994e+01 1.524524999999999864e+02 1.622150000000000091e+03
1.100000000000000006e-01 5.461084999999999967e-01 2.380230000000000246e+01 1.519465000000000146e+02 1.622019999999999982e+03
1.110000000000000014e-01 5.459939999999999793e-01 2.310989999999999966e+01 1.513650000000000091e+02 1.621869999999999891e+03
1.120000000000000023e-01 5.458650000000000446e-01 2.239555000000000007e+01 1.507099999999999795e+02 1.621704999999999927e+03
1.130000000000000032e-01 5.457224999999999993e-01 2.166015000000000157e+01 1.499834999999999923e+02 1.621519999999999982e+03
1.140000000000000041e-01 5.455680000000000529e-01 2.090605000000000047e+01 1.491920000000000073e+02 1.621315000000000055e+03
1.150000000000000050e-01 5.454029999999999712e-01 2.013705000000000211e+01 1.483430000000000177e+02 1.621099999999999909e+03
1.160000000000000059e-01 5.452299999999999924e-01 1.935820000000000007e+01 1.474474999999999909e+02 1.620869999999999891e+03
1.170000000000000068e-01 5.450515000000000221e-01 1.857570000000000121e+01 1.465184999999999889e+02 1.620625000000000000e+03
1.180000000000000077e-01 5.448709999999999942e-01 1.779630000000000223e+01 1.455705000000000098e+02 1.620380000000000109e+03
1.190000000000000085e-01 5.446904999999999664e-01 1.702759999999999962e+01 1.446185000000000116e+02 1.620125000000000000e+03
1.200000000000000094e-01 5.445130000000000248e-01 1.627720000000000056e+01 1.436775000000000091e+02 1.619875000000000000e+03
1.209999999999999964e-01 5.443419999999999925e-01 1.555289999999999928e+01 1.427624999999999886e+02 1.619630000000000109e+03
1.219999999999999973e-01 5.441789999999999683e-01 1.486186999999999969e+01 1.418890000000000100e+02 1.619389999999999873e+03
1.229999999999999982e-01 5.440279999999999561e-01 1.421081500000000020e+01 1.410685000000000002e+02 1.619164999999999964e+03
1.239999999999999991e-01 5.438889999999999558e-01 1.360536499999999904e+01 1.403129999999999882e+02 1.618949999999999818e+03
1.250000000000000000e-01 5.437650000000000539e-01 1.305016999999999960e+01 1.396299999999999955e+02 1.618755000000000109e+03
1.260000000000000009e-01 5.436564999999999870e-01 1.254847499999999982e+01 1.390274999999999750e+02 1.618575000000000045e+03
1.270000000000000018e-01 5.435634999999999772e-01 1.210225499999999954e+01 1.385079999999999814e+02 1.618425000000000182e+03
1.280000000000000027e-01 5.434864999999999835e-01 1.171199999999999974e+01 1.380720000000000027e+02 1.618289999999999964e+03
1.290000000000000036e-01 5.434244999999999770e-01 1.137679999999999936e+01 1.377189999999999941e+02 1.618174999999999955e+03
1.300000000000000044e-01 5.433764999999999290e-01 1.109453000000000067e+01 1.374424999999999955e+02 1.618079999999999927e+03
1.310000000000000053e-01 5.433414999999999218e-01 1.086181500000000000e+01 1.372384999999999877e+02 1.618005000000000109e+03
1.320000000000000062e-01 5.433175000000000088e-01 1.067454999999999998e+01 1.370969999999999800e+02 1.617950000000000045e+03
1.330000000000000071e-01 5.433025000000000215e-01 1.052773499999999984e+01 1.370090000000000146e+02 1.617909999999999854e+03
1.340000000000000080e-01 5.432949999999999724e-01 1.041591000000000022e+01 1.369650000000000034e+02 1.617875000000000000e+03
1.350000000000000089e-01 5.432930000000000259e-01 1.033359000000000094e+01 1.369534999999999911e+02 1.617860000000000127e+03
1.360000000000000098e-01 5.432940000000000547e-01 1.027498999999999896e+01 1.369655000000000200e+02 1.617849999999999909e+03
1.370000000000000107e-01 5.432970000000000299e-01 1.023479999999999990e+01 1.369904999999999973e+02 1.617845000000000027e+03
1.380000000000000115e-01 5.433000000000000052e-01 1.020790500000000023e+01 1.370204999999999984e+02 1.617840000000000146e+03
1.390000000000000124e-01 5.433019999999999516e-01 1.018978500000000054e+01 1.370475000000000136e+02 1.617840000000000146e+03
1.400000000000000133e-01 5.433025000000000215e-01 1.017650000000000077e+01 1.370670000000000073e+02 1.617840000000000146e+03
1.410000000000000142e-01 5.432994999999999353e-01 1.016477000000000075e+01 1.370729999999999791e+02 1.617835000000000036e+03
1.420000000000000151e-01 5.432939999999999436e-01 1.015203500000000147e+01 1.370635000000000048e+02 1.617829999999999927e+03
1.430000000000000160e-01 5.432850000000000179e-01 1.013632000000000133e+01 1.370364999999999895e+02 1.617820000000000164e+03
1.440000000000000169e-01 5.432734999999999648e-01 1.011634499999999903e+01 1.369919999999999902e+02 1.617805000000000064e+03
1.450000000000000178e-01 5.432584999999999775e-01 1.009150999999999954e+01 1.369320000000000164e+02 1.617795000000000073e+03
1.459999999999999909e-01 5.432414999999999328e-01 1.006165500000000002e+01 1.368564999999999827e+02 1.617775000000000091e+03
1.469999999999999918e-01 5.432224999999999415e-01 1.002694500000000133e+01 1.367694999999999936e+02 1.617744999999999891e+03
1.479999999999999927e-01 5.432019999999999627e-01 9.988144999999999385e+00 1.366734999999999900e+02 1.617724999999999909e+03
1.489999999999999936e-01 5.431810000000000249e-01 9.946100000000001273e+00 1.365720000000000027e+02 1.617695000000000164e+03
1.499999999999999944e-01 5.431599999999999762e-01 9.901925000000000310e+00 1.364685000000000059e+02 1.617670000000000073e+03
1.509999999999999953e-01 5.431394999999999973e-01 9.856635000000000701e+00 1.363654999999999973e+02 1.617644999999999982e+03
1.519999999999999962e-01 5.431200000000000472e-01 9.811444999999999084e+00 1.362665000000000077e+02 1.617619999999999891e+03
1.529999999999999971e-01 5.431025000000000436e-01 9.767324999999999591e+00 1.361734999999999900e+02 1.617594999999999800e+03
1.539999999999999980e-01 5.430865000000000276e-01 9.725210000000000576e+00 1.360894999999999868e+02 1.617569999999999936e+03
1.549999999999999989e-01 5.430719999999999992e-01 9.685705000000000453e+00 1.360140000000000100e+02 1.617549999999999955e+03
1.559999999999999998e-01 5.430599999999999872e-01 9.649274999999999380e+00 1.359484999999999957e+02 1.617529999999999973e+03
1.570000000000000007e-01 5.430494999999999628e-01 9.616035000000000110e+00 1.358930000000000007e+02 1.617519999999999982e+03
1.580000000000000016e-01 5.430409999999999959e-01 9.585985000000000866e+00 1.358460000000000036e+02 1.617500000000000000e+03
1.590000000000000024e-01 5.430340000000000167e-01 9.558804999999999552e+00 1.358070000000000164e+02 1.617490000000000009e+03
