# t [s], A [cm^2], U [cm/s], P [cPa], c [cm/s]
1.000000000000000021e-03 2.073920000000000208e-01 2.141659999999999675e-01 9.578539999999999566e+01 2.065510000000000218e+03
2.000000000000000042e-03 2.073440000000000005e-01 1.612625999999999893e+00 9.283680000000001087e+01 2.065140000000000327e+03
3.000000000000000062e-03 2.072039999999999993e-01 3.389570500000000042e+00 8.864039999999999964e+01 2.064105000000000018e+03
4.000000000000000083e-03 2.070049999999999946e-01 5.407008749999999253e+00 8.387444999999999595e+01 2.062659999999999854e+03
5.000000000000000104e-03 2.067869999999999986e-01 7.601815000000000211e+00 7.941379999999999484e+01 2.061090000000000146e+03
6.000000000000000125e-03 2.065744999999999942e-01 9.825344999999998663e+00 7.566769999999999641e+01 2.059579999999999927e+03
7.000000000000000146e-03 2.063750000000000029e-01 1.186122999999999905e+01 7.249830000000000041e+01 2.058179999999999836e+03
8.000000000000000167e-03 2.061904999999999988e-01 1.358704000000000001e+01 6.964994999999998981e+01 2.056920000000000073e+03
9.000000000000001055e-03 2.060265000000000013e-01 1.502014999999999922e+01 6.712669999999999959e+01 2.055814999999999600e+03
1.000000000000000194e-02 2.058865000000000001e-01 1.620230000000000103e+01 6.502575000000000216e+01 2.054875000000000000e+03
1.099999999999999936e-02 2.057709999999999817e-01 1.715504999999999924e+01 6.335880000000000223e+01 2.054119999999999891e+03
1.200000000000000025e-02 2.056800000000000017e-01 1.789720000000000155e+01 6.208529999999999660e+01 2.053524999999999636e+03
1.300000000000000114e-02 2.056089999999999862e-01 1.843759999999999977e+01 6.112564999999999316e+01 2.053070000000000164e+03
1.400000000000000203e-02 2.055524999999999991e-01 1.877629999999999910e+01 6.035219999999999629e+01 2.052719999999999800e+03
1.499999999999999944e-02 2.055069999999999952e-01 1.894614999999999938e+01 5.968430000000000035e+01 2.052440000000000055e+03
1.600000000000000033e-02 2.054730000000000167e-01 1.904970000000000141e+01 5.922710000000000008e+01 2.052235000000000127e+03
1.700000000000000122e-02 2.054595000000000171e-01 1.923624999999999829e+01 5.927894999999999470e+01 2.052159999999999854e+03
1.800000000000000211e-02 2.054769999999999930e-01 1.962979999999999947e+01 6.016415000000000646e+01 2.052289999999999964e+03
1.900000000000000300e-02 2.055319999999999925e-01 2.026160000000000139e+01 6.201215000000000543e+01 2.052655000000000200e+03
2.000000000000000042e-02 2.056204999999999838e-01 2.105015000000000214e+01 6.463439999999999941e+01 2.053244999999999891e+03
2.100000000000000130e-02 2.057285000000000086e-01 2.183549999999999969e+01 6.756369999999999720e+01 2.053974999999999909e+03
2.200000000000000219e-02 2.058395000000000086e-01 2.244294999999999973e+01 7.021899999999999409e+01 2.054724999999999909e+03
2.299999999999999961e-02 2.059325000000000183e-01 2.274564999999999770e+01 7.210804999999999154e+01 2.055380000000000109e+03
2.400000000000000050e-02 2.059954999999999981e-01 2.270190000000000197e+01 7.297919999999999163e+01 2.055835000000000036e+03
2.500000000000000139e-02 2.060244999999999993e-01 2.235779999999999745e+01 7.287385000000000446e+01 2.056054999999999836e+03
2.600000000000000228e-02 2.060234999999999983e-01 2.181815000000000282e+01 7.207099999999999795e+01 2.056070000000000164e+03
2.700000000000000316e-02 2.060025000000000051e-01 2.120260000000000034e+01 7.095855000000000246e+01 2.055949999999999818e+03
2.800000000000000058e-02 2.059739999999999904e-01 2.060334999999999894e+01 6.988840000000000430e+01 2.055764999999999873e+03
2.900000000000000147e-02 2.059460000000000179e-01 2.006024999999999991e+01 6.906809999999998695e+01 2.055574999999999818e+03
3.000000000000000236e-02 2.059234999999999816e-01 1.955805000000000149e+01 6.852025000000000432e+01 2.055420000000000073e+03
3.099999999999999978e-02 2.059044999999999903e-01 1.904339999999999833e+01 6.811140000000000327e+01 2.055289999999999964e+03
3.200000000000000067e-02 2.058834999999999971e-01 1.845255000000000223e+01 6.762999999999999545e+01 2.055144999999999982e+03
3.300000000000000155e-02 2.058554999999999968e-01 1.774094999999999800e+01 6.688245000000000573e+01 2.054965000000000146e+03
3.400000000000000244e-02 2.058154999999999846e-01 1.690455000000000041e+01 6.577655000000000030e+01 2.054699999999999818e+03
3.500000000000000333e-02 2.057634999999999881e-01 1.598864999999999981e+01 6.436780000000000257e+01 2.054359999999999673e+03
3.600000000000000422e-02 2.057045000000000123e-01 1.507904999999999873e+01 6.285545000000000471e+01 2.053969999999999800e+03
3.700000000000000511e-02 2.056475000000000108e-01 1.428154999999999930e+01 6.153059999999999263e+01 2.053585000000000036e+03
3.799999999999999906e-02 2.056034999999999946e-01 1.369364999999999988e+01 6.069415000000000049e+01 2.053275000000000091e+03
3.899999999999999994e-02 2.055810000000000137e-01 1.337940000000000040e+01 6.057204999999999728e+01 2.053110000000000127e+03
4.000000000000000083e-02 2.055865000000000054e-01 1.335409999999999897e+01 6.125345000000000084e+01 2.053130000000000109e+03
4.100000000000000172e-02 2.056215000000000126e-01 1.358109999999999928e+01 6.266720000000000113e+01 2.053340000000000146e+03
4.200000000000000261e-02 2.056804999999999883e-01 1.398124999999999929e+01 6.459900000000000375e+01 2.053720000000000255e+03
4.300000000000000350e-02 2.057555000000000078e-01 1.444995000000000118e+01 6.673975000000000080e+01 2.054215000000000146e+03
4.400000000000000439e-02 2.058345000000000036e-01 1.487725000000000009e+01 6.874869999999999948e+01 2.054739999999999782e+03
4.499999999999999833e-02 2.059055000000000191e-01 1.516535000000000011e+01 7.031550000000000011e+01 2.055225000000000364e+03
4.599999999999999922e-02 2.059580000000000022e-01 1.524210000000000065e+01 7.120815000000000339e+01 2.055590000000000146e+03
4.700000000000000011e-02 2.059845000000000148e-01 1.506654999999999944e+01 7.129885000000000161e+01 2.055779999999999745e+03
4.800000000000000100e-02 2.059805000000000108e-01 1.462910000000000110e+01 7.056710000000001060e+01 2.055764999999999873e+03
4.900000000000000189e-02 2.059460000000000179e-01 1.394575000000000031e+01 6.908310000000000173e+01 2.055554999999999836e+03
5.000000000000000278e-02 2.058834999999999971e-01 1.305004999999999882e+01 6.697889999999999588e+01 2.055139999999999873e+03
5.100000000000000366e-02 2.057964999999999933e-01 1.198454000000000086e+01 6.441610000000000014e+01 2.054570000000000164e+03
5.200000000000000455e-02 2.056919999999999860e-01 1.079388499999999951e+01 6.155780000000000030e+01 2.053864999999999782e+03
5.300000000000000544e-02 2.055744999999999933e-01 9.520504999999999995e+00 5.854939999999999856e+01 2.053079999999999927e+03
5.399999999999999939e-02 2.054495000000000071e-01 8.203215000000000146e+00 5.551090000000000657e+01 2.052239999999999782e+03
5.500000000000000028e-02 2.053224999999999911e-01 6.877855000000000274e+00 5.253750000000000142e+01 2.051384999999999764e+03
5.600000000000000117e-02 2.051965000000000039e-01 5.579225000000000101e+00 4.970754999999999768e+01 2.050529999999999745e+03
5.700000000000000205e-02 2.050759999999999805e-01 4.342880000000000074e+00 4.709154999999999802e+01 2.049715000000000146e+03
5.800000000000000294e-02 2.049635000000000207e-01 3.206615999999999911e+00 4.476080000000000325e+01 2.048945000000000164e+03
5.900000000000000383e-02 2.048629999999999896e-01 2.210473499999999980e+00 4.279219999999999402e+01 2.048260000000000218e+03
6.000000000000000472e-02 2.047785000000000022e-01 1.395504999999999995e+00 4.126814999999999856e+01 2.047680000000000064e+03
6.099999999999999867e-02 2.047134999999999927e-01 8.015560000000001573e-01 4.027264999999999873e+01 2.047224999999999909e+03
6.199999999999999956e-02 2.046704999999999774e-01 4.643174999999999386e-01 3.988434999999999775e+01 2.046925000000000182e+03
6.300000000000000044e-02 2.046545000000000170e-01 4.123985000000000012e-01 4.016795000000000471e+01 2.046789999999999964e+03
6.400000000000000133e-02 2.046675000000000022e-01 6.647933499999999496e-01 4.116655000000000086e+01 2.046855000000000018e+03
6.500000000000000222e-02 2.047104999999999897e-01 1.229205850000000044e+00 4.289629999999999654e+01 2.047125000000000000e+03
6.600000000000000311e-02 2.047845000000000082e-01 2.101377000000000272e+00 4.534309999999999974e+01 2.047599999999999909e+03
6.700000000000000400e-02 2.048885000000000012e-01 3.265411499999999911e+00 4.846365000000000123e+01 2.048279999999999745e+03
6.800000000000000488e-02 2.050210000000000088e-01 4.694984999999999964e+00 5.218815000000000026e+01 2.049150000000000091e+03
6.900000000000000577e-02 2.051790000000000003e-01 6.355179999999999829e+00 5.642589999999999861e+01 2.050204999999999927e+03
7.000000000000000666e-02 2.053590000000000138e-01 8.204575000000000173e+00 6.107144999999999868e+01 2.051405000000000200e+03
7.100000000000000755e-02 2.055569999999999897e-01 1.019799000000000078e+01 6.601175000000000637e+01 2.052734999999999673e+03
7.200000000000000844e-02 2.057680000000000065e-01 1.228848999999999947e+01 7.113315000000000055e+01 2.054154999999999745e+03
7.300000000000000933e-02 2.059874999999999901e-01 1.443021500000000046e+01 7.632784999999999798e+01 2.055639999999999873e+03
7.399999999999999634e-02 2.062109999999999776e-01 1.658030000000000115e+01 8.149940000000000850e+01 2.057164999999999964e+03
7.499999999999999722e-02 2.064354999999999940e-01 1.870104999999999862e+01 8.656784999999999286e+01 2.058690000000000055e+03
7.599999999999999811e-02 2.066565000000000207e-01 2.076125000000000043e+01 9.147235000000000582e+01 2.060204999999999927e+03
7.699999999999999900e-02 2.068720000000000003e-01 2.273730000000000118e+01 9.617410000000000991e+01 2.061684999999999945e+03
7.799999999999999989e-02 2.070805000000000007e-01 2.461339999999999861e+01 1.006556500000000085e+02 2.063125000000000000e+03
7.900000000000000078e-02 2.072815000000000074e-01 2.638159999999999883e+01 1.049183999999999912e+02 2.064510000000000218e+03
8.000000000000000167e-02 2.074745000000000061e-01 2.804054999999999964e+01 1.089809999999999945e+02 2.065844999999999800e+03
8.100000000000000255e-02 2.076594999999999969e-01 2.959455000000000169e+01 1.128739999999999952e+02 2.067135000000000218e+03
8.200000000000000344e-02 2.078389999999999960e-01 3.105160000000000053e+01 1.166355000000000075e+02 2.068380000000000109e+03
8.300000000000000433e-02 2.080130000000000035e-01 3.242204999999999870e+01 1.203029999999999973e+02 2.069590000000000146e+03
8.400000000000000522e-02 2.081840000000000079e-01 3.371685000000000088e+01 1.239130000000000109e+02 2.070779999999999745e+03
8.500000000000000611e-02 2.083524999999999960e-01 3.494579999999999842e+01 1.274945000000000022e+02 2.071954999999999927e+03
8.600000000000000699e-02 2.085190000000000099e-01 3.611699999999999733e+01 1.310660000000000025e+02 2.073119999999999891e+03
8.700000000000000788e-02 2.086850000000000094e-01 3.723584999999999923e+01 1.346355000000000075e+02 2.074280000000000200e+03
8.800000000000000877e-02 2.088504999999999945e-01 3.830445000000000277e+01 1.382005000000000052e+02 2.075430000000000291e+03
8.899999999999999578e-02 2.090154999999999930e-01 3.932200000000000273e+01 1.417470000000000141e+02 2.076579999999999927e+03
8.999999999999999667e-02 2.091780000000000028e-01 4.028464999999999918e+01 1.452529999999999859e+02 2.077720000000000255e+03
9.099999999999999756e-02 2.093389999999999973e-01 4.118599999999999994e+01 1.486890000000000214e+02 2.078845000000000255e+03
9.199999999999999845e-02 2.094965000000000022e-01 4.201749999999999829e+01 1.520215000000000032e+02 2.079944999999999709e+03
9.299999999999999933e-02 2.096485000000000154e-01 4.276950000000000074e+01 1.552139999999999986e+02 2.081010000000000218e+03
9.400000000000000022e-02 2.097944999999999949e-01 4.343115000000000236e+01 1.582289999999999850e+02 2.082034999999999854e+03
9.500000000000000111e-02 2.099320000000000075e-01 4.399164999999999992e+01 1.610310000000000059e+02 2.083005000000000109e+03
9.600000000000000200e-02 2.100600000000000245e-01 4.444075000000000131e+01 1.635869999999999891e+02 2.083909999999999854e+03
9.700000000000000289e-02 2.101780000000000037e-01 4.476899999999999835e+01 1.658689999999999998e+02 2.084744999999999891e+03
9.800000000000000377e-02 2.102829999999999977e-01 4.496880000000000166e+01 1.678534999999999968e+02 2.085489999999999782e+03
9.900000000000000466e-02 2.103760000000000074e-01 4.503454999999999586e+01 1.695235000000000127e+02 2.086150000000000091e+03
1.000000000000000056e-01 2.104544999999999888e-01 4.496314999999999884e+01 1.708694999999999879e+02 2.086710000000000036e+03
1.010000000000000064e-01 2.105195000000000261e-01 4.475464999999999804e+01 1.718894999999999982e+02 2.087179999999999836e+03
1.020000000000000073e-01 2.105699999999999794e-01 4.441190000000000282e+01 1.725900000000000034e+02 2.087545000000000073e+03
1.030000000000000082e-01 2.106069999999999887e-01 4.394120000000000203e+01 1.729845000000000255e+02 2.087815000000000055e+03
1.040000000000000091e-01 2.106310000000000127e-01 4.335155000000000314e+01 1.730944999999999823e+02 2.087994999999999891e+03
1.050000000000000100e-01 2.106414999999999815e-01 4.265500000000000114e+01 1.729490000000000123e+02 2.088079999999999927e+03
1.059999999999999970e-01 2.106415000000000093e-01 4.186565000000000225e+01 1.725790000000000077e+02 2.088090000000000146e+03
1.069999999999999979e-01 2.106319999999999859e-01 4.099934999999999974e+01 1.720235000000000127e+02 2.088034999999999854e+03
1.079999999999999988e-01 2.106135000000000090e-01 4.007304999999999495e+01 1.713199999999999932e+02 2.087914999999999964e+03
1.089999999999999997e-01 2.105885000000000118e-01 3.910394999999999754e+01 1.705079999999999814e+02 2.087744999999999891e+03
1.100000000000000006e-01 2.105579999999999952e-01 3.810895000000000010e+01 1.696239999999999952e+02 2.087539999999999964e+03
1.110000000000000014e-01 2.105239999999999889e-01 3.710415000000000418e+01 1.687035000000000196e+02 2.087305000000000291e+03
1.120000000000000023e-01 2.104880000000000084e-01 3.610379999999999967e+01 1.677760000000000105e+02 2.087055000000000291e+03
1.130000000000000032e-01 2.104504999999999848e-01 3.512049999999999983e+01 1.668659999999999854e+02 2.086800000000000182e+03
1.140000000000000041e-01 2.104139999999999899e-01 3.416440000000000055e+01 1.659939999999999998e+02 2.086539999999999964e+03
1.150000000000000050e-01 2.103780000000000094e-01 3.324325000000000330e+01 1.651719999999999970e+02 2.086284999999999854e+03
1.160000000000000059e-01 2.103435000000000166e-01 3.236200000000000188e+01 1.644074999999999989e+02 2.086039999999999964e+03
1.170000000000000068e-01 2.103105000000000113e-01 3.152300000000000324e+01 1.637004999999999768e+02 2.085809999999999945e+03
1.180000000000000077e-01 2.102800000000000225e-01 3.072595000000000098e+01 1.630469999999999970e+02 2.085590000000000146e+03
1.190000000000000085e-01 2.102505000000000068e-01 2.996829999999999927e+01 1.624370000000000118e+02 2.085380000000000109e+03
1.200000000000000094e-01 2.102229999999999932e-01 2.924519999999999698e+01 1.618555000000000064e+02 2.085184999999999945e+03
1.209999999999999964e-01 2.101954999999999796e-01 2.855015000000000214e+01 1.612849999999999966e+02 2.084994999999999891e+03
1.219999999999999973e-01 2.101689999999999947e-01 2.787539999999999907e+01 1.607055000000000007e+02 2.084800000000000182e+03
1.229999999999999982e-01 2.101415000000000088e-01 2.721229999999999905e+01 1.600960000000000036e+02 2.084605000000000018e+03
1.239999999999999991e-01 2.101125000000000076e-01 2.655194999999999794e+01 1.594350000000000023e+02 2.084399999999999636e+03
1.250000000000000000e-01 2.100815000000000043e-01 2.588555000000000206e+01 1.587024999999999864e+02 2.084180000000000291e+03
1.260000000000000009e-01 2.100469999999999837e-01 2.520499999999999829e+01 1.578824999999999932e+02 2.083934999999999945e+03
1.270000000000000018e-01 2.100084999999999869e-01 2.450345000000000084e+01 1.569594999999999914e+02 2.083670000000000073e+03
1.280000000000000027e-01 2.099654999999999994e-01 2.377554999999999907e+01 1.559239999999999782e+02 2.083375000000000000e+03
1.290000000000000036e-01 2.099189999999999945e-01 2.301784999999999926e+01 1.547710000000000150e+02 2.083045000000000073e+03
1.300000000000000044e-01 2.098665000000000114e-01 2.222889999999999944e+01 1.535009999999999764e+02 2.082684999999999945e+03
1.310000000000000053e-01 2.098095000000000099e-01 2.140954999999999941e+01 1.521189999999999998e+02 2.082284999999999854e+03
1.320000000000000062e-01 2.097475000000000034e-01 2.056279999999999930e+01 1.506379999999999768e+02 2.081859999999999673e+03
1.330000000000000071e-01 2.096815000000000206e-01 1.969389999999999930e+01 1.490729999999999791e+02 2.081400000000000091e+03
1.340000000000000080e-01 2.096125000000000071e-01 1.880979999999999919e+01 1.474445000000000050e+02 2.080920000000000073e+03
1.350000000000000089e-01 2.095404999999999907e-01 1.791925000000000168e+01 1.457764999999999986e+02 2.080420000000000073e+03
1.360000000000000098e-01 2.094670000000000143e-01 1.703209999999999980e+01 1.440955000000000155e+02 2.079909999999999854e+03
1.370000000000000107e-01 2.093929999999999958e-01 1.615899999999999892e+01 1.424279999999999973e+02 2.079394999999999982e+03
1.380000000000000115e-01 2.093194999999999917e-01 1.531064999999999898e+01 1.408025000000000091e+02 2.078885000000000218e+03
1.390000000000000124e-01 2.092475000000000029e-01 1.449765000000000015e+01 1.392445000000000164e+02 2.078380000000000109e+03
1.400000000000000133e-01 2.091784999999999894e-01 1.372969999999999935e+01 1.377769999999999868e+02 2.077899999999999636e+03
1.410000000000000142e-01 2.091135000000000077e-01 1.301549999999999940e+01 1.364205000000000041e+02 2.077444999999999709e+03
1.420000000000000151e-01 2.090525000000000022e-01 1.236204999999999998e+01 1.351914999999999907e+02 2.077019999999999982e+03
1.430000000000000160e-01 2.089975000000000027e-01 1.177468000000000004e+01 1.340995000000000061e+02 2.076630000000000109e+03
1.440000000000000169e-01 2.089475000000000082e-01 1.125663499999999928e+01 1.331519999999999868e+02 2.076279999999999745e+03
1.450000000000000178e-01 2.089044999999999930e-01 1.080931500000000156e+01 1.323495000000000061e+02 2.075970000000000255e+03
1.459999999999999909e-01 2.088665000000000105e-01 1.043203499999999906e+01 1.316884999999999764e+02 2.075699999999999818e+03
1.469999999999999918e-01 2.088349999999999929e-01 1.012237499999999990e+01 1.311614999999999895e+02 2.075475000000000364e+03
1.479999999999999927e-01 2.088090000000000224e-01 9.876364999999999839e+00 1.307570000000000050e+02 2.075289999999999964e+03
1.489999999999999936e-01 2.087880000000000014e-01 9.688639999999999475e+00 1.304625000000000057e+02 2.075139999999999873e+03
1.499999999999999944e-01 2.087720000000000131e-01 9.552834999999999965e+00 1.302615000000000123e+02 2.075019999999999982e+03
1.509999999999999953e-01 2.087600000000000011e-01 9.461895000000000167e+00 1.301374999999999886e+02 2.074929999999999836e+03
1.519999999999999962e-01 2.087519999999999931e-01 9.408274999999999721e+00 1.300734999999999957e+02 2.074869999999999891e+03
1.529999999999999971e-01 2.087459999999999871e-01 9.384325000000000472e+00 1.300529999999999973e+02 2.074824999999999818e+03
1.539999999999999980e-01 2.087419999999999831e-01 9.382735000000000269e+00 1.300610000000000070e+02 2.074795000000000073e+03
1.549999999999999989e-01 2.087394999999999945e-01 9.396280000000000854e+00 1.300819999999999936e+02 2.074769999999999982e+03
1.559999999999999998e-01 2.087384999999999935e-01 9.418579999999998620e+00 1.301055000000000064e+02 2.074760000000000218e+03
1.570000000000000007e-01 2.087375000000000203e-01 9.443794999999999717e+00 1.301189999999999998e+02 2.074750000000000000e+03
1.580000000000000016e-01 2.087360000000000049e-01 9.467064999999999841e+00 1.301154999999999973e+02 2.074744999999999891e+03
1.590000000000000024e-01 2.087340000000000029e-01 9.484410000000000451e+00 1.300885000000000105e+02 2.074730000000000018e+03
