# t [s], A [cm^2], U [cm/s], P [cPa], c [cm/s]
1.000000000000000021e-03 7.807790000000000008e-01 5.895149999999994839e-03 9.975499999999999545e+01 1.640659999999999854e+03
2.000000000000000042e-03 7.807644999999999724e-01 -4.424159999999999898e-03 9.972440000000000282e+01 1.640654999999999973e+03
3.000000000000000062e-03 7.808250000000001023e-01 8.220439999999999692e-02 9.981850000000000023e+01 1.640680000000000064e+03
4.000000000000000083e-03 7.808869999999999978e-01 1.838870499999999963e-01 9.994509999999999650e+01 1.640710000000000036e+03
5.000000000000000104e-03 7.808610000000000273e-01 1.703554999999999930e-01 9.990205000000000268e+01 1.640700000000000045e+03
6.000000000000000125e-03 7.807775000000000132e-01 7.259700000000002262e-02 9.968514999999999304e+01 1.640650000000000091e+03
7.000000000000000146e-03 7.807089999999999863e-01 -1.156249999999997558e-02 9.941999999999998749e+01 1.640590000000000146e+03
8.000000000000000167e-03 7.806109999999999438e-01 -1.508189999999999809e-01 9.904635000000000389e+01 1.640500000000000000e+03
9.000000000000001055e-03 7.804425000000000390e-01 -4.110150000000000192e-01 9.846600000000000819e+01 1.640369999999999891e+03
1.000000000000000194e-02 7.802014999999999922e-01 -7.931499999999999106e-01 9.764085000000000036e+01 1.640175000000000182e+03
1.099999999999999936e-02 7.798680000000000057e-01 -1.317359999999999864e+00 9.650845000000001050e+01 1.639909999999999854e+03
1.200000000000000025e-02 7.794224999999999071e-01 -1.998114999999999863e+00 9.500450000000000728e+01 1.639549999999999955e+03
1.300000000000000114e-02 7.788945000000000451e-01 -2.768145000000000078e+00 9.316804999999999382e+01 1.639105000000000018e+03
1.400000000000000203e-02 7.783655000000000435e-01 -3.478314999999999824e+00 9.117164999999999964e+01 1.638605000000000018e+03
1.499999999999999944e-02 7.779150000000000231e-01 -3.973628000000000160e+00 8.923964999999999748e+01 1.638105000000000018e+03
1.600000000000000033e-02 7.775790000000000202e-01 -4.165809000000000317e+00 8.753919999999999391e+01 1.637634999999999991e+03
1.700000000000000122e-02 7.773425000000000473e-01 -4.055978500000000153e+00 8.612369999999999948e+01 1.637220000000000027e+03
1.800000000000000211e-02 7.771535000000000526e-01 -3.714444999999999997e+00 8.493534999999999968e+01 1.636849999999999909e+03
1.900000000000000300e-02 7.769534999999999636e-01 -3.241090000000000249e+00 8.384839999999999804e+01 1.636500000000000000e+03
2.000000000000000042e-02 7.766949999999999132e-01 -2.725531999999999844e+00 8.272620000000000573e+01 1.636139999999999873e+03
2.100000000000000130e-02 7.763599999999999390e-01 -2.218928500000000081e+00 8.147159999999999513e+01 1.635759999999999991e+03
2.200000000000000219e-02 7.759589999999999543e-01 -1.724804999999999922e+00 8.005619999999998981e+01 1.635335000000000036e+03
2.299999999999999961e-02 7.755239999999999911e-01 -1.210265000000000146e+00 7.851830000000001064e+01 1.634884999999999991e+03
2.400000000000000050e-02 7.750900000000000567e-01 -6.310350000000000126e-01 7.693514999999999304e+01 1.634420000000000073e+03
2.500000000000000139e-02 7.746820000000000928e-01 4.177000000000008484e-02 7.538384999999999536e+01 1.633960000000000036e+03
2.600000000000000228e-02 7.743039999999999923e-01 8.035699999999998955e-01 7.390690000000000737e+01 1.633509999999999991e+03
2.700000000000000316e-02 7.739395000000000024e-01 1.611464999999999925e+00 7.249369999999998981e+01 1.633075000000000045e+03
2.800000000000000058e-02 7.735560000000000214e-01 2.391589999999999883e+00 7.108079999999999643e+01 1.632644999999999982e+03
2.900000000000000147e-02 7.731135000000000090e-01 3.055305000000000160e+00 6.956735000000000468e+01 1.632190000000000055e+03
3.000000000000000236e-02 7.725789999999999047e-01 3.519705000000000084e+00 6.784235000000001037e+01 1.631690000000000055e+03
3.099999999999999978e-02 7.719319999999999515e-01 3.727689999999999504e+00 6.581685000000000230e+01 1.631125000000000000e+03
3.200000000000000067e-02 7.711740000000000261e-01 3.662120000000000264e+00 6.345139999999999958e+01 1.630490000000000009e+03
3.300000000000000155e-02 7.703290000000000415e-01 3.349974999999999703e+00 6.077174999999999727e+01 1.629775000000000091e+03
3.400000000000000244e-02 7.694395000000000540e-01 2.854459999999999553e+00 5.786714999999999520e+01 1.629009999999999991e+03
3.500000000000000333e-02 7.685550000000000992e-01 2.260015000000000107e+00 5.487375000000000114e+01 1.628210000000000036e+03
3.600000000000000422e-02 7.677240000000000730e-01 1.654384999999999994e+00 5.194924999999999926e+01 1.627420000000000073e+03
3.700000000000000511e-02 7.669880000000000031e-01 1.114349999999999952e+00 4.924804999999999922e+01 1.626679999999999836e+03
3.799999999999999906e-02 7.663744999999999585e-01 6.971500000000001585e-01 4.690085000000000548e+01 1.626009999999999991e+03
3.899999999999999994e-02 7.659000000000000252e-01 4.380800000000002470e-01 4.500370000000000203e+01 1.625454999999999927e+03
4.000000000000000083e-02 7.655689999999999440e-01 3.529299999999999660e-01 4.361435000000000173e+01 1.625014999999999873e+03
4.100000000000000172e-02 7.653799999999999493e-01 4.434100000000000819e-01 4.275579999999999359e+01 1.624715000000000146e+03
4.200000000000000261e-02 7.653259999999999508e-01 7.038769999999999749e-01 4.242450000000000188e+01 1.624549999999999955e+03
4.300000000000000350e-02 7.653989999999999405e-01 1.127377500000000143e+00 4.260060000000000002e+01 1.624529999999999973e+03
4.400000000000000439e-02 7.655925000000000091e-01 1.709873999999999894e+00 4.325750000000000028e+01 1.624630000000000109e+03
4.499999999999999833e-02 7.659024999999999306e-01 2.451677000000000106e+00 4.436849999999999739e+01 1.624865000000000009e+03
4.599999999999999922e-02 7.663245000000000751e-01 3.356208500000000150e+00 4.590989999999999327e+01 1.625219999999999800e+03
4.700000000000000011e-02 7.668569999999998998e-01 4.426900499999999461e+00 4.786025000000000063e+01 1.625695000000000164e+03
4.800000000000000100e-02 7.674940000000000095e-01 5.663419499999999829e+00 5.019650000000000034e+01 1.626269999999999982e+03
4.900000000000000189e-02 7.682275000000000631e-01 7.058652350000000020e+00 5.289034999999999798e+01 1.626949999999999818e+03
5.000000000000000278e-02 7.690464999999999662e-01 8.596843999999999042e+00 5.590480000000000160e+01 1.627724999999999909e+03
5.100000000000000366e-02 7.699354999999999949e-01 1.025377500000000097e+01 5.919284999999999997e+01 1.628579999999999927e+03
5.200000000000000455e-02 7.708770000000000344e-01 1.199850499999999975e+01 6.269825000000000159e+01 1.629505000000000109e+03
5.300000000000000544e-02 7.718525000000000524e-01 1.379591500000000082e+01 6.635824999999999818e+01 1.630480000000000018e+03
5.399999999999999939e-02 7.728424999999999878e-01 1.560972999999999900e+01 7.010784999999999911e+01 1.631490000000000009e+03
5.500000000000000028e-02 7.738315000000000055e-01 1.740594000000000108e+01 7.388425000000000864e+01 1.632514999999999873e+03
5.600000000000000117e-02 7.748055000000000359e-01 1.915480000000000160e+01 7.763110000000000355e+01 1.633550000000000182e+03
5.700000000000000205e-02 7.757540000000000546e-01 2.083269999999999911e+01 8.130215000000001169e+01 1.634575000000000045e+03
5.800000000000000294e-02 7.766705000000000414e-01 2.242255000000000109e+01 8.486305000000000121e+01 1.635575000000000045e+03
5.900000000000000383e-02 7.775514999999999510e-01 2.391410000000000124e+01 8.829234999999999900e+01 1.636554999999999836e+03
6.000000000000000472e-02 7.783975000000000755e-01 2.530259999999999820e+01 9.158015000000000327e+01 1.637500000000000000e+03
6.099999999999999867e-02 7.792099999999999582e-01 2.658820000000000050e+01 9.472820000000000107e+01 1.638409999999999854e+03
6.199999999999999956e-02 7.799945000000000350e-01 2.777474999999999739e+01 9.774530000000000030e+01 1.639289999999999964e+03
6.300000000000000044e-02 7.807539999999999480e-01 2.886840000000000117e+01 1.006479499999999945e+02 1.640144999999999982e+03
6.400000000000000133e-02 7.814950000000000507e-01 2.987705000000000055e+01 1.034557000000000073e+02 1.640970000000000027e+03
6.500000000000000222e-02 7.822219999999999729e-01 3.080894999999999939e+01 1.061889500000000055e+02 1.641775000000000091e+03
6.600000000000000311e-02 7.829405000000000392e-01 3.167224999999999824e+01 1.088679999999999950e+02 1.642559999999999945e+03
6.700000000000000400e-02 7.836540000000000727e-01 3.247399999999999665e+01 1.115100000000000051e+02 1.643340000000000146e+03
6.800000000000000488e-02 7.843649999999999789e-01 3.321959999999999980e+01 1.141280000000000001e+02 1.644110000000000127e+03
6.900000000000000577e-02 7.850734999999999797e-01 3.391250000000000142e+01 1.167289999999999992e+02 1.644869999999999891e+03
7.000000000000000666e-02 7.857784999999999354e-01 3.455320000000000391e+01 1.193120000000000118e+02 1.645630000000000109e+03
7.100000000000000755e-02 7.864780000000000104e-01 3.514015000000000555e+01 1.218719999999999999e+02 1.646380000000000109e+03
7.200000000000000844e-02 7.871664999999999912e-01 3.566929999999999978e+01 1.243965000000000032e+02 1.647119999999999891e+03
7.300000000000000933e-02 7.878389999999999560e-01 3.613479999999999848e+01 1.268659999999999997e+02 1.647845000000000027e+03
7.399999999999999634e-02 7.884884999999999255e-01 3.652980000000000160e+01 1.292599999999999909e+02 1.648549999999999955e+03
7.499999999999999722e-02 7.891084999999999905e-01 3.684690000000000509e+01 1.315540000000000020e+02 1.649230000000000018e+03
7.599999999999999811e-02 7.896929999999999783e-01 3.707895000000000607e+01 1.337230000000000132e+02 1.649880000000000109e+03
7.699999999999999900e-02 7.902359999999999385e-01 3.721989999999999554e+01 1.357439999999999998e+02 1.650485000000000127e+03
7.799999999999999989e-02 7.907319999999999904e-01 3.726474999999999937e+01 1.375960000000000036e+02 1.651054999999999836e+03
7.900000000000000078e-02 7.911770000000000191e-01 3.721030000000000371e+01 1.392630000000000052e+02 1.651569999999999936e+03
8.000000000000000167e-02 7.915695000000000370e-01 3.705530000000000257e+01 1.407309999999999945e+02 1.652029999999999973e+03
8.100000000000000255e-02 7.919065000000000687e-01 3.680034999999999457e+01 1.419939999999999998e+02 1.652434999999999945e+03
8.200000000000000344e-02 7.921894999999999909e-01 3.644800000000000040e+01 1.430480000000000018e+02 1.652779999999999973e+03
8.300000000000000433e-02 7.924180000000000668e-01 3.600284999999999513e+01 1.438954999999999984e+02 1.653070000000000164e+03
8.400000000000000522e-02 7.925949999999999385e-01 3.547109999999999985e+01 1.445434999999999945e+02 1.653305000000000064e+03
8.500000000000000611e-02 7.927234999999999143e-01 3.486084999999999923e+01 1.450024999999999977e+02 1.653480000000000018e+03
8.600000000000000699e-02 7.928079999999999572e-01 3.418160000000000309e+01 1.452874999999999943e+02 1.653605000000000018e+03
8.700000000000000788e-02 7.928524999999999601e-01 3.344405000000000427e+01 1.454175000000000182e+02 1.653679999999999836e+03
8.800000000000000877e-02 7.928634999999999433e-01 3.265995000000000203e+01 1.454114999999999895e+02 1.653720000000000027e+03
8.899999999999999578e-02 7.928465000000000096e-01 3.184170000000000300e+01 1.452920000000000016e+02 1.653719999999999800e+03
8.999999999999999667e-02 7.928070000000000395e-01 3.100175000000000125e+01 1.450819999999999936e+02 1.653695000000000164e+03
9.099999999999999756e-02 7.927515000000000533e-01 3.015250000000000341e+01 1.448045000000000186e+02 1.653639999999999873e+03
9.199999999999999845e-02 7.926854999999999318e-01 2.930545000000000044e+01 1.444814999999999827e+02 1.653574999999999818e+03
9.299999999999999933e-02 7.926140000000000407e-01 2.847095000000000198e+01 1.441330000000000098e+02 1.653490000000000009e+03
9.400000000000000022e-02 7.925415000000000099e-01 2.765775000000000006e+01 1.437764999999999986e+02 1.653400000000000091e+03
9.500000000000000111e-02 7.924704999999999666e-01 2.687270000000000181e+01 1.434264999999999759e+02 1.653304999999999836e+03
9.600000000000000200e-02 7.924035000000000384e-01 2.612044999999999817e+01 1.430939999999999941e+02 1.653215000000000146e+03
9.700000000000000289e-02 7.923419999999999908e-01 2.540339999999999776e+01 1.427844999999999800e+02 1.653130000000000109e+03
9.800000000000000377e-02 7.922854999999999759e-01 2.472175000000000011e+01 1.425004999999999882e+02 1.653049999999999955e+03
9.900000000000000466e-02 7.922329999999999650e-01 2.407354999999999734e+01 1.422415000000000020e+02 1.652970000000000027e+03
1.000000000000000056e-01 7.921830000000000815e-01 2.345530000000000115e+01 1.420015000000000214e+02 1.652894999999999982e+03
1.010000000000000064e-01 7.921329999999999760e-01 2.286175000000000068e+01 1.417735000000000127e+02 1.652825000000000045e+03
1.020000000000000073e-01 7.920810000000000350e-01 2.228685000000000116e+01 1.415469999999999970e+02 1.652750000000000000e+03
1.030000000000000082e-01 7.920224999999999627e-01 2.172380000000000067e+01 1.413110000000000070e+02 1.652680000000000064e+03
1.040000000000000091e-01 7.919555000000000344e-01 2.116550000000000153e+01 1.410529999999999973e+02 1.652605000000000018e+03
1.050000000000000100e-01 7.918769999999999420e-01 2.060510000000000019e+01 1.407624999999999886e+02 1.652519999999999982e+03
1.059999999999999970e-01 7.917845000000000022e-01 2.003604999999999947e+01 1.404279999999999973e+02 1.652424999999999955e+03
1.069999999999999979e-01 7.916750000000000176e-01 1.945279999999999987e+01 1.400399999999999920e+02 1.652319999999999936e+03
1.079999999999999988e-01 7.915480000000000294e-01 1.885079999999999956e+01 1.395919999999999845e+02 1.652195000000000164e+03
1.089999999999999997e-01 7.914025000000000087e-01 1.822680000000000078e+01 1.390785000000000196e+02 1.652055000000000064e+03
1.100000000000000006e-01 7.912390000000000256e-01 1.757914999999999850e+01 1.384985000000000070e+02 1.651894999999999982e+03
1.110000000000000014e-01 7.910570000000000102e-01 1.690769999999999840e+01 1.378524999999999920e+02 1.651720000000000027e+03
1.120000000000000023e-01 7.908589999999999787e-01 1.621399999999999864e+01 1.371455000000000268e+02 1.651525000000000091e+03
1.130000000000000032e-01 7.906474999999999476e-01 1.550130000000000052e+01 1.363830000000000098e+02 1.651320000000000164e+03
1.140000000000000041e-01 7.904255000000000031e-01 1.477424999999999855e+01 1.355769999999999982e+02 1.651099999999999909e+03
1.150000000000000050e-01 7.901964999999999684e-01 1.403889999999999816e+01 1.347384999999999877e+02 1.650869999999999891e+03
1.160000000000000059e-01 7.899650000000000283e-01 1.330219499999999933e+01 1.338824999999999932e+02 1.650630000000000109e+03
1.170000000000000068e-01 7.897345000000000059e-01 1.257196000000000069e+01 1.330240000000000009e+02 1.650394999999999982e+03
1.180000000000000077e-01 7.895105000000000040e-01 1.185643999999999920e+01 1.321790000000000020e+02 1.650155000000000200e+03
1.190000000000000085e-01 7.892959999999999976e-01 1.116383000000000081e+01 1.313644999999999925e+02 1.649924999999999955e+03
1.200000000000000094e-01 7.890964999999999785e-01 1.050201500000000010e+01 1.305949999999999989e+02 1.649699999999999818e+03
1.209999999999999964e-01 7.889140000000000041e-01 9.878295000000001380e+00 1.298849999999999909e+02 1.649494999999999891e+03
1.219999999999999973e-01 7.887520000000000087e-01 9.298985000000000056e+00 1.292454999999999927e+02 1.649305000000000064e+03
1.229999999999999982e-01 7.886130000000000084e-01 8.769085000000000463e+00 1.286875000000000000e+02 1.649130000000000109e+03
1.239999999999999991e-01 7.884980000000000322e-01 8.292324999999999946e+00 1.282160000000000082e+02 1.648990000000000009e+03
1.250000000000000000e-01 7.884074999999999278e-01 7.870784999999999698e+00 1.278359999999999843e+02 1.648865000000000009e+03
1.260000000000000009e-01 7.883415000000000283e-01 7.504979999999999762e+00 1.275474999999999994e+02 1.648765000000000100e+03
1.270000000000000018e-01 7.882979999999999432e-01 7.193955000000000766e+00 1.273474999999999966e+02 1.648690000000000055e+03
1.280000000000000027e-01 7.882765000000000466e-01 6.935275000000000745e+00 1.272309999999999945e+02 1.648639999999999873e+03
1.290000000000000036e-01 7.882734999999999603e-01 6.725265000000000271e+00 1.271899999999999977e+02 1.648605000000000018e+03
1.300000000000000044e-01 7.882869999999999600e-01 6.559255000000000280e+00 1.272150000000000034e+02 1.648599999999999909e+03
1.310000000000000053e-01 7.883130000000000415e-01 6.431799999999999962e+00 1.272950000000000017e+02 1.648599999999999909e+03
1.320000000000000062e-01 7.883489999999999664e-01 6.336965000000000181e+00 1.274180000000000064e+02 1.648625000000000000e+03
1.330000000000000071e-01 7.883915000000000228e-01 6.268629999999999924e+00 1.275709999999999980e+02 1.648655000000000200e+03
1.340000000000000080e-01 7.884374999999999023e-01 6.220684999999999576e+00 1.277429999999999950e+02 1.648690000000000055e+03
1.350000000000000089e-01 7.884835000000000038e-01 6.187305000000000277e+00 1.279230000000000018e+02 1.648730000000000018e+03
1.360000000000000098e-01 7.885280000000000067e-01 6.163095000000000212e+00 1.281009999999999991e+02 1.648769999999999982e+03
1.370000000000000107e-01 7.885695000000000343e-01 6.143235000000000667e+00 1.282680000000000007e+02 1.648815000000000055e+03
1.380000000000000115e-01 7.886055000000000703e-01 6.123580000000000467e+00 1.284170000000000016e+02 1.648855000000000018e+03
1.390000000000000124e-01 7.886345000000000161e-01 6.100709999999999411e+00 1.285439999999999827e+02 1.648889999999999873e+03
1.400000000000000133e-01 7.886560000000000237e-01 6.071960000000000690e+00 1.286440000000000055e+02 1.648914999999999964e+03
1.410000000000000142e-01 7.886710000000000109e-01 6.035384999999999778e+00 1.287160000000000082e+02 1.648934999999999945e+03
1.420000000000000151e-01 7.886779999999999902e-01 5.989734999999999587e+00 1.287595000000000027e+02 1.648950000000000045e+03
1.430000000000000160e-01 7.886779999999999902e-01 5.934395000000000309e+00 1.287744999999999891e+02 1.648960000000000036e+03
1.440000000000000169e-01 7.886714999999999698e-01 5.869329999999999714e+00 1.287629999999999768e+02 1.648960000000000036e+03
1.450000000000000178e-01 7.886595000000000688e-01 5.794990000000000308e+00 1.287280000000000086e+02 1.648954999999999927e+03
1.459999999999999909e-01 7.886424999999999130e-01 5.712215000000000487e+00 1.286719999999999970e+02 1.648944999999999936e+03
1.469999999999999918e-01 7.886210000000000164e-01 5.622169999999999668e+00 1.285980000000000132e+02 1.648924999999999955e+03
1.479999999999999927e-01 7.885969999999999924e-01 5.526199999999999335e+00 1.285109999999999957e+02 1.648904999999999973e+03
1.489999999999999936e-01 7.885710000000000219e-01 5.425819999999999865e+00 1.284130000000000109e+02 1.648880000000000109e+03
1.499999999999999944e-01 7.885435000000000638e-01 5.322519999999999918e+00 1.283079999999999927e+02 1.648849999999999909e+03
1.509999999999999953e-01 7.885150000000000770e-01 5.217779999999999418e+00 1.281995000000000005e+02 1.648824999999999818e+03
1.519999999999999962e-01 7.884875000000000078e-01 5.112924999999999720e+00 1.280889999999999986e+02 1.648795000000000073e+03
1.529999999999999971e-01 7.884594999999999798e-01 5.009115000000000428e+00 1.279784999999999968e+02 1.648764999999999873e+03
1.539999999999999980e-01 7.884324999999999806e-01 4.907280000000000086e+00 1.278695000000000022e+02 1.648735000000000127e+03
1.549999999999999989e-01 7.884059999999999402e-01 4.808104999999999407e+00 1.277614999999999981e+02 1.648704999999999927e+03
1.559999999999999998e-01 7.883799999999999697e-01 4.712019999999999875e+00 1.276559999999999917e+02 1.648675000000000182e+03
1.570000000000000007e-01 7.883539999999999992e-01 4.619225000000000136e+00 1.275520000000000067e+02 1.648644999999999982e+03
1.580000000000000016e-01 7.883279999999999177e-01 4.529714999999999492e+00 1.274484999999999957e+02 1.648619999999999891e+03
1.590000000000000024e-01 7.883020000000000582e-01 4.443319999999999936e+00 1.273439999999999941e+02 1.648590000000000146e+03
