# t [s], A [cm^2], U [cm/s], P [cPa], c [cm/s]
1.000000000000000021e-03 4.617904999999999927e-01 5.137750000000003425e-03 9.425175000000000125e+01 1.633000000000000000e+03
2.000000000000000042e-03 4.617829999999999435e-01 -3.432125000000000280e-03 9.422464999999999691e+01 1.632994999999999891e+03
3.000000000000000062e-03 4.618154999999999899e-01 7.486214999999998843e-02 9.430780000000000030e+01 1.633009999999999991e+03
4.000000000000000083e-03 4.618524999999999991e-01 1.723018499999999786e-01 9.443104999999999905e+01 1.633039999999999964e+03
5.000000000000000104e-03 4.618430000000000035e-01 1.684845000000000093e-01 9.441114999999999213e+01 1.633034999999999854e+03
6.000000000000000125e-03 4.617999999999999883e-01 8.069649999999997658e-02 9.422799999999999443e+01 1.632994999999999891e+03
7.000000000000000146e-03 4.617630000000000345e-01 7.110000000000171738e-04 9.399170000000000869e+01 1.632945000000000164e+03
8.000000000000000167e-03 4.617145000000000277e-01 -1.157144999999999979e-01 9.366939999999999600e+01 1.632875000000000000e+03
9.000000000000001055e-03 4.616299999999999848e-01 -3.341749999999999998e-01 9.316980000000000928e+01 1.632769999999999982e+03
1.000000000000000194e-02 4.615060000000000273e-01 -6.639250000000000984e-01 9.244960000000000377e+01 1.632615000000000009e+03
1.099999999999999936e-02 4.613329999999999931e-01 -1.121259999999999923e+00 9.145515000000000327e+01 1.632400000000000091e+03
1.200000000000000025e-02 4.610994999999999955e-01 -1.721314999999999706e+00 9.012794999999999845e+01 1.632105000000000018e+03
1.300000000000000114e-02 4.608169999999999766e-01 -2.417494999999999727e+00 8.848624999999999829e+01 1.631730000000000018e+03
1.400000000000000203e-02 4.605239999999999889e-01 -3.091930000000000067e+00 8.665979999999998995e+01 1.631309999999999945e+03
1.499999999999999944e-02 4.602609999999999757e-01 -3.610529000000000099e+00 8.483525000000000205e+01 1.630869999999999891e+03
1.600000000000000033e-02 4.600524999999999753e-01 -3.884736199999999862e+00 8.316974999999999341e+01 1.630445000000000164e+03
1.700000000000000122e-02 4.598959999999999715e-01 -3.897502500000000314e+00 8.173515000000000441e+01 1.630055000000000064e+03
1.800000000000000211e-02 4.597714999999999996e-01 -3.692748000000000363e+00 8.051089999999999236e+01 1.629704999999999927e+03
1.900000000000000300e-02 4.596514999999999906e-01 -3.345892000000000088e+00 7.941185000000000116e+01 1.629375000000000000e+03
2.000000000000000042e-02 4.595104999999999884e-01 -2.931961499999999887e+00 7.833099999999998886e+01 1.629045000000000073e+03
2.100000000000000130e-02 4.593375000000000097e-01 -2.501188500000000037e+00 7.717994999999999095e+01 1.628710000000000036e+03
2.200000000000000219e-02 4.591325000000000545e-01 -2.067954999999999988e+00 7.591710000000000491e+01 1.628349999999999909e+03
2.299999999999999961e-02 4.589060000000000361e-01 -1.615045000000000064e+00 7.455310000000000059e+01 1.627965000000000146e+03
2.400000000000000050e-02 4.586755000000000138e-01 -1.110235000000000083e+00 7.313605000000001155e+01 1.627565000000000055e+03
2.500000000000000139e-02 4.584525000000000405e-01 -5.272750000000001602e-01 7.172360000000000468e+01 1.627170000000000073e+03
2.600000000000000228e-02 4.582420000000000382e-01 1.373249999999996973e-01 7.035474999999999568e+01 1.626775000000000091e+03
2.700000000000000316e-02 4.580389999999999739e-01 8.570050000000002388e-01 6.903104999999999336e+01 1.626390000000000100e+03
2.800000000000000058e-02 4.578295000000000003e-01 1.578030000000000266e+00 6.771184999999999832e+01 1.626005000000000109e+03
2.900000000000000147e-02 4.575945000000000151e-01 2.230385000000000062e+00 6.632274999999999920e+01 1.625609999999999900e+03
3.000000000000000236e-02 4.573170000000000290e-01 2.743360000000000021e+00 6.477459999999999241e+01 1.625179999999999836e+03
3.099999999999999978e-02 4.569840000000000568e-01 3.061719999999999331e+00 6.298765000000000214e+01 1.624704999999999927e+03
3.200000000000000067e-02 4.565934999999999855e-01 3.158659999999999801e+00 6.091450000000000387e+01 1.624164999999999964e+03
3.300000000000000155e-02 4.561524999999999608e-01 3.041919999999999735e+00 5.855644999999999811e+01 1.623570000000000164e+03
3.400000000000000244e-02 4.556784999999999863e-01 2.750994999999999635e+00 5.596689999999999543e+01 1.622914999999999964e+03
3.500000000000000333e-02 4.551945000000000019e-01 2.347475000000000200e+00 5.324314999999999998e+01 1.622230000000000018e+03
3.600000000000000422e-02 4.547245000000000315e-01 1.901545000000000041e+00 5.050900000000000034e+01 1.621530000000000200e+03
3.700000000000000511e-02 4.542899999999999716e-01 1.479225000000000012e+00 4.789424999999999955e+01 1.620849999999999909e+03
3.799999999999999906e-02 4.539090000000000069e-01 1.133715000000000028e+00 4.551730000000000587e+01 1.620224999999999909e+03
3.899999999999999994e-02 4.535915000000000363e-01 9.013299999999997425e-01 4.347254999999999825e+01 1.619664999999999964e+03
4.000000000000000083e-02 4.533429999999999405e-01 8.020100000000001117e-01 4.182500000000000284e+01 1.619190000000000055e+03
4.100000000000000172e-02 4.531654999999999989e-01 8.428650000000001974e-01 4.061090000000000089e+01 1.618820000000000164e+03
4.200000000000000261e-02 4.530575000000000019e-01 1.023239999999999927e+00 3.984234999999999616e+01 1.618559999999999945e+03
4.300000000000000350e-02 4.530155000000000154e-01 1.339848699999999893e+00 3.951515000000000555e+01 1.618410000000000082e+03
4.400000000000000439e-02 4.530390000000000250e-01 1.790750000000000064e+00 3.961615000000000464e+01 1.618369999999999891e+03
4.499999999999999833e-02 4.531245000000000411e-01 2.377359999999999918e+00 4.012975000000000136e+01 1.618440000000000055e+03
4.599999999999999922e-02 4.532725000000000226e-01 3.104337999999999820e+00 4.104139999999999588e+01 1.618610000000000127e+03
4.700000000000000011e-02 4.534809999999999675e-01 3.977666999999999842e+00 4.233809999999999718e+01 1.618884999999999991e+03
4.800000000000000100e-02 4.537505000000000566e-01 5.001761999999999375e+00 4.400690000000000168e+01 1.619255000000000109e+03
4.900000000000000189e-02 4.540775000000000228e-01 6.176622000000000057e+00 4.603135000000000332e+01 1.619724999999999909e+03
5.000000000000000278e-02 4.544584999999999875e-01 7.495669999999999611e+00 4.838884999999999792e+01 1.620279999999999973e+03
5.100000000000000366e-02 4.548870000000000413e-01 8.945069999999999411e+00 5.104840000000000089e+01 1.620920000000000073e+03
5.200000000000000455e-02 4.553559999999999830e-01 1.050401499999999899e+01 5.396989999999999554e+01 1.621630000000000109e+03
5.300000000000000544e-02 4.558560000000000390e-01 1.214648000000000039e+01 5.710575000000000045e+01 1.622400000000000091e+03
5.399999999999999939e-02 4.563779999999999504e-01 1.384352499999999964e+01 6.040305000000000035e+01 1.623224999999999909e+03
5.500000000000000028e-02 4.569130000000000136e-01 1.556559500000000007e+01 6.380754999999999200e+01 1.624085000000000036e+03
5.600000000000000117e-02 4.574524999999999841e-01 1.728514000000000195e+01 6.726685000000000514e+01 1.624969999999999800e+03
5.700000000000000205e-02 4.579900000000000082e-01 1.897820000000000107e+01 7.073444999999999538e+01 1.625865000000000009e+03
5.800000000000000294e-02 4.585204999999999975e-01 2.062569999999999837e+01 7.417185000000000628e+01 1.626765000000000100e+03
5.900000000000000383e-02 4.590414999999999912e-01 2.221390000000000242e+01 7.755049999999999955e+01 1.627664999999999964e+03
6.000000000000000472e-02 4.595495000000000552e-01 2.373404999999999987e+01 8.085200000000000387e+01 1.628545000000000073e+03
6.099999999999999867e-02 4.600454999999999961e-01 2.518205000000000027e+01 8.406794999999999618e+01 1.629409999999999854e+03
6.199999999999999956e-02 4.605305000000000093e-01 2.655729999999999791e+01 8.719825000000000159e+01 1.630259999999999991e+03
6.300000000000000044e-02 4.610059999999999714e-01 2.786200000000000188e+01 9.024979999999999336e+01 1.631095000000000027e+03
6.400000000000000133e-02 4.614734999999999809e-01 2.910009999999999764e+01 9.323425000000000296e+01 1.631909999999999854e+03
6.500000000000000222e-02 4.619370000000000420e-01 3.027649999999999864e+01 9.616589999999999350e+01 1.632720000000000027e+03
6.600000000000000311e-02 4.623970000000000025e-01 3.139615000000000222e+01 9.905944999999999823e+01 1.633514999999999873e+03
6.700000000000000400e-02 4.628554999999999753e-01 3.246344999999999459e+01 1.019291000000000054e+02 1.634305000000000064e+03
6.800000000000000488e-02 4.633150000000000324e-01 3.348194999999999766e+01 1.047856000000000023e+02 1.635090000000000146e+03
6.900000000000000577e-02 4.637750000000000483e-01 3.445340000000000202e+01 1.076364000000000090e+02 1.635875000000000000e+03
7.000000000000000666e-02 4.642355000000000231e-01 3.537800000000000011e+01 1.104834999999999923e+02 1.636659999999999854e+03
7.100000000000000755e-02 4.646954999999999836e-01 3.625399999999999778e+01 1.133234999999999957e+02 1.637440000000000055e+03
7.200000000000000844e-02 4.651529999999999831e-01 3.707784999999999798e+01 1.161484999999999985e+02 1.638220000000000027e+03
7.300000000000000933e-02 4.656055000000000055e-01 3.784474999999999767e+01 1.189449999999999932e+02 1.638994999999999891e+03
7.399999999999999634e-02 4.660495000000000054e-01 3.854874999999999829e+01 1.216970000000000027e+02 1.639755000000000109e+03
7.499999999999999722e-02 4.664829999999999810e-01 3.918349999999999511e+01 1.243845000000000027e+02 1.640500000000000000e+03
7.599999999999999811e-02 4.669020000000000392e-01 3.974264999999999759e+01 1.269885000000000019e+02 1.641224999999999909e+03
7.699999999999999900e-02 4.673034999999999828e-01 4.022055000000000291e+01 1.294879999999999995e+02 1.641929999999999836e+03
7.799999999999999989e-02 4.676845000000000030e-01 4.061220000000000141e+01 1.318640000000000043e+02 1.642599999999999909e+03
7.900000000000000078e-02 4.680434999999999457e-01 4.091389999999999816e+01 1.341009999999999991e+02 1.643240000000000009e+03
8.000000000000000167e-02 4.683770000000000433e-01 4.112295000000000300e+01 1.361834999999999809e+02 1.643839999999999918e+03
8.100000000000000255e-02 4.686850000000000183e-01 4.123825000000000074e+01 1.381025000000000205e+02 1.644394999999999982e+03
8.200000000000000344e-02 4.689655000000000351e-01 4.125979999999999848e+01 1.398494999999999777e+02 1.644910000000000082e+03
8.300000000000000433e-02 4.692184999999999828e-01 4.118890000000000384e+01 1.414209999999999923e+02 1.645380000000000109e+03
8.400000000000000522e-02 4.694445000000000423e-01 4.102814999999999657e+01 1.428160000000000025e+02 1.645799999999999955e+03
8.500000000000000611e-02 4.696434999999999915e-01 4.078140000000000498e+01 1.440370000000000061e+02 1.646180000000000064e+03
8.600000000000000699e-02 4.698160000000000114e-01 4.045390000000000441e+01 1.450889999999999986e+02 1.646505000000000109e+03
8.700000000000000788e-02 4.699639999999999929e-01 4.005185000000000173e+01 1.459809999999999945e+02 1.646795000000000073e+03
8.800000000000000877e-02 4.700895000000000490e-01 3.958285000000000053e+01 1.467235000000000014e+02 1.647034999999999854e+03
8.899999999999999578e-02 4.701935000000000420e-01 3.905545000000000044e+01 1.473294999999999959e+02 1.647244999999999891e+03
8.999999999999999667e-02 4.702800000000000313e-01 3.847894999999999754e+01 1.478140000000000214e+02 1.647409999999999854e+03
9.099999999999999756e-02 4.703500000000000458e-01 3.786339999999999861e+01 1.481929999999999836e+02 1.647549999999999955e+03
9.199999999999999845e-02 4.704070000000000196e-01 3.721890000000000498e+01 1.484840000000000089e+02 1.647659999999999854e+03
9.299999999999999933e-02 4.704539999999999833e-01 3.655545000000000044e+01 1.487035000000000196e+02 1.647750000000000000e+03
9.400000000000000022e-02 4.704930000000000501e-01 3.588235000000000241e+01 1.488685000000000116e+02 1.647820000000000164e+03
9.500000000000000111e-02 4.705259999999999998e-01 3.520830000000000126e+01 1.489934999999999832e+02 1.647875000000000000e+03
9.600000000000000200e-02 4.705549999999999455e-01 3.454019999999999868e+01 1.490919999999999845e+02 1.647920000000000073e+03
9.700000000000000289e-02 4.705814999999999859e-01 3.388389999999999702e+01 1.491739999999999782e+02 1.647954999999999927e+03
9.800000000000000377e-02 4.706065000000000387e-01 3.324320000000000164e+01 1.492470000000000141e+02 1.647985000000000127e+03
9.900000000000000466e-02 4.706295000000000339e-01 3.262035000000000196e+01 1.493149999999999977e+02 1.648009999999999991e+03
1.000000000000000056e-01 4.706520000000000148e-01 3.201585000000000036e+01 1.493795000000000073e+02 1.648035000000000082e+03
1.010000000000000064e-01 4.706719999999999793e-01 3.142869999999999919e+01 1.494389999999999930e+02 1.648054999999999836e+03
1.020000000000000073e-01 4.706890000000000240e-01 3.085660000000000025e+01 1.494900000000000091e+02 1.648074999999999818e+03
1.030000000000000082e-01 4.707029999999999825e-01 3.029614999999999725e+01 1.495240000000000009e+02 1.648079999999999927e+03
1.040000000000000091e-01 4.707109999999999905e-01 2.974320000000000164e+01 1.495350000000000250e+02 1.648090000000000146e+03
1.050000000000000100e-01 4.707124999999999782e-01 2.919324999999999903e+01 1.495140000000000100e+02 1.648079999999999927e+03
1.059999999999999970e-01 4.707065000000000277e-01 2.864155000000000229e+01 1.494515000000000100e+02 1.648075000000000045e+03
1.069999999999999979e-01 4.706909999999999705e-01 2.808350000000000080e+01 1.493400000000000034e+02 1.648045000000000073e+03
1.079999999999999988e-01 4.706655000000000144e-01 2.751495000000000246e+01 1.491705000000000041e+02 1.648010000000000218e+03
1.089999999999999997e-01 4.706279999999999353e-01 2.693229999999999791e+01 1.489375000000000000e+02 1.647949999999999818e+03
1.100000000000000006e-01 4.705795000000000394e-01 2.633275000000000077e+01 1.486359999999999957e+02 1.647875000000000000e+03
1.110000000000000014e-01 4.705190000000000206e-01 2.571454999999999913e+01 1.482630000000000052e+02 1.647784999999999854e+03
1.120000000000000023e-01 4.704470000000000596e-01 2.507710000000000150e+01 1.478185000000000002e+02 1.647675000000000182e+03
1.130000000000000032e-01 4.703629999999999756e-01 2.442079999999999984e+01 1.473045000000000186e+02 1.647550000000000182e+03
1.140000000000000041e-01 4.702689999999999926e-01 2.374765000000000015e+01 1.467249999999999943e+02 1.647404999999999973e+03
1.150000000000000050e-01 4.701660000000000283e-01 2.306060000000000088e+01 1.460869999999999891e+02 1.647240000000000009e+03
1.160000000000000059e-01 4.700555000000000150e-01 2.236370000000000147e+01 1.453994999999999891e+02 1.647065000000000055e+03
1.170000000000000068e-01 4.699399999999999689e-01 2.166219999999999857e+01 1.446734999999999900e+02 1.646880000000000109e+03
1.180000000000000077e-01 4.698210000000000441e-01 2.096199999999999974e+01 1.439209999999999923e+02 1.646684999999999945e+03
1.190000000000000085e-01 4.697000000000000064e-01 2.026970000000000027e+01 1.431555000000000177e+02 1.646485000000000127e+03
1.200000000000000094e-01 4.695810000000000262e-01 1.959205000000000041e+01 1.423909999999999911e+02 1.646284999999999854e+03
1.209999999999999964e-01 4.694645000000000068e-01 1.893584999999999852e+01 1.416419999999999959e+02 1.646085000000000036e+03
1.219999999999999973e-01 4.693539999999999934e-01 1.830799999999999983e+01 1.409214999999999804e+02 1.645884999999999991e+03
1.229999999999999982e-01 4.692505000000000148e-01 1.771440000000000126e+01 1.402420000000000186e+02 1.645699999999999818e+03
1.239999999999999991e-01 4.691560000000000175e-01 1.716055000000000064e+01 1.396154999999999973e+02 1.645525000000000091e+03
1.250000000000000000e-01 4.690720000000000445e-01 1.665094999999999814e+01 1.390494999999999948e+02 1.645365000000000009e+03
1.260000000000000009e-01 4.689984999999999848e-01 1.618880000000000052e+01 1.385519999999999925e+02 1.645220000000000027e+03
1.270000000000000018e-01 4.689369999999999927e-01 1.577629999999999910e+01 1.381274999999999977e+02 1.645090000000000146e+03
1.280000000000000027e-01 4.688875000000000126e-01 1.541429999999999900e+01 1.377769999999999868e+02 1.644980000000000018e+03
1.290000000000000036e-01 4.688489999999999602e-01 1.510235000000000127e+01 1.375009999999999764e+02 1.644894999999999982e+03
1.300000000000000044e-01 4.688215000000000021e-01 1.483885000000000076e+01 1.372964999999999804e+02 1.644824999999999818e+03
1.310000000000000053e-01 4.688034999999999841e-01 1.462134999999999962e+01 1.371574999999999989e+02 1.644769999999999982e+03
1.320000000000000062e-01 4.687945000000000029e-01 1.444614999999999938e+01 1.370785000000000196e+02 1.644724999999999909e+03
1.330000000000000071e-01 4.687930000000000152e-01 1.430930000000000035e+01 1.370515000000000043e+02 1.644704999999999927e+03
1.340000000000000080e-01 4.687974999999999781e-01 1.420615000000000094e+01 1.370670000000000073e+02 1.644695000000000164e+03
1.350000000000000089e-01 4.688065000000000149e-01 1.413189999999999813e+01 1.371175000000000068e+02 1.644695000000000164e+03
1.360000000000000098e-01 4.688189999999999857e-01 1.408184999999999931e+01 1.371929999999999836e+02 1.644704999999999927e+03
1.370000000000000107e-01 4.688335000000000141e-01 1.405124999999999957e+01 1.372860000000000014e+02 1.644714999999999918e+03
1.380000000000000115e-01 4.688485000000000014e-01 1.403580000000000005e+01 1.373884999999999934e+02 1.644735000000000127e+03
1.390000000000000124e-01 4.688634999999999886e-01 1.403154999999999930e+01 1.374939999999999998e+02 1.644750000000000000e+03
1.400000000000000133e-01 4.688780000000000170e-01 1.403509999999999991e+01 1.375974999999999966e+02 1.644775000000000091e+03
1.410000000000000142e-01 4.688915000000000166e-01 1.404350000000000165e+01 1.376949999999999932e+02 1.644795000000000073e+03
1.420000000000000151e-01 4.689035000000000286e-01 1.405449999999999910e+01 1.377839999999999918e+02 1.644815000000000055e+03
1.430000000000000160e-01 4.689139999999999975e-01 1.406605000000000061e+01 1.378625000000000114e+02 1.644835000000000036e+03
1.440000000000000169e-01 4.689225000000000199e-01 1.407700000000000173e+01 1.379300000000000068e+02 1.644849999999999909e+03
1.450000000000000178e-01 4.689294999999999991e-01 1.408634999999999948e+01 1.379875000000000114e+02 1.644865000000000009e+03
1.459999999999999909e-01 4.689349999999999907e-01 1.409365000000000023e+01 1.380355000000000132e+02 1.644875000000000000e+03
1.469999999999999918e-01 4.689404999999999824e-01 1.409875000000000078e+01 1.380759999999999934e+02 1.644889999999999873e+03
1.479999999999999927e-01 4.689450000000000007e-01 1.410185000000000066e+01 1.381115000000000066e+02 1.644900000000000091e+03
1.489999999999999936e-01 4.689484999999999904e-01 1.410334999999999894e+01 1.381444999999999936e+02 1.644904999999999973e+03
1.499999999999999944e-01 4.689530000000000087e-01 1.410385000000000133e+01 1.381764999999999759e+02 1.644914999999999964e+03
1.509999999999999953e-01 4.689579999999999860e-01 1.410404999999999909e+01 1.382104999999999961e+02 1.644929999999999836e+03
1.519999999999999962e-01 4.689645000000000064e-01 1.410464999999999947e+01 1.382495000000000118e+02 1.644934999999999945e+03
1.529999999999999971e-01 4.689714999999999856e-01 1.410640000000000072e+01 1.382945000000000277e+02 1.644949999999999818e+03
1.539999999999999980e-01 4.689800000000000080e-01 1.410989999999999966e+01 1.383480000000000132e+02 1.644964999999999918e+03
1.549999999999999989e-01 4.689904999999999768e-01 1.411580000000000013e+01 1.384105000000000132e+02 1.644980000000000018e+03
1.559999999999999998e-01 4.690024999999999888e-01 1.412440000000000140e+01 1.384830000000000041e+02 1.645000000000000000e+03
1.570000000000000007e-01 4.690165000000000028e-01 1.413589999999999947e+01 1.385654999999999859e+02 1.645019999999999982e+03
1.580000000000000016e-01 4.690314999999999346e-01 1.415020000000000167e+01 1.386585000000000036e+02 1.645039999999999964e+03
1.590000000000000024e-01 4.690479999999999650e-01 1.416724999999999923e+01 1.387605000000000075e+02 1.645070000000000164e+03
