# t [s], A [cm^2], U [cm/s], P [cPa], c [cm/s]
1.000000000000000021e-03 2.021965000000000012e-01 4.215486500000000247e-01 9.124289999999999168e+01 2.261144999999999982e+03
2.000000000000000042e-03 2.021235000000000115e-01 2.019401999999999919e+00 8.727710000000000434e+01 2.260614999999999782e+03
3.000000000000000062e-03 2.019604999999999873e-01 3.962542500000000079e+00 8.189140000000000441e+01 2.259465000000000146e+03
4.000000000000000083e-03 2.017594999999999805e-01 6.164360000000000284e+00 7.658525000000000205e+01 2.258069999999999709e+03
5.000000000000000104e-03 2.015635000000000066e-01 8.474119999999999209e+00 7.236435000000000173e+01 2.256720000000000255e+03
6.000000000000000125e-03 2.013840000000000074e-01 1.055945999999999962e+01 6.902660000000000196e+01 2.255505000000000109e+03
7.000000000000000146e-03 2.012204999999999966e-01 1.222792499999999905e+01 6.603079999999999927e+01 2.254425000000000182e+03
8.000000000000000167e-03 2.010799999999999810e-01 1.354655499999999968e+01 6.345035000000000025e+01 2.253514999999999873e+03
9.000000000000001055e-03 2.009664999999999924e-01 1.457620000000000005e+01 6.144500000000000028e+01 2.252784999999999854e+03
1.000000000000000194e-02 2.008780000000000010e-01 1.533804999999999907e+01 5.995720000000000027e+01 2.252224999999999909e+03
1.099999999999999936e-02 2.008125000000000049e-01 1.585994999999999955e+01 5.889764999999999873e+01 2.251819999999999709e+03
1.200000000000000025e-02 2.007635000000000114e-01 1.614495000000000147e+01 5.809829999999999472e+01 2.251525000000000091e+03
1.300000000000000114e-02 2.007240000000000135e-01 1.622565000000000168e+01 5.739929999999999666e+01 2.251289999999999964e+03
1.400000000000000203e-02 2.006970000000000143e-01 1.626784999999999926e+01 5.700939999999999941e+01 2.251140000000000327e+03
1.499999999999999944e-02 2.006979999999999875e-01 1.653419999999999845e+01 5.757274999999999920e+01 2.251159999999999854e+03
1.600000000000000033e-02 2.007439999999999780e-01 1.720599999999999952e+01 5.969604999999999961e+01 2.251454999999999927e+03
1.700000000000000122e-02 2.008399999999999908e-01 1.823444999999999894e+01 6.336880000000000734e+01 2.252074999999999818e+03
1.800000000000000211e-02 2.009704999999999964e-01 1.934335000000000093e+01 6.778804999999999836e+01 2.252920000000000073e+03
1.900000000000000300e-02 2.011040000000000050e-01 2.016574999999999918e+01 7.169059999999998922e+01 2.253795000000000073e+03
2.000000000000000042e-02 2.012059999999999960e-01 2.041900000000000048e+01 7.394004999999999939e+01 2.254485000000000127e+03
2.100000000000000130e-02 2.012525000000000008e-01 2.002329999999999899e+01 7.402519999999999811e+01 2.254829999999999927e+03
2.200000000000000219e-02 2.012410000000000032e-01 1.911404999999999887e+01 7.222735000000000127e+01 2.254784999999999854e+03
2.299999999999999961e-02 2.011870000000000047e-01 1.795390000000000086e+01 6.940739999999999554e+01 2.254454999999999927e+03
2.400000000000000050e-02 2.011135000000000006e-01 1.680160000000000053e+01 6.655804999999999438e+01 2.253984999999999673e+03
2.500000000000000139e-02 2.010434999999999861e-01 1.580669999999999931e+01 6.437129999999999086e+01 2.253524999999999636e+03
2.600000000000000228e-02 2.009885000000000144e-01 1.497359999999999935e+01 6.301735000000000042e+01 2.253159999999999854e+03
2.700000000000000316e-02 2.009489999999999887e-01 1.419725000000000037e+01 6.219259999999999877e+01 2.252889999999999873e+03
2.800000000000000058e-02 2.009130000000000082e-01 1.333929999999999971e+01 6.136140000000000327e+01 2.252654999999999745e+03
2.900000000000000147e-02 2.008690000000000198e-01 1.230945000000000000e+01 6.006040000000000134e+01 2.252375000000000000e+03
3.000000000000000236e-02 2.008099999999999885e-01 1.111968500000000049e+01 5.813890000000000668e+01 2.251994999999999891e+03
3.099999999999999978e-02 2.007375000000000131e-01 9.893419999999998993e+00 5.585060000000000002e+01 2.251529999999999745e+03
3.200000000000000067e-02 2.006650000000000100e-01 8.826290000000000191e+00 5.376749999999999829e+01 2.251054999999999836e+03
3.300000000000000155e-02 2.006094999999999962e-01 8.116215000000000401e+00 5.255835000000000434e+01 2.250680000000000291e+03
3.400000000000000244e-02 2.005885000000000029e-01 7.891074999999999839e+00 5.272660000000000480e+01 2.250525000000000091e+03
3.500000000000000333e-02 2.006120000000000125e-01 8.162910000000000110e+00 5.441495000000000459e+01 2.250654999999999745e+03
3.600000000000000422e-02 2.006779999999999953e-01 8.821820000000000661e+00 5.734290000000000020e+01 2.251059999999999945e+03
3.700000000000000511e-02 2.007744999999999946e-01 9.666534999999999656e+00 6.088510000000000133e+01 2.251670000000000073e+03
3.799999999999999906e-02 2.008810000000000040e-01 1.045590999999999937e+01 6.424299999999999500e+01 2.252355000000000018e+03
3.899999999999999994e-02 2.009730000000000127e-01 1.096345499999999973e+01 6.664475000000000193e+01 2.252954999999999927e+03
4.000000000000000083e-02 2.010299999999999865e-01 1.101934999999999931e+01 6.751050000000000750e+01 2.253344999999999800e+03
4.100000000000000172e-02 2.010374999999999801e-01 1.053264500000000048e+01 6.654710000000000036e+01 2.253409999999999854e+03
4.200000000000000261e-02 2.009880000000000000e-01 9.493370000000000530e+00 6.376125000000000398e+01 2.253110000000000127e+03
4.300000000000000350e-02 2.008829999999999782e-01 7.957304999999999851e+00 5.940404999999999802e+01 2.252444999999999709e+03
4.400000000000000439e-02 2.007309999999999928e-01 6.023109999999999964e+00 5.387715000000000032e+01 2.251470000000000255e+03
4.499999999999999833e-02 2.005434999999999857e-01 3.808949000000000140e+00 4.763349999999999795e+01 2.250255000000000109e+03
4.599999999999999922e-02 2.003324999999999967e-01 1.434555000000000025e+00 4.109964999999999691e+01 2.248894999999999982e+03
4.700000000000000011e-02 2.001124999999999987e-01 -9.882550000000001056e-01 3.463315000000000055e+01 2.247454999999999927e+03
4.800000000000000100e-02 1.998929999999999874e-01 -3.357880000000000642e+00 2.851474999999999937e+01 2.246019999999999982e+03
4.900000000000000189e-02 1.996840000000000004e-01 -5.580799999999999983e+00 2.296365000000000123e+01 2.244650000000000091e+03
5.000000000000000278e-02 1.994930000000000037e-01 -7.568405000000000271e+00 1.816209999999999880e+01 2.243390000000000327e+03
5.100000000000000366e-02 1.993270000000000042e-01 -9.235585000000000377e+00 1.427511499999999955e+01 2.242295000000000073e+03
5.200000000000000455e-02 1.991930000000000089e-01 -1.050226500000000129e+01 1.145914499999999947e+01 2.241404999999999745e+03
5.300000000000000544e-02 1.990965000000000096e-01 -1.129819999999999958e+01 9.856310000000000571e+00 2.240750000000000000e+03
5.399999999999999939e-02 1.990425000000000111e-01 -1.156935000000000002e+01 9.578720000000000567e+00 2.240369999999999891e+03
5.500000000000000028e-02 1.990345000000000031e-01 -1.128439999999999976e+01 1.068854999999999933e+01 2.240289999999999964e+03
5.600000000000000117e-02 1.990744999999999876e-01 -1.043947000000000003e+01 1.318144999999999989e+01 2.240515000000000327e+03
5.700000000000000205e-02 1.991614999999999913e-01 -9.059415000000001328e+00 1.697854999999999848e+01 2.241050000000000182e+03
5.800000000000000294e-02 1.992925000000000113e-01 -7.196384999999999366e+00 2.192914999999999992e+01 2.241875000000000000e+03
5.900000000000000383e-02 1.994624999999999870e-01 -4.924833000000000460e+00 2.782404999999999973e+01 2.242960000000000036e+03
6.000000000000000472e-02 1.996640000000000081e-01 -2.335450000000000248e+00 3.441460000000000008e+01 2.244260000000000218e+03
6.099999999999999867e-02 1.998900000000000121e-01 4.718400000000002592e-01 4.143460000000000321e+01 2.245715000000000146e+03
6.199999999999999956e-02 2.001304999999999890e-01 3.394339999999999691e+00 4.862010000000000076e+01 2.247274999999999636e+03
6.300000000000000044e-02 2.003769999999999996e-01 6.332284999999999719e+00 5.572615000000000407e+01 2.248885000000000218e+03
6.400000000000000133e-02 2.006224999999999814e-01 9.193805000000001115e+00 6.253910000000000480e+01 2.250494999999999891e+03
6.500000000000000222e-02 2.008590000000000098e-01 1.189924500000000052e+01 6.888644999999999641e+01 2.252055000000000291e+03
6.600000000000000311e-02 2.010804999999999954e-01 1.438499999999999979e+01 7.464394999999998959e+01 2.253529999999999745e+03
6.700000000000000400e-02 2.012844999999999773e-01 1.660654999999999859e+01 7.974109999999998877e+01 2.254880000000000109e+03
6.800000000000000488e-02 2.014670000000000072e-01 1.854044999999999987e+01 8.416349999999999909e+01 2.256105000000000018e+03
6.900000000000000577e-02 2.016284999999999883e-01 2.018449999999999989e+01 8.795135000000000502e+01 2.257190000000000055e+03
7.000000000000000666e-02 2.017700000000000049e-01 2.155675000000000097e+01 9.119374999999999432e+01 2.258144999999999982e+03
7.100000000000000755e-02 2.018949999999999911e-01 2.269189999999999685e+01 9.401779999999999404e+01 2.258984999999999673e+03
7.200000000000000844e-02 2.020064999999999777e-01 2.363704999999999856e+01 9.657460000000000377e+01 2.259744999999999891e+03
7.300000000000000933e-02 2.021100000000000119e-01 2.444570000000000221e+01 9.902150000000000318e+01 2.260449999999999818e+03
7.399999999999999634e-02 2.022104999999999875e-01 2.517255000000000109e+01 1.015088499999999954e+02 2.261130000000000109e+03
7.499999999999999722e-02 2.023125000000000062e-01 2.586789999999999878e+01 1.041614999999999895e+02 2.261815000000000055e+03
7.599999999999999811e-02 2.024199999999999888e-01 2.657319999999999993e+01 1.070709999999999980e+02 2.262539999999999964e+03
7.699999999999999900e-02 2.025354999999999794e-01 2.731810000000000116e+01 1.102890000000000015e+02 2.263310000000000400e+03
7.799999999999999989e-02 2.026605000000000212e-01 2.811849999999999739e+01 1.138224999999999909e+02 2.264139999999999873e+03
7.900000000000000078e-02 2.027950000000000030e-01 2.897630000000000194e+01 1.176394999999999982e+02 2.265039999999999964e+03
8.000000000000000167e-02 2.029374999999999929e-01 2.988005000000000067e+01 1.216709999999999923e+02 2.265985000000000127e+03
8.100000000000000255e-02 2.030865000000000031e-01 3.080709999999999837e+01 1.258220000000000027e+02 2.266975000000000364e+03
8.200000000000000344e-02 2.032375000000000154e-01 3.172589999999999932e+01 1.299770000000000039e+02 2.267984999999999673e+03
8.300000000000000433e-02 2.033884999999999998e-01 3.259919999999999618e+01 1.340140000000000100e+02 2.268985000000000127e+03
8.400000000000000522e-02 2.035339999999999927e-01 3.338705000000000211e+01 1.378089999999999975e+02 2.269960000000000036e+03
8.500000000000000611e-02 2.036700000000000177e-01 3.404994999999999550e+01 1.412489999999999952e+02 2.270869999999999891e+03
8.600000000000000699e-02 2.037935000000000163e-01 3.455214999999999748e+01 1.442355000000000018e+02 2.271699999999999818e+03
8.700000000000000788e-02 2.039009999999999989e-01 3.486364999999999981e+01 1.466920000000000073e+02 2.272430000000000291e+03
8.800000000000000877e-02 2.039904999999999913e-01 3.496245000000000402e+01 1.485679999999999836e+02 2.273029999999999745e+03
8.899999999999999578e-02 2.040595000000000048e-01 3.483575000000000443e+01 1.498394999999999868e+02 2.273510000000000218e+03
8.999999999999999667e-02 2.041074999999999973e-01 3.448094999999999999e+01 1.505109999999999957e+02 2.273845000000000255e+03
9.099999999999999756e-02 2.041354999999999975e-01 3.390515000000000612e+01 1.506115000000000066e+02 2.274045000000000073e+03
9.199999999999999845e-02 2.041434999999999778e-01 3.312489999999999668e+01 1.501960000000000264e+02 2.274114999999999782e+03
9.299999999999999933e-02 2.041344999999999965e-01 3.216479999999999961e+01 1.493344999999999914e+02 2.274059999999999945e+03
9.400000000000000022e-02 2.041094999999999993e-01 3.105590000000000117e+01 1.481129999999999995e+02 2.273909999999999854e+03
9.500000000000000111e-02 2.040714999999999890e-01 2.983380000000000365e+01 1.466239999999999952e+02 2.273670000000000073e+03
9.600000000000000200e-02 2.040244999999999975e-01 2.853665000000000163e+01 1.449635000000000105e+02 2.273369999999999891e+03
9.700000000000000289e-02 2.039715000000000000e-01 2.720320000000000249e+01 1.432255000000000109e+02 2.273019999999999982e+03
9.800000000000000377e-02 2.039154999999999995e-01 2.587089999999999890e+01 1.414975000000000023e+02 2.272649999999999636e+03
9.900000000000000466e-02 2.038590000000000124e-01 2.457419999999999760e+01 1.398569999999999993e+02 2.272269999999999982e+03
1.000000000000000056e-01 2.038044999999999995e-01 2.334280000000000044e+01 1.383675000000000068e+02 2.271914999999999964e+03
1.010000000000000064e-01 2.037549999999999917e-01 2.220064999999999955e+01 1.370765000000000100e+02 2.271574999999999818e+03
1.020000000000000073e-01 2.037114999999999898e-01 2.116479999999999961e+01 1.360140000000000100e+02 2.271284999999999854e+03
1.030000000000000082e-01 2.036755000000000093e-01 2.024479999999999791e+01 1.351924999999999955e+02 2.271039999999999964e+03
1.040000000000000091e-01 2.036465000000000081e-01 1.944265000000000043e+01 1.346050000000000182e+02 2.270840000000000146e+03
1.050000000000000100e-01 2.036250000000000004e-01 1.875280000000000058e+01 1.342259999999999991e+02 2.270685000000000400e+03
1.059999999999999970e-01 2.036104999999999998e-01 1.816290000000000049e+01 1.340155000000000030e+02 2.270579999999999927e+03
1.069999999999999979e-01 2.036000000000000032e-01 1.765494999999999948e+01 1.339205000000000041e+02 2.270505000000000109e+03
1.079999999999999988e-01 2.035939999999999972e-01 1.720645000000000024e+01 1.338785000000000025e+02 2.270454999999999927e+03
1.089999999999999997e-01 2.035889999999999922e-01 1.679234999999999900e+01 1.338234999999999957e+02 2.270414999999999964e+03
1.100000000000000006e-01 2.035830000000000140e-01 1.638650000000000162e+01 1.336884999999999764e+02 2.270369999999999891e+03
1.110000000000000014e-01 2.035744999999999916e-01 1.596395000000000053e+01 1.334124999999999943e+02 2.270309999999999945e+03
1.120000000000000023e-01 2.035605000000000053e-01 1.550199999999999889e+01 1.329435000000000002e+02 2.270215000000000146e+03
1.130000000000000032e-01 2.035394999999999843e-01 1.498235000000000028e+01 1.322409999999999854e+02 2.270079999999999927e+03
1.140000000000000041e-01 2.035109999999999975e-01 1.439209999999999923e+01 1.312825000000000273e+02 2.269890000000000327e+03
1.150000000000000050e-01 2.034745000000000026e-01 1.372455000000000069e+01 1.300600000000000023e+02 2.269649999999999636e+03
1.160000000000000059e-01 2.034285000000000121e-01 1.297970000000000113e+01 1.285869999999999891e+02 2.269350000000000364e+03
1.170000000000000068e-01 2.033750000000000002e-01 1.216410000000000124e+01 1.268919999999999959e+02 2.268989999999999782e+03
1.180000000000000077e-01 2.033139999999999947e-01 1.129054999999999964e+01 1.250169999999999959e+02 2.268590000000000146e+03
1.190000000000000085e-01 2.032470000000000110e-01 1.037678499999999993e+01 1.230185000000000031e+02 2.268144999999999982e+03
1.200000000000000094e-01 2.031759999999999955e-01 9.444610000000000838e+00 1.209609999999999985e+02 2.267679999999999836e+03
1.209999999999999964e-01 2.031034999999999924e-01 8.518149999999998556e+00 1.189115000000000038e+02 2.267199999999999818e+03
1.219999999999999973e-01 2.030315000000000036e-01 7.622469999999999857e+00 1.169380000000000024e+02 2.266720000000000255e+03
1.229999999999999982e-01 2.029624999999999901e-01 6.781735000000000291e+00 1.151024999999999920e+02 2.266255000000000109e+03
1.239999999999999991e-01 2.028975000000000084e-01 6.017979999999999663e+00 1.134615000000000009e+02 2.265824999999999818e+03
1.250000000000000000e-01 2.028400000000000203e-01 5.349795000000000300e+00 1.120569999999999879e+02 2.265440000000000055e+03
1.260000000000000009e-01 2.027895000000000114e-01 4.791380000000000194e+00 1.109209999999999923e+02 2.265100000000000364e+03
1.270000000000000018e-01 2.027494999999999992e-01 4.351894999999999847e+00 1.100705000000000098e+02 2.264819999999999709e+03
1.280000000000000027e-01 2.027180000000000093e-01 4.035214999999999996e+00 1.095090000000000003e+02 2.264609999999999673e+03
1.290000000000000036e-01 2.026969999999999883e-01 3.839945000000000164e+00 1.092245000000000061e+02 2.264460000000000036e+03
1.300000000000000044e-01 2.026844999999999897e-01 3.759739999999999860e+00 1.091965000000000003e+02 2.264369999999999891e+03
1.310000000000000053e-01 2.026810000000000000e-01 3.783885000000000165e+00 1.093919999999999959e+02 2.264340000000000146e+03
1.320000000000000062e-01 2.026854999999999907e-01 3.898080000000000211e+00 1.097715000000000032e+02 2.264360000000000127e+03
1.330000000000000071e-01 2.026965000000000017e-01 4.085280000000000022e+00 1.102905000000000086e+02 2.264425000000000182e+03
1.340000000000000080e-01 2.027114999999999889e-01 4.326699999999999768e+00 1.109010000000000105e+02 2.264519999999999982e+03
1.350000000000000089e-01 2.027299999999999935e-01 4.602729999999999322e+00 1.115554999999999950e+02 2.264640000000000327e+03
1.360000000000000098e-01 2.027505000000000002e-01 4.893905000000000172e+00 1.122085000000000008e+02 2.264769999999999982e+03
1.370000000000000107e-01 2.027709999999999790e-01 5.181739999999999569e+00 1.128185000000000002e+02 2.264904999999999745e+03
1.380000000000000115e-01 2.027905000000000124e-01 5.449505000000000265e+00 1.133505000000000109e+02 2.265029999999999745e+03
1.390000000000000124e-01 2.028070000000000150e-01 5.682859999999999800e+00 1.137734999999999985e+02 2.265140000000000327e+03
1.400000000000000133e-01 2.028200000000000003e-01 5.870340000000000558e+00 1.140674999999999955e+02 2.265230000000000018e+03
1.410000000000000142e-01 2.028289999999999815e-01 6.003695000000000448e+00 1.142175000000000011e+02 2.265295000000000073e+03
1.420000000000000151e-01 2.028340000000000143e-01 6.078079999999999927e+00 1.142205000000000013e+02 2.265324999999999818e+03
1.430000000000000160e-01 2.028329999999999855e-01 6.092024999999999579e+00 1.140769999999999982e+02 2.265324999999999818e+03
1.440000000000000169e-01 2.028280000000000083e-01 6.047235000000000582e+00 1.137990000000000066e+02 2.265300000000000182e+03
1.450000000000000178e-01 2.028185000000000127e-01 5.948269999999999946e+00 1.134009999999999962e+02 2.265234999999999673e+03
1.459999999999999909e-01 2.028050000000000130e-01 5.802049999999999486e+00 1.129050000000000011e+02 2.265144999999999982e+03
1.469999999999999918e-01 2.027879999999999960e-01 5.617245000000000488e+00 1.123340000000000032e+02 2.265039999999999964e+03
1.479999999999999927e-01 2.027684999999999904e-01 5.403615000000000279e+00 1.117135000000000105e+02 2.264914999999999964e+03
1.489999999999999936e-01 2.027474999999999972e-01 5.171350000000000335e+00 1.110690000000000026e+02 2.264775000000000091e+03
1.499999999999999944e-01 2.027255000000000029e-01 4.930395000000000749e+00 1.104230000000000018e+02 2.264630000000000109e+03
1.509999999999999953e-01 2.027034999999999809e-01 4.689894999999999925e+00 1.097959999999999923e+02 2.264485000000000127e+03
1.519999999999999962e-01 2.026820000000000010e-01 4.457739999999999370e+00 1.092034999999999911e+02 2.264345000000000255e+03
1.529999999999999971e-01 2.026614999999999944e-01 4.240169999999999995e+00 1.086574999999999989e+02 2.264204999999999927e+03
1.539999999999999980e-01 2.026419999999999888e-01 4.041665000000000063e+00 1.081629999999999967e+02 2.264079999999999927e+03
1.549999999999999989e-01 2.026244999999999852e-01 3.864804999999999602e+00 1.077220000000000084e+02 2.263960000000000036e+03
1.559999999999999998e-01 2.026085000000000247e-01 3.710380000000000233e+00 1.073315000000000055e+02 2.263855000000000018e+03
1.570000000000000007e-01 2.025939999999999963e-01 3.577539999999999942e+00 1.069849999999999994e+02 2.263755000000000109e+03
1.580000000000000016e-01 2.025815000000000254e-01 3.464030000000000165e+00 1.066730000000000018e+02 2.263670000000000073e+03
1.590000000000000024e-01 2.025689999999999991e-01 3.366500000000000270e+00 1.063849999999999909e+02 2.263590000000000146e+03
