# t [s], A [cm^2], U [cm/s], P [cPa], c [cm/s]
1.000000000000000021e-03 1.304140000000000021e-01 3.713825000000000043e-01 9.478000000000000114e+01 1.786894999999999982e+03
2.000000000000000042e-03 1.303894999999999915e-01 1.951275999999999788e+00 9.170699999999999363e+01 1.786610000000000127e+03
3.000000000000000062e-03 1.303015000000000145e-01 3.849110500000000101e+00 8.776924999999999955e+01 1.785650000000000091e+03
4.000000000000000083e-03 1.301700000000000079e-01 5.936687500000000561e+00 8.350409999999999400e+01 1.784244999999999891e+03
5.000000000000000104e-03 1.300189999999999957e-01 8.161870000000000402e+00 7.959749999999999659e+01 1.782644999999999982e+03
6.000000000000000125e-03 1.298660000000000092e-01 1.041103999999999985e+01 7.634690000000000509e+01 1.781029999999999973e+03
7.000000000000000146e-03 1.297180000000000000e-01 1.252718999999999916e+01 7.365184999999999604e+01 1.779490000000000009e+03
8.000000000000000167e-03 1.295779999999999987e-01 1.440417000000000058e+01 7.128679999999999950e+01 1.778065000000000055e+03
9.000000000000001055e-03 1.294490000000000085e-01 1.603280000000000172e+01 6.916859999999999786e+01 1.776755000000000109e+03
1.000000000000000194e-02 1.293330000000000035e-01 1.744399999999999906e+01 6.733660000000000423e+01 1.775595000000000027e+03
1.099999999999999936e-02 1.292314999999999992e-01 1.865530000000000044e+01 6.580504999999999427e+01 1.774589999999999918e+03
1.200000000000000025e-02 1.291444999999999954e-01 1.967415000000000092e+01 6.453685000000000116e+01 1.773740000000000009e+03
1.300000000000000114e-02 1.290705000000000047e-01 2.050975000000000037e+01 6.348420000000000130e+01 1.773019999999999982e+03
1.400000000000000203e-02 1.290080000000000116e-01 2.117045000000000243e+01 6.259619999999999607e+01 1.772424999999999955e+03
1.499999999999999944e-02 1.289555000000000007e-01 2.166685000000000016e+01 6.181929999999999836e+01 1.771924999999999955e+03
1.600000000000000033e-02 1.289104999999999834e-01 2.203010000000000090e+01 6.113724999999999454e+01 1.771505000000000109e+03
1.700000000000000122e-02 1.288730000000000153e-01 2.232529999999999859e+01 6.062134999999999962e+01 1.771164999999999964e+03
1.800000000000000211e-02 1.288475000000000037e-01 2.264114999999999966e+01 6.043115000000000236e+01 1.770930000000000064e+03
1.900000000000000300e-02 1.288360000000000061e-01 2.305819999999999936e+01 6.074689999999999657e+01 1.770839999999999918e+03
2.000000000000000042e-02 1.288439999999999863e-01 2.361500000000000199e+01 6.167239999999999611e+01 1.770929999999999836e+03
2.100000000000000130e-02 1.288714999999999999e-01 2.429115000000000180e+01 6.316580000000000439e+01 1.771210000000000036e+03
2.200000000000000219e-02 1.289155000000000162e-01 2.501335000000000264e+01 6.503159999999999741e+01 1.771650000000000091e+03
2.299999999999999961e-02 1.289704999999999879e-01 2.568045000000000044e+01 6.697214999999999918e+01 1.772200000000000045e+03
2.400000000000000050e-02 1.290284999999999904e-01 2.619369999999999976e+01 6.867199999999999704e+01 1.772775000000000091e+03
2.500000000000000139e-02 1.290800000000000003e-01 2.648420000000000130e+01 6.988239999999998986e+01 1.773304999999999836e+03
2.600000000000000228e-02 1.291194999999999982e-01 2.652725000000000222e+01 7.047785000000000366e+01 1.773719999999999800e+03
2.700000000000000316e-02 1.291440000000000088e-01 2.634284999999999854e+01 7.047249999999999659e+01 1.773980000000000018e+03
2.800000000000000058e-02 1.291535000000000044e-01 2.598414999999999964e+01 6.999604999999999677e+01 1.774099999999999909e+03
2.900000000000000147e-02 1.291505000000000014e-01 2.551794999999999902e+01 6.924139999999999873e+01 1.774090000000000146e+03
3.000000000000000236e-02 1.291390000000000038e-01 2.500589999999999691e+01 6.840434999999999377e+01 1.773990000000000009e+03
3.099999999999999978e-02 1.291239999999999888e-01 2.449049999999999727e+01 6.763309999999999889e+01 1.773849999999999909e+03
3.200000000000000067e-02 1.291080000000000005e-01 2.398904999999999887e+01 6.700069999999999482e+01 1.773695000000000164e+03
3.300000000000000155e-02 1.290930000000000133e-01 2.349660000000000082e+01 6.650384999999999991e+01 1.773545000000000073e+03
3.400000000000000244e-02 1.290785000000000127e-01 2.299439999999999884e+01 6.608339999999999748e+01 1.773409999999999854e+03
3.500000000000000333e-02 1.290644999999999987e-01 2.246089999999999876e+01 6.565689999999999316e+01 1.773275000000000091e+03
3.600000000000000422e-02 1.290489999999999970e-01 2.188255000000000194e+01 6.515290000000000248e+01 1.773119999999999891e+03
3.700000000000000511e-02 1.290310000000000068e-01 2.126124999999999687e+01 6.453820000000000334e+01 1.772944999999999936e+03
3.799999999999999906e-02 1.290089999999999848e-01 2.061710000000000065e+01 6.383210000000000406e+01 1.772740000000000009e+03
3.899999999999999994e-02 1.289859999999999896e-01 1.998584999999999923e+01 6.310540000000000305e+01 1.772509999999999991e+03
4.000000000000000083e-02 1.289629999999999943e-01 1.941254999999999953e+01 6.246465000000000600e+01 1.772284999999999854e+03
4.100000000000000172e-02 1.289424999999999877e-01 1.894225000000000136e+01 6.202795000000000414e+01 1.772090000000000146e+03
4.200000000000000261e-02 1.289295000000000024e-01 1.861059999999999803e+01 6.189645000000000152e+01 1.771950000000000045e+03
4.300000000000000350e-02 1.289250000000000118e-01 1.843574999999999875e+01 6.213060000000000116e+01 1.771900000000000091e+03
4.400000000000000439e-02 1.289310000000000178e-01 1.841494999999999749e+01 6.273454999999999870e+01 1.771950000000000045e+03
4.499999999999999833e-02 1.289474999999999927e-01 1.852374999999999972e+01 6.365295000000000414e+01 1.772105000000000018e+03
4.599999999999999922e-02 1.289734999999999909e-01 1.872009999999999863e+01 6.477875000000000227e+01 1.772355000000000018e+03
4.700000000000000011e-02 1.290060000000000096e-01 1.895019999999999882e+01 6.597010000000000218e+01 1.772664999999999964e+03
4.800000000000000100e-02 1.290415000000000034e-01 1.915605000000000047e+01 6.707155000000000200e+01 1.773005000000000109e+03
4.900000000000000189e-02 1.290739999999999943e-01 1.928264999999999674e+01 6.793584999999998786e+01 1.773329999999999927e+03
5.000000000000000278e-02 1.291005000000000069e-01 1.928399999999999892e+01 6.844165000000000987e+01 1.773595000000000027e+03
5.100000000000000366e-02 1.291174999999999962e-01 1.912664999999999793e+01 6.850589999999999691e+01 1.773764999999999873e+03
5.200000000000000455e-02 1.291220000000000145e-01 1.879175000000000040e+01 6.808870000000000289e+01 1.773809999999999945e+03
5.300000000000000544e-02 1.291120000000000045e-01 1.827465000000000117e+01 6.719220000000001392e+01 1.773720000000000027e+03
5.399999999999999939e-02 1.290875000000000217e-01 1.758330000000000126e+01 6.585424999999999329e+01 1.773480000000000018e+03
5.500000000000000028e-02 1.290485000000000104e-01 1.673530000000000229e+01 6.413890000000000668e+01 1.773105000000000018e+03
5.600000000000000117e-02 1.289965000000000139e-01 1.575525000000000020e+01 6.212630000000000052e+01 1.772594999999999800e+03
5.700000000000000205e-02 1.289339999999999931e-01 1.467220000000000013e+01 5.990355000000000274e+01 1.771985000000000127e+03
5.800000000000000294e-02 1.288630000000000053e-01 1.351725000000000065e+01 5.755760000000000076e+01 1.771284999999999854e+03
5.900000000000000383e-02 1.287860000000000116e-01 1.232247500000000073e+01 5.517045000000000243e+01 1.770525000000000091e+03
6.000000000000000472e-02 1.287055000000000005e-01 1.112003999999999948e+01 5.281775000000000375e+01 1.769735000000000127e+03
6.099999999999999867e-02 1.286245000000000027e-01 9.941869999999999763e+00 5.056815000000000282e+01 1.768934999999999945e+03
6.199999999999999956e-02 1.285449999999999926e-01 8.819345000000000212e+00 4.848474999999999824e+01 1.768144999999999982e+03
6.300000000000000044e-02 1.284689999999999999e-01 7.783450000000000202e+00 4.662619999999999720e+01 1.767400000000000091e+03
6.400000000000000133e-02 1.283989999999999854e-01 6.864304999999999879e+00 4.504760000000000275e+01 1.766710000000000036e+03
6.500000000000000222e-02 1.283380000000000076e-01 6.090785000000000338e+00 4.380089999999999861e+01 1.766099999999999909e+03
6.600000000000000311e-02 1.282874999999999988e-01 5.489659999999999762e+00 4.293394999999999584e+01 1.765585000000000036e+03
6.700000000000000400e-02 1.282484999999999875e-01 5.084674999999999834e+00 4.248900000000000432e+01 1.765195000000000164e+03
6.800000000000000488e-02 1.282230000000000036e-01 4.895480000000000054e+00 4.250055000000000405e+01 1.764934999999999945e+03
6.900000000000000577e-02 1.282134999999999803e-01 4.936605000000000132e+00 4.299304999999999666e+01 1.764825000000000045e+03
7.000000000000000666e-02 1.282200000000000006e-01 5.216615000000000002e+00 4.397884999999999422e+01 1.764875000000000000e+03
7.100000000000000755e-02 1.282429999999999959e-01 5.737549999999999706e+00 4.545655000000000001e+01 1.765089999999999918e+03
7.200000000000000844e-02 1.282834999999999948e-01 6.494685000000000485e+00 4.741075000000000017e+01 1.765470000000000027e+03
7.300000000000000933e-02 1.283409999999999829e-01 7.476750000000000007e+00 4.981204999999999927e+01 1.766019999999999982e+03
7.399999999999999634e-02 1.284144999999999870e-01 8.666479999999999961e+00 5.261844999999999573e+01 1.766730000000000018e+03
7.499999999999999722e-02 1.285030000000000061e-01 1.004140500000000102e+01 5.577779999999999916e+01 1.767595000000000027e+03
7.599999999999999811e-02 1.286054999999999837e-01 1.157506000000000057e+01 5.923010000000000019e+01 1.768585000000000036e+03
7.699999999999999900e-02 1.287190000000000001e-01 1.323815999999999882e+01 6.291084999999999638e+01 1.769704999999999927e+03
7.799999999999999989e-02 1.288424999999999987e-01 1.499990000000000023e+01 6.675419999999999732e+01 1.770914999999999964e+03
7.900000000000000078e-02 1.289740000000000053e-01 1.682925000000000182e+01 7.069570000000000221e+01 1.772210000000000036e+03
8.000000000000000167e-02 1.291105000000000169e-01 1.869610000000000127e+01 7.467525000000000546e+01 1.773565000000000055e+03
8.100000000000000255e-02 1.292504999999999904e-01 2.057229999999999848e+01 7.863944999999999652e+01 1.774954999999999927e+03
8.200000000000000344e-02 1.293924999999999936e-01 2.243269999999999698e+01 8.254294999999999050e+01 1.776365000000000009e+03
8.300000000000000433e-02 1.295339999999999825e-01 2.425574999999999903e+01 8.635005000000001019e+01 1.777779999999999973e+03
8.400000000000000522e-02 1.296740000000000115e-01 2.602410000000000068e+01 9.003524999999999068e+01 1.779184999999999945e+03
8.500000000000000611e-02 1.298114999999999963e-01 2.772465000000000046e+01 9.358330000000000837e+01 1.780565000000000055e+03
8.600000000000000699e-02 1.299454999999999916e-01 2.934890000000000043e+01 9.698959999999999582e+01 1.781914999999999964e+03
8.700000000000000788e-02 1.300759999999999972e-01 3.089260000000000161e+01 1.002571000000000083e+02 1.783235000000000127e+03
8.800000000000000877e-02 1.302024999999999988e-01 3.235555000000000092e+01 1.033978500000000054e+02 1.784514999999999873e+03
8.899999999999999578e-02 1.303249999999999964e-01 3.374054999999999893e+01 1.064290000000000020e+02 1.785755000000000109e+03
8.999999999999999667e-02 1.304440000000000044e-01 3.505330000000000013e+01 1.093719999999999999e+02 1.786970000000000027e+03
9.099999999999999756e-02 1.305604999999999960e-01 3.630124999999999602e+01 1.122495000000000118e+02 1.788154999999999973e+03
9.199999999999999845e-02 1.306744999999999990e-01 3.749280000000000257e+01 1.150854999999999961e+02 1.789319999999999936e+03
9.299999999999999933e-02 1.307870000000000144e-01 3.863644999999999641e+01 1.179010000000000105e+02 1.790465000000000146e+03
9.400000000000000022e-02 1.308980000000000143e-01 3.974025000000000318e+01 1.207129999999999939e+02 1.791599999999999909e+03
9.500000000000000111e-02 1.310085000000000000e-01 4.081085000000000207e+01 1.235349999999999966e+02 1.792735000000000127e+03
9.600000000000000200e-02 1.311194999999999999e-01 4.185325000000000273e+01 1.263739999999999952e+02 1.793869999999999891e+03
9.700000000000000289e-02 1.312304999999999999e-01 4.287040000000000362e+01 1.292295000000000016e+02 1.795005000000000109e+03
9.800000000000000377e-02 1.313414999999999999e-01 4.386280000000000001e+01 1.320985000000000014e+02 1.796144999999999982e+03
9.900000000000000466e-02 1.314524999999999999e-01 4.482890000000000441e+01 1.349679999999999893e+02 1.797285000000000082e+03
1.000000000000000056e-01 1.315634999999999999e-01 4.576465000000000316e+01 1.378230000000000075e+02 1.798429999999999836e+03
1.010000000000000064e-01 1.316739999999999855e-01 4.666434999999999889e+01 1.406424999999999841e+02 1.799559999999999945e+03
1.020000000000000073e-01 1.317830000000000112e-01 4.752055000000000007e+01 1.434030000000000200e+02 1.800680000000000064e+03
1.030000000000000082e-01 1.318900000000000072e-01 4.832455000000000211e+01 1.460790000000000077e+02 1.801780000000000200e+03
1.040000000000000091e-01 1.319945000000000146e-01 4.906709999999999638e+01 1.486449999999999818e+02 1.802860000000000127e+03
1.050000000000000100e-01 1.320949999999999902e-01 4.973860000000000525e+01 1.510740000000000123e+02 1.803894999999999982e+03
1.059999999999999970e-01 1.321915000000000173e-01 5.032954999999999757e+01 1.533430000000000177e+02 1.804889999999999873e+03
1.069999999999999979e-01 1.322820000000000107e-01 5.083124999999999716e+01 1.554295000000000186e+02 1.805835000000000036e+03
1.079999999999999988e-01 1.323664999999999980e-01 5.123584999999999923e+01 1.573140000000000214e+02 1.806710000000000036e+03
1.089999999999999997e-01 1.324444999999999928e-01 5.153690000000000282e+01 1.589825000000000159e+02 1.807519999999999982e+03
1.100000000000000006e-01 1.325144999999999795e-01 5.172955000000000325e+01 1.604234999999999900e+02 1.808255000000000109e+03
1.110000000000000014e-01 1.325770000000000004e-01 5.181080000000000041e+01 1.616299999999999955e+02 1.808904999999999973e+03
1.120000000000000023e-01 1.326309999999999989e-01 5.177949999999999875e+01 1.626009999999999991e+02 1.809474999999999909e+03
1.130000000000000032e-01 1.326769999999999894e-01 5.163660000000000139e+01 1.633375000000000057e+02 1.809960000000000036e+03
1.140000000000000041e-01 1.327139999999999986e-01 5.138509999999999422e+01 1.638474999999999966e+02 1.810355000000000018e+03
1.150000000000000050e-01 1.327435000000000143e-01 5.102984999999999616e+01 1.641410000000000196e+02 1.810670000000000073e+03
1.160000000000000059e-01 1.327649999999999941e-01 5.057765000000000555e+01 1.642330000000000041e+02 1.810900000000000091e+03
1.170000000000000068e-01 1.327789999999999804e-01 5.003685000000000116e+01 1.641410000000000196e+02 1.811050000000000182e+03
1.180000000000000077e-01 1.327849999999999864e-01 4.941724999999999568e+01 1.638855000000000075e+02 1.811130000000000109e+03
1.190000000000000085e-01 1.327849999999999864e-01 4.872964999999999947e+01 1.634884999999999877e+02 1.811139999999999873e+03
1.200000000000000094e-01 1.327794999999999948e-01 4.798569999999999425e+01 1.629724999999999966e+02 1.811090000000000146e+03
1.209999999999999964e-01 1.327694999999999848e-01 4.719719999999999516e+01 1.623625000000000114e+02 1.810990000000000009e+03
1.219999999999999973e-01 1.327544999999999975e-01 4.637624999999999886e+01 1.616809999999999832e+02 1.810845000000000027e+03
1.229999999999999982e-01 1.327365000000000073e-01 4.553425000000000011e+01 1.609495000000000005e+02 1.810659999999999854e+03
1.239999999999999991e-01 1.327154999999999863e-01 4.468234999999999957e+01 1.601890000000000214e+02 1.810450000000000045e+03
1.250000000000000000e-01 1.326924999999999910e-01 4.383035000000000281e+01 1.594180000000000064e+02 1.810215000000000146e+03
1.260000000000000009e-01 1.326680000000000081e-01 4.298689999999999856e+01 1.586500000000000057e+02 1.809970000000000027e+03
1.270000000000000018e-01 1.326430000000000109e-01 4.215945000000000675e+01 1.578990000000000009e+02 1.809714999999999918e+03
1.280000000000000027e-01 1.326180000000000136e-01 4.135354999999999848e+01 1.571719999999999970e+02 1.809454999999999927e+03
1.290000000000000036e-01 1.325930000000000164e-01 4.057335000000000491e+01 1.564755000000000109e+02 1.809199999999999818e+03
1.300000000000000044e-01 1.325685000000000058e-01 3.982119999999999749e+01 1.558104999999999905e+02 1.808944999999999936e+03
1.310000000000000053e-01 1.325445000000000095e-01 3.909794999999999732e+01 1.551765000000000043e+02 1.808690000000000055e+03
1.320000000000000062e-01 1.325209999999999999e-01 3.840274999999999750e+01 1.545685000000000002e+02 1.808450000000000045e+03
1.330000000000000071e-01 1.324980000000000047e-01 3.773355000000000103e+01 1.539805000000000064e+02 1.808204999999999927e+03
1.340000000000000080e-01 1.324754999999999960e-01 3.708695000000000164e+01 1.534039999999999964e+02 1.807974999999999909e+03
1.350000000000000089e-01 1.324535000000000018e-01 3.645875000000000199e+01 1.528284999999999911e+02 1.807740000000000009e+03
1.360000000000000098e-01 1.324315000000000075e-01 3.584394999999999953e+01 1.522425000000000068e+02 1.807510000000000218e+03
1.370000000000000107e-01 1.324089999999999989e-01 3.523699999999999477e+01 1.516345000000000027e+02 1.807275000000000091e+03
1.380000000000000115e-01 1.323854999999999893e-01 3.463235000000000241e+01 1.509935000000000116e+02 1.807029999999999973e+03
1.390000000000000124e-01 1.323610000000000064e-01 3.402424999999999500e+01 1.503075000000000045e+02 1.806775000000000091e+03
1.400000000000000133e-01 1.323350000000000082e-01 3.340749999999999886e+01 1.495665000000000191e+02 1.806509999999999991e+03
1.410000000000000142e-01 1.323074999999999946e-01 3.277724999999999511e+01 1.487624999999999886e+02 1.806220000000000027e+03
1.420000000000000151e-01 1.322774999999999923e-01 3.212945000000000562e+01 1.478890000000000100e+02 1.805914999999999964e+03
1.430000000000000160e-01 1.322454999999999881e-01 3.146114999999999995e+01 1.469420000000000073e+02 1.805579999999999927e+03
1.440000000000000169e-01 1.322110000000000229e-01 3.077019999999999911e+01 1.459184999999999945e+02 1.805230000000000018e+03
1.450000000000000178e-01 1.321740000000000137e-01 3.005579999999999785e+01 1.448195000000000050e+02 1.804849999999999909e+03
1.459999999999999909e-01 1.321344999999999881e-01 2.931830000000000069e+01 1.436490000000000009e+02 1.804440000000000055e+03
1.469999999999999918e-01 1.320919999999999872e-01 2.855940000000000012e+01 1.424124999999999943e+02 1.804005000000000109e+03
1.479999999999999927e-01 1.320474999999999843e-01 2.778184999999999860e+01 1.411189999999999998e+02 1.803549999999999955e+03
1.489999999999999936e-01 1.320010000000000072e-01 2.698975000000000080e+01 1.397775000000000034e+02 1.803069999999999936e+03
1.499999999999999944e-01 1.319520000000000137e-01 2.618805000000000049e+01 1.384019999999999868e+02 1.802569999999999936e+03
1.509999999999999953e-01 1.319020000000000192e-01 2.538264999999999816e+01 1.370059999999999718e+02 1.802059999999999945e+03
1.519999999999999962e-01 1.318515000000000104e-01 2.457999999999999829e+01 1.356050000000000182e+02 1.801534999999999854e+03
1.529999999999999971e-01 1.318000000000000005e-01 2.378709999999999880e+01 1.342144999999999868e+02 1.801009999999999991e+03
1.539999999999999980e-01 1.317484999999999906e-01 2.301105000000000089e+01 1.328505000000000109e+02 1.800485000000000127e+03
1.549999999999999989e-01 1.316974999999999951e-01 2.225900000000000034e+01 1.315279999999999916e+02 1.799960000000000036e+03
1.559999999999999998e-01 1.316480000000000150e-01 2.153780000000000072e+01 1.302620000000000005e+02 1.799454999999999927e+03
1.570000000000000007e-01 1.315994999999999804e-01 2.085360000000000014e+01 1.290649999999999977e+02 1.798960000000000036e+03
1.580000000000000016e-01 1.315534999999999899e-01 2.021215000000000117e+01 1.279484999999999957e+02 1.798480000000000018e+03
1.590000000000000024e-01 1.315100000000000158e-01 1.961800000000000210e+01 1.269210000000000065e+02 1.798029999999999973e+03
