# t [s], A [cm^2], U [cm/s], P [cPa], c [cm/s]
1.000000000000000021e-03 4.594685000000000019e-01 3.556549999999998601e-03 9.184520000000000550e+01 1.534789999999999964e+03
2.000000000000000042e-03 4.594615000000000227e-01 -1.769114999999999924e-03 9.182505000000000450e+01 1.534785000000000082e+03
3.000000000000000062e-03 4.594905000000000239e-01 6.321804999999999786e-02 9.188775000000001114e+01 1.534799999999999955e+03
4.000000000000000083e-03 4.595285000000000064e-01 1.540581500000000048e-01 9.199799999999999045e+01 1.534829999999999927e+03
5.000000000000000104e-03 4.595290000000000208e-01 1.650944999999999774e-01 9.200809999999999889e+01 1.534835000000000036e+03
6.000000000000000125e-03 4.594944999999999724e-01 9.680950000000000666e-02 9.188190000000000168e+01 1.534809999999999945e+03
7.000000000000000146e-03 4.594590000000000063e-01 2.152399999999998759e-02 9.169134999999999991e+01 1.534764999999999873e+03
8.000000000000000167e-03 4.594194999999999807e-01 -6.990549999999995379e-02 9.144030000000000769e+01 1.534710000000000036e+03
9.000000000000001055e-03 4.593510000000000093e-01 -2.369175000000000031e-01 9.105815000000001191e+01 1.534619999999999891e+03
1.000000000000000194e-02 4.592459999999999876e-01 -4.997799999999998910e-01 9.049764999999999304e+01 1.534494999999999891e+03
1.099999999999999936e-02 4.590984999999999649e-01 -8.664800000000000280e-01 8.972175000000000011e+01 1.534304999999999836e+03
1.200000000000000025e-02 4.588975000000000137e-01 -1.352154999999999774e+00 8.868285000000000196e+01 1.534065000000000055e+03
1.300000000000000114e-02 4.586439999999999961e-01 -1.944765000000000077e+00 8.736240000000000805e+01 1.533744999999999891e+03
1.400000000000000203e-02 4.583565000000000000e-01 -2.577860000000000262e+00 8.581415000000001214e+01 1.533360000000000127e+03
1.499999999999999944e-02 4.580710000000000059e-01 -3.148204999999999920e+00 8.415834999999999866e+01 1.532934999999999945e+03
1.600000000000000033e-02 4.578169999999999740e-01 -3.559331499999999870e+00 8.253379999999999939e+01 1.532500000000000000e+03
1.700000000000000122e-02 4.576089999999999880e-01 -3.755987999999999882e+00 8.104640000000000555e+01 1.532085000000000036e+03
1.800000000000000211e-02 4.574439999999999618e-01 -3.734080999999999761e+00 7.974160000000000537e+01 1.531694999999999936e+03
1.900000000000000300e-02 4.573050000000000170e-01 -3.530316500000000079e+00 7.860370000000000346e+01 1.531335000000000036e+03
2.000000000000000042e-02 4.571709999999999940e-01 -3.202160999999999813e+00 7.757450000000000045e+01 1.531000000000000000e+03
2.100000000000000130e-02 4.570235000000000269e-01 -2.806922999999999835e+00 7.657929999999998927e+01 1.530670000000000073e+03
2.200000000000000219e-02 4.568514999999999660e-01 -2.385550000000000281e+00 7.555304999999999893e+01 1.530329999999999927e+03
2.299999999999999961e-02 4.566550000000000331e-01 -1.954664999999999875e+00 7.445855000000000246e+01 1.529980000000000018e+03
2.400000000000000050e-02 4.564384999999999692e-01 -1.508324999999999916e+00 7.329245000000000232e+01 1.529619999999999891e+03
2.500000000000000139e-02 4.562134999999999940e-01 -1.027895000000000003e+00 7.207810000000000628e+01 1.529240000000000009e+03
2.600000000000000228e-02 4.559910000000000352e-01 -4.955899999999997529e-01 7.085034999999999172e+01 1.528855000000000018e+03
2.700000000000000316e-02 4.557744999999999713e-01 9.366500000000010928e-02 6.963729999999999620e+01 1.528474999999999909e+03
2.800000000000000058e-02 4.555635000000000101e-01 7.257000000000002338e-01 6.844720000000000937e+01 1.528095000000000027e+03
2.900000000000000147e-02 4.553490000000000038e-01 1.367039999999999811e+00 6.726239999999999952e+01 1.527715000000000146e+03
3.000000000000000236e-02 4.551190000000000513e-01 1.970389999999999864e+00 6.604169999999999163e+01 1.527329999999999927e+03
3.099999999999999978e-02 4.548594999999999722e-01 2.483789999999999942e+00 6.472894999999999754e+01 1.526920000000000073e+03
3.200000000000000067e-02 4.545599999999999641e-01 2.861109999999999598e+00 6.326720000000000255e+01 1.526485000000000127e+03
3.300000000000000155e-02 4.542140000000000066e-01 3.071519999999999584e+00 6.161290000000000333e+01 1.526000000000000000e+03
3.400000000000000244e-02 4.538235000000000463e-01 3.105834999999999901e+00 5.974830000000000041e+01 1.525470000000000027e+03
3.500000000000000333e-02 4.533960000000000212e-01 2.978239999999999998e+00 5.768834999999999980e+01 1.524894999999999982e+03
3.600000000000000422e-02 4.529464999999999741e-01 2.723065000000000513e+00 5.548125000000000284e+01 1.524275000000000091e+03
3.700000000000000511e-02 4.524940000000000073e-01 2.387989999999999391e+00 5.320174999999999699e+01 1.523639999999999873e+03
3.799999999999999906e-02 4.520575000000000010e-01 2.025724999999999998e+00 5.094055000000000177e+01 1.523005000000000109e+03
3.899999999999999994e-02 4.516539999999999999e-01 1.686265000000000125e+00 4.879250000000000398e+01 1.522390000000000100e+03
4.000000000000000083e-02 4.512984999999999913e-01 1.411519999999999886e+00 4.684564999999999912e+01 1.521819999999999936e+03
4.100000000000000172e-02 4.510005000000000264e-01 1.232479999999999798e+00 4.517374999999999829e+01 1.521315000000000055e+03
4.200000000000000261e-02 4.507674999999999876e-01 1.169159999999999755e+00 4.383185000000000286e+01 1.520884999999999991e+03
4.300000000000000350e-02 4.506019999999999470e-01 1.232375000000000220e+00 4.285604999999999620e+01 1.520559999999999945e+03
4.400000000000000439e-02 4.505049999999999888e-01 1.426569999999999894e+00 4.226510000000000389e+01 1.520325000000000045e+03
4.499999999999999833e-02 4.504759999999999875e-01 1.752865499999999965e+00 4.206465000000000032e+01 1.520204999999999927e+03
4.599999999999999922e-02 4.505135000000000112e-01 2.211580000000000101e+00 4.225119999999999720e+01 1.520184999999999945e+03
4.700000000000000011e-02 4.506165000000000309e-01 2.803729999999999833e+00 4.281609999999999872e+01 1.520269999999999982e+03
4.800000000000000100e-02 4.507839999999999625e-01 3.531330000000000080e+00 4.374824999999999875e+01 1.520460000000000036e+03
4.900000000000000189e-02 4.510139999999999705e-01 4.396627499999999245e+00 4.503520000000000323e+01 1.520759999999999991e+03
5.000000000000000278e-02 4.513050000000000117e-01 5.400661500000000004e+00 4.666284999999999883e+01 1.521150000000000091e+03
5.100000000000000366e-02 4.516550000000000287e-01 6.541590499999999864e+00 4.861419999999999675e+01 1.521639999999999873e+03
5.200000000000000455e-02 4.520589999999999886e-01 7.813304999999999723e+00 5.086825000000000330e+01 1.522214999999999918e+03
5.300000000000000544e-02 4.525129999999999986e-01 9.204734999999999445e+00 5.339825000000000443e+01 1.522880000000000109e+03
5.399999999999999939e-02 4.530084999999999806e-01 1.069977499999999893e+01 5.617164999999999964e+01 1.523615000000000009e+03
5.500000000000000028e-02 4.535394999999999843e-01 1.227788499999999949e+01 5.915024999999999977e+01 1.524414999999999964e+03
5.600000000000000117e-02 4.540969999999999729e-01 1.391564500000000137e+01 6.229139999999999588e+01 1.525269999999999982e+03
5.700000000000000205e-02 4.546725000000000350e-01 1.558796500000000052e+01 6.555015000000000214e+01 1.526164999999999964e+03
5.800000000000000294e-02 4.552580000000000515e-01 1.726992500000000064e+01 6.888124999999999432e+01 1.527095000000000027e+03
5.900000000000000383e-02 4.558460000000000290e-01 1.893815000000000026e+01 7.224164999999999281e+01 1.528039999999999964e+03
6.000000000000000472e-02 4.564305000000000168e-01 2.057215000000000060e+01 7.559270000000000778e+01 1.529000000000000000e+03
6.099999999999999867e-02 4.570054999999999534e-01 2.215489999999999782e+01 7.890170000000000528e+01 1.529954999999999927e+03
6.199999999999999956e-02 4.575679999999999747e-01 2.367324999999999946e+01 8.214300000000000068e+01 1.530900000000000091e+03
6.300000000000000044e-02 4.581155000000000088e-01 2.511789999999999878e+01 8.529845000000000255e+01 1.531829999999999927e+03
6.400000000000000133e-02 4.586480000000000556e-01 2.648339999999999961e+01 8.835745000000000005e+01 1.532744999999999891e+03
6.500000000000000222e-02 4.591644999999999754e-01 2.776709999999999923e+01 9.131565000000000509e+01 1.533630000000000109e+03
6.600000000000000311e-02 4.596654999999999491e-01 2.896909999999999741e+01 9.417459999999999809e+01 1.534494999999999891e+03
6.700000000000000400e-02 4.601534999999999931e-01 3.009134999999999849e+01 9.694015000000000271e+01 1.535335000000000036e+03
6.800000000000000488e-02 4.606290000000000107e-01 3.113700000000000045e+01 9.962189999999999657e+01 1.536155000000000200e+03
6.900000000000000577e-02 4.610945000000000182e-01 3.211005000000000109e+01 1.022296499999999924e+02 1.536954999999999927e+03
7.000000000000000666e-02 4.615525000000000322e-01 3.301454999999999984e+01 1.047753999999999905e+02 1.537740000000000009e+03
7.100000000000000755e-02 4.620024999999999826e-01 3.385430000000000206e+01 1.072680000000000007e+02 1.538505000000000109e+03
7.200000000000000844e-02 4.624475000000000113e-01 3.463235000000000241e+01 1.097160000000000082e+02 1.539259999999999991e+03
7.300000000000000933e-02 4.628864999999999785e-01 3.535079999999999956e+01 1.121245000000000118e+02 1.540005000000000109e+03
7.399999999999999634e-02 4.633199999999999541e-01 3.601054999999999495e+01 1.144954999999999927e+02 1.540735000000000127e+03
7.499999999999999722e-02 4.637469999999999648e-01 3.661119999999999663e+01 1.168269999999999982e+02 1.541454999999999927e+03
7.599999999999999811e-02 4.641664999999999819e-01 3.715149999999999864e+01 1.191140000000000043e+02 1.542159999999999854e+03
7.699999999999999900e-02 4.645759999999999890e-01 3.762879999999999825e+01 1.213470000000000084e+02 1.542855000000000018e+03
7.799999999999999989e-02 4.649735000000000396e-01 3.804009999999999536e+01 1.235165000000000077e+02 1.543525000000000091e+03
7.900000000000000078e-02 4.653570000000000206e-01 3.838190000000000168e+01 1.256085000000000065e+02 1.544184999999999945e+03
8.000000000000000167e-02 4.657229999999999981e-01 3.865059999999999718e+01 1.276090000000000089e+02 1.544809999999999945e+03
8.100000000000000255e-02 4.660704999999999987e-01 3.884300000000000352e+01 1.295045000000000073e+02 1.545414999999999964e+03
8.200000000000000344e-02 4.663955000000000184e-01 3.895640000000000214e+01 1.312819999999999823e+02 1.545980000000000018e+03
8.300000000000000433e-02 4.666974999999999874e-01 3.898884999999999934e+01 1.329294999999999902e+02 1.546509999999999991e+03
8.400000000000000522e-02 4.669740000000000002e-01 3.893930000000000291e+01 1.344354999999999905e+02 1.547005000000000109e+03
8.500000000000000611e-02 4.672239999999999727e-01 3.880774999999999864e+01 1.357939999999999827e+02 1.547454999999999927e+03
8.600000000000000699e-02 4.674464999999999870e-01 3.859515000000000384e+01 1.369984999999999786e+02 1.547859999999999900e+03
8.700000000000000788e-02 4.676420000000000021e-01 3.830349999999999966e+01 1.380469999999999970e+02 1.548224999999999909e+03
8.800000000000000877e-02 4.678100000000000591e-01 3.793605000000000160e+01 1.389399999999999977e+02 1.548539999999999964e+03
8.899999999999999578e-02 4.679504999999999915e-01 3.749669999999999703e+01 1.396790000000000020e+02 1.548805000000000064e+03
8.999999999999999667e-02 4.680655000000000232e-01 3.699054999999999893e+01 1.402700000000000102e+02 1.549029999999999973e+03
9.099999999999999756e-02 4.681560000000000166e-01 3.642354999999999876e+01 1.407195000000000107e+02 1.549215000000000146e+03
9.199999999999999845e-02 4.682235000000000147e-01 3.580239999999999867e+01 1.410380000000000109e+02 1.549355000000000018e+03
9.299999999999999933e-02 4.682699999999999640e-01 3.513454999999999728e+01 1.412350000000000136e+02 1.549460000000000036e+03
9.400000000000000022e-02 4.682979999999999920e-01 3.442790000000000106e+01 1.413245000000000005e+02 1.549525000000000091e+03
9.500000000000000111e-02 4.683089999999999753e-01 3.369084999999999752e+01 1.413190000000000168e+02 1.549565000000000055e+03
9.600000000000000200e-02 4.683065000000000144e-01 3.293184999999999718e+01 1.412330000000000041e+02 1.549575000000000045e+03
9.700000000000000289e-02 4.682930000000000148e-01 3.215935000000000343e+01 1.410815000000000055e+02 1.549559999999999945e+03
9.800000000000000377e-02 4.682699999999999640e-01 3.138134999999999764e+01 1.408779999999999859e+02 1.549525000000000091e+03
9.900000000000000466e-02 4.682405000000000594e-01 3.060539999999999594e+01 1.406365000000000123e+02 1.549480000000000018e+03
1.000000000000000056e-01 4.682060000000000111e-01 2.983814999999999884e+01 1.403700000000000045e+02 1.549420000000000073e+03
1.010000000000000064e-01 4.681695000000000162e-01 2.908530000000000015e+01 1.400885000000000105e+02 1.549349999999999909e+03
1.020000000000000073e-01 4.681314999999999782e-01 2.835119999999999862e+01 1.398020000000000209e+02 1.549275000000000091e+03
1.030000000000000082e-01 4.680929999999999813e-01 2.763904999999999745e+01 1.395159999999999911e+02 1.549200000000000045e+03
1.040000000000000091e-01 4.680545000000000400e-01 2.695070000000000121e+01 1.392365000000000066e+02 1.549119999999999891e+03
1.050000000000000100e-01 4.680170000000000163e-01 2.628645000000000209e+01 1.389660000000000082e+02 1.549039999999999964e+03
1.059999999999999970e-01 4.679794999999999927e-01 2.564560000000000173e+01 1.387040000000000077e+02 1.548965000000000146e+03
1.069999999999999979e-01 4.679419999999999691e-01 2.502629999999999910e+01 1.384485000000000241e+02 1.548889999999999873e+03
1.079999999999999988e-01 4.679039999999999866e-01 2.442564999999999742e+01 1.381959999999999980e+02 1.548809999999999945e+03
1.089999999999999997e-01 4.678640000000000021e-01 2.384009999999999962e+01 1.379424999999999955e+02 1.548730000000000018e+03
1.100000000000000006e-01 4.678210000000000424e-01 2.326565000000000083e+01 1.376809999999999832e+02 1.548650000000000091e+03
1.110000000000000014e-01 4.677740000000000231e-01 2.269774999999999920e+01 1.374060000000000059e+02 1.548565000000000055e+03
1.120000000000000023e-01 4.677219999999999711e-01 2.213214999999999932e+01 1.371094999999999970e+02 1.548474999999999909e+03
1.130000000000000032e-01 4.676639999999999686e-01 2.156449999999999889e+01 1.367855000000000132e+02 1.548380000000000109e+03
1.140000000000000041e-01 4.675985000000000280e-01 2.099069999999999681e+01 1.364284999999999854e+02 1.548269999999999982e+03
1.150000000000000050e-01 4.675259999999999971e-01 2.040739999999999910e+01 1.360330000000000155e+02 1.548154999999999973e+03
1.160000000000000059e-01 4.674445000000000405e-01 1.981165000000000020e+01 1.355949999999999989e+02 1.548030000000000200e+03
1.170000000000000068e-01 4.673549999999999649e-01 1.920139999999999958e+01 1.351125000000000114e+02 1.547889999999999873e+03
1.180000000000000077e-01 4.672564999999999635e-01 1.857549999999999812e+01 1.345829999999999984e+02 1.547740000000000009e+03
1.190000000000000085e-01 4.671494999999999953e-01 1.793350000000000222e+01 1.340090000000000146e+02 1.547579999999999927e+03
1.200000000000000094e-01 4.670349999999999779e-01 1.727609999999999957e+01 1.333919999999999959e+02 1.547400000000000091e+03
1.209999999999999964e-01 4.669139999999999957e-01 1.660490000000000066e+01 1.327350000000000136e+02 1.547214999999999918e+03
1.219999999999999973e-01 4.667869999999999520e-01 1.592244999999999955e+01 1.320444999999999993e+02 1.547019999999999982e+03
1.229999999999999982e-01 4.666555000000000009e-01 1.523199999999999932e+01 1.313265000000000100e+02 1.546809999999999945e+03
1.239999999999999991e-01 4.665209999999999635e-01 1.453767000000000031e+01 1.305894999999999868e+02 1.546599999999999909e+03
1.250000000000000000e-01 4.663859999999999673e-01 1.384410000000000096e+01 1.298425000000000011e+02 1.546384999999999991e+03
1.260000000000000009e-01 4.662515000000000409e-01 1.315643500000000188e+01 1.290945000000000107e+02 1.546170000000000073e+03
1.270000000000000018e-01 4.661190000000000055e-01 1.248000499999999846e+01 1.283559999999999945e+02 1.545954999999999927e+03
1.280000000000000027e-01 4.659915000000000029e-01 1.182028999999999996e+01 1.276359999999999957e+02 1.545740000000000009e+03
1.290000000000000036e-01 4.658694999999999919e-01 1.118261000000000038e+01 1.269455000000000098e+02 1.545530000000000200e+03
1.300000000000000044e-01 4.657544999999999602e-01 1.057189999999999941e+01 1.262929999999999922e+02 1.545335000000000036e+03
1.310000000000000053e-01 4.656490000000000351e-01 9.992725000000000080e+00 1.256860000000000070e+02 1.545150000000000091e+03
1.320000000000000062e-01 4.655529999999999946e-01 9.448895000000000266e+00 1.251315000000000026e+02 1.544974999999999909e+03
1.330000000000000071e-01 4.654679999999999929e-01 8.943490000000000606e+00 1.246345000000000027e+02 1.544820000000000164e+03
1.340000000000000080e-01 4.653935000000000155e-01 8.478629999999999001e+00 1.241980000000000075e+02 1.544675000000000182e+03
1.350000000000000089e-01 4.653304999999999803e-01 8.055645000000000167e+00 1.238245000000000005e+02 1.544550000000000182e+03
1.360000000000000098e-01 4.652789999999999981e-01 7.674699999999999633e+00 1.235134999999999934e+02 1.544445000000000164e+03
1.370000000000000107e-01 4.652370000000000116e-01 7.335225000000000328e+00 1.232634999999999934e+02 1.544349999999999909e+03
1.380000000000000115e-01 4.652064999999999673e-01 7.035750000000000171e+00 1.230704999999999956e+02 1.544279999999999973e+03
1.390000000000000124e-01 4.651839999999999864e-01 6.774029999999999774e+00 1.229309999999999974e+02 1.544219999999999800e+03
1.400000000000000133e-01 4.651689999999999436e-01 6.547265000000000335e+00 1.228370000000000033e+02 1.544175000000000182e+03
1.410000000000000142e-01 4.651610000000000467e-01 6.352145000000000152e+00 1.227839999999999918e+02 1.544144999999999982e+03
1.420000000000000151e-01 4.651585000000000303e-01 6.185084999999999944e+00 1.227634999999999934e+02 1.544125000000000000e+03
1.430000000000000160e-01 4.651594999999999480e-01 6.042320000000000135e+00 1.227690000000000055e+02 1.544110000000000127e+03
1.440000000000000169e-01 4.651640000000000219e-01 5.920085000000000264e+00 1.227930000000000064e+02 1.544105000000000018e+03
1.450000000000000178e-01 4.651695000000000135e-01 5.814719999999999445e+00 1.228284999999999911e+02 1.544105000000000018e+03
1.459999999999999909e-01 4.651755000000000195e-01 5.722770000000000579e+00 1.228694999999999879e+02 1.544105000000000018e+03
1.469999999999999918e-01 4.651810000000000667e-01 5.641070000000000029e+00 1.229105000000000132e+02 1.544110000000000127e+03
1.479999999999999927e-01 4.651859999999999884e-01 5.566795000000000826e+00 1.229474999999999909e+02 1.544115000000000009e+03
1.489999999999999936e-01 4.651895000000000335e-01 5.497500000000000497e+00 1.229755000000000109e+02 1.544119999999999891e+03
1.499999999999999944e-01 4.651904999999999513e-01 5.431119999999999948e+00 1.229929999999999950e+02 1.544119999999999891e+03
1.509999999999999953e-01 4.651895000000000335e-01 5.365969999999999906e+00 1.229979999999999905e+02 1.544119999999999891e+03
1.519999999999999962e-01 4.651859999999999884e-01 5.300739999999999341e+00 1.229890000000000043e+02 1.544115000000000009e+03
1.529999999999999971e-01 4.651799999999999824e-01 5.234434999999999505e+00 1.229650000000000034e+02 1.544105000000000018e+03
1.539999999999999980e-01 4.651724999999999888e-01 5.166389999999999816e+00 1.229275000000000091e+02 1.544095000000000027e+03
1.549999999999999989e-01 4.651619999999999644e-01 5.096210000000000129e+00 1.228764999999999930e+02 1.544079999999999927e+03
1.559999999999999998e-01 4.651494999999999935e-01 5.023735000000000284e+00 1.228130000000000024e+02 1.544065000000000055e+03
1.570000000000000007e-01 4.651355000000000350e-01 4.949015000000000164e+00 1.227379999999999995e+02 1.544039999999999964e+03
1.580000000000000016e-01 4.651195000000000190e-01 4.872279999999999944e+00 1.226539999999999964e+02 1.544019999999999982e+03
1.590000000000000024e-01 4.651024999999999743e-01 4.793895000000000017e+00 1.225614999999999952e+02 1.543994999999999891e+03
