# t [s], A [cm^2], U [cm/s], P [cPa], c [cm/s]
1.000000000000000021e-03 1.220460000000000017e-01 2.407579999999999998e-01 8.762080000000000268e+01 1.932255000000000109e+03
2.000000000000000042e-03 1.220269999999999966e-01 1.527541500000000108e+00 8.498014999999999475e+01 1.932005000000000109e+03
3.000000000000000062e-03 1.219584999999999975e-01 3.118278499999999731e+00 8.145824999999999250e+01 1.931190000000000055e+03
4.000000000000000083e-03 1.218575000000000075e-01 4.893215700000000723e+00 7.751169999999999050e+01 1.929990000000000009e+03
5.000000000000000104e-03 1.217415000000000025e-01 6.808049999999999713e+00 7.379679999999999040e+01 1.928634999999999991e+03
6.000000000000000125e-03 1.216239999999999960e-01 8.766014999999999446e+00 7.065444999999999709e+01 1.927275000000000091e+03
7.000000000000000146e-03 1.215120000000000089e-01 1.061614499999999950e+01 6.803000000000000114e+01 1.925985000000000127e+03
8.000000000000000167e-03 1.214059999999999861e-01 1.224600500000000025e+01 6.570734999999999104e+01 1.924795000000000073e+03
9.000000000000001055e-03 1.213090000000000002e-01 1.364288499999999971e+01 6.361030000000000229e+01 1.923710000000000036e+03
1.000000000000000194e-02 1.212219999999999964e-01 1.483789999999999942e+01 6.179560000000000741e+01 1.922759999999999991e+03
1.099999999999999936e-02 1.211470000000000047e-01 1.584954999999999892e+01 6.029470000000000596e+01 1.921949999999999818e+03
1.200000000000000025e-02 1.210844999999999838e-01 1.668520000000000181e+01 5.908089999999999975e+01 1.921265000000000100e+03
1.300000000000000114e-02 1.210320000000000007e-01 1.734955000000000069e+01 5.810190000000000055e+01 1.920714999999999918e+03
1.400000000000000203e-02 1.209884999999999988e-01 1.784335000000000093e+01 5.728515000000000157e+01 1.920259999999999991e+03
1.499999999999999944e-02 1.209520000000000040e-01 1.817435000000000045e+01 5.655729999999999791e+01 1.919884999999999991e+03
1.600000000000000033e-02 1.209205000000000002e-01 1.838199999999999790e+01 5.590980000000000416e+01 1.919565000000000055e+03
1.700000000000000122e-02 1.208960000000000035e-01 1.854645000000000010e+01 5.545405000000000229e+01 1.919324999999999818e+03
1.800000000000000211e-02 1.208819999999999895e-01 1.876705000000000112e+01 5.539600000000000080e+01 1.919184999999999945e+03
1.900000000000000300e-02 1.208820000000000033e-01 1.912144999999999939e+01 5.593524999999999636e+01 1.919199999999999818e+03
2.000000000000000042e-02 1.208990000000000065e-01 1.963114999999999810e+01 5.715049999999999386e+01 1.919389999999999873e+03
2.100000000000000130e-02 1.209329999999999988e-01 2.025274999999999892e+01 5.893959999999999866e+01 1.919760000000000218e+03
2.200000000000000219e-02 1.209790000000000032e-01 2.089440000000000097e+01 6.103829999999999245e+01 1.920269999999999982e+03
2.299999999999999961e-02 1.210309999999999997e-01 2.144874999999999687e+01 6.310075000000000500e+01 1.920840000000000146e+03
2.400000000000000050e-02 1.210809999999999942e-01 2.182609999999999673e+01 6.480290000000000816e+01 1.921400000000000091e+03
2.500000000000000139e-02 1.211229999999999946e-01 2.197789999999999822e+01 6.592794999999999561e+01 1.921880000000000109e+03
2.600000000000000228e-02 1.211530000000000107e-01 2.190390000000000015e+01 6.641085000000001060e+01 1.922224999999999909e+03
2.700000000000000316e-02 1.211694999999999994e-01 2.164455000000000240e+01 6.633119999999999550e+01 1.922429999999999836e+03
2.800000000000000058e-02 1.211750000000000049e-01 2.126180000000000092e+01 6.586584999999999468e+01 1.922500000000000000e+03
2.900000000000000147e-02 1.211715000000000014e-01 2.081759999999999877e+01 6.522065000000000623e+01 1.922480000000000018e+03
3.000000000000000236e-02 1.211635000000000073e-01 2.035589999999999833e+01 6.456595000000000084e+01 1.922404999999999973e+03
3.099999999999999978e-02 1.211539999999999978e-01 1.989430000000000121e+01 6.399474999999999625e+01 1.922305000000000064e+03
3.200000000000000067e-02 1.211445000000000022e-01 1.942504999999999882e+01 6.351334999999999553e+01 1.922200000000000045e+03
3.300000000000000155e-02 1.211339999999999917e-01 1.892484999999999928e+01 6.305979999999999563e+01 1.922085000000000036e+03
3.400000000000000244e-02 1.211220000000000074e-01 1.836769999999999925e+01 6.254165000000000418e+01 1.921954999999999927e+03
3.500000000000000333e-02 1.211065000000000058e-01 1.773815000000000097e+01 6.187890000000000157e+01 1.921795000000000073e+03
3.600000000000000422e-02 1.210870000000000002e-01 1.704044999999999987e+01 6.103994999999999749e+01 1.921585000000000036e+03
3.700000000000000511e-02 1.210634999999999906e-01 1.630199999999999960e+01 6.006005000000000393e+01 1.921335000000000036e+03
3.799999999999999906e-02 1.210370000000000057e-01 1.556960000000000122e+01 5.904025000000000034e+01 1.921055000000000064e+03
3.899999999999999994e-02 1.210114999999999941e-01 1.490034999999999954e+01 5.812604999999999933e+01 1.920775000000000091e+03
4.000000000000000083e-02 1.209890000000000132e-01 1.434965000000000046e+01 5.747305000000000064e+01 1.920525000000000091e+03
4.100000000000000172e-02 1.209739999999999982e-01 1.395884999999999998e+01 5.720955000000000013e+01 1.920355000000000018e+03
4.200000000000000261e-02 1.209680000000000061e-01 1.374690000000000012e+01 5.740574999999999761e+01 1.920279999999999973e+03
4.300000000000000350e-02 1.209734999999999977e-01 1.370655000000000001e+01 5.805705000000000382e+01 1.920329999999999927e+03
4.400000000000000439e-02 1.209894999999999998e-01 1.380614999999999881e+01 5.908400000000000318e+01 1.920490000000000009e+03
4.499999999999999833e-02 1.210144999999999971e-01 1.399559999999999960e+01 6.034745000000000203e+01 1.920750000000000000e+03
4.599999999999999922e-02 1.210444999999999993e-01 1.421509999999999962e+01 6.167340000000000089e+01 1.921070000000000164e+03
4.700000000000000011e-02 1.210759999999999892e-01 1.440419999999999945e+01 6.288235000000000241e+01 1.921414999999999964e+03
4.800000000000000100e-02 1.211050000000000043e-01 1.450975000000000037e+01 6.381504999999999939e+01 1.921724999999999909e+03
4.900000000000000189e-02 1.211274999999999991e-01 1.449104999999999954e+01 6.435204999999999131e+01 1.921974999999999909e+03
5.000000000000000278e-02 1.211399999999999977e-01 1.432300000000000040e+01 6.442385000000000161e+01 1.922119999999999891e+03
5.100000000000000366e-02 1.211425000000000002e-01 1.399555000000000149e+01 6.401149999999999807e+01 1.922154999999999973e+03
5.200000000000000455e-02 1.211325000000000041e-01 1.351170000000000115e+01 6.313980000000000103e+01 1.922054999999999836e+03
5.300000000000000544e-02 1.211115000000000108e-01 1.288434999999999953e+01 6.186525000000000318e+01 1.921829999999999927e+03
5.399999999999999939e-02 1.210800000000000071e-01 1.213257000000000119e+01 6.026324999999999932e+01 1.921485000000000127e+03
5.500000000000000028e-02 1.210390000000000077e-01 1.127882999999999925e+01 5.841579999999999728e+01 1.921045000000000073e+03
5.600000000000000117e-02 1.209905000000000008e-01 1.034681499999999943e+01 5.640265000000000128e+01 1.920525000000000091e+03
5.700000000000000205e-02 1.209369999999999890e-01 9.360250000000000625e+00 5.429664999999999964e+01 1.919944999999999936e+03
5.800000000000000294e-02 1.208800000000000013e-01 8.343009999999999593e+00 5.216259999999999764e+01 1.919320000000000164e+03
5.900000000000000383e-02 1.208204999999999973e-01 7.319280000000000008e+00 5.005879999999999797e+01 1.918670000000000073e+03
6.000000000000000472e-02 1.207614999999999938e-01 6.314479999999999649e+00 4.804030000000000200e+01 1.918025000000000091e+03
6.099999999999999867e-02 1.207034999999999914e-01 5.355449999999999378e+00 4.616185000000000116e+01 1.917394999999999982e+03
6.199999999999999956e-02 1.206494999999999929e-01 4.470740000000000158e+00 4.448040000000000305e+01 1.916789999999999964e+03
6.300000000000000044e-02 1.205999999999999989e-01 3.690094999999999903e+00 4.305559999999999832e+01 1.916244999999999891e+03
6.400000000000000133e-02 1.205569999999999975e-01 3.043535000000000323e+00 4.194865000000000066e+01 1.915769999999999982e+03
6.500000000000000222e-02 1.205225000000000046e-01 2.560020000000000184e+00 4.121974999999999767e+01 1.915384999999999991e+03
6.600000000000000311e-02 1.204984999999999945e-01 2.265874999999999861e+00 4.092454999999999643e+01 1.915110000000000127e+03
6.700000000000000400e-02 1.204859999999999959e-01 2.183215000000000128e+00 4.110970000000000368e+01 1.914965000000000146e+03
6.800000000000000488e-02 1.204870000000000108e-01 2.328540000000000276e+00 4.180960000000000321e+01 1.914960000000000036e+03
6.900000000000000577e-02 1.205014999999999836e-01 2.711679999999999868e+00 4.304285000000000139e+01 1.915105000000000018e+03
7.000000000000000666e-02 1.205320000000000003e-01 3.335180000000000256e+00 4.481094999999999828e+01 1.915420000000000073e+03
7.100000000000000755e-02 1.205765000000000031e-01 4.194144999999999790e+00 4.709754999999999825e+01 1.915889999999999873e+03
7.200000000000000844e-02 1.206359999999999932e-01 5.276604999999999990e+00 4.986955000000000382e+01 1.916529999999999973e+03
7.300000000000000933e-02 1.207094999999999974e-01 6.564199999999999591e+00 5.307904999999999518e+01 1.917315000000000055e+03
7.399999999999999634e-02 1.207960000000000006e-01 8.033310000000000173e+00 5.666655000000000086e+01 1.918250000000000000e+03
7.499999999999999722e-02 1.208940000000000015e-01 9.656164999999999665e+00 6.056430000000000291e+01 1.919304999999999836e+03
7.599999999999999811e-02 1.210004999999999969e-01 1.140259000000000000e+01 6.470009999999999195e+01 1.920470000000000027e+03
7.699999999999999900e-02 1.211160000000000014e-01 1.324103500000000011e+01 6.900149999999999295e+01 1.921724999999999909e+03
7.799999999999999989e-02 1.212364999999999970e-01 1.514039999999999964e+01 7.339904999999998836e+01 1.923049999999999955e+03
7.900000000000000078e-02 1.213615000000000110e-01 1.707104999999999961e+01 7.782999999999999829e+01 1.924420000000000073e+03
8.000000000000000167e-02 1.214890000000000136e-01 1.900605000000000189e+01 8.224019999999998731e+01 1.925824999999999818e+03
8.100000000000000255e-02 1.216170000000000029e-01 2.092210000000000036e+01 8.658644999999999925e+01 1.927240000000000009e+03
8.200000000000000344e-02 1.217445000000000055e-01 2.279984999999999928e+01 9.083735000000000070e+01 1.928654999999999973e+03
8.300000000000000433e-02 1.218704999999999927e-01 2.462449999999999761e+01 9.497305000000000064e+01 1.930055000000000064e+03
8.400000000000000522e-02 1.219945000000000057e-01 2.638544999999999874e+01 9.898494999999999777e+01 1.931434999999999945e+03
8.500000000000000611e-02 1.221155000000000018e-01 2.807600000000000051e+01 1.028728999999999871e+02 1.932789999999999964e+03
8.600000000000000699e-02 1.222340000000000093e-01 2.969295000000000329e+01 1.066450999999999993e+02 1.934119999999999891e+03
8.700000000000000788e-02 1.223494999999999999e-01 3.123560000000000159e+01 1.103135000000000048e+02 1.935414999999999964e+03
8.800000000000000877e-02 1.224629999999999885e-01 3.270524999999999949e+01 1.138935000000000031e+02 1.936694999999999936e+03
8.899999999999999578e-02 1.225739999999999885e-01 3.410419999999999874e+01 1.174000000000000057e+02 1.937945000000000164e+03
8.999999999999999667e-02 1.226835000000000009e-01 3.543515000000000015e+01 1.208449999999999989e+02 1.939174999999999955e+03
9.099999999999999756e-02 1.227904999999999969e-01 3.670054999999999978e+01 1.242375000000000114e+02 1.940384999999999991e+03
9.199999999999999845e-02 1.228965000000000057e-01 3.790220000000000056e+01 1.275829999999999984e+02 1.941579999999999927e+03
9.299999999999999933e-02 1.230009999999999992e-01 3.904099999999999682e+01 1.308820000000000050e+02 1.942764999999999873e+03
9.400000000000000022e-02 1.231035000000000046e-01 4.011664999999999992e+01 1.341284999999999741e+02 1.943929999999999836e+03
9.500000000000000111e-02 1.232050000000000090e-01 4.112770000000000437e+01 1.373145000000000095e+02 1.945079999999999927e+03
9.600000000000000200e-02 1.233039999999999969e-01 4.207155000000000200e+01 1.404269999999999925e+02 1.946204999999999927e+03
9.700000000000000289e-02 1.234010000000000107e-01 4.294474999999999909e+01 1.434499999999999886e+02 1.947315000000000055e+03
9.800000000000000377e-02 1.234960000000000085e-01 4.374309999999999832e+01 1.463654999999999973e+02 1.948390000000000100e+03
9.900000000000000466e-02 1.235870000000000024e-01 4.446164999999999878e+01 1.491550000000000011e+02 1.949429999999999836e+03
1.000000000000000056e-01 1.236749999999999933e-01 4.509544999999999959e+01 1.518004999999999995e+02 1.950434999999999945e+03
1.010000000000000064e-01 1.237584999999999935e-01 4.563929999999999865e+01 1.542824999999999989e+02 1.951389999999999873e+03
1.020000000000000073e-01 1.238375000000000031e-01 4.608820000000000050e+01 1.565829999999999984e+02 1.952295000000000073e+03
1.030000000000000082e-01 1.239114999999999939e-01 4.643760000000000332e+01 1.586870000000000118e+02 1.953139999999999873e+03
1.040000000000000091e-01 1.239794999999999925e-01 4.668370000000000175e+01 1.605810000000000173e+02 1.953920000000000073e+03
1.050000000000000100e-01 1.240419999999999995e-01 4.682349999999999568e+01 1.622545000000000073e+02 1.954639999999999873e+03
1.059999999999999970e-01 1.240974999999999995e-01 4.685535000000000139e+01 1.636990000000000123e+02 1.955284999999999854e+03
1.069999999999999979e-01 1.241464999999999930e-01 4.677864999999999895e+01 1.649105000000000132e+02 1.955855000000000018e+03
1.079999999999999988e-01 1.241890000000000077e-01 4.659454999999999814e+01 1.658890000000000100e+02 1.956349999999999909e+03
1.089999999999999997e-01 1.242245000000000016e-01 4.630575000000000330e+01 1.666374999999999886e+02 1.956759999999999991e+03
1.100000000000000006e-01 1.242530000000000023e-01 4.591644999999999754e+01 1.671639999999999873e+02 1.957105000000000018e+03
1.110000000000000014e-01 1.242759999999999976e-01 4.543269999999999698e+01 1.674809999999999945e+02 1.957369999999999891e+03
1.120000000000000023e-01 1.242919999999999858e-01 4.486185000000000400e+01 1.676014999999999873e+02 1.957559999999999945e+03
1.130000000000000032e-01 1.243014999999999953e-01 4.421280000000000143e+01 1.675455000000000041e+02 1.957679999999999836e+03
1.140000000000000041e-01 1.243064999999999864e-01 4.349519999999999698e+01 1.673325000000000102e+02 1.957744999999999891e+03
1.150000000000000050e-01 1.243065000000000003e-01 4.271985000000000099e+01 1.669839999999999804e+02 1.957750000000000000e+03
1.160000000000000059e-01 1.243014999999999953e-01 4.189770000000000039e+01 1.665250000000000057e+02 1.957704999999999927e+03
1.170000000000000068e-01 1.242935000000000012e-01 4.103995000000000459e+01 1.659759999999999991e+02 1.957615000000000009e+03
1.180000000000000077e-01 1.242815000000000170e-01 4.015740000000000265e+01 1.653609999999999900e+02 1.957494999999999891e+03
1.190000000000000085e-01 1.242679999999999896e-01 3.926054999999999495e+01 1.646990000000000123e+02 1.957340000000000146e+03
1.200000000000000094e-01 1.242520000000000013e-01 3.835885000000000389e+01 1.640090000000000146e+02 1.957164999999999964e+03
1.209999999999999964e-01 1.242350000000000121e-01 3.746065000000000111e+01 1.633070000000000164e+02 1.956974999999999909e+03
1.219999999999999973e-01 1.242169999999999941e-01 3.657314999999999827e+01 1.626049999999999898e+02 1.956769999999999982e+03
1.229999999999999982e-01 1.241984999999999895e-01 3.570224999999999937e+01 1.619124999999999943e+02 1.956554999999999836e+03
1.239999999999999991e-01 1.241794999999999982e-01 3.485210000000000008e+01 1.612355000000000018e+02 1.956339999999999918e+03
1.250000000000000000e-01 1.241610000000000075e-01 3.402550000000000097e+01 1.605774999999999864e+02 1.956125000000000000e+03
1.260000000000000009e-01 1.241424999999999890e-01 3.322395000000000209e+01 1.599379999999999882e+02 1.955914999999999964e+03
1.270000000000000018e-01 1.241234999999999977e-01 3.244720000000000226e+01 1.593149999999999977e+02 1.955700000000000045e+03
1.280000000000000027e-01 1.241050000000000070e-01 3.169409999999999883e+01 1.587019999999999982e+02 1.955490000000000009e+03
1.290000000000000036e-01 1.240870000000000029e-01 3.096219999999999928e+01 1.580924999999999727e+02 1.955280000000000200e+03
1.300000000000000044e-01 1.240690000000000126e-01 3.024810000000000088e+01 1.574770000000000039e+02 1.955065000000000055e+03
1.310000000000000053e-01 1.240494999999999931e-01 2.954775000000000063e+01 1.568454999999999870e+02 1.954849999999999909e+03
1.320000000000000062e-01 1.240310000000000024e-01 2.885654999999999859e+01 1.561879999999999882e+02 1.954634999999999991e+03
1.330000000000000071e-01 1.240110000000000101e-01 2.816980000000000217e+01 1.554925000000000068e+02 1.954405000000000200e+03
1.340000000000000080e-01 1.239895000000000025e-01 2.748254999999999981e+01 1.547500000000000000e+02 1.954160000000000082e+03
1.350000000000000089e-01 1.239674999999999944e-01 2.679025000000000034e+01 1.539504999999999768e+02 1.953904999999999973e+03
1.360000000000000098e-01 1.239429999999999976e-01 2.608874999999999744e+01 1.530860000000000127e+02 1.953630000000000109e+03
1.370000000000000107e-01 1.239169999999999994e-01 2.537454999999999927e+01 1.521504999999999939e+02 1.953335000000000036e+03
1.380000000000000115e-01 1.238894999999999996e-01 2.464499999999999957e+01 1.511399999999999864e+02 1.953019999999999982e+03
1.390000000000000124e-01 1.238599999999999979e-01 2.389849999999999852e+01 1.500529999999999973e+02 1.952679999999999836e+03
1.400000000000000133e-01 1.238275000000000070e-01 2.313445000000000107e+01 1.488910000000000196e+02 1.952315000000000055e+03
1.410000000000000142e-01 1.237935000000000008e-01 2.235365000000000180e+01 1.476574999999999989e+02 1.951929999999999836e+03
1.420000000000000151e-01 1.237570000000000059e-01 2.155785000000000196e+01 1.463594999999999970e+02 1.951519999999999982e+03
1.430000000000000160e-01 1.237189999999999956e-01 2.075015000000000143e+01 1.450060000000000002e+02 1.951090000000000146e+03
1.440000000000000169e-01 1.236794999999999978e-01 1.993475000000000108e+01 1.436094999999999970e+02 1.950639999999999873e+03
1.450000000000000178e-01 1.236384999999999984e-01 1.911659999999999826e+01 1.421829999999999927e+02 1.950174999999999955e+03
1.459999999999999909e-01 1.235964999999999980e-01 1.830160000000000053e+01 1.407420000000000186e+02 1.949700000000000045e+03
1.469999999999999918e-01 1.235539999999999972e-01 1.749615000000000009e+01 1.393020000000000209e+02 1.949220000000000027e+03
1.479999999999999927e-01 1.235114999999999963e-01 1.670684999999999931e+01 1.378799999999999955e+02 1.948740000000000009e+03
1.489999999999999936e-01 1.234685000000000088e-01 1.594020000000000081e+01 1.364909999999999854e+02 1.948255000000000109e+03
1.499999999999999944e-01 1.234270000000000089e-01 1.520279999999999987e+01 1.351510000000000105e+02 1.947785000000000082e+03
1.509999999999999953e-01 1.233865000000000101e-01 1.450040000000000084e+01 1.338735000000000070e+02 1.947325000000000045e+03
1.519999999999999962e-01 1.233474999999999988e-01 1.383820000000000050e+01 1.326684999999999945e+02 1.946884999999999991e+03
1.529999999999999971e-01 1.233104999999999896e-01 1.322054999999999936e+01 1.315465000000000089e+02 1.946465000000000146e+03
1.539999999999999980e-01 1.232759999999999967e-01 1.265060000000000073e+01 1.305140000000000100e+02 1.946065000000000055e+03
1.549999999999999989e-01 1.232434999999999919e-01 1.213059999999999938e+01 1.295745000000000005e+02 1.945700000000000045e+03
1.559999999999999998e-01 1.232139999999999902e-01 1.166163500000000042e+01 1.287284999999999968e+02 1.945355000000000018e+03
1.570000000000000007e-01 1.231865000000000043e-01 1.124359000000000108e+01 1.279759999999999991e+02 1.945039999999999964e+03
1.580000000000000016e-01 1.231609999999999927e-01 1.087546000000000035e+01 1.273125000000000000e+02 1.944755000000000109e+03
1.590000000000000024e-01 1.231389999999999985e-01 1.055522999999999989e+01 1.267330000000000041e+02 1.944500000000000000e+03
