# t [s], A [cm^2], U [cm/s], P [cPa], c [cm/s]
1.000000000000000021e-03 1.955184999999999840e-01 4.553375499999999798e-01 9.969180000000000064e+01 2.095960000000000036e+03
2.000000000000000042e-03 1.954545000000000032e-01 2.188727999999999785e+00 9.580634999999999479e+01 2.095465000000000146e+03
3.000000000000000062e-03 1.952929999999999944e-01 4.267682000000000642e+00 9.061579999999999302e+01 2.094260000000000218e+03
4.000000000000000083e-03 1.950815000000000188e-01 6.583067500000000294e+00 8.533389999999999986e+01 2.092695000000000164e+03
5.000000000000000104e-03 1.948630000000000084e-01 9.022174999999998946e+00 8.093014999999999759e+01 2.091099999999999909e+03
6.000000000000000125e-03 1.946569999999999967e-01 1.133066999999999958e+01 7.746080000000000609e+01 2.089614999999999782e+03
7.000000000000000146e-03 1.944670000000000010e-01 1.329072499999999835e+01 7.448445000000000960e+01 2.088270000000000437e+03
8.000000000000000167e-03 1.942975000000000119e-01 1.489029999999999987e+01 7.185840000000000316e+01 2.087095000000000255e+03
9.000000000000001055e-03 1.941529999999999923e-01 1.619255000000000067e+01 6.971004999999999541e+01 2.086105000000000018e+03
1.000000000000000194e-02 1.940354999999999996e-01 1.722294999999999732e+01 6.805334999999999468e+01 2.085309999999999945e+03
1.099999999999999936e-02 1.939430000000000043e-01 1.799984999999999857e+01 6.681215000000000259e+01 2.084694999999999709e+03
1.200000000000000025e-02 1.938719999999999888e-01 1.853954999999999842e+01 6.589204999999999757e+01 2.084230000000000018e+03
1.300000000000000114e-02 1.938165000000000027e-01 1.885125000000000028e+01 6.515975000000000250e+01 2.083869999999999891e+03
1.400000000000000203e-02 1.937725000000000142e-01 1.898685000000000045e+01 6.455549999999999500e+01 2.083599999999999909e+03
1.499999999999999944e-02 1.937435000000000129e-01 1.908605000000000018e+01 6.427580000000000382e+01 2.083425000000000182e+03
1.600000000000000033e-02 1.937385000000000079e-01 1.933554999999999779e+01 6.475024999999999409e+01 2.083414999999999964e+03
1.700000000000000122e-02 1.937710000000000266e-01 1.986274999999999835e+01 6.636015000000000441e+01 2.083644999999999982e+03
1.800000000000000211e-02 1.938455000000000039e-01 2.065299999999999869e+01 6.912655000000000882e+01 2.084154999999999745e+03
1.900000000000000300e-02 1.939529999999999865e-01 2.154599999999999937e+01 7.260239999999998872e+01 2.084894999999999982e+03
2.000000000000000042e-02 1.940745000000000109e-01 2.230599999999999739e+01 7.602359999999998763e+01 2.085734999999999673e+03
2.100000000000000130e-02 1.941864999999999841e-01 2.272025000000000006e+01 7.861064999999999259e+01 2.086519999999999982e+03
2.200000000000000219e-02 1.942669999999999952e-01 2.267715000000000103e+01 7.985939999999999372e+01 2.087105000000000018e+03
2.299999999999999961e-02 1.943059999999999787e-01 2.219514999999999816e+01 7.969714999999999350e+01 2.087399999999999636e+03
2.400000000000000050e-02 1.943050000000000055e-01 2.139755000000000251e+01 7.845390000000000441e+01 2.087425000000000182e+03
2.500000000000000139e-02 1.942750000000000032e-01 2.045105000000000217e+01 7.668375000000000341e+01 2.087230000000000018e+03
2.600000000000000228e-02 1.942305000000000004e-01 1.949974999999999881e+01 7.493110000000000070e+01 2.086939999999999600e+03
2.700000000000000316e-02 1.941859999999999975e-01 1.862049999999999983e+01 7.354290000000000305e+01 2.086635000000000218e+03
2.800000000000000058e-02 1.941475000000000006e-01 1.781384999999999863e+01 7.259309999999999263e+01 2.086369999999999891e+03
2.900000000000000147e-02 1.941169999999999840e-01 1.702584999999999837e+01 7.192400000000000659e+01 2.086154999999999745e+03
3.000000000000000236e-02 1.940879999999999828e-01 1.618704999999999927e+01 7.126630000000000109e+01 2.085960000000000036e+03
3.099999999999999978e-02 1.940554999999999919e-01 1.525154999999999816e+01 7.038145000000000095e+01 2.085734999999999673e+03
3.200000000000000067e-02 1.940139999999999920e-01 1.422455000000000069e+01 6.917560000000000286e+01 2.085454999999999927e+03
3.300000000000000155e-02 1.939649999999999985e-01 1.316890000000000072e+01 6.774934999999999263e+01 2.085125000000000000e+03
3.400000000000000244e-02 1.939130000000000020e-01 1.219040000000000035e+01 6.637340000000000373e+01 2.084765000000000327e+03
3.500000000000000333e-02 1.938684999999999992e-01 1.140741000000000049e+01 6.540075000000000216e+01 2.084449999999999818e+03
3.600000000000000422e-02 1.938414999999999999e-01 1.091516500000000001e+01 6.514974999999999739e+01 2.084260000000000218e+03
3.700000000000000511e-02 1.938409999999999855e-01 1.075665000000000049e+01 6.579800000000000182e+01 2.084239999999999782e+03
3.799999999999999906e-02 1.938699999999999868e-01 1.090915000000000035e+01 6.732085000000000719e+01 2.084425000000000182e+03
3.899999999999999994e-02 1.939270000000000160e-01 1.128825000000000145e+01 6.948940000000000339e+01 2.084795000000000073e+03
4.000000000000000083e-02 1.940014999999999934e-01 1.176614999999999966e+01 7.192189999999999372e+01 2.085295000000000073e+03
4.100000000000000172e-02 1.940820000000000045e-01 1.219800000000000040e+01 7.416810000000000969e+01 2.085840000000000146e+03
4.200000000000000261e-02 1.941535000000000066e-01 1.244760000000000133e+01 7.579994999999999550e+01 2.086335000000000036e+03
4.300000000000000350e-02 1.942025000000000001e-01 1.240865000000000151e+01 7.648699999999999477e+01 2.086675000000000182e+03
4.400000000000000439e-02 1.942190000000000027e-01 1.201620000000000132e+01 7.604110000000000014e+01 2.086804999999999836e+03
4.499999999999999833e-02 1.941964999999999941e-01 1.124934499999999993e+01 7.442695000000000505e+01 2.086659999999999854e+03
4.599999999999999922e-02 1.941344999999999876e-01 1.012614999999999910e+01 7.174295000000000755e+01 2.086244999999999891e+03
4.700000000000000011e-02 1.940344999999999986e-01 8.693830000000000169e+00 6.818254999999999200e+01 2.085574999999999818e+03
4.800000000000000100e-02 1.939039999999999930e-01 7.017669999999999852e+00 6.398975000000000080e+01 2.084684999999999945e+03
4.900000000000000189e-02 1.937495000000000189e-01 5.171200000000000685e+00 5.941879999999999740e+01 2.083630000000000109e+03
5.000000000000000278e-02 1.935800000000000021e-01 3.229519999999999946e+00 5.470689999999999742e+01 2.082465000000000146e+03
5.100000000000000366e-02 1.934029999999999916e-01 1.265539999999999887e+00 5.006024999999999636e+01 2.081250000000000000e+03
5.200000000000000455e-02 1.932254999999999945e-01 -6.510900000000001686e-01 4.565259999999999962e+01 2.080025000000000091e+03
5.300000000000000544e-02 1.930550000000000044e-01 -2.453699999999999992e+00 4.163145000000000095e+01 2.078849999999999909e+03
5.399999999999999939e-02 1.928980000000000139e-01 -4.078191000000000344e+00 3.812595000000000312e+01 2.077760000000000218e+03
5.500000000000000028e-02 1.927590000000000137e-01 -5.463359999999999772e+00 3.525359999999999872e+01 2.076795000000000073e+03
5.600000000000000117e-02 1.926430000000000087e-01 -6.552374999999999616e+00 3.312165000000000248e+01 2.075980000000000018e+03
5.700000000000000205e-02 1.925550000000000039e-01 -7.295359999999999623e+00 3.182454999999999856e+01 2.075360000000000127e+03
5.800000000000000294e-02 1.924984999999999891e-01 -7.652650000000000396e+00 3.143684999999999974e+01 2.074949999999999818e+03
5.900000000000000383e-02 1.924774999999999958e-01 -7.598124999999999574e+00 3.200464999999999804e+01 2.074779999999999745e+03
6.000000000000000472e-02 1.924919999999999964e-01 -7.121729999999999450e+00 3.353799999999999670e+01 2.074860000000000127e+03
6.099999999999999867e-02 1.925439999999999929e-01 -6.230870000000000353e+00 3.600605000000000189e+01 2.075184999999999945e+03
6.199999999999999956e-02 1.926315000000000111e-01 -4.950274999999999537e+00 3.933670000000000044e+01 2.075764999999999873e+03
6.300000000000000044e-02 1.927524999999999933e-01 -3.320341800000000010e+00 4.342064999999999486e+01 2.076574999999999818e+03
6.400000000000000133e-02 1.929029999999999911e-01 -1.394334999999999880e+00 4.811894999999999811e+01 2.077585000000000036e+03
6.500000000000000222e-02 1.930775000000000130e-01 7.651900000000002589e-01 5.327349999999999852e+01 2.078769999999999982e+03
6.600000000000000311e-02 1.932709999999999984e-01 3.090284999999999727e+00 5.871804999999999808e+01 2.080090000000000146e+03
6.700000000000000400e-02 1.934779999999999833e-01 5.511393499999999612e+00 6.428894999999999982e+01 2.081505000000000109e+03
6.800000000000000488e-02 1.936910000000000021e-01 7.961000000000000298e+00 6.983414999999999395e+01 2.082970000000000255e+03
6.900000000000000577e-02 1.939055000000000084e-01 1.037662500000000065e+01 7.522110000000000696e+01 2.084449999999999818e+03
7.000000000000000666e-02 1.941160000000000108e-01 1.270351499999999945e+01 8.034225000000000705e+01 2.085909999999999854e+03
7.100000000000000755e-02 1.943185000000000051e-01 1.489695000000000036e+01 8.511910000000000309e+01 2.087324999999999818e+03
7.200000000000000844e-02 1.945100000000000162e-01 1.692370000000000019e+01 8.950409999999999400e+01 2.088664999999999964e+03
7.300000000000000933e-02 1.946890000000000009e-01 1.876279999999999859e+01 9.348159999999998604e+01 2.089920000000000073e+03
7.399999999999999634e-02 1.948535000000000128e-01 2.040589999999999904e+01 9.706530000000000769e+01 2.091085000000000036e+03
7.499999999999999722e-02 1.950049999999999839e-01 2.185625000000000284e+01 1.002964000000000055e+02 2.092150000000000091e+03
7.599999999999999811e-02 1.951439999999999841e-01 2.312749999999999773e+01 1.032364499999999907e+02 2.093140000000000327e+03
7.699999999999999900e-02 1.952725000000000155e-01 2.424125000000000085e+01 1.059615000000000009e+02 2.094055000000000291e+03
7.799999999999999989e-02 1.953929999999999834e-01 2.522469999999999857e+01 1.085540000000000020e+02 2.094909999999999854e+03
7.900000000000000078e-02 1.955089999999999884e-01 2.610745000000000005e+01 1.110974999999999966e+02 2.095739999999999782e+03
8.000000000000000167e-02 1.956225000000000047e-01 2.691894999999999882e+01 1.136655000000000086e+02 2.096550000000000182e+03
8.100000000000000255e-02 1.957369999999999943e-01 2.768605000000000160e+01 1.163180000000000121e+02 2.097359999999999673e+03
8.200000000000000344e-02 1.958535000000000137e-01 2.843055000000000021e+01 1.190964999999999918e+02 2.098184999999999945e+03
8.300000000000000433e-02 1.959739999999999815e-01 2.916799999999999926e+01 1.220220000000000056e+02 2.099045000000000073e+03
8.400000000000000522e-02 1.960994999999999822e-01 2.990654999999999930e+01 1.250929999999999893e+02 2.099930000000000291e+03
8.500000000000000611e-02 1.962289999999999868e-01 3.064719999999999800e+01 1.282874999999999943e+02 2.100849999999999909e+03
8.600000000000000699e-02 1.963630000000000098e-01 3.138369999999999749e+01 1.315660000000000025e+02 2.101800000000000182e+03
8.700000000000000788e-02 1.965000000000000080e-01 3.210365000000000180e+01 1.348739999999999952e+02 2.102760000000000218e+03
8.800000000000000877e-02 1.966370000000000062e-01 3.278974999999999795e+01 1.381479999999999961e+02 2.103730000000000018e+03
8.899999999999999578e-02 1.967720000000000025e-01 3.342139999999999844e+01 1.413170000000000073e+02 2.104685000000000400e+03
8.999999999999999667e-02 1.969029999999999947e-01 3.397599999999999909e+01 1.443129999999999882e+02 2.105614999999999782e+03
9.099999999999999756e-02 1.970270000000000077e-01 3.443094999999999573e+01 1.470685000000000002e+02 2.106494999999999891e+03
9.199999999999999845e-02 1.971419999999999839e-01 3.476489999999999725e+01 1.495244999999999891e+02 2.107319999999999709e+03
9.299999999999999933e-02 1.972455000000000180e-01 3.495924999999999727e+01 1.516324999999999932e+02 2.108054999999999836e+03
9.400000000000000022e-02 1.973349999999999826e-01 3.499920000000000186e+01 1.533559999999999945e+02 2.108704999999999927e+03
9.500000000000000111e-02 1.974104999999999888e-01 3.487454999999999927e+01 1.546725000000000136e+02 2.109244999999999891e+03
9.600000000000000200e-02 1.974704999999999933e-01 3.458055000000000234e+01 1.555735000000000241e+02 2.109675000000000182e+03
9.700000000000000289e-02 1.975139999999999951e-01 3.411799999999999500e+01 1.560654999999999859e+02 2.110000000000000000e+03
9.800000000000000377e-02 1.975419999999999954e-01 3.349309999999999832e+01 1.561684999999999945e+02 2.110210000000000036e+03
9.900000000000000466e-02 1.975544999999999940e-01 3.271744999999999948e+01 1.559134999999999991e+02 2.110309999999999945e+03
1.000000000000000056e-01 1.975530000000000064e-01 3.180720000000000169e+01 1.553425000000000011e+02 2.110309999999999945e+03
1.010000000000000064e-01 1.975389999999999924e-01 3.078249999999999886e+01 1.545060000000000002e+02 2.110219999999999800e+03
1.020000000000000073e-01 1.975135000000000085e-01 2.966635000000000133e+01 1.534574999999999818e+02 2.110055000000000291e+03
1.030000000000000082e-01 1.974795000000000023e-01 2.848369999999999891e+01 1.522565000000000168e+02 2.109824999999999818e+03
1.040000000000000091e-01 1.974390000000000034e-01 2.726014999999999944e+01 1.509594999999999914e+02 2.109539999999999964e+03
1.050000000000000100e-01 1.973934999999999995e-01 2.602105000000000246e+01 1.496210000000000093e+02 2.109230000000000018e+03
1.059999999999999970e-01 1.973460000000000214e-01 2.479039999999999822e+01 1.482920000000000016e+02 2.108889999999999873e+03
1.069999999999999979e-01 1.972975000000000145e-01 2.358980000000000032e+01 1.470154999999999745e+02 2.108555000000000291e+03
1.079999999999999988e-01 1.972500000000000087e-01 2.243780000000000285e+01 1.458269999999999982e+02 2.108215000000000146e+03
1.089999999999999997e-01 1.972054999999999780e-01 2.134920000000000329e+01 1.447520000000000095e+02 2.107899999999999636e+03
1.100000000000000006e-01 1.971634999999999915e-01 2.033455000000000013e+01 1.438070000000000164e+02 2.107600000000000364e+03
1.110000000000000014e-01 1.971264999999999823e-01 1.939999999999999858e+01 1.429965000000000259e+02 2.107335000000000036e+03
1.120000000000000023e-01 1.970939999999999914e-01 1.854720000000000013e+01 1.423164999999999907e+02 2.107095000000000255e+03
1.130000000000000032e-01 1.970655000000000046e-01 1.777364999999999995e+01 1.417529999999999859e+02 2.106889999999999873e+03
1.140000000000000041e-01 1.970409999999999939e-01 1.707274999999999920e+01 1.412844999999999800e+02 2.106710000000000036e+03
1.150000000000000050e-01 1.970195000000000141e-01 1.643469999999999942e+01 1.408829999999999814e+02 2.106554999999999836e+03
1.160000000000000059e-01 1.970009999999999817e-01 1.584694999999999965e+01 1.405140000000000100e+02 2.106414999999999964e+03
1.170000000000000068e-01 1.969825000000000048e-01 1.529529999999999923e+01 1.401424999999999841e+02 2.106279999999999745e+03
1.180000000000000077e-01 1.969650000000000012e-01 1.476445000000000007e+01 1.397314999999999827e+02 2.106150000000000091e+03
1.190000000000000085e-01 1.969454999999999956e-01 1.423925000000000018e+01 1.392470000000000141e+02 2.106005000000000109e+03
1.200000000000000094e-01 1.969230000000000147e-01 1.370524999999999949e+01 1.386580000000000155e+02 2.105845000000000255e+03
1.209999999999999964e-01 1.968969999999999887e-01 1.314995000000000047e+01 1.379389999999999930e+02 2.105659999999999854e+03
1.219999999999999973e-01 1.968659999999999854e-01 1.256329999999999991e+01 1.370715000000000146e+02 2.105444999999999709e+03
1.229999999999999982e-01 1.968294999999999906e-01 1.193820000000000014e+01 1.360450000000000159e+02 2.105184999999999945e+03
1.239999999999999991e-01 1.967869999999999897e-01 1.127117499999999950e+01 1.348600000000000136e+02 2.104885000000000218e+03
1.250000000000000000e-01 1.967389999999999972e-01 1.056246499999999955e+01 1.335235000000000127e+02 2.104550000000000182e+03
1.260000000000000009e-01 1.966849999999999987e-01 9.815995000000000914e+00 1.320534999999999854e+02 2.104170000000000073e+03
1.270000000000000018e-01 1.966264999999999818e-01 9.039070000000000604e+00 1.304749999999999943e+02 2.103755000000000109e+03
1.280000000000000027e-01 1.965635000000000021e-01 8.242259999999999920e+00 1.288195000000000050e+02 2.103315000000000055e+03
1.290000000000000036e-01 1.964974999999999916e-01 7.438399999999999679e+00 1.271250000000000000e+02 2.102855000000000018e+03
1.300000000000000044e-01 1.964299999999999935e-01 6.642204999999999693e+00 1.254300000000000068e+02 2.102380000000000109e+03
1.310000000000000053e-01 1.963624999999999954e-01 5.869234999999999758e+00 1.237759999999999962e+02 2.101900000000000091e+03
1.320000000000000062e-01 1.962964999999999849e-01 5.135130000000000194e+00 1.222015000000000100e+02 2.101434999999999945e+03
1.330000000000000071e-01 1.962329999999999908e-01 4.454755000000000464e+00 1.207429999999999950e+02 2.100984999999999673e+03
1.340000000000000080e-01 1.961735000000000007e-01 3.841479999999999784e+00 1.194314999999999998e+02 2.100570000000000164e+03
1.350000000000000089e-01 1.961200000000000165e-01 3.306470000000000020e+00 1.182920000000000016e+02 2.100184999999999945e+03
1.360000000000000098e-01 1.960724999999999829e-01 2.858225000000000016e+00 1.173410000000000082e+02 2.099845000000000255e+03
1.370000000000000107e-01 1.960319999999999840e-01 2.502200000000000202e+00 1.165895000000000010e+02 2.099554999999999836e+03
1.380000000000000115e-01 1.959989999999999788e-01 2.240635000000000154e+00 1.160370000000000061e+02 2.099315000000000055e+03
1.390000000000000124e-01 1.959734999999999949e-01 2.072549999999999670e+00 1.156784999999999997e+02 2.099135000000000218e+03
1.400000000000000133e-01 1.959555000000000047e-01 1.993900000000000006e+00 1.155000000000000000e+02 2.098994999999999891e+03
1.410000000000000142e-01 1.959444999999999937e-01 1.997875000000000068e+00 1.154830000000000041e+02 2.098909999999999854e+03
1.420000000000000151e-01 1.959394999999999887e-01 2.075269999999999726e+00 1.156045000000000016e+02 2.098869999999999891e+03
1.430000000000000160e-01 1.959400000000000031e-01 2.215049999999999741e+00 1.158354999999999961e+02 2.098869999999999891e+03
1.440000000000000169e-01 1.959450000000000081e-01 2.404809999999999892e+00 1.161475000000000080e+02 2.098894999999999982e+03
1.450000000000000178e-01 1.959540000000000171e-01 2.631400000000000183e+00 1.165105000000000075e+02 2.098954999999999927e+03
1.459999999999999909e-01 1.959650000000000003e-01 2.881450000000000067e+00 1.168965000000000032e+02 2.099025000000000091e+03
1.469999999999999918e-01 1.959764999999999979e-01 3.141904999999999948e+00 1.172759999999999962e+02 2.099105000000000018e+03
1.479999999999999927e-01 1.959889999999999965e-01 3.400504999999999889e+00 1.176260000000000048e+02 2.099189999999999600e+03
1.489999999999999936e-01 1.960009999999999808e-01 3.646180000000000199e+00 1.179244999999999948e+02 2.099269999999999982e+03
1.499999999999999944e-01 1.960109999999999908e-01 3.869380000000000042e+00 1.181550000000000011e+02 2.099340000000000146e+03
1.509999999999999953e-01 1.960184999999999844e-01 4.062345000000000539e+00 1.183050000000000068e+02 2.099394999999999982e+03
1.519999999999999962e-01 1.960235000000000172e-01 4.219224999999999781e+00 1.183665000000000020e+02 2.099430000000000291e+03
1.529999999999999971e-01 1.960255000000000192e-01 4.336190000000000211e+00 1.183349999999999937e+02 2.099444999999999709e+03
1.539999999999999980e-01 1.960240000000000038e-01 4.411414999999999864e+00 1.182125000000000057e+02 2.099440000000000055e+03
1.549999999999999989e-01 1.960195000000000132e-01 4.444969999999999644e+00 1.180024999999999977e+02 2.099409999999999854e+03
1.559999999999999998e-01 1.960115000000000052e-01 4.438649999999999984e+00 1.177139999999999986e+02 2.099355000000000018e+03
1.570000000000000007e-01 1.960004999999999942e-01 4.395749999999999602e+00 1.173559999999999945e+02 2.099284999999999854e+03
1.580000000000000016e-01 1.959874999999999812e-01 4.320769999999999555e+00 1.169420000000000073e+02 2.099189999999999600e+03
1.590000000000000024e-01 1.959720000000000073e-01 4.219089999999999563e+00 1.164859999999999900e+02 2.099085000000000036e+03
