# t [s], A [cm^2], U [cm/s], P [cPa], c [cm/s]
1.000000000000000021e-03 4.605175000000000241e-01 3.696449999999996960e-03 1.082475000000000023e+02 1.613304999999999836e+03
2.000000000000000042e-03 4.605139999999999789e-01 7.753399999999999702e-03 1.082284999999999968e+02 1.613299999999999955e+03
3.000000000000000062e-03 4.605635000000000145e-01 1.278917999999999999e-01 1.083594999999999970e+02 1.613335000000000036e+03
4.000000000000000083e-03 4.605905000000000138e-01 2.031892499999999879e-01 1.084575000000000102e+02 1.613360000000000127e+03
5.000000000000000104e-03 4.605604999999999838e-01 1.425069999999999948e-01 1.083449999999999989e+02 1.613335000000000036e+03
6.000000000000000125e-03 4.605124999999999913e-01 3.134449999999999736e-02 1.080805000000000007e+02 1.613284999999999854e+03
7.000000000000000146e-03 4.604599999999999804e-01 -9.998850000000003568e-02 1.077125000000000057e+02 1.613200000000000045e+03
8.000000000000000167e-03 4.603669999999999707e-01 -3.424150000000000249e-01 1.071304999999999978e+02 1.613079999999999927e+03
9.000000000000001055e-03 4.602199999999999624e-01 -7.281099999999999239e-01 1.062505000000000024e+02 1.612884999999999991e+03
1.000000000000000194e-02 4.600140000000000340e-01 -1.258804999999999730e+00 1.050225000000000080e+02 1.612615000000000009e+03
1.099999999999999936e-02 4.597340000000000315e-01 -1.951009999999999689e+00 1.033777000000000044e+02 1.612240000000000009e+03
1.200000000000000025e-02 4.593829999999999858e-01 -2.773950000000000138e+00 1.013035500000000013e+02 1.611755000000000109e+03
1.300000000000000114e-02 4.589984999999999760e-01 -3.603730000000000544e+00 9.892560000000000286e+01 1.611190000000000055e+03
1.400000000000000203e-02 4.586339999999999861e-01 -4.266630000000000145e+00 9.648144999999999527e+01 1.610575000000000045e+03
1.499999999999999944e-02 4.583320000000000172e-01 -4.623222000000000165e+00 9.421559999999999491e+01 1.609984999999999900e+03
1.600000000000000033e-02 4.581039999999999557e-01 -4.622245000000000381e+00 9.228020000000000778e+01 1.609440000000000055e+03
1.700000000000000122e-02 4.579325000000000201e-01 -4.303495500000000362e+00 9.069644999999999868e+01 1.608960000000000036e+03
1.800000000000000211e-02 4.577835000000000099e-01 -3.765976000000000212e+00 8.937270000000000891e+01 1.608525000000000091e+03
1.900000000000000300e-02 4.576215000000000144e-01 -3.123352000000000128e+00 8.815715000000000146e+01 1.608119999999999891e+03
2.000000000000000042e-02 4.574249999999999705e-01 -2.463810999999999751e+00 8.690135000000000787e+01 1.607720000000000027e+03
2.100000000000000130e-02 4.571855000000000224e-01 -1.826809999999999823e+00 8.551114999999998645e+01 1.607284999999999854e+03
2.200000000000000219e-02 4.569139999999999868e-01 -1.203955000000000108e+00 8.396694999999999709e+01 1.606824999999999818e+03
2.299999999999999961e-02 4.566279999999999784e-01 -5.607600000000001472e-01 8.230955000000000155e+01 1.606339999999999918e+03
2.400000000000000050e-02 4.563414999999999555e-01 1.332749999999998103e-01 8.060220000000001050e+01 1.605840000000000146e+03
2.500000000000000139e-02 4.560600000000000209e-01 8.805600000000000094e-01 7.889005000000000223e+01 1.605329999999999927e+03
2.600000000000000228e-02 4.557780000000000165e-01 1.645414999999999850e+00 7.717275000000000773e+01 1.604819999999999936e+03
2.700000000000000316e-02 4.554775000000000351e-01 2.358835000000000015e+00 7.539724999999999966e+01 1.604289999999999964e+03
2.800000000000000058e-02 4.551370000000000138e-01 2.934255000000000280e+00 7.346930000000000405e+01 1.603730000000000018e+03
2.900000000000000147e-02 4.547360000000000291e-01 3.288739999999999775e+00 7.128024999999999523e+01 1.603115000000000009e+03
3.000000000000000236e-02 4.542619999999999436e-01 3.363909999999999734e+00 6.873905000000000598e+01 1.602420000000000073e+03
3.099999999999999978e-02 4.537140000000000062e-01 3.141089999999999716e+00 6.580250000000000909e+01 1.601640000000000100e+03
3.200000000000000067e-02 4.531045000000000211e-01 2.646715000000000373e+00 6.249394999999999811e+01 1.600775000000000091e+03
3.300000000000000155e-02 4.524584999999999857e-01 1.946825000000000472e+00 5.890625000000000000e+01 1.599840000000000146e+03
3.400000000000000244e-02 4.518070000000000142e-01 1.133370000000000211e+00 5.518854999999999933e+01 1.598865000000000009e+03
3.500000000000000333e-02 4.511820000000000275e-01 3.066000000000004277e-01 5.152250000000000085e+01 1.597890000000000100e+03
3.600000000000000422e-02 4.506145000000000289e-01 -4.404450000000004195e-01 4.809489999999999554e+01 1.596960000000000036e+03
3.700000000000000511e-02 4.501284999999999870e-01 -1.032735000000000181e+00 4.507420000000000471e+01 1.596110000000000127e+03
3.799999999999999906e-02 4.497389999999999999e-01 -1.418230000000000324e+00 4.259329999999999927e+01 1.595384999999999991e+03
3.899999999999999994e-02 4.494565000000000365e-01 -1.567239999999999966e+00 4.074195000000000277e+01 1.594804999999999836e+03
4.000000000000000083e-02 4.492819999999999592e-01 -1.468329999999999913e+00 3.956629999999999825e+01 1.594389999999999873e+03
4.100000000000000172e-02 4.492150000000000309e-01 -1.122332000000000107e+00 3.907540000000000191e+01 1.594144999999999982e+03
4.200000000000000261e-02 4.492504999999999971e-01 -5.365965499999999500e-01 3.925039999999999907e+01 1.594074999999999818e+03
4.300000000000000350e-02 4.493825000000000180e-01 2.792599999999998417e-01 4.005499999999999972e+01 1.594174999999999955e+03
4.400000000000000439e-02 4.496049999999999769e-01 1.315325000000000077e+00 4.144304999999999950e+01 1.594429999999999836e+03
4.499999999999999833e-02 4.499104999999999910e-01 2.561035000000000394e+00 4.336400000000000432e+01 1.594840000000000146e+03
4.599999999999999922e-02 4.502924999999999844e-01 4.003370000000000317e+00 4.576420000000000243e+01 1.595389999999999873e+03
4.700000000000000011e-02 4.507415000000000171e-01 5.624649999999999928e+00 4.858670000000000044e+01 1.596055000000000064e+03
4.800000000000000100e-02 4.512479999999999825e-01 7.400558500000000706e+00 5.176954999999999529e+01 1.596824999999999818e+03
4.900000000000000189e-02 4.518004999999999938e-01 9.300001999999999214e+00 5.524474999999999625e+01 1.597690000000000055e+03
5.000000000000000278e-02 4.523860000000000103e-01 1.128595500000000129e+01 5.893899999999999295e+01 1.598619999999999891e+03
5.100000000000000366e-02 4.529919999999999503e-01 1.331747000000000014e+01 6.277540000000000475e+01 1.599615000000000009e+03
5.200000000000000455e-02 4.536054999999999948e-01 1.535279000000000060e+01 6.667704999999999416e+01 1.600634999999999991e+03
5.300000000000000544e-02 4.542150000000000354e-01 1.735227000000000075e+01 7.057130000000000791e+01 1.601670000000000073e+03
5.399999999999999939e-02 4.548110000000000208e-01 1.928134999999999977e+01 7.439430000000000121e+01 1.602700000000000045e+03
5.500000000000000028e-02 4.553860000000000130e-01 2.111220000000000141e+01 7.809439999999999316e+01 1.603720000000000027e+03
5.600000000000000117e-02 4.559360000000000079e-01 2.282520000000000238e+01 8.163485000000000014e+01 1.604710000000000036e+03
5.700000000000000205e-02 4.564580000000000304e-01 2.440905000000000058e+01 8.499490000000000123e+01 1.605664999999999964e+03
5.800000000000000294e-02 4.569535000000000124e-01 2.586010000000000275e+01 8.816954999999998677e+01 1.606575000000000045e+03
5.900000000000000383e-02 4.574239999999999418e-01 2.718159999999999954e+01 9.116785000000000139e+01 1.607445000000000164e+03
6.000000000000000472e-02 4.578734999999999888e-01 2.838210000000000122e+01 9.401064999999999827e+01 1.608275000000000091e+03
6.099999999999999867e-02 4.583085000000000075e-01 2.947439999999999927e+01 9.672684999999999889e+01 1.609079999999999927e+03
6.199999999999999956e-02 4.587330000000000574e-01 3.047360000000000113e+01 9.935204999999999131e+01 1.609855000000000018e+03
6.300000000000000044e-02 4.591534999999999922e-01 3.139639999999999986e+01 1.019227500000000077e+02 1.610615000000000009e+03
6.400000000000000133e-02 4.595750000000000113e-01 3.225945000000000107e+01 1.044765500000000031e+02 1.611365000000000009e+03
6.500000000000000222e-02 4.600024999999999809e-01 3.307824999999999704e+01 1.070455000000000041e+02 1.612119999999999891e+03
6.600000000000000311e-02 4.604399999999999604e-01 3.386620000000000630e+01 1.096579999999999870e+02 1.612875000000000000e+03
6.700000000000000400e-02 4.608894999999999520e-01 3.463370000000000459e+01 1.123325000000000102e+02 1.613650000000000091e+03
6.800000000000000488e-02 4.613515000000000255e-01 3.538729999999999620e+01 1.150794999999999959e+02 1.614440000000000055e+03
6.900000000000000577e-02 4.618265000000000287e-01 3.612930000000000064e+01 1.178990000000000009e+02 1.615244999999999891e+03
7.000000000000000666e-02 4.623105000000000131e-01 3.685764999999999958e+01 1.207800000000000011e+02 1.616065000000000055e+03
7.100000000000000755e-02 4.628005000000000035e-01 3.756619999999999493e+01 1.237024999999999864e+02 1.616900000000000091e+03
7.200000000000000844e-02 4.632915000000000227e-01 3.824524999999999864e+01 1.266380000000000052e+02 1.617735000000000127e+03
7.300000000000000933e-02 4.637769999999999948e-01 3.888245000000000573e+01 1.295515000000000043e+02 1.618574999999999818e+03
7.399999999999999634e-02 4.642509999999999692e-01 3.946370000000000289e+01 1.324045000000000130e+02 1.619389999999999873e+03
7.499999999999999722e-02 4.647065000000000223e-01 3.997435000000000116e+01 1.351555000000000177e+02 1.620195000000000164e+03
7.599999999999999811e-02 4.651374999999999815e-01 4.040019999999999811e+01 1.377649999999999864e+02 1.620960000000000036e+03
7.699999999999999900e-02 4.655394999999999950e-01 4.072844999999999516e+01 1.401965000000000146e+02 1.621679999999999836e+03
7.799999999999999989e-02 4.659054999999999724e-01 4.094839999999999947e+01 1.424195000000000277e+02 1.622355000000000018e+03
7.900000000000000078e-02 4.662334999999999674e-01 4.105225000000000080e+01 1.444079999999999870e+02 1.622964999999999918e+03
8.000000000000000167e-02 4.665214999999999779e-01 4.103520000000000323e+01 1.461459999999999866e+02 1.623509999999999991e+03
8.100000000000000255e-02 4.667670000000000430e-01 4.089589999999999748e+01 1.476235000000000070e+02 1.623985000000000127e+03
8.200000000000000344e-02 4.669714999999999838e-01 4.063654999999999973e+01 1.488400000000000034e+02 1.624394999999999982e+03
8.300000000000000433e-02 4.671354999999999813e-01 4.026250000000000284e+01 1.498029999999999973e+02 1.624730000000000018e+03
8.400000000000000522e-02 4.672620000000000107e-01 3.978215000000000146e+01 1.505264999999999986e+02 1.625005000000000109e+03
8.500000000000000611e-02 4.673550000000000204e-01 3.920680000000000121e+01 1.510300000000000011e+02 1.625210000000000036e+03
8.600000000000000699e-02 4.674170000000000269e-01 3.854964999999999975e+01 1.513400000000000034e+02 1.625360000000000127e+03
8.700000000000000788e-02 4.674534999999999663e-01 3.782564999999999600e+01 1.514840000000000089e+02 1.625460000000000036e+03
8.800000000000000877e-02 4.674694999999999823e-01 3.705084999999999695e+01 1.514945000000000164e+02 1.625514999999999873e+03
8.899999999999999578e-02 4.674699999999999966e-01 3.624155000000000371e+01 1.514025000000000034e+02 1.625539999999999964e+03
8.999999999999999667e-02 4.674605000000000010e-01 3.541380000000000194e+01 1.512395000000000209e+02 1.625534999999999854e+03
9.099999999999999756e-02 4.674440000000000262e-01 3.458259999999999934e+01 1.510355000000000132e+02 1.625505000000000109e+03
9.199999999999999845e-02 4.674255000000000493e-01 3.376145000000000351e+01 1.508160000000000025e+02 1.625474999999999909e+03
9.299999999999999933e-02 4.674074999999999758e-01 3.296180000000000376e+01 1.506034999999999968e+02 1.625430000000000064e+03
9.400000000000000022e-02 4.673940000000000317e-01 3.219245000000000090e+01 1.504145000000000039e+02 1.625394999999999982e+03
9.500000000000000111e-02 4.673850000000000504e-01 3.145949999999999847e+01 1.502615000000000123e+02 1.625355000000000018e+03
9.600000000000000200e-02 4.673809999999999909e-01 3.076614999999999966e+01 1.501500000000000057e+02 1.625329999999999927e+03
9.700000000000000289e-02 4.673829999999999929e-01 3.011289999999999978e+01 1.500794999999999959e+02 1.625309999999999945e+03
9.800000000000000377e-02 4.673889999999999434e-01 2.949734999999999729e+01 1.500459999999999923e+02 1.625295000000000073e+03
9.900000000000000466e-02 4.673975000000000213e-01 2.891485000000000127e+01 1.500389999999999873e+02 1.625289999999999964e+03
1.000000000000000056e-01 4.674065000000000025e-01 2.835895000000000010e+01 1.500455000000000041e+02 1.625284999999999854e+03
1.010000000000000064e-01 4.674135000000000373e-01 2.782160000000000011e+01 1.500494999999999948e+02 1.625279999999999973e+03
1.020000000000000073e-01 4.674145000000000105e-01 2.729395000000000238e+01 1.500324999999999989e+02 1.625275000000000091e+03
1.030000000000000082e-01 4.674080000000000457e-01 2.676695000000000135e+01 1.499775000000000205e+02 1.625255000000000109e+03
1.040000000000000091e-01 4.673910000000000009e-01 2.623160000000000025e+01 1.498654999999999973e+02 1.625230000000000018e+03
1.050000000000000100e-01 4.673605000000000120e-01 2.567965000000000231e+01 1.496820000000000164e+02 1.625179999999999836e+03
1.059999999999999970e-01 4.673160000000000647e-01 2.510415000000000063e+01 1.494124999999999943e+02 1.625110000000000127e+03
1.069999999999999979e-01 4.672540000000000027e-01 2.449954999999999927e+01 1.490469999999999970e+02 1.625019999999999982e+03
1.079999999999999988e-01 4.671759999999999802e-01 2.386234999999999928e+01 1.485799999999999841e+02 1.624900000000000091e+03
1.089999999999999997e-01 4.670805000000000096e-01 2.319105000000000061e+01 1.480090000000000146e+02 1.624755000000000109e+03
1.100000000000000006e-01 4.669685000000000086e-01 2.248624999999999829e+01 1.473365000000000009e+02 1.624579999999999927e+03
1.110000000000000014e-01 4.668419999999999792e-01 2.175090000000000146e+01 1.465699999999999932e+02 1.624384999999999991e+03
1.120000000000000023e-01 4.667020000000000612e-01 2.098985000000000056e+01 1.457189999999999941e+02 1.624159999999999854e+03
1.130000000000000032e-01 4.665520000000000223e-01 2.020994999999999919e+01 1.447994999999999948e+02 1.623925000000000182e+03
1.140000000000000041e-01 4.663945000000000451e-01 1.941949999999999932e+01 1.438279999999999745e+02 1.623664999999999964e+03
1.150000000000000050e-01 4.662330000000000085e-01 1.862819999999999965e+01 1.428249999999999886e+02 1.623394999999999982e+03
1.160000000000000059e-01 4.660699999999999843e-01 1.784639999999999915e+01 1.418115000000000236e+02 1.623119999999999891e+03
1.170000000000000068e-01 4.659105000000000052e-01 1.708484999999999943e+01 1.408095000000000141e+02 1.622845000000000027e+03
1.180000000000000077e-01 4.657569999999999766e-01 1.635425000000000040e+01 1.398410000000000082e+02 1.622574999999999818e+03
1.190000000000000085e-01 4.656129999999999991e-01 1.566464999999999819e+01 1.389250000000000114e+02 1.622315000000000055e+03
1.200000000000000094e-01 4.654810000000000336e-01 1.502505000000000024e+01 1.380805000000000007e+02 1.622070000000000164e+03
1.209999999999999964e-01 4.653634999999999855e-01 1.444324999999999903e+01 1.373220000000000027e+02 1.621845000000000027e+03
1.219999999999999973e-01 4.652619999999999534e-01 1.392515999999999998e+01 1.366620000000000061e+02 1.621639999999999873e+03
1.229999999999999982e-01 4.651775000000000215e-01 1.347488500000000045e+01 1.361084999999999923e+02 1.621464999999999918e+03
1.239999999999999991e-01 4.651104999999999823e-01 1.309457499999999897e+01 1.356655000000000086e+02 1.621319999999999936e+03
1.250000000000000000e-01 4.650610000000000022e-01 1.278424000000000049e+01 1.353324999999999818e+02 1.621200000000000045e+03
1.260000000000000009e-01 4.650290000000000257e-01 1.254203000000000046e+01 1.351064999999999827e+02 1.621110000000000127e+03
1.270000000000000018e-01 4.650110000000000077e-01 1.236439999999999984e+01 1.349805000000000064e+02 1.621045000000000073e+03
1.280000000000000027e-01 4.650075000000000180e-01 1.224610000000000021e+01 1.349445000000000050e+02 1.621009999999999991e+03
1.290000000000000036e-01 4.650150000000000117e-01 1.218084999999999951e+01 1.349859999999999900e+02 1.621000000000000000e+03
1.300000000000000044e-01 4.650325000000000153e-01 1.216140000000000043e+01 1.350920000000000130e+02 1.621005000000000109e+03
1.310000000000000053e-01 4.650564999999999838e-01 1.218004999999999960e+01 1.352475000000000023e+02 1.621025000000000091e+03
1.320000000000000062e-01 4.650859999999999994e-01 1.222879999999999967e+01 1.354390000000000214e+02 1.621055000000000064e+03
1.330000000000000071e-01 4.651174999999999615e-01 1.229984999999999928e+01 1.356519999999999868e+02 1.621099999999999909e+03
1.340000000000000080e-01 4.651500000000000079e-01 1.238569999999999993e+01 1.358740000000000236e+02 1.621144999999999982e+03
1.350000000000000089e-01 4.651819999999999844e-01 1.247954999999999970e+01 1.360939999999999941e+02 1.621195000000000164e+03
1.360000000000000098e-01 4.652115000000000000e-01 1.257549999999999990e+01 1.363019999999999925e+02 1.621244999999999891e+03
1.370000000000000107e-01 4.652380000000000404e-01 1.266825000000000045e+01 1.364909999999999854e+02 1.621289999999999964e+03
1.380000000000000115e-01 4.652604999999999658e-01 1.275384999999999991e+01 1.366564999999999941e+02 1.621335000000000036e+03
1.390000000000000124e-01 4.652785000000000393e-01 1.282925000000000004e+01 1.367955000000000041e+02 1.621369999999999891e+03
1.400000000000000133e-01 4.652930000000000121e-01 1.289225000000000065e+01 1.369060000000000059e+02 1.621400000000000091e+03
1.410000000000000142e-01 4.653030000000000221e-01 1.294185000000000052e+01 1.369895000000000209e+02 1.621429999999999836e+03
1.420000000000000151e-01 4.653089999999999726e-01 1.297780000000000022e+01 1.370480000000000018e+02 1.621444999999999936e+03
1.430000000000000160e-01 4.653125000000000178e-01 1.300060000000000038e+01 1.370849999999999795e+02 1.621465000000000146e+03
1.440000000000000169e-01 4.653134999999999910e-01 1.301144999999999996e+01 1.371044999999999732e+02 1.621470000000000027e+03
1.450000000000000178e-01 4.653129999999999766e-01 1.301210000000000022e+01 1.371125000000000114e+02 1.621474999999999909e+03
1.459999999999999909e-01 4.653119999999999479e-01 1.300450000000000017e+01 1.371129999999999995e+02 1.621480000000000018e+03
1.469999999999999918e-01 4.653114999999999890e-01 1.299099999999999966e+01 1.371120000000000232e+02 1.621480000000000018e+03
1.479999999999999927e-01 4.653114999999999890e-01 1.297390000000000043e+01 1.371139999999999759e+02 1.621485000000000127e+03
1.489999999999999936e-01 4.653134999999999355e-01 1.295550000000000068e+01 1.371234999999999786e+02 1.621494999999999891e+03
1.499999999999999944e-01 4.653175000000000505e-01 1.293805000000000049e+01 1.371444999999999936e+02 1.621500000000000000e+03
1.509999999999999953e-01 4.653239999999999599e-01 1.292334999999999923e+01 1.371800000000000068e+02 1.621510000000000218e+03
1.519999999999999962e-01 4.653334999999999555e-01 1.291295000000000037e+01 1.372325000000000159e+02 1.621525000000000091e+03
1.529999999999999971e-01 4.653454999999999675e-01 1.290790000000000148e+01 1.373020000000000209e+02 1.621545000000000073e+03
1.539999999999999980e-01 4.653614999999999835e-01 1.290889999999999915e+01 1.373890000000000100e+02 1.621565000000000055e+03
1.549999999999999989e-01 4.653789999999999871e-01 1.291624999999999979e+01 1.374925000000000068e+02 1.621595000000000027e+03
1.559999999999999998e-01 4.653994999999999660e-01 1.292974999999999852e+01 1.376115000000000066e+02 1.621625000000000000e+03
1.570000000000000007e-01 4.654220000000000024e-01 1.294885000000000019e+01 1.377429999999999950e+02 1.621659999999999854e+03
1.580000000000000016e-01 4.654459999999999709e-01 1.297279999999999944e+01 1.378845000000000027e+02 1.621695000000000164e+03
1.590000000000000024e-01 4.654705000000000092e-01 1.300049999999999883e+01 1.380330000000000155e+02 1.621740000000000009e+03
