# t [s], A [cm^2], U [cm/s], P [cPa], c [cm/s]
1.000000000000000021e-03 1.459975000000000023e-01 3.887525000000000563e-01 8.900110000000000809e+01 2.027029999999999973e+03
2.000000000000000042e-03 1.459570000000000034e-01 1.920654000000000305e+00 8.564764999999999873e+01 2.026579999999999927e+03
3.000000000000000062e-03 1.458499999999999797e-01 3.764831499999999664e+00 8.116479999999999961e+01 2.025434999999999945e+03
4.000000000000000083e-03 1.457060000000000022e-01 5.822521999999999309e+00 7.651134999999999309e+01 2.023914999999999964e+03
5.000000000000000104e-03 1.455549999999999899e-01 8.015584999999999738e+00 7.254224999999999568e+01 2.022320000000000164e+03
6.000000000000000125e-03 1.454099999999999837e-01 1.014348500000000008e+01 6.939699999999999136e+01 2.020819999999999936e+03
7.000000000000000146e-03 1.452755000000000019e-01 1.199728499999999976e+01 6.670955000000000723e+01 2.019450000000000045e+03
8.000000000000000167e-03 1.451520000000000032e-01 1.353508000000000067e+01 6.427760000000000673e+01 2.018220000000000027e+03
9.000000000000001055e-03 1.450444999999999929e-01 1.481360000000000099e+01 6.220109999999999673e+01 2.017159999999999854e+03
1.000000000000000194e-02 1.449544999999999861e-01 1.586214999999999975e+01 6.053375000000000483e+01 2.016279999999999973e+03
1.099999999999999936e-02 1.448810000000000098e-01 1.669310000000000116e+01 5.922450000000000614e+01 2.015570000000000164e+03
1.200000000000000025e-02 1.448220000000000063e-01 1.732185000000000130e+01 5.820799999999999841e+01 2.015009999999999991e+03
1.300000000000000114e-02 1.447745000000000004e-01 1.775260000000000105e+01 5.738599999999999568e+01 2.014565000000000055e+03
1.400000000000000203e-02 1.447360000000000035e-01 1.800260000000000105e+01 5.665794999999999959e+01 2.014210000000000036e+03
1.499999999999999944e-02 1.447045000000000137e-01 1.815490000000000137e+01 5.607750000000000057e+01 2.013924999999999955e+03
1.600000000000000033e-02 1.446855000000000224e-01 1.836249999999999716e+01 5.593885000000000218e+01 2.013764999999999873e+03
1.700000000000000122e-02 1.446874999999999967e-01 1.877765000000000128e+01 5.663764999999999361e+01 2.013795000000000073e+03
1.800000000000000211e-02 1.447174999999999989e-01 1.946154999999999902e+01 5.839620000000000033e+01 2.014095000000000027e+03
1.900000000000000300e-02 1.447755000000000014e-01 2.034105000000000274e+01 6.106450000000000244e+01 2.014664999999999964e+03
2.000000000000000042e-02 1.448530000000000095e-01 2.123509999999999920e+01 6.412415000000000020e+01 2.015424999999999955e+03
2.100000000000000130e-02 1.449344999999999939e-01 2.192940000000000111e+01 6.687645000000000550e+01 2.016235000000000127e+03
2.200000000000000219e-02 1.450039999999999940e-01 2.225750000000000028e+01 6.870250000000000057e+01 2.016940000000000055e+03
2.299999999999999961e-02 1.450485000000000246e-01 2.215530000000000044e+01 6.927485000000000070e+01 2.017404999999999973e+03
2.400000000000000050e-02 1.450629999999999975e-01 2.167145000000000010e+01 6.864164999999999850e+01 2.017579999999999927e+03
2.500000000000000139e-02 1.450504999999999989e-01 2.093534999999999968e+01 6.716380000000000905e+01 2.017490000000000009e+03
2.600000000000000228e-02 1.450204999999999966e-01 2.010099999999999909e+01 6.534869999999999379e+01 2.017210000000000036e+03
2.700000000000000316e-02 1.449825000000000141e-01 1.929220000000000113e+01 6.365704999999999814e+01 2.016849999999999909e+03
2.800000000000000058e-02 1.449469999999999925e-01 1.856919999999999860e+01 6.236079999999999757e+01 2.016490000000000009e+03
2.900000000000000147e-02 1.449170000000000180e-01 1.792439999999999856e+01 6.149405000000000143e+01 2.016195000000000164e+03
3.000000000000000236e-02 1.448929999999999940e-01 1.730310000000000059e+01 6.089624999999999488e+01 2.015960000000000036e+03
3.099999999999999978e-02 1.448720000000000008e-01 1.663700000000000045e+01 6.031520000000000437e+01 2.015744999999999891e+03
3.200000000000000067e-02 1.448475000000000179e-01 1.587860000000000049e+01 5.952570000000000050e+01 2.015509999999999991e+03
3.300000000000000155e-02 1.448174999999999879e-01 1.502475000000000094e+01 5.842549999999999955e+01 2.015220000000000027e+03
3.400000000000000244e-02 1.447809999999999930e-01 1.412424999999999997e+01 5.708060000000000400e+01 2.014860000000000127e+03
3.500000000000000333e-02 1.447404999999999942e-01 1.326719999999999899e+01 5.571079999999999899e+01 2.014464999999999918e+03
3.600000000000000422e-02 1.447029999999999983e-01 1.256034999999999968e+01 5.462274999999999636e+01 2.014099999999999909e+03
3.700000000000000511e-02 1.446759999999999990e-01 1.209655000000000058e+01 5.411395000000000266e+01 2.013825000000000045e+03
3.799999999999999906e-02 1.446664999999999757e-01 1.192825000000000024e+01 5.438054999999999950e+01 2.013720000000000027e+03
3.899999999999999994e-02 1.446780000000000010e-01 1.205225000000000080e+01 5.545615000000000094e+01 2.013809999999999945e+03
4.000000000000000083e-02 1.447094999999999909e-01 1.240950000000000131e+01 5.719695000000000107e+01 2.014105000000000018e+03
4.100000000000000172e-02 1.447569999999999968e-01 1.289734999999999943e+01 5.931239999999999668e+01 2.014555000000000064e+03
4.200000000000000261e-02 1.448129999999999973e-01 1.339024999999999999e+01 6.142799999999999727e+01 2.015095000000000027e+03
4.300000000000000350e-02 1.448670000000000235e-01 1.376259999999999906e+01 6.316030000000000655e+01 2.015625000000000000e+03
4.400000000000000439e-02 1.449099999999999833e-01 1.390840000000000032e+01 6.418504999999998972e+01 2.016045000000000073e+03
4.499999999999999833e-02 1.449334999999999929e-01 1.375450000000000017e+01 6.428494999999999493e+01 2.016289999999999964e+03
4.599999999999999922e-02 1.449320000000000053e-01 1.326604999999999990e+01 6.337090000000000600e+01 2.016289999999999964e+03
4.700000000000000011e-02 1.449040000000000050e-01 1.244495000000000040e+01 6.147655000000000314e+01 2.016025000000000091e+03
4.800000000000000100e-02 1.448484999999999912e-01 1.132291500000000006e+01 5.873295000000000243e+01 2.015490000000000009e+03
4.900000000000000189e-02 1.447694999999999954e-01 9.952040000000000219e+00 5.533319999999999794e+01 2.014724999999999909e+03
5.000000000000000278e-02 1.446709999999999940e-01 8.395624999999999005e+00 5.149630000000000507e+01 2.013769999999999982e+03
5.100000000000000366e-02 1.445595000000000074e-01 6.720555000000000057e+00 4.743755000000000166e+01 2.012675000000000182e+03
5.200000000000000455e-02 1.444389999999999841e-01 4.992633999999999794e+00 4.335070000000000334e+01 2.011494999999999891e+03
5.300000000000000544e-02 1.443165000000000142e-01 3.274598999999999815e+00 3.940104999999999791e+01 2.010289999999999964e+03
5.399999999999999939e-02 1.441959999999999908e-01 1.625829999999999886e+00 3.572744999999999749e+01 2.009105000000000018e+03
5.500000000000000028e-02 1.440815000000000012e-01 1.030349999999999877e-01 3.244865000000000066e+01 2.007974999999999909e+03
5.600000000000000117e-02 1.439779999999999949e-01 -1.239235000000000086e+00 2.967090000000000316e+01 2.006945000000000164e+03
5.700000000000000205e-02 1.438885000000000025e-01 -2.348786000000000040e+00 2.749240000000000350e+01 2.006055000000000064e+03
5.800000000000000294e-02 1.438170000000000004e-01 -3.177135000000000264e+00 2.600469999999999970e+01 2.005335000000000036e+03
5.900000000000000383e-02 1.437654999999999905e-01 -3.681744999999999823e+00 2.528894999999999982e+01 2.004815000000000055e+03
6.000000000000000472e-02 1.437380000000000047e-01 -3.828860000000000152e+00 2.540980000000000061e+01 2.004519999999999982e+03
6.099999999999999867e-02 1.437350000000000017e-01 -3.596289999999999765e+00 2.640804999999999936e+01 2.004474999999999909e+03
6.199999999999999956e-02 1.437599999999999989e-01 -2.975620000000000154e+00 2.829384999999999906e+01 2.004684999999999945e+03
6.300000000000000044e-02 1.438114999999999810e-01 -1.973376999999999937e+00 3.104260000000000019e+01 2.005164999999999964e+03
6.400000000000000133e-02 1.438895000000000035e-01 -6.108950000000001879e-01 3.459444999999999482e+01 2.005909999999999854e+03
6.500000000000000222e-02 1.439925000000000233e-01 1.076965000000000172e+00 3.885750000000000171e+01 2.006900000000000091e+03
6.600000000000000311e-02 1.441179999999999961e-01 3.044200000000000017e+00 4.371390000000000242e+01 2.008115000000000009e+03
6.700000000000000400e-02 1.442630000000000023e-01 5.236568499999999737e+00 4.902819999999999823e+01 2.009519999999999982e+03
6.800000000000000488e-02 1.444225000000000092e-01 7.594839999999999591e+00 5.465654999999999575e+01 2.011085000000000036e+03
6.900000000000000577e-02 1.445934999999999859e-01 1.005800500000000142e+01 6.045510000000000161e+01 2.012759999999999991e+03
7.000000000000000666e-02 1.447714999999999974e-01 1.256606500000000004e+01 6.628810000000000002e+01 2.014514999999999873e+03
7.100000000000000755e-02 1.449525000000000119e-01 1.506290000000000084e+01 7.203404999999999347e+01 2.016305000000000064e+03
7.200000000000000844e-02 1.451324999999999976e-01 1.749830000000000041e+01 7.759065000000001078e+01 2.018099999999999909e+03
7.300000000000000933e-02 1.453089999999999937e-01 1.982995000000000019e+01 8.287829999999999586e+01 2.019855000000000018e+03
7.399999999999999634e-02 1.454789999999999972e-01 2.202499999999999858e+01 8.784284999999999854e+01 2.021559999999999945e+03
7.499999999999999722e-02 1.456410000000000204e-01 2.406085000000000207e+01 9.245660000000000878e+01 2.023190000000000055e+03
7.599999999999999811e-02 1.457930000000000059e-01 2.592564999999999742e+01 9.671715000000000373e+01 2.024730000000000018e+03
7.699999999999999900e-02 1.459364999999999968e-01 2.761789999999999878e+01 1.006464500000000015e+02 2.026174999999999955e+03
7.799999999999999989e-02 1.460700000000000054e-01 2.914560000000000173e+01 1.042865999999999929e+02 2.027530000000000200e+03
7.900000000000000078e-02 1.461959999999999926e-01 3.052434999999999832e+01 1.076955000000000098e+02 2.028809999999999945e+03
8.000000000000000167e-02 1.463145000000000140e-01 3.177559999999999718e+01 1.109399999999999977e+02 2.030025000000000091e+03
8.100000000000000255e-02 1.464285000000000170e-01 3.292430000000000234e+01 1.140904999999999916e+02 2.031190000000000055e+03
8.200000000000000344e-02 1.465394999999999892e-01 3.399600000000000222e+01 1.172129999999999939e+02 2.032320000000000164e+03
8.300000000000000433e-02 1.466494999999999882e-01 3.501520000000000010e+01 1.203654999999999973e+02 2.033440000000000055e+03
8.400000000000000522e-02 1.467594999999999872e-01 3.600265000000000271e+01 1.235914999999999964e+02 2.034570000000000164e+03
8.500000000000000611e-02 1.468714999999999882e-01 3.697424999999999784e+01 1.269190000000000111e+02 2.035704999999999927e+03
8.600000000000000699e-02 1.469850000000000045e-01 3.793999999999999773e+01 1.303565000000000111e+02 2.036865000000000009e+03
8.700000000000000788e-02 1.471020000000000105e-01 3.890314999999999657e+01 1.338940000000000055e+02 2.038055000000000064e+03
8.800000000000000877e-02 1.472205000000000041e-01 3.986060000000000514e+01 1.375054999999999836e+02 2.039264999999999873e+03
8.899999999999999578e-02 1.473409999999999997e-01 4.080330000000000013e+01 1.411499999999999773e+02 2.040494999999999891e+03
8.999999999999999667e-02 1.474619999999999820e-01 4.171720000000000539e+01 1.447744999999999891e+02 2.041730000000000018e+03
9.099999999999999756e-02 1.475825000000000053e-01 4.258445000000000391e+01 1.483199999999999932e+02 2.042954999999999927e+03
9.199999999999999845e-02 1.476994999999999836e-01 4.338469999999999516e+01 1.517235000000000014e+02 2.044154999999999973e+03
9.299999999999999933e-02 1.478125000000000133e-01 4.409660000000000224e+01 1.549230000000000018e+02 2.045309999999999945e+03
9.400000000000000022e-02 1.479189999999999949e-01 4.469904999999999973e+01 1.578594999999999970e+02 2.046404999999999745e+03
9.500000000000000111e-02 1.480175000000000241e-01 4.517295000000000016e+01 1.604830000000000041e+02 2.047425000000000182e+03
9.600000000000000200e-02 1.481064999999999743e-01 4.550150000000000006e+01 1.627515000000000214e+02 2.048345000000000255e+03
9.700000000000000289e-02 1.481844999999999968e-01 4.567199999999999704e+01 1.646345000000000027e+02 2.049154999999999745e+03
9.800000000000000377e-02 1.482515000000000083e-01 4.567600000000000193e+01 1.661144999999999925e+02 2.049845000000000255e+03
9.900000000000000466e-02 1.483054999999999790e-01 4.551010000000000133e+01 1.671854999999999905e+02 2.050409999999999854e+03
1.000000000000000056e-01 1.483470000000000066e-01 4.517570000000000618e+01 1.678555000000000064e+02 2.050850000000000364e+03
1.010000000000000064e-01 1.483760000000000079e-01 4.467950000000000443e+01 1.681444999999999936e+02 2.051164999999999964e+03
1.020000000000000073e-01 1.483929999999999971e-01 4.403275000000000006e+01 1.680815000000000055e+02 2.051355000000000018e+03
1.030000000000000082e-01 1.483995000000000175e-01 4.325084999999999980e+01 1.677065000000000055e+02 2.051429999999999836e+03
1.040000000000000091e-01 1.483955000000000135e-01 4.235264999999999702e+01 1.670654999999999859e+02 2.051400000000000091e+03
1.050000000000000100e-01 1.483825000000000005e-01 4.135954999999999870e+01 1.662090000000000032e+02 2.051280000000000200e+03
1.059999999999999970e-01 1.483619999999999939e-01 4.029439999999999600e+01 1.651895000000000095e+02 2.051085000000000036e+03
1.069999999999999979e-01 1.483364999999999823e-01 3.918089999999999407e+01 1.640600000000000023e+02 2.050829999999999927e+03
1.079999999999999988e-01 1.483065000000000078e-01 3.804214999999999947e+01 1.628720000000000141e+02 2.050530000000000200e+03
1.089999999999999997e-01 1.482735000000000025e-01 3.690014999999999645e+01 1.616709999999999923e+02 2.050199999999999818e+03
1.100000000000000006e-01 1.482399999999999829e-01 3.577469999999999573e+01 1.604970000000000141e+02 2.049855000000000018e+03
1.110000000000000014e-01 1.482054999999999900e-01 3.468290000000000362e+01 1.593845000000000027e+02 2.049510000000000218e+03
1.120000000000000023e-01 1.481725000000000125e-01 3.363855000000000217e+01 1.583580000000000041e+02 2.049170000000000073e+03
1.130000000000000032e-01 1.481415000000000093e-01 3.265174999999999983e+01 1.574339999999999975e+02 2.048849999999999909e+03
1.140000000000000041e-01 1.481129999999999947e-01 3.172874999999999801e+01 1.566210000000000093e+02 2.048550000000000182e+03
1.150000000000000050e-01 1.480865000000000098e-01 3.087194999999999823e+01 1.559164999999999850e+02 2.048284999999999854e+03
1.160000000000000059e-01 1.480635000000000145e-01 3.007995000000000019e+01 1.553125000000000000e+02 2.048039999999999964e+03
1.170000000000000068e-01 1.480430000000000079e-01 2.934799999999999898e+01 1.547920000000000016e+02 2.047825000000000273e+03
1.180000000000000077e-01 1.480250000000000177e-01 2.866830000000000211e+01 1.543340000000000032e+02 2.047629999999999882e+03
1.190000000000000085e-01 1.480080000000000007e-01 2.803065000000000140e+01 1.539110000000000014e+02 2.047454999999999927e+03
1.200000000000000094e-01 1.479920000000000124e-01 2.742314999999999969e+01 1.534929999999999950e+02 2.047285000000000082e+03
1.209999999999999964e-01 1.479765000000000108e-01 2.683279999999999887e+01 1.530500000000000114e+02 2.047125000000000000e+03
1.219999999999999973e-01 1.479600000000000082e-01 2.624640000000000128e+01 1.525509999999999877e+02 2.046950000000000045e+03
1.229999999999999982e-01 1.479419999999999902e-01 2.565109999999999957e+01 1.519680000000000177e+02 2.046760000000000218e+03
1.239999999999999991e-01 1.479214999999999836e-01 2.503524999999999778e+01 1.512764999999999986e+02 2.046555000000000064e+03
1.250000000000000000e-01 1.478980000000000017e-01 2.438895000000000124e+01 1.504579999999999984e+02 2.046309999999999945e+03
1.260000000000000009e-01 1.478705000000000158e-01 2.370454999999999757e+01 1.494979999999999905e+02 2.046030000000000200e+03
1.270000000000000018e-01 1.478389999999999982e-01 2.297715000000000174e+01 1.483909999999999911e+02 2.045710000000000036e+03
1.280000000000000027e-01 1.478035000000000043e-01 2.220475000000000065e+01 1.471370000000000005e+02 2.045349999999999909e+03
1.290000000000000036e-01 1.477634999999999921e-01 2.138840000000000074e+01 1.457445000000000164e+02 2.044940000000000055e+03
1.300000000000000044e-01 1.477189999999999892e-01 2.053215000000000146e+01 1.442289999999999850e+02 2.044489999999999782e+03
1.310000000000000053e-01 1.476709999999999967e-01 1.964285000000000281e+01 1.426109999999999900e+02 2.044000000000000000e+03
1.320000000000000062e-01 1.476200000000000012e-01 1.872975000000000279e+01 1.409170000000000016e+02 2.043480000000000018e+03
1.330000000000000071e-01 1.475660000000000027e-01 1.780409999999999826e+01 1.391770000000000209e+02 2.042940000000000055e+03
1.340000000000000080e-01 1.475110000000000032e-01 1.687859999999999872e+01 1.374244999999999948e+02 2.042380000000000109e+03
1.350000000000000089e-01 1.474550000000000027e-01 1.596664999999999957e+01 1.356920000000000073e+02 2.041809999999999945e+03
1.360000000000000098e-01 1.474000000000000032e-01 1.508180000000000121e+01 1.340130000000000052e+02 2.041244999999999891e+03
1.370000000000000107e-01 1.473460000000000047e-01 1.423724999999999952e+01 1.324184999999999945e+02 2.040700000000000045e+03
1.380000000000000115e-01 1.472939999999999805e-01 1.344484999999999886e+01 1.309354999999999905e+02 2.040170000000000073e+03
1.390000000000000124e-01 1.472459999999999880e-01 1.271514999999999951e+01 1.295869999999999891e+02 2.039675000000000182e+03
1.400000000000000133e-01 1.472009999999999985e-01 1.205655999999999928e+01 1.283905000000000030e+02 2.039220000000000027e+03
1.410000000000000142e-01 1.471609999999999863e-01 1.147522500000000001e+01 1.273574999999999875e+02 2.038804999999999836e+03
1.420000000000000151e-01 1.471255000000000202e-01 1.097484000000000037e+01 1.264945000000000022e+02 2.038440000000000055e+03
1.430000000000000160e-01 1.470954999999999901e-01 1.055658500000000011e+01 1.258004999999999995e+02 2.038130000000000109e+03
1.440000000000000169e-01 1.470699999999999785e-01 1.021918000000000148e+01 1.252694999999999936e+02 2.037865000000000009e+03
1.450000000000000178e-01 1.470494999999999997e-01 9.959035000000000082e+00 1.248915000000000077e+02 2.037650000000000091e+03
1.459999999999999909e-01 1.470339999999999980e-01 9.770579999999998932e+00 1.246509999999999962e+02 2.037485000000000127e+03
1.469999999999999918e-01 1.470230000000000148e-01 9.646565000000000722e+00 1.245294999999999987e+02 2.037365000000000009e+03
1.479999999999999927e-01 1.470154999999999934e-01 9.578414999999999679e+00 1.245074999999999932e+02 2.037279999999999973e+03
1.489999999999999936e-01 1.470115000000000172e-01 9.556475000000000719e+00 1.245620000000000118e+02 2.037235000000000127e+03
1.499999999999999944e-01 1.470100000000000018e-01 9.570679999999999410e+00 1.246700000000000017e+02 2.037215000000000146e+03
1.509999999999999953e-01 1.470104999999999884e-01 9.610804999999999154e+00 1.248110000000000070e+02 2.037210000000000036e+03
1.519999999999999962e-01 1.470119999999999760e-01 9.666830000000000922e+00 1.249625000000000057e+02 2.037230000000000018e+03
1.529999999999999971e-01 1.470144999999999924e-01 9.729210000000000136e+00 1.251064999999999969e+02 2.037250000000000000e+03
1.539999999999999980e-01 1.470174999999999954e-01 9.789365000000000094e+00 1.252259999999999991e+02 2.037269999999999982e+03
1.549999999999999989e-01 1.470194999999999974e-01 9.839790000000000703e+00 1.253064999999999998e+02 2.037289999999999964e+03
1.559999999999999998e-01 1.470204999999999984e-01 9.874249999999999972e+00 1.253379999999999939e+02 2.037305000000000064e+03
1.570000000000000007e-01 1.470204999999999984e-01 9.887920000000001153e+00 1.253125000000000000e+02 2.037305000000000064e+03
1.580000000000000016e-01 1.470190000000000108e-01 9.877514999999998935e+00 1.252270000000000039e+02 2.037289999999999964e+03
1.590000000000000024e-01 1.470159999999999800e-01 9.841239999999999100e+00 1.250805000000000007e+02 2.037259999999999991e+03
