# t [s], A [cm^2], U [cm/s], P [cPa], c [cm/s]
1.000000000000000021e-03 5.496469999999999967e-01 3.856000000000005257e-03 9.370199999999999818e+01 1.610090000000000146e+03
2.000000000000000042e-03 5.496404999999999763e-01 3.462655000000000247e-03 9.367715000000001169e+01 1.610079999999999927e+03
3.000000000000000062e-03 5.496980000000000199e-01 1.246700499999999767e-01 9.380430000000001201e+01 1.610115000000000009e+03
4.000000000000000083e-03 5.497330000000000272e-01 2.114721499999999976e-01 9.390834999999999866e+01 1.610139999999999873e+03
5.000000000000000104e-03 5.496940000000000159e-01 1.537735000000000074e-01 9.379505000000000337e+01 1.610115000000000009e+03
6.000000000000000125e-03 5.496305000000000218e-01 3.660399999999996989e-02 9.352105000000000246e+01 1.610054999999999836e+03
7.000000000000000146e-03 5.495655000000000401e-01 -9.366800000000002902e-02 9.315704999999999814e+01 1.609970000000000027e+03
8.000000000000000167e-03 5.494529999999999692e-01 -3.362849999999999451e-01 9.258905000000000030e+01 1.609839999999999918e+03
9.000000000000001055e-03 5.492759999999999865e-01 -7.256200000000001538e-01 9.173474999999999113e+01 1.609639999999999873e+03
1.000000000000000194e-02 5.490329999999999933e-01 -1.258650000000000269e+00 9.055310000000000059e+01 1.609355000000000018e+03
1.099999999999999936e-02 5.487035000000000107e-01 -1.958664999999999878e+00 8.897229999999998995e+01 1.608970000000000027e+03
1.200000000000000025e-02 5.482860000000000511e-01 -2.807700000000000085e+00 8.696580000000000155e+01 1.608480000000000018e+03
1.300000000000000114e-02 5.478259999999999241e-01 -3.682800000000000296e+00 8.465479999999999450e+01 1.607894999999999982e+03
1.400000000000000203e-02 5.473959999999999937e-01 -4.395881499999999775e+00 8.229245000000000232e+01 1.607269999999999982e+03
1.499999999999999944e-02 5.470544999999999991e-01 -4.790376150000000166e+00 8.014539999999999509e+01 1.606674999999999955e+03
1.600000000000000033e-02 5.468155000000000099e-01 -4.807117500000000376e+00 7.837880000000001246e+01 1.606144999999999982e+03
1.700000000000000122e-02 5.466554999999999609e-01 -4.490730000000000111e+00 7.701024999999999920e+01 1.605699999999999818e+03
1.800000000000000211e-02 5.465265000000000262e-01 -3.954454999999999831e+00 7.592889999999999873e+01 1.605315000000000055e+03
1.900000000000000300e-02 5.463789999999999480e-01 -3.329324999999999868e+00 7.495600000000000307e+01 1.604965000000000146e+03
2.000000000000000042e-02 5.461795000000000400e-01 -2.716873500000000163e+00 7.391814999999999714e+01 1.604605000000000018e+03
2.100000000000000130e-02 5.459190000000000431e-01 -2.160413000000000139e+00 7.270785000000000764e+01 1.604215000000000146e+03
2.200000000000000219e-02 5.456125000000000558e-01 -1.644455000000000000e+00 7.130844999999999345e+01 1.603780000000000200e+03
2.299999999999999961e-02 5.452875000000000361e-01 -1.119914999999999772e+00 6.977740000000000009e+01 1.603319999999999936e+03
2.400000000000000050e-02 5.449680000000000080e-01 -5.402149999999998897e-01 6.820109999999999673e+01 1.602840000000000146e+03
2.500000000000000139e-02 5.446649999999999547e-01 1.089999999999999858e-01 6.664564999999998918e+01 1.602360000000000127e+03
2.600000000000000228e-02 5.443715000000000082e-01 7.966850000000000875e-01 6.512309999999999377e+01 1.601885000000000218e+03
2.700000000000000316e-02 5.440639999999999921e-01 1.450570000000000137e+00 6.358124999999999716e+01 1.601400000000000091e+03
2.800000000000000058e-02 5.437134999999999607e-01 1.974369999999999958e+00 6.191559999999999775e+01 1.600894999999999982e+03
2.900000000000000147e-02 5.432884999999999520e-01 2.272009999999999863e+00 5.999880000000000280e+01 1.600325000000000045e+03
3.000000000000000236e-02 5.427690000000000570e-01 2.272479999999999833e+00 5.771819999999999595e+01 1.599680000000000064e+03
3.099999999999999978e-02 5.421515000000000084e-01 1.948980000000000157e+00 5.501205000000000211e+01 1.598934999999999945e+03
3.200000000000000067e-02 5.414505000000000567e-01 1.326914999999999623e+00 5.189360000000000639e+01 1.598090000000000146e+03
3.300000000000000155e-02 5.406984999999999708e-01 4.786749999999999616e-01 4.845655000000000001e+01 1.597159999999999854e+03
3.400000000000000244e-02 5.399365000000000414e-01 -4.923549999999998761e-01 4.486020000000000607e+01 1.596180000000000064e+03
3.500000000000000333e-02 5.392090000000000494e-01 -1.472259999999999458e+00 4.130284999999999940e+01 1.595194999999999936e+03
3.600000000000000422e-02 5.385554999999999648e-01 -2.355384999999999618e+00 3.798975000000000080e+01 1.594259999999999991e+03
3.700000000000000511e-02 5.380080000000000418e-01 -3.057100000000000151e+00 3.510569999999999879e+01 1.593414999999999964e+03
3.799999999999999906e-02 5.375874999999999959e-01 -3.519960000000000200e+00 3.279554999999999865e+01 1.592704999999999927e+03
3.899999999999999994e-02 5.373035000000000450e-01 -3.712919499999999928e+00 3.115459999999999852e+01 1.592159999999999854e+03
4.000000000000000083e-02 5.371580000000000243e-01 -3.626674999999999649e+00 3.022899999999999920e+01 1.591795000000000073e+03
4.100000000000000172e-02 5.371475000000000000e-01 -3.266350000000000087e+00 3.002280000000000015e+01 1.591625000000000000e+03
4.200000000000000261e-02 5.372635000000000050e-01 -2.644330000000000069e+00 3.050925000000000153e+01 1.591644999999999982e+03
4.300000000000000350e-02 5.374974999999999614e-01 -1.774765000000000148e+00 3.164329999999999643e+01 1.591845000000000027e+03
4.400000000000000439e-02 5.378404999999999436e-01 -6.708799999999999208e-01 3.337120000000000175e+01 1.592219999999999800e+03
4.499999999999999833e-02 5.382839999999999847e-01 6.547900000000002052e-01 3.563665000000000305e+01 1.592755000000000109e+03
4.599999999999999922e-02 5.388174999999999493e-01 2.188145000000000007e+00 3.838259999999999650e+01 1.593430000000000064e+03
4.700000000000000011e-02 5.394315000000000637e-01 3.910490000000000244e+00 4.154994999999999550e+01 1.594235000000000127e+03
4.800000000000000100e-02 5.401135000000000241e-01 5.796104999999999841e+00 4.507495000000000118e+01 1.595154999999999973e+03
4.900000000000000189e-02 5.408494999999999830e-01 7.811354999999998938e+00 4.888759999999999906e+01 1.596159999999999854e+03
5.000000000000000278e-02 5.416225000000000067e-01 9.915563699999999869e+00 5.291129999999999711e+01 1.597240000000000009e+03
5.100000000000000366e-02 5.424165000000000791e-01 1.206330999999999953e+01 5.706475000000000364e+01 1.598380000000000109e+03
5.200000000000000455e-02 5.432139999999999747e-01 1.420795000000000030e+01 6.126595000000000368e+01 1.599539999999999964e+03
5.300000000000000544e-02 5.440015000000000267e-01 1.630518000000000001e+01 6.543675000000000352e+01 1.600715000000000146e+03
5.399999999999999939e-02 5.447655000000000136e-01 1.831607499999999789e+01 6.950800000000000978e+01 1.601880000000000109e+03
5.500000000000000028e-02 5.454970000000000097e-01 2.020974999999999966e+01 7.342369999999999663e+01 1.603009999999999991e+03
5.600000000000000117e-02 5.461894999999999945e-01 2.196415000000000006e+01 7.714390000000000214e+01 1.604105000000000018e+03
5.700000000000000205e-02 5.468420000000000503e-01 2.356664999999999921e+01 8.064605000000000246e+01 1.605154999999999973e+03
5.800000000000000294e-02 5.474544999999999551e-01 2.501314999999999955e+01 8.392425000000000068e+01 1.606144999999999982e+03
5.900000000000000383e-02 5.480289999999999884e-01 2.630709999999999837e+01 8.698760000000000048e+01 1.607085000000000036e+03
6.000000000000000472e-02 5.485725000000000184e-01 2.745765000000000100e+01 8.985769999999999413e+01 1.607974999999999909e+03
6.099999999999999867e-02 5.490899999999999670e-01 2.847834999999999894e+01 9.256534999999999513e+01 1.608819999999999936e+03
6.199999999999999956e-02 5.495895000000000641e-01 2.938595000000000113e+01 9.514699999999999136e+01 1.609625000000000000e+03
6.300000000000000044e-02 5.500780000000000669e-01 3.019875000000000043e+01 9.764254999999999995e+01 1.610409999999999854e+03
6.400000000000000133e-02 5.505625000000000657e-01 3.093560000000000088e+01 1.000913500000000056e+02 1.611170000000000073e+03
6.500000000000000222e-02 5.510504999999999987e-01 3.161469999999999914e+01 1.025297500000000070e+02 1.611924999999999955e+03
6.600000000000000311e-02 5.515455000000000219e-01 3.225239999999999441e+01 1.049890000000000043e+02 1.612680000000000064e+03
6.700000000000000400e-02 5.520525000000000571e-01 3.286224999999999596e+01 1.074929999999999950e+02 1.613450000000000045e+03
6.800000000000000488e-02 5.525725000000000220e-01 3.345394999999999897e+01 1.100550000000000068e+02 1.614224999999999909e+03
6.900000000000000577e-02 5.531059999999999865e-01 3.403240000000000265e+01 1.126800000000000068e+02 1.615015000000000100e+03
7.000000000000000666e-02 5.536505000000000454e-01 3.459775000000000489e+01 1.153594999999999970e+02 1.615820000000000164e+03
7.100000000000000755e-02 5.542000000000000259e-01 3.514515000000000100e+01 1.180750000000000028e+02 1.616634999999999991e+03
7.200000000000000844e-02 5.547495000000000065e-01 3.566570000000000107e+01 1.207994999999999948e+02 1.617454999999999927e+03
7.300000000000000933e-02 5.552909999999999791e-01 3.614685000000000059e+01 1.234969999999999999e+02 1.618264999999999873e+03
7.399999999999999634e-02 5.558170000000000055e-01 3.657385000000000019e+01 1.261254999999999882e+02 1.619059999999999945e+03
7.499999999999999722e-02 5.563179999999999792e-01 3.693090000000000117e+01 1.286434999999999889e+02 1.619825000000000045e+03
7.599999999999999811e-02 5.567865000000000730e-01 3.720264999999999844e+01 1.310070000000000050e+02 1.620559999999999945e+03
7.699999999999999900e-02 5.572150000000000158e-01 3.737494999999999834e+01 1.331770000000000209e+02 1.621240000000000009e+03
7.799999999999999989e-02 5.575974999999999682e-01 3.743609999999999616e+01 1.351189999999999998e+02 1.621855000000000018e+03
7.900000000000000078e-02 5.579294999999999671e-01 3.737744999999999607e+01 1.368064999999999998e+02 1.622404999999999973e+03
8.000000000000000167e-02 5.582080000000000375e-01 3.719395000000000095e+01 1.382214999999999918e+02 1.622880000000000109e+03
8.100000000000000255e-02 5.584314999999999696e-01 3.688434999999999775e+01 1.393539999999999850e+02 1.623275000000000091e+03
8.200000000000000344e-02 5.586010000000000142e-01 3.645139999999999958e+01 1.402040000000000077e+02 1.623590000000000146e+03
8.300000000000000433e-02 5.587189999999999657e-01 3.590160000000000196e+01 1.407819999999999823e+02 1.623825000000000045e+03
8.400000000000000522e-02 5.587889999999999802e-01 3.524470000000000169e+01 1.411039999999999850e+02 1.623985000000000127e+03
8.500000000000000611e-02 5.588149999999999507e-01 3.449365000000000236e+01 1.411949999999999932e+02 1.624085000000000036e+03
8.600000000000000699e-02 5.588049999999999962e-01 3.366370000000000573e+01 1.410844999999999914e+02 1.624110000000000127e+03
8.700000000000000788e-02 5.587634999999999685e-01 3.277199999999999847e+01 1.408059999999999832e+02 1.624085000000000036e+03
8.800000000000000877e-02 5.586980000000000279e-01 3.183664999999999878e+01 1.403960000000000150e+02 1.624009999999999991e+03
8.899999999999999578e-02 5.586164999999999603e-01 3.087615000000000265e+01 1.398924999999999841e+02 1.623909999999999854e+03
8.999999999999999667e-02 5.585244999999999793e-01 2.990830000000000055e+01 1.393309999999999889e+02 1.623775000000000091e+03
9.099999999999999756e-02 5.584284999999999943e-01 2.895000000000000284e+01 1.387459999999999809e+02 1.623630000000000109e+03
9.199999999999999845e-02 5.583354999999999846e-01 2.801610000000000156e+01 1.381674999999999898e+02 1.623480000000000018e+03
9.299999999999999933e-02 5.582479999999999665e-01 2.711904999999999788e+01 1.376220000000000141e+02 1.623335000000000036e+03
9.400000000000000022e-02 5.581705000000000139e-01 2.626834999999999809e+01 1.371279999999999859e+02 1.623190000000000055e+03
9.500000000000000111e-02 5.581045000000000034e-01 2.547039999999999793e+01 1.367004999999999768e+02 1.623065000000000055e+03
9.600000000000000200e-02 5.580515000000000336e-01 2.472820000000000107e+01 1.363449999999999989e+02 1.622954999999999927e+03
9.700000000000000289e-02 5.580114999999999936e-01 2.404165000000000063e+01 1.360634999999999764e+02 1.622860000000000127e+03
9.800000000000000377e-02 5.579819999999999780e-01 2.340765000000000029e+01 1.358500000000000227e+02 1.622785000000000082e+03
9.900000000000000466e-02 5.579609999999999292e-01 2.282034999999999769e+01 1.356949999999999932e+02 1.622724999999999909e+03
1.000000000000000056e-01 5.579469999999999708e-01 2.227174999999999727e+01 1.355819999999999936e+02 1.622674999999999955e+03
1.010000000000000064e-01 5.579344999999999999e-01 2.175234999999999985e+01 1.354950000000000045e+02 1.622634999999999991e+03
1.020000000000000073e-01 5.579205000000000414e-01 2.125135000000000218e+01 1.354134999999999991e+02 1.622595000000000027e+03
1.030000000000000082e-01 5.579014999999999391e-01 2.075784999999999769e+01 1.353160000000000025e+02 1.622559999999999945e+03
1.040000000000000091e-01 5.578730000000000633e-01 2.026079999999999970e+01 1.351829999999999927e+02 1.622515000000000100e+03
1.050000000000000100e-01 5.578330000000000233e-01 1.975005000000000166e+01 1.349960000000000093e+02 1.622460000000000036e+03
1.059999999999999970e-01 5.577769999999999673e-01 1.921665000000000134e+01 1.347379999999999995e+02 1.622380000000000109e+03
1.069999999999999979e-01 5.577035000000000187e-01 1.865354999999999919e+01 1.343965000000000032e+02 1.622289999999999964e+03
1.079999999999999988e-01 5.576119999999999965e-01 1.805545000000000044e+01 1.339629999999999939e+02 1.622170000000000073e+03
1.089999999999999997e-01 5.575010000000000243e-01 1.741959999999999908e+01 1.334335000000000093e+02 1.622025000000000091e+03
1.100000000000000006e-01 5.573719999999999786e-01 1.674564999999999770e+01 1.328085000000000093e+02 1.621855000000000018e+03
1.110000000000000014e-01 5.572254999999999292e-01 1.603580000000000183e+01 1.320925000000000011e+02 1.621659999999999854e+03
1.120000000000000023e-01 5.570649999999999213e-01 1.529445000000000121e+01 1.312964999999999804e+02 1.621445000000000164e+03
1.130000000000000032e-01 5.568919999999999426e-01 1.452826999999999913e+01 1.304339999999999975e+02 1.621204999999999927e+03
1.140000000000000041e-01 5.567115000000000258e-01 1.374581500000000034e+01 1.295219999999999914e+02 1.620949999999999818e+03
1.150000000000000050e-01 5.565269999999999939e-01 1.295698999999999934e+01 1.285815000000000055e+02 1.620684999999999945e+03
1.160000000000000059e-01 5.563424999999999621e-01 1.217274500000000081e+01 1.276325000000000074e+02 1.620414999999999964e+03
1.170000000000000068e-01 5.561625000000000041e-01 1.140446000000000026e+01 1.266984999999999957e+02 1.620144999999999982e+03
1.180000000000000077e-01 5.559914999999999718e-01 1.066342500000000015e+01 1.258015000000000043e+02 1.619880000000000109e+03
1.190000000000000085e-01 5.558324999999999516e-01 9.960399999999999920e+00 1.249610000000000127e+02 1.619634999999999991e+03
1.200000000000000094e-01 5.556900000000000173e-01 9.305044999999999789e+00 1.241959999999999980e+02 1.619405000000000200e+03
1.209999999999999964e-01 5.555655000000000454e-01 8.705545000000000755e+00 1.235219999999999914e+02 1.619194999999999936e+03
1.219999999999999973e-01 5.554620000000000113e-01 8.168379999999999086e+00 1.229505000000000052e+02 1.619009999999999991e+03
1.229999999999999982e-01 5.553799999999999848e-01 7.697765000000000413e+00 1.224885000000000019e+02 1.618855000000000018e+03
1.239999999999999991e-01 5.553194999999999659e-01 7.295984999999999943e+00 1.221400000000000006e+02 1.618730000000000018e+03
1.250000000000000000e-01 5.552799999999999958e-01 6.962960000000000704e+00 1.219029999999999916e+02 1.618639999999999873e+03
1.260000000000000009e-01 5.552614999999999634e-01 6.696604999999999919e+00 1.217729999999999961e+02 1.618574999999999818e+03
1.270000000000000018e-01 5.552604999999999347e-01 6.492930000000000312e+00 1.217415000000000020e+02 1.618539999999999964e+03
1.280000000000000027e-01 5.552749999999999631e-01 6.346280000000000143e+00 1.217959999999999923e+02 1.618534999999999854e+03
1.290000000000000036e-01 5.553025000000000322e-01 6.249710000000000321e+00 1.219230000000000018e+02 1.618545000000000073e+03
1.300000000000000044e-01 5.553399999999999448e-01 6.195304999999999396e+00 1.221059999999999945e+02 1.618575000000000045e+03
1.310000000000000053e-01 5.553835000000000299e-01 6.174570000000000114e+00 1.223299999999999983e+02 1.618619999999999891e+03
1.320000000000000062e-01 5.554310000000000080e-01 6.178754999999999775e+00 1.225769999999999982e+02 1.618675000000000182e+03
1.330000000000000071e-01 5.554780000000000273e-01 6.199254999999999960e+00 1.228319999999999936e+02 1.618740000000000009e+03
1.340000000000000080e-01 5.555229999999999890e-01 6.227850000000000108e+00 1.230800000000000125e+02 1.618799999999999955e+03
1.350000000000000089e-01 5.555634999999999879e-01 6.257014999999999993e+00 1.233075000000000045e+02 1.618860000000000127e+03
1.360000000000000098e-01 5.555974999999999664e-01 6.280100000000000016e+00 1.235045000000000073e+02 1.618914999999999964e+03
1.370000000000000107e-01 5.556229999999999780e-01 6.291504999999999903e+00 1.236615000000000038e+02 1.618954999999999927e+03
1.380000000000000115e-01 5.556400000000000228e-01 6.286789999999999878e+00 1.237725000000000080e+02 1.618990000000000009e+03
1.390000000000000124e-01 5.556470000000000020e-01 6.262710000000000221e+00 1.238344999999999914e+02 1.619009999999999991e+03
1.400000000000000133e-01 5.556444999999999856e-01 6.217254999999999754e+00 1.238449999999999989e+02 1.619019999999999982e+03
1.410000000000000142e-01 5.556330000000000435e-01 6.149580000000000268e+00 1.238059999999999974e+02 1.619014999999999873e+03
1.420000000000000151e-01 5.556119999999999948e-01 6.059960000000000235e+00 1.237194999999999965e+02 1.619000000000000000e+03
1.430000000000000160e-01 5.555839999999999668e-01 5.949654999999999916e+00 1.235895000000000010e+02 1.618970000000000027e+03
1.440000000000000169e-01 5.555495000000000294e-01 5.820769999999999555e+00 1.234219999999999970e+02 1.618929999999999836e+03
1.450000000000000178e-01 5.555090000000000305e-01 5.676120000000000054e+00 1.232245000000000061e+02 1.618880000000000109e+03
1.459999999999999909e-01 5.554654999999999454e-01 5.518990000000000506e+00 1.230024999999999977e+02 1.618819999999999936e+03
1.469999999999999918e-01 5.554194999999999549e-01 5.352990000000000137e+00 1.227650000000000006e+02 1.618759999999999991e+03
1.479999999999999927e-01 5.553719999999999768e-01 5.181839999999999336e+00 1.225185000000000031e+02 1.618690000000000055e+03
1.489999999999999936e-01 5.553250000000000686e-01 5.009165000000000312e+00 1.222694999999999936e+02 1.618625000000000000e+03
1.499999999999999944e-01 5.552795000000000369e-01 4.838339999999999641e+00 1.220240000000000009e+02 1.618554999999999836e+03
1.509999999999999953e-01 5.552354999999999929e-01 4.672324999999999839e+00 1.217870000000000061e+02 1.618490000000000009e+03
1.519999999999999962e-01 5.551939999999999653e-01 4.513560000000000016e+00 1.215625000000000000e+02 1.618425000000000182e+03
1.529999999999999971e-01 5.551559999999999828e-01 4.363879999999999981e+00 1.213514999999999873e+02 1.618364999999999782e+03
1.539999999999999980e-01 5.551200000000000578e-01 4.224495000000000111e+00 1.211564999999999941e+02 1.618304999999999836e+03
1.549999999999999989e-01 5.550880000000000258e-01 4.095990000000000464e+00 1.209755000000000109e+02 1.618250000000000000e+03
1.559999999999999998e-01 5.550574999999999815e-01 3.978355000000000086e+00 1.208079999999999927e+02 1.618199999999999818e+03
1.570000000000000007e-01 5.550289999999999946e-01 3.871109999999999829e+00 1.206514999999999986e+02 1.618154999999999973e+03
1.580000000000000016e-01 5.550019999999999953e-01 3.773380000000000400e+00 1.205024999999999977e+02 1.618105000000000018e+03
1.590000000000000024e-01 5.549745000000000372e-01 3.684040000000000425e+00 1.203580000000000041e+02 1.618059999999999945e+03
