# t [s], A [cm^2], U [cm/s], P [cPa], c [cm/s]
1.000000000000000021e-03 1.339770000000000127e-01 3.821690000000000365e-01 9.415264999999999418e+01 1.821299999999999955e+03
2.000000000000000042e-03 1.339480000000000115e-01 1.984605999999999870e+00 9.100540000000000873e+01 1.820950000000000045e+03
3.000000000000000062e-03 1.338519999999999988e-01 3.908812499999999801e+00 8.691689999999999827e+01 1.819869999999999891e+03
4.000000000000000083e-03 1.337129999999999985e-01 6.030167500000000125e+00 8.251730000000000587e+01 1.818319999999999936e+03
5.000000000000000104e-03 1.335560000000000080e-01 8.292204999999999160e+00 7.854160000000000252e+01 1.816590000000000146e+03
6.000000000000000125e-03 1.333989999999999898e-01 1.056397499999999923e+01 7.527424999999999500e+01 1.814880000000000109e+03
7.000000000000000146e-03 1.332494999999999929e-01 1.267156500000000108e+01 7.256425000000000125e+01 1.813264999999999873e+03
8.000000000000000167e-03 1.331085000000000185e-01 1.451188999999999929e+01 7.016634999999999422e+01 1.811769999999999982e+03
9.000000000000001055e-03 1.329799999999999871e-01 1.609100000000000108e+01 6.802594999999999459e+01 1.810429999999999836e+03
1.000000000000000194e-02 1.328659999999999841e-01 1.744535000000000124e+01 6.620055000000000689e+01 1.809250000000000000e+03
1.099999999999999936e-02 1.327679999999999971e-01 1.859134999999999849e+01 6.469554999999999723e+01 1.808250000000000000e+03
1.200000000000000025e-02 1.326855000000000118e-01 1.953880000000000194e+01 6.346680000000000632e+01 1.807409999999999854e+03
1.300000000000000114e-02 1.326164999999999983e-01 2.030000000000000071e+01 6.246580000000000155e+01 1.806720000000000027e+03
1.400000000000000203e-02 1.325589999999999824e-01 2.088284999999999769e+01 6.163320000000000221e+01 1.806154999999999973e+03
1.499999999999999944e-02 1.325109999999999899e-01 2.130069999999999908e+01 6.090770000000000550e+01 1.805684999999999945e+03
1.600000000000000033e-02 1.324704999999999910e-01 2.159810000000000230e+01 6.029075000000000273e+01 1.805299999999999955e+03
1.700000000000000122e-02 1.324394999999999878e-01 2.186214999999999975e+01 5.990359999999999729e+01 1.805009999999999991e+03
1.800000000000000211e-02 1.324220000000000119e-01 2.219879999999999853e+01 5.996020000000000039e+01 1.804849999999999909e+03
1.900000000000000300e-02 1.324230000000000129e-01 2.268724999999999881e+01 6.065784999999999627e+01 1.804875000000000000e+03
2.000000000000000042e-02 1.324465000000000225e-01 2.334244999999999948e+01 6.205530000000000257e+01 1.805125000000000000e+03
2.100000000000000130e-02 1.324909999999999977e-01 2.410500000000000043e+01 6.401140000000000896e+01 1.805579999999999927e+03
2.200000000000000219e-02 1.325504999999999878e-01 2.486179999999999879e+01 6.621184999999999832e+01 1.806194999999999936e+03
2.299999999999999961e-02 1.326154999999999973e-01 2.548434999999999917e+01 6.826319999999999766e+01 1.806875000000000000e+03
2.400000000000000050e-02 1.326760000000000161e-01 2.586834999999999951e+01 6.981059999999999377e+01 1.807514999999999873e+03
2.500000000000000139e-02 1.327240000000000086e-01 2.596119999999999806e+01 7.063384999999999536e+01 1.808029999999999973e+03
2.600000000000000228e-02 1.327530000000000099e-01 2.577120000000000033e+01 7.069454999999999245e+01 1.808349999999999909e+03
2.700000000000000316e-02 1.327625000000000055e-01 2.535670000000000002e+01 7.012335000000000207e+01 1.808474999999999909e+03
2.800000000000000058e-02 1.327560000000000129e-01 2.480330000000000013e+01 6.916034999999999400e+01 1.808434999999999945e+03
2.900000000000000147e-02 1.327389999999999959e-01 2.419630000000000081e+01 6.807255000000000678e+01 1.808269999999999982e+03
3.000000000000000236e-02 1.327170000000000016e-01 2.359884999999999877e+01 6.707750000000000057e+01 1.808059999999999945e+03
3.099999999999999978e-02 1.326955000000000218e-01 2.304044999999999987e+01 6.629505000000000337e+01 1.807835000000000036e+03
3.200000000000000067e-02 1.326760000000000161e-01 2.251784999999999926e+01 6.573629999999999995e+01 1.807639999999999873e+03
3.300000000000000155e-02 1.326600000000000001e-01 2.200499999999999901e+01 6.532609999999999673e+01 1.807469999999999800e+03
3.400000000000000244e-02 1.326450000000000129e-01 2.146839999999999904e+01 6.494584999999999297e+01 1.807320000000000164e+03
3.500000000000000333e-02 1.326295000000000113e-01 2.088214999999999932e+01 6.448269999999999413e+01 1.807164999999999964e+03
3.600000000000000422e-02 1.326110000000000066e-01 2.023969999999999914e+01 6.387055000000000149e+01 1.806980000000000018e+03
3.700000000000000511e-02 1.325884999999999980e-01 1.955890000000000128e+01 6.311360000000000525e+01 1.806750000000000000e+03
3.799999999999999906e-02 1.325629999999999864e-01 1.888015000000000043e+01 6.228930000000000433e+01 1.806494999999999891e+03
3.899999999999999994e-02 1.325365000000000015e-01 1.825835000000000008e+01 6.152934999999999377e+01 1.806224999999999909e+03
4.000000000000000083e-02 1.325135000000000063e-01 1.775055000000000049e+01 6.098680000000000234e+01 1.805985000000000127e+03
4.100000000000000172e-02 1.324970000000000037e-01 1.740279999999999916e+01 6.079744999999999777e+01 1.805819999999999936e+03
4.200000000000000261e-02 1.324919999999999987e-01 1.723979999999999890e+01 6.104529999999999745e+01 1.805755000000000109e+03
4.300000000000000350e-02 1.324994999999999923e-01 1.725880000000000081e+01 6.174084999999999468e+01 1.805820000000000164e+03
4.400000000000000439e-02 1.325195000000000123e-01 1.742934999999999945e+01 6.281579999999999586e+01 1.806014999999999873e+03
4.499999999999999833e-02 1.325510000000000022e-01 1.769830000000000325e+01 6.413405000000000200e+01 1.806320000000000164e+03
4.599999999999999922e-02 1.325894999999999990e-01 1.799804999999999922e+01 6.551480000000000814e+01 1.806704999999999927e+03
4.700000000000000011e-02 1.326295000000000113e-01 1.825679999999999836e+01 6.676200000000000045e+01 1.807115000000000009e+03
4.800000000000000100e-02 1.326664999999999928e-01 1.840789999999999793e+01 6.769329999999999359e+01 1.807490000000000009e+03
4.900000000000000189e-02 1.326944999999999930e-01 1.839734999999999943e+01 6.816409999999999059e+01 1.807779999999999973e+03
5.000000000000000278e-02 1.327099999999999946e-01 1.818885000000000218e+01 6.808234999999999104e+01 1.807945000000000164e+03
5.100000000000000366e-02 1.327085000000000070e-01 1.776525000000000176e+01 6.741394999999999982e+01 1.807940000000000055e+03
5.200000000000000455e-02 1.326900000000000024e-01 1.712744999999999962e+01 6.617910000000000537e+01 1.807755000000000109e+03
5.300000000000000544e-02 1.326539999999999941e-01 1.629175000000000040e+01 6.444204999999999472e+01 1.807394999999999982e+03
5.399999999999999939e-02 1.326015000000000110e-01 1.528590000000000160e+01 6.229715000000000202e+01 1.806865000000000009e+03
5.500000000000000028e-02 1.325350000000000139e-01 1.414489999999999981e+01 5.985484999999999900e+01 1.806190000000000055e+03
5.600000000000000117e-02 1.324575000000000058e-01 1.290784000000000020e+01 5.722984999999999900e+01 1.805400000000000091e+03
5.700000000000000205e-02 1.323725000000000041e-01 1.161533499999999997e+01 5.453215000000000146e+01 1.804535000000000082e+03
5.800000000000000294e-02 1.322829999999999839e-01 1.030788499999999885e+01 5.186265000000000214e+01 1.803614999999999782e+03
5.900000000000000383e-02 1.321924999999999906e-01 9.025330000000000297e+00 4.931189999999999429e+01 1.802684999999999945e+03
6.000000000000000472e-02 1.321029999999999982e-01 7.806680000000000064e+00 4.696090000000000231e+01 1.801775000000000091e+03
6.099999999999999867e-02 1.320195000000000118e-01 6.689914999999999168e+00 4.488365000000000293e+01 1.800909999999999854e+03
6.199999999999999956e-02 1.319434999999999913e-01 5.711959999999999482e+00 4.314855000000000018e+01 1.800119999999999891e+03
6.300000000000000044e-02 1.318769999999999942e-01 4.908229999999999649e+00 4.181964999999999577e+01 1.799434999999999945e+03
6.400000000000000133e-02 1.318239999999999967e-01 4.311745000000000161e+00 4.095629999999999882e+01 1.798884999999999991e+03
6.500000000000000222e-02 1.317854999999999999e-01 3.951954999999999885e+00 4.061145000000000493e+01 1.798480000000000018e+03
6.600000000000000311e-02 1.317645000000000066e-01 3.853324999999999889e+00 4.082880000000000109e+01 1.798250000000000000e+03
6.700000000000000400e-02 1.317625000000000046e-01 4.033954999999999735e+00 4.163965000000000316e+01 1.798204999999999927e+03
6.800000000000000488e-02 1.317804999999999949e-01 4.504375000000000462e+00 4.306015000000000015e+01 1.798375000000000000e+03
6.900000000000000577e-02 1.318190000000000195e-01 5.266704999999999970e+00 4.508849999999999625e+01 1.798750000000000000e+03
7.000000000000000666e-02 1.318785000000000096e-01 6.314329999999999998e+00 4.770449999999999591e+01 1.799340000000000146e+03
7.100000000000000755e-02 1.319595000000000073e-01 7.632155000000000911e+00 5.086959999999999837e+01 1.800150000000000091e+03
7.200000000000000844e-02 1.320594999999999963e-01 9.197404999999999831e+00 5.452890000000000015e+01 1.801159999999999854e+03
7.300000000000000933e-02 1.321779999999999899e-01 1.098074000000000083e+01 5.861394999999999555e+01 1.802355000000000018e+03
7.399999999999999634e-02 1.323124999999999996e-01 1.294789499999999904e+01 6.304690000000000083e+01 1.803724999999999909e+03
7.499999999999999722e-02 1.324609999999999954e-01 1.506109999999999971e+01 6.774424999999999386e+01 1.805240000000000009e+03
7.599999999999999811e-02 1.326199999999999879e-01 1.728115000000000023e+01 7.262160000000000082e+01 1.806875000000000000e+03
7.699999999999999900e-02 1.327875000000000028e-01 1.956879999999999953e+01 7.759730000000000416e+01 1.808599999999999909e+03
7.799999999999999989e-02 1.329609999999999959e-01 2.188635000000000019e+01 8.259575000000000955e+01 1.810394999999999982e+03
7.900000000000000078e-02 1.331380000000000063e-01 2.419885000000000019e+01 8.755074999999999363e+01 1.812224999999999909e+03
8.000000000000000167e-02 1.333149999999999891e-01 2.647560000000000002e+01 9.240680000000000405e+01 1.814065000000000055e+03
8.100000000000000255e-02 1.334905000000000119e-01 2.869055000000000177e+01 9.712205000000000155e+01 1.815900000000000091e+03
8.200000000000000344e-02 1.336640000000000050e-01 3.082339999999999947e+01 1.016670000000000016e+02 1.817715000000000146e+03
8.300000000000000433e-02 1.338329999999999798e-01 3.285940000000000083e+01 1.060258000000000038e+02 1.819490000000000009e+03
8.400000000000000522e-02 1.339965000000000184e-01 3.479005000000000081e+01 1.101965000000000003e+02 1.821214999999999918e+03
8.500000000000000611e-02 1.341549999999999965e-01 3.661225000000000307e+01 1.141880000000000024e+02 1.822894999999999982e+03
8.600000000000000699e-02 1.343084999999999973e-01 3.832804999999999751e+01 1.180194999999999936e+02 1.824519999999999982e+03
8.700000000000000788e-02 1.344569999999999932e-01 3.994380000000000308e+01 1.217170000000000130e+02 1.826099999999999909e+03
8.800000000000000877e-02 1.346009999999999984e-01 4.146894999999999953e+01 1.253125000000000000e+02 1.827634999999999991e+03
8.899999999999999578e-02 1.347420000000000007e-01 4.291505000000000081e+01 1.288380000000000223e+02 1.829130000000000109e+03
8.999999999999999667e-02 1.348794999999999855e-01 4.429460000000000264e+01 1.323259999999999934e+02 1.830610000000000127e+03
9.099999999999999756e-02 1.350159999999999971e-01 4.561974999999999625e+01 1.358034999999999854e+02 1.832069999999999936e+03
9.199999999999999845e-02 1.351515000000000077e-01 4.690115000000000123e+01 1.392939999999999827e+02 1.833525000000000091e+03
9.299999999999999933e-02 1.352869999999999906e-01 4.814744999999999919e+01 1.428109999999999786e+02 1.834974999999999909e+03
9.400000000000000022e-02 1.354225000000000012e-01 4.936435000000000173e+01 1.463605000000000018e+02 1.836429999999999836e+03
9.500000000000000111e-02 1.355589999999999851e-01 5.055424999999999613e+01 1.499399999999999977e+02 1.837889999999999873e+03
9.600000000000000200e-02 1.356954999999999967e-01 5.171625000000000227e+01 1.535355000000000132e+02 1.839365000000000009e+03
9.700000000000000289e-02 1.358329999999999815e-01 5.284604999999999819e+01 1.571289999999999907e+02 1.840840000000000146e+03
9.800000000000000377e-02 1.359695000000000209e-01 5.393634999999999735e+01 1.606920000000000073e+02 1.842309999999999945e+03
9.900000000000000466e-02 1.361045000000000171e-01 5.497749999999999915e+01 1.641935000000000002e+02 1.843769999999999982e+03
1.000000000000000056e-01 1.362375000000000114e-01 5.595790000000000219e+01 1.675974999999999966e+02 1.845210000000000036e+03
1.010000000000000064e-01 1.363675000000000026e-01 5.686475000000000080e+01 1.708679999999999950e+02 1.846615000000000009e+03
1.020000000000000073e-01 1.364930000000000032e-01 5.768489999999999895e+01 1.739675000000000011e+02 1.847974999999999909e+03
1.030000000000000082e-01 1.366124999999999978e-01 5.840534999999999854e+01 1.768639999999999759e+02 1.849275000000000091e+03
1.040000000000000091e-01 1.367260000000000142e-01 5.901415000000000077e+01 1.795244999999999891e+02 1.850500000000000000e+03
1.050000000000000100e-01 1.368305000000000216e-01 5.950065000000000026e+01 1.819250000000000114e+02 1.851644999999999982e+03
1.059999999999999970e-01 1.369269999999999932e-01 5.985640000000000072e+01 1.840444999999999993e+02 1.852700000000000045e+03
1.069999999999999979e-01 1.370135000000000103e-01 6.007524999999999693e+01 1.858689999999999998e+02 1.853650000000000091e+03
1.079999999999999988e-01 1.370899999999999896e-01 6.015370000000000061e+01 1.873905000000000030e+02 1.854494999999999891e+03
1.089999999999999997e-01 1.371554999999999858e-01 6.009100000000000108e+01 1.886080000000000041e+02 1.855224999999999909e+03
1.100000000000000006e-01 1.372114999999999863e-01 5.988939999999999486e+01 1.895285000000000082e+02 1.855840000000000146e+03
1.110000000000000014e-01 1.372559999999999891e-01 5.955400000000000205e+01 1.901620000000000061e+02 1.856340000000000146e+03
1.120000000000000023e-01 1.372904999999999820e-01 5.909229999999999450e+01 1.905264999999999986e+02 1.856724999999999909e+03
1.130000000000000032e-01 1.373154999999999792e-01 5.851454999999999984e+01 1.906435000000000173e+02 1.857009999999999991e+03
1.140000000000000041e-01 1.373304999999999942e-01 5.783270000000000266e+01 1.905389999999999873e+02 1.857190000000000055e+03
1.150000000000000050e-01 1.373380000000000156e-01 5.706064999999999543e+01 1.902419999999999902e+02 1.857279999999999973e+03
1.160000000000000059e-01 1.373375000000000012e-01 5.621330000000000382e+01 1.897830000000000155e+02 1.857285000000000082e+03
1.170000000000000068e-01 1.373304999999999942e-01 5.530615000000000236e+01 1.891935000000000002e+02 1.857220000000000027e+03
1.180000000000000077e-01 1.373174999999999812e-01 5.435510000000000019e+01 1.885049999999999955e+02 1.857090000000000146e+03
1.190000000000000085e-01 1.373010000000000064e-01 5.337534999999999741e+01 1.877479999999999905e+02 1.856914999999999964e+03
1.200000000000000094e-01 1.372804999999999997e-01 5.238165000000000049e+01 1.869485000000000241e+02 1.856700000000000045e+03
1.209999999999999964e-01 1.372574999999999767e-01 5.138729999999999620e+01 1.861324999999999932e+02 1.856454999999999927e+03
1.219999999999999973e-01 1.372329999999999939e-01 5.040395000000000181e+01 1.853209999999999980e+02 1.856190000000000055e+03
1.229999999999999982e-01 1.372074999999999823e-01 4.944155000000000655e+01 1.845300000000000011e+02 1.855920000000000073e+03
1.239999999999999991e-01 1.371819999999999984e-01 4.850789999999999935e+01 1.837735000000000127e+02 1.855639999999999873e+03
1.250000000000000000e-01 1.371565000000000145e-01 4.760849999999999937e+01 1.830569999999999879e+02 1.855365000000000009e+03
1.260000000000000009e-01 1.371324999999999905e-01 4.674675000000000580e+01 1.823860000000000241e+02 1.855095000000000027e+03
1.270000000000000018e-01 1.371084999999999943e-01 4.592379999999999995e+01 1.817579999999999814e+02 1.854835000000000036e+03
1.280000000000000027e-01 1.370859999999999856e-01 4.513880000000000337e+01 1.811684999999999945e+02 1.854585000000000036e+03
1.290000000000000036e-01 1.370635000000000048e-01 4.438904999999999745e+01 1.806089999999999804e+02 1.854344999999999800e+03
1.300000000000000044e-01 1.370425000000000115e-01 4.367010000000000502e+01 1.800695000000000050e+02 1.854105000000000018e+03
1.310000000000000053e-01 1.370220000000000049e-01 4.297650000000000148e+01 1.795339999999999918e+02 1.853880000000000109e+03
1.320000000000000062e-01 1.370014999999999983e-01 4.230145000000000266e+01 1.789904999999999973e+02 1.853650000000000091e+03
1.330000000000000071e-01 1.369805000000000050e-01 4.163785000000000025e+01 1.784214999999999804e+02 1.853420000000000073e+03
1.340000000000000080e-01 1.369585000000000108e-01 4.097814999999999941e+01 1.778129999999999882e+02 1.853180000000000064e+03
1.350000000000000089e-01 1.369354999999999878e-01 4.031504999999999939e+01 1.771500000000000057e+02 1.852925000000000182e+03
1.360000000000000098e-01 1.369104999999999905e-01 3.964145000000000607e+01 1.764184999999999945e+02 1.852654999999999973e+03
1.370000000000000107e-01 1.368834999999999913e-01 3.895109999999999673e+01 1.756084999999999923e+02 1.852360000000000127e+03
1.380000000000000115e-01 1.368539999999999757e-01 3.823890000000000100e+01 1.747110000000000127e+02 1.852039999999999964e+03
1.390000000000000124e-01 1.368209999999999982e-01 3.750060000000000571e+01 1.737199999999999989e+02 1.851684999999999945e+03
1.400000000000000133e-01 1.367860000000000187e-01 3.673384999999999678e+01 1.726329999999999814e+02 1.851300000000000182e+03
1.410000000000000142e-01 1.367470000000000074e-01 3.593730000000000047e+01 1.714510000000000218e+02 1.850880000000000109e+03
1.420000000000000151e-01 1.367045000000000066e-01 3.511164999999999736e+01 1.701779999999999973e+02 1.850424999999999955e+03
1.430000000000000160e-01 1.366594999999999893e-01 3.425905000000000200e+01 1.688220000000000027e+02 1.849940000000000055e+03
1.440000000000000169e-01 1.366114999999999968e-01 3.338304999999999723e+01 1.673940000000000055e+02 1.849420000000000073e+03
1.450000000000000178e-01 1.365609999999999880e-01 3.248879999999999768e+01 1.659069999999999823e+02 1.848875000000000000e+03
1.459999999999999909e-01 1.365079999999999905e-01 3.158259999999999934e+01 1.643770000000000095e+02 1.848299999999999955e+03
1.469999999999999918e-01 1.364529999999999910e-01 3.067184999999999917e+01 1.628215000000000146e+02 1.847715000000000146e+03
1.479999999999999927e-01 1.363975000000000048e-01 2.976449999999999818e+01 1.612599999999999909e+02 1.847109999999999900e+03
1.489999999999999936e-01 1.363409999999999900e-01 2.886925000000000097e+01 1.597115000000000009e+02 1.846505000000000109e+03
1.499999999999999944e-01 1.362845000000000029e-01 2.799459999999999837e+01 1.581959999999999980e+02 1.845894999999999982e+03
1.509999999999999953e-01 1.362289999999999890e-01 2.714920000000000044e+01 1.567305000000000064e+02 1.845299999999999955e+03
1.519999999999999962e-01 1.361749999999999905e-01 2.634089999999999776e+01 1.553335000000000150e+02 1.844710000000000036e+03
1.529999999999999971e-01 1.361224999999999796e-01 2.557690000000000197e+01 1.540190000000000055e+02 1.844150000000000091e+03
1.539999999999999980e-01 1.360729999999999995e-01 2.486350000000000193e+01 1.527990000000000066e+02 1.843615000000000009e+03
1.549999999999999989e-01 1.360259999999999803e-01 2.420555000000000234e+01 1.516839999999999975e+02 1.843105000000000018e+03
1.559999999999999998e-01 1.359825000000000061e-01 2.360665000000000191e+01 1.506800000000000068e+02 1.842634999999999991e+03
1.570000000000000007e-01 1.359424999999999939e-01 2.306889999999999930e+01 1.497895000000000039e+02 1.842204999999999927e+03
1.580000000000000016e-01 1.359070000000000000e-01 2.259304999999999808e+01 1.490134999999999934e+02 1.841809999999999945e+03
1.590000000000000024e-01 1.358745000000000092e-01 2.217820000000000036e+01 1.483480000000000132e+02 1.841460000000000036e+03
