# t [s], A [cm^2], U [cm/s], P [cPa], c [cm/s]
1.000000000000000021e-03 5.043545000000000389e-01 2.963100000000003231e-03 9.926990000000000691e+01 1.446549999999999955e+03
2.000000000000000042e-03 5.043480000000000185e-01 4.563599999999998387e-04 9.925145000000000550e+01 1.446545000000000073e+03
3.000000000000000062e-03 5.043885000000000174e-01 7.987210000000000143e-02 9.932380000000000564e+01 1.446569999999999936e+03
4.000000000000000083e-03 5.044329999999999092e-01 1.697670500000000027e-01 9.942839999999999634e+01 1.446605000000000018e+03
5.000000000000000104e-03 5.044264999999999999e-01 1.646064999999999889e-01 9.941689999999999827e+01 1.446605000000000018e+03
6.000000000000000125e-03 5.043824999999999559e-01 8.330250000000000155e-02 9.926875000000001137e+01 1.446570000000000164e+03
7.000000000000000146e-03 5.043360000000000065e-01 -7.421499999999969788e-03 9.904749999999999943e+01 1.446514999999999873e+03
8.000000000000000167e-03 5.042754999999999876e-01 -1.334864999999999524e-01 9.873640000000000327e+01 1.446434999999999945e+03
9.000000000000001055e-03 5.041720000000000645e-01 -3.540950000000000486e-01 9.826064999999999827e+01 1.446305000000000064e+03
1.000000000000000194e-02 5.040184999999999249e-01 -6.799000000000000599e-01 9.757769999999999300e+01 1.446130000000000109e+03
1.099999999999999936e-02 5.038110000000000088e-01 -1.111569999999999947e+00 9.665569999999999595e+01 1.445875000000000000e+03
1.200000000000000025e-02 5.035355000000000247e-01 -1.660895000000000010e+00 9.545090000000000430e+01 1.445539999999999964e+03
1.300000000000000114e-02 5.031904999999999850e-01 -2.314270000000000049e+00 9.394549999999999557e+01 1.445115000000000009e+03
1.400000000000000203e-02 5.028004999999999836e-01 -3.000500000000000167e+00 9.219429999999999836e+01 1.444599999999999909e+03
1.499999999999999944e-02 5.024094999999999533e-01 -3.604679999999999662e+00 9.032679999999999154e+01 1.444034999999999854e+03
1.600000000000000033e-02 5.020590000000000330e-01 -4.014148000000000494e+00 8.850059999999999150e+01 1.443465000000000146e+03
1.700000000000000122e-02 5.017730000000000246e-01 -4.159670500000000715e+00 8.684469999999998890e+01 1.442914999999999964e+03
1.800000000000000211e-02 5.015509999999999691e-01 -4.031631599999999871e+00 8.542310000000000514e+01 1.442414999999999964e+03
1.900000000000000300e-02 5.013724999999999987e-01 -3.672515000000000196e+00 8.422669999999999391e+01 1.441965000000000146e+03
2.000000000000000042e-02 5.012090000000000156e-01 -3.155762300000000131e+00 8.318885000000000218e+01 1.441549999999999955e+03
2.100000000000000130e-02 5.010310000000000041e-01 -2.560420499999999766e+00 8.221394999999999698e+01 1.441154999999999973e+03
2.200000000000000219e-02 5.008185000000000553e-01 -1.948925000000000018e+00 8.120935000000000059e+01 1.440750000000000000e+03
2.299999999999999961e-02 5.005645000000000788e-01 -1.353704999999999936e+00 8.011170000000001323e+01 1.440329999999999927e+03
2.400000000000000050e-02 5.002744999999999553e-01 -7.759050000000000669e-01 7.889955000000000496e+01 1.439880000000000109e+03
2.500000000000000139e-02 4.999624999999999764e-01 -1.954549999999999343e-01 7.758990000000000009e+01 1.439404999999999973e+03
2.600000000000000228e-02 4.996435000000000182e-01 4.127600000000000158e-01 7.622200000000000841e+01 1.438909999999999854e+03
2.700000000000000316e-02 4.993285000000000085e-01 1.063349999999999795e+00 7.483655000000000257e+01 1.438409999999999854e+03
2.800000000000000058e-02 4.990179999999999616e-01 1.750420000000000087e+00 7.345744999999999436e+01 1.437904999999999973e+03
2.900000000000000147e-02 4.987070000000000114e-01 2.445105000000000306e+00 7.208180000000000121e+01 1.437394999999999982e+03
3.000000000000000236e-02 4.983815000000000328e-01 3.099869999999999681e+00 7.067820000000000391e+01 1.436880000000000109e+03
3.099999999999999978e-02 4.980244999999999811e-01 3.657680000000000486e+00 6.919395000000000095e+01 1.436345000000000027e+03
3.200000000000000067e-02 4.976194999999999924e-01 4.063344999999999985e+00 6.756745000000000800e+01 1.435769999999999982e+03
3.300000000000000155e-02 4.971560000000000423e-01 4.275115000000000443e+00 6.574424999999999386e+01 1.435150000000000091e+03
3.400000000000000244e-02 4.966310000000000446e-01 4.273194999999999411e+00 6.369140000000000157e+01 1.434460000000000036e+03
3.500000000000000333e-02 4.960499999999999909e-01 4.064470000000000027e+00 6.140894999999999726e+01 1.433720000000000027e+03
3.600000000000000422e-02 4.954309999999999548e-01 3.681720000000000326e+00 5.893439999999999657e+01 1.432909999999999854e+03
3.700000000000000511e-02 4.947940000000000116e-01 3.177855000000000096e+00 5.633955000000000268e+01 1.432070000000000164e+03
3.799999999999999906e-02 4.941674999999999818e-01 2.617750000000000465e+00 5.372235000000000582e+01 1.431220000000000027e+03
3.899999999999999994e-02 4.935780000000000167e-01 2.068910000000000249e+00 5.119420000000000215e+01 1.430384999999999991e+03
4.000000000000000083e-02 4.930485000000000007e-01 1.593559999999999643e+00 4.886760000000000304e+01 1.429599999999999909e+03
4.100000000000000172e-02 4.925999999999999823e-01 1.243045000000000400e+00 4.684470000000000312e+01 1.428890000000000100e+03
4.200000000000000261e-02 4.922469999999999901e-01 1.055210000000000203e+00 4.520900000000000318e+01 1.428289999999999964e+03
4.300000000000000350e-02 4.919985000000000053e-01 1.054250000000000131e+00 4.402139999999999986e+01 1.427820000000000164e+03
4.400000000000000439e-02 4.918580000000000174e-01 1.252454999999999874e+00 4.331874999999999432e+01 1.427494999999999891e+03
4.499999999999999833e-02 4.918250000000000122e-01 1.653110499999999927e+00 4.311610000000000298e+01 1.427324999999999818e+03
4.599999999999999922e-02 4.918989999999999752e-01 2.253664999999999807e+00 4.341065000000000396e+01 1.427309999999999945e+03
4.700000000000000011e-02 4.920749999999999846e-01 3.048456499999999902e+00 4.418639999999999901e+01 1.427450000000000045e+03
4.800000000000000100e-02 4.923465000000000202e-01 4.030481499999999606e+00 4.541875000000000284e+01 1.427744999999999891e+03
4.900000000000000189e-02 4.927094999999999669e-01 5.192039499999999919e+00 4.707795000000000130e+01 1.428184999999999945e+03
5.000000000000000278e-02 4.931569999999999565e-01 6.524486500000000078e+00 4.913129999999999598e+01 1.428759999999999991e+03
5.100000000000000366e-02 4.936819999999999542e-01 8.017068000000000083e+00 5.154344999999999999e+01 1.429460000000000036e+03
5.200000000000000455e-02 4.942770000000000219e-01 9.655920000000000059e+00 5.427689999999999770e+01 1.430275000000000091e+03
5.300000000000000544e-02 4.949324999999999974e-01 1.142321000000000097e+01 5.729085000000000605e+01 1.431195000000000164e+03
5.399999999999999939e-02 4.956395000000000106e-01 1.329686000000000057e+01 6.054120000000000346e+01 1.432199999999999818e+03
5.500000000000000028e-02 4.963859999999999939e-01 1.525092000000000070e+01 6.398044999999999760e+01 1.433280000000000200e+03
5.600000000000000117e-02 4.971615000000000339e-01 1.725666000000000011e+01 6.755889999999999418e+01 1.434420000000000073e+03
5.700000000000000205e-02 4.979534999999999934e-01 1.928406499999999824e+01 7.122610000000000241e+01 1.435610000000000127e+03
5.800000000000000294e-02 4.987519999999999731e-01 2.130369999999999919e+01 7.493264999999999532e+01 1.436820000000000164e+03
5.900000000000000383e-02 4.995465000000000044e-01 2.328799999999999670e+01 7.863290000000000646e+01 1.438049999999999955e+03
6.000000000000000472e-02 5.003299999999999415e-01 2.521290000000000120e+01 8.228665000000000873e+01 1.439280000000000200e+03
6.099999999999999867e-02 5.010950000000000681e-01 2.705884999999999962e+01 8.586084999999999923e+01 1.440494999999999891e+03
6.199999999999999956e-02 5.018375000000000474e-01 2.881135000000000090e+01 8.933150000000000546e+01 1.441690000000000055e+03
6.300000000000000044e-02 5.025560000000000027e-01 3.046095000000000041e+01 9.268225000000001046e+01 1.442855000000000018e+03
6.400000000000000133e-02 5.032495000000000163e-01 3.200294999999999845e+01 9.590735000000000809e+01 1.443990000000000009e+03
6.500000000000000222e-02 5.039190000000000058e-01 3.343704999999999927e+01 9.900749999999999318e+01 1.445090000000000146e+03
6.600000000000000311e-02 5.045669999999999877e-01 3.476650000000000063e+01 1.019909999999999997e+02 1.446155000000000200e+03
6.700000000000000400e-02 5.051965000000000483e-01 3.599745000000000061e+01 1.048713999999999942e+02 1.447199999999999818e+03
6.800000000000000488e-02 5.058120000000000394e-01 3.713799999999999812e+01 1.076663999999999959e+02 1.448210000000000036e+03
6.900000000000000577e-02 5.064174999999999649e-01 3.819750000000000512e+01 1.103954999999999984e+02 1.449195000000000164e+03
7.000000000000000666e-02 5.070170000000000510e-01 3.918590000000000373e+01 1.130790000000000077e+02 1.450170000000000073e+03
7.100000000000000755e-02 5.076144999999999685e-01 4.011310000000000286e+01 1.157374999999999972e+02 1.451134999999999991e+03
7.200000000000000844e-02 5.082134999999999847e-01 4.098845000000000027e+01 1.183870000000000005e+02 1.452089999999999918e+03
7.300000000000000933e-02 5.088159999999999350e-01 4.181980000000000075e+01 1.210424999999999898e+02 1.453050000000000182e+03
7.399999999999999634e-02 5.094239999999999879e-01 4.261345000000000027e+01 1.237135000000000105e+02 1.454014999999999873e+03
7.499999999999999722e-02 5.100379999999999914e-01 4.337349999999999994e+01 1.264054999999999893e+02 1.454980000000000018e+03
7.599999999999999811e-02 5.106574999999999864e-01 4.410155000000000314e+01 1.291179999999999950e+02 1.455954999999999927e+03
7.699999999999999900e-02 5.112790000000000390e-01 4.479685000000000628e+01 1.318439999999999941e+02 1.456929999999999836e+03
7.799999999999999989e-02 5.119015000000000093e-01 4.545595000000000141e+01 1.345724999999999909e+02 1.457904999999999973e+03
7.900000000000000078e-02 5.125195000000000167e-01 4.607314999999999827e+01 1.372869999999999777e+02 1.458875000000000000e+03
8.000000000000000167e-02 5.131284999999999874e-01 4.664104999999999990e+01 1.399660000000000082e+02 1.459845000000000027e+03
8.100000000000000255e-02 5.137234999999999996e-01 4.715085000000000548e+01 1.425874999999999773e+02 1.460789999999999964e+03
8.200000000000000344e-02 5.142984999999999918e-01 4.759284999999999854e+01 1.451245000000000118e+02 1.461710000000000036e+03
8.300000000000000433e-02 5.148475000000000135e-01 4.795744999999999436e+01 1.475520000000000209e+02 1.462595000000000027e+03
8.400000000000000522e-02 5.153659999999999908e-01 4.823545000000000016e+01 1.498439999999999941e+02 1.463449999999999818e+03
8.500000000000000611e-02 5.158484999999999321e-01 4.841875000000000284e+01 1.519784999999999968e+02 1.464244999999999891e+03
8.600000000000000699e-02 5.162910000000000554e-01 4.850065000000000026e+01 1.539359999999999786e+02 1.464984999999999900e+03
8.700000000000000788e-02 5.166904999999999415e-01 4.847660000000000480e+01 1.556999999999999886e+02 1.465664999999999964e+03
8.800000000000000877e-02 5.170455000000000467e-01 4.834390000000000498e+01 1.572595000000000027e+02 1.466279999999999973e+03
8.899999999999999578e-02 5.173539999999999806e-01 4.810245000000000459e+01 1.586090000000000089e+02 1.466825000000000045e+03
8.999999999999999667e-02 5.176169999999999938e-01 4.775410000000000110e+01 1.597465000000000259e+02 1.467300000000000182e+03
9.099999999999999756e-02 5.178350000000000453e-01 4.730330000000000013e+01 1.606759999999999877e+02 1.467700000000000045e+03
9.199999999999999845e-02 5.180100000000000815e-01 4.675639999999999930e+01 1.614060000000000059e+02 1.468034999999999854e+03
9.299999999999999933e-02 5.181449999999999667e-01 4.612175000000000580e+01 1.619485000000000241e+02 1.468299999999999955e+03
9.400000000000000022e-02 5.182430000000000092e-01 4.540914999999999679e+01 1.623199999999999932e+02 1.468505000000000109e+03
9.500000000000000111e-02 5.183090000000000197e-01 4.462980000000000302e+01 1.625380000000000109e+02 1.468650000000000091e+03
9.600000000000000200e-02 5.183470000000000022e-01 4.379579999999999984e+01 1.626245000000000118e+02 1.468750000000000000e+03
9.700000000000000289e-02 5.183615000000000306e-01 4.291970000000000596e+01 1.626014999999999873e+02 1.468800000000000182e+03
9.800000000000000377e-02 5.183569999999999567e-01 4.201435000000000031e+01 1.624904999999999973e+02 1.468815000000000055e+03
9.900000000000000466e-02 5.183394999999999531e-01 4.109215000000000373e+01 1.623135000000000048e+02 1.468799999999999955e+03
1.000000000000000056e-01 5.183115000000000361e-01 4.016500000000000625e+01 1.620919999999999845e+02 1.468764999999999873e+03
1.010000000000000064e-01 5.182780000000000165e-01 3.924380000000000024e+01 1.618444999999999823e+02 1.468710000000000036e+03
1.020000000000000073e-01 5.182424999999999393e-01 3.833794999999999931e+01 1.615889999999999986e+02 1.468644999999999982e+03
1.030000000000000082e-01 5.182075000000000431e-01 3.745565000000000566e+01 1.613385000000000105e+02 1.468575000000000045e+03
1.040000000000000091e-01 5.181759999999999700e-01 3.660280000000000200e+01 1.611055000000000064e+02 1.468509999999999991e+03
1.050000000000000100e-01 5.181474999999999831e-01 3.578390000000000271e+01 1.608965000000000032e+02 1.468445000000000164e+03
1.059999999999999970e-01 5.181249999999999467e-01 3.500114999999999554e+01 1.607164999999999964e+02 1.468384999999999991e+03
1.069999999999999979e-01 5.181069999999999842e-01 3.425495000000000090e+01 1.605665000000000191e+02 1.468335000000000036e+03
1.079999999999999988e-01 5.180934999999999846e-01 3.354390000000000072e+01 1.604440000000000168e+02 1.468285000000000082e+03
1.089999999999999997e-01 5.180835000000000301e-01 3.286499999999999488e+01 1.603435000000000059e+02 1.468244999999999891e+03
1.100000000000000006e-01 5.180744999999999933e-01 3.221374999999999744e+01 1.602590000000000146e+02 1.468204999999999927e+03
1.110000000000000014e-01 5.180645000000000389e-01 3.158474999999999966e+01 1.601800000000000068e+02 1.468175000000000182e+03
1.120000000000000023e-01 5.180514999999999981e-01 3.097179999999999822e+01 1.600969999999999800e+02 1.468139999999999873e+03
1.130000000000000032e-01 5.180339999999999945e-01 3.036804999999999666e+01 1.599975000000000023e+02 1.468099999999999909e+03
1.140000000000000041e-01 5.180080000000000240e-01 2.976689999999999969e+01 1.598710000000000093e+02 1.468050000000000182e+03
1.150000000000000050e-01 5.179724999999999469e-01 2.916169999999999973e+01 1.597055000000000007e+02 1.467990000000000009e+03
1.160000000000000059e-01 5.179245000000000099e-01 2.854634999999999678e+01 1.594925000000000068e+02 1.467920000000000073e+03
1.170000000000000068e-01 5.178635000000000321e-01 2.791570000000000107e+01 1.592224999999999966e+02 1.467829999999999927e+03
1.180000000000000077e-01 5.177874999999999561e-01 2.726529999999999987e+01 1.588890000000000100e+02 1.467720000000000027e+03
1.190000000000000085e-01 5.176960000000000450e-01 2.659210000000000207e+01 1.584875000000000114e+02 1.467589999999999918e+03
1.200000000000000094e-01 5.175885000000000069e-01 2.589424999999999955e+01 1.580165000000000077e+02 1.467440000000000055e+03
1.209999999999999964e-01 5.174655000000000227e-01 2.517130000000000223e+01 1.574745000000000061e+02 1.467265000000000100e+03
1.219999999999999973e-01 5.173285000000000800e-01 2.442410000000000281e+01 1.568650000000000091e+02 1.467065000000000055e+03
1.229999999999999982e-01 5.171775000000000677e-01 2.365509999999999735e+01 1.561940000000000168e+02 1.466849999999999909e+03
1.239999999999999991e-01 5.170150000000000023e-01 2.286775000000000091e+01 1.554675000000000011e+02 1.466610000000000127e+03
1.250000000000000000e-01 5.168435000000000112e-01 2.206680000000000064e+01 1.546949999999999932e+02 1.466355000000000018e+03
1.260000000000000009e-01 5.166649999999999299e-01 2.125809999999999889e+01 1.538865000000000123e+02 1.466085000000000036e+03
1.270000000000000018e-01 5.164819999999999967e-01 2.044810000000000016e+01 1.530559999999999832e+02 1.465809999999999945e+03
1.280000000000000027e-01 5.162974999999999648e-01 1.964399999999999835e+01 1.522139999999999986e+02 1.465525000000000091e+03
1.290000000000000036e-01 5.161149999999999904e-01 1.885310000000000130e+01 1.513754999999999882e+02 1.465240000000000009e+03
1.300000000000000044e-01 5.159365000000000201e-01 1.808305000000000007e+01 1.505529999999999973e+02 1.464954999999999927e+03
1.310000000000000053e-01 5.157654999999999879e-01 1.734100000000000108e+01 1.497599999999999909e+02 1.464679999999999836e+03
1.320000000000000062e-01 5.156039999999999512e-01 1.663385000000000247e+01 1.490065000000000168e+02 1.464409999999999854e+03
1.330000000000000071e-01 5.154545000000000377e-01 1.596764999999999901e+01 1.483050000000000068e+02 1.464160000000000082e+03
1.340000000000000080e-01 5.153185000000000127e-01 1.534764999999999802e+01 1.476630000000000109e+02 1.463924999999999955e+03
1.350000000000000089e-01 5.151970000000000161e-01 1.477800000000000047e+01 1.470869999999999891e+02 1.463704999999999927e+03
1.360000000000000098e-01 5.150919999999999943e-01 1.426160000000000139e+01 1.465829999999999984e+02 1.463514999999999873e+03
1.370000000000000107e-01 5.150029999999999886e-01 1.380014999999999858e+01 1.461535000000000082e+02 1.463345000000000027e+03
1.380000000000000115e-01 5.149295000000000400e-01 1.339395000000000024e+01 1.457969999999999970e+02 1.463200000000000045e+03
1.390000000000000124e-01 5.148714999999999264e-01 1.304214999999999947e+01 1.455130000000000052e+02 1.463075000000000045e+03
1.400000000000000133e-01 5.148274999999999935e-01 1.274264999999999937e+01 1.452964999999999804e+02 1.462974999999999909e+03
1.410000000000000142e-01 5.147964999999999902e-01 1.249235000000000007e+01 1.451425000000000125e+02 1.462894999999999982e+03
1.420000000000000151e-01 5.147770000000000401e-01 1.228709999999999880e+01 1.450434999999999945e+02 1.462835000000000036e+03
1.430000000000000160e-01 5.147665000000000157e-01 1.212225000000000108e+01 1.449904999999999973e+02 1.462795000000000073e+03
1.440000000000000169e-01 5.147635000000000405e-01 1.199255000000000138e+01 1.449750000000000227e+02 1.462764999999999873e+03
1.450000000000000178e-01 5.147659999999999458e-01 1.189245000000000019e+01 1.449875000000000114e+02 1.462750000000000000e+03
1.459999999999999909e-01 5.147709999999999786e-01 1.181630000000000003e+01 1.450190000000000055e+02 1.462740000000000009e+03
1.469999999999999918e-01 5.147774999999999990e-01 1.175859999999999950e+01 1.450600000000000023e+02 1.462740000000000009e+03
1.479999999999999927e-01 5.147840000000000193e-01 1.171410999999999980e+01 1.451020000000000039e+02 1.462735000000000127e+03
1.489999999999999936e-01 5.147889999999999411e-01 1.167806000000000033e+01 1.451380000000000052e+02 1.462740000000000009e+03
1.499999999999999944e-01 5.147905000000000397e-01 1.164608499999999935e+01 1.451624999999999943e+02 1.462740000000000009e+03
1.509999999999999953e-01 5.147880000000000233e-01 1.161469500000000110e+01 1.451700000000000159e+02 1.462735000000000127e+03
1.519999999999999962e-01 5.147815000000000030e-01 1.158075999999999972e+01 1.451574999999999989e+02 1.462724999999999909e+03
1.529999999999999971e-01 5.147694999999999910e-01 1.154204499999999989e+01 1.451220000000000141e+02 1.462715000000000146e+03
1.539999999999999980e-01 5.147530000000000161e-01 1.149697000000000102e+01 1.450640000000000214e+02 1.462690000000000055e+03
1.549999999999999989e-01 5.147319999999999673e-01 1.144453000000000031e+01 1.449825000000000159e+02 1.462664999999999964e+03
1.559999999999999998e-01 5.147059999999999969e-01 1.138433999999999990e+01 1.448799999999999955e+02 1.462630000000000109e+03
1.570000000000000007e-01 5.146764999999999812e-01 1.131653000000000020e+01 1.447574999999999932e+02 1.462590000000000146e+03
1.580000000000000016e-01 5.146435000000000315e-01 1.124169499999999999e+01 1.446184999999999832e+02 1.462545000000000073e+03
1.590000000000000024e-01 5.146079999999999544e-01 1.116067500000000123e+01 1.444660000000000082e+02 1.462494999999999891e+03
