# t [s], A [cm^2], U [cm/s], P [cPa], c [cm/s]
1.000000000000000021e-03 1.983924999999999994e-01 2.831994999999999929e-01 9.341694999999999993e+01 2.032634999999999991e+03
2.000000000000000042e-03 1.983374999999999999e-01 1.785528500000000074e+00 9.026245000000000118e+01 2.032199999999999818e+03
3.000000000000000062e-03 1.981870000000000021e-01 3.657544499999999754e+00 8.581595000000000084e+01 2.031075000000000045e+03
4.000000000000000083e-03 1.979814999999999769e-01 5.771767000000000536e+00 8.092719999999999914e+01 2.029559999999999945e+03
5.000000000000000104e-03 1.977614999999999790e-01 8.055999999999999162e+00 7.652724999999999511e+01 2.027950000000000045e+03
6.000000000000000125e-03 1.975514999999999910e-01 1.032513999999999932e+01 7.293940000000000623e+01 2.026429999999999836e+03
7.000000000000000146e-03 1.973564999999999903e-01 1.234173499999999990e+01 6.990250000000000341e+01 2.025050000000000182e+03
8.000000000000000167e-03 1.971780000000000199e-01 1.401247000000000043e+01 6.716060000000000230e+01 2.023809999999999945e+03
9.000000000000001055e-03 1.970224999999999893e-01 1.538435000000000130e+01 6.477955000000000041e+01 2.022750000000000000e+03
1.000000000000000194e-02 1.968924999999999981e-01 1.649960000000000093e+01 6.285084999999999411e+01 2.021869999999999891e+03
1.099999999999999936e-02 1.967875000000000041e-01 1.737930000000000064e+01 6.135479999999999734e+01 2.021164999999999964e+03
1.200000000000000025e-02 1.967059999999999920e-01 1.804850000000000065e+01 6.024389999999999645e+01 2.020625000000000000e+03
1.300000000000000114e-02 1.966439999999999855e-01 1.851804999999999879e+01 5.943265000000000242e+01 2.020230000000000018e+03
1.400000000000000203e-02 1.965959999999999930e-01 1.879029999999999845e+01 5.878419999999999845e+01 2.019925000000000182e+03
1.499999999999999944e-02 1.965574999999999961e-01 1.891740000000000066e+01 5.824849999999999994e+01 2.019690000000000055e+03
1.600000000000000033e-02 1.965334999999999999e-01 1.903480000000000061e+01 5.801500000000000057e+01 2.019549999999999955e+03
1.700000000000000122e-02 1.965345000000000009e-01 1.931405000000000172e+01 5.846490000000000009e+01 2.019575000000000045e+03
1.800000000000000211e-02 1.965724999999999834e-01 1.986730000000000018e+01 5.992499999999999716e+01 2.019835000000000036e+03
1.900000000000000300e-02 1.966499999999999915e-01 2.067630000000000123e+01 6.241270000000000095e+01 2.020360000000000127e+03
2.000000000000000042e-02 1.967595000000000038e-01 2.159154999999999802e+01 6.554795000000000016e+01 2.021105000000000018e+03
2.100000000000000130e-02 1.968810000000000004e-01 2.239345000000000141e+01 6.867185000000000628e+01 2.021944999999999936e+03
2.200000000000000219e-02 1.969909999999999994e-01 2.287915000000000276e+01 7.109085000000000321e+01 2.022710000000000036e+03
2.299999999999999961e-02 1.970689999999999942e-01 2.293475000000000108e+01 7.232515000000000782e+01 2.023279999999999973e+03
2.400000000000000050e-02 1.971050000000000024e-01 2.256719999999999970e+01 7.225945000000000107e+01 2.023559999999999945e+03
2.500000000000000139e-02 1.970994999999999830e-01 2.188819999999999766e+01 7.114629999999999654e+01 2.023555000000000064e+03
2.600000000000000228e-02 1.970644999999999758e-01 2.106190000000000140e+01 6.947514999999999930e+01 2.023335000000000036e+03
2.700000000000000316e-02 1.970155000000000101e-01 2.024159999999999826e+01 6.777430000000001087e+01 2.023005000000000109e+03
2.800000000000000058e-02 1.969674999999999898e-01 1.952084999999999937e+01 6.642865000000000464e+01 2.022674999999999955e+03
2.900000000000000147e-02 1.969290000000000207e-01 1.891490000000000293e+01 6.557835000000000036e+01 2.022409999999999854e+03
3.000000000000000236e-02 1.969024999999999803e-01 1.837170000000000059e+01 6.511939999999999884e+01 2.022220000000000027e+03
3.099999999999999978e-02 1.968814999999999871e-01 1.780530000000000257e+01 6.478679999999999950e+01 2.022069999999999936e+03
3.200000000000000067e-02 1.968590000000000062e-01 1.713599999999999923e+01 6.428125000000000000e+01 2.021914999999999964e+03
3.300000000000000155e-02 1.968260000000000010e-01 1.632525000000000048e+01 6.339294999999999902e+01 2.021694999999999936e+03
3.400000000000000244e-02 1.967790000000000095e-01 1.539570000000000149e+01 6.208729999999999905e+01 2.021384999999999991e+03
3.500000000000000333e-02 1.967209999999999792e-01 1.442999999999999972e+01 6.052814999999999657e+01 2.020994999999999891e+03
3.600000000000000422e-02 1.966610000000000025e-01 1.354979999999999940e+01 5.903340000000000032e+01 2.020574999999999818e+03
3.700000000000000511e-02 1.966100000000000070e-01 1.288165000000000049e+01 5.797955000000000325e+01 2.020220000000000027e+03
3.799999999999999906e-02 1.965804999999999914e-01 1.252139999999999986e+01 5.768750000000000000e+01 2.020000000000000000e+03
3.899999999999999994e-02 1.965815000000000201e-01 1.250760000000000005e+01 5.832710000000000150e+01 2.019994999999999891e+03
4.000000000000000083e-02 1.966175000000000006e-01 1.281149999999999878e+01 5.986749999999999972e+01 2.020215000000000146e+03
4.100000000000000172e-02 1.966825000000000101e-01 1.334435000000000038e+01 6.208270000000000266e+01 2.020639999999999873e+03
4.200000000000000261e-02 1.967685000000000128e-01 1.397654999999999959e+01 6.460384999999999422e+01 2.021214999999999918e+03
4.300000000000000350e-02 1.968604999999999938e-01 1.456409999999999982e+01 6.699899999999999523e+01 2.021845000000000027e+03
4.400000000000000439e-02 1.969440000000000079e-01 1.497344999999999970e+01 6.885710000000000264e+01 2.022414999999999964e+03
4.499999999999999833e-02 1.970044999999999991e-01 1.510135000000000005e+01 6.985745000000000005e+01 2.022844999999999800e+03
4.599999999999999922e-02 1.970319999999999849e-01 1.488609999999999900e+01 6.981250000000000000e+01 2.023045000000000073e+03
4.700000000000000011e-02 1.970200000000000007e-01 1.430920000000000059e+01 6.867919999999999447e+01 2.022980000000000018e+03
4.800000000000000100e-02 1.969670000000000032e-01 1.339055000000000106e+01 6.654255000000000564e+01 2.022639999999999873e+03
4.900000000000000189e-02 1.968774999999999831e-01 1.217759000000000036e+01 6.358044999999999902e+01 2.022045000000000073e+03
5.000000000000000278e-02 1.967570000000000152e-01 1.073406999999999911e+01 6.001995000000000147e+01 2.021224999999999909e+03
5.100000000000000366e-02 1.966129999999999822e-01 9.129134999999999778e+00 5.609735000000000582e+01 2.020244999999999891e+03
5.200000000000000455e-02 1.964540000000000175e-01 7.430430000000000312e+00 5.202875000000000227e+01 2.019160000000000082e+03
5.300000000000000544e-02 1.962875000000000036e-01 5.700050000000000061e+00 4.799504999999999910e+01 2.018019999999999982e+03
5.399999999999999939e-02 1.961215000000000042e-01 3.994511999999999841e+00 4.414005000000000223e+01 2.016880000000000109e+03
5.500000000000000028e-02 1.959609999999999963e-01 2.365924999999999834e+00 4.057760000000000389e+01 2.015769999999999982e+03
5.600000000000000117e-02 1.958104999999999984e-01 8.641000000000000902e-01 3.740290000000000248e+01 2.014735000000000127e+03
5.700000000000000205e-02 1.956760000000000166e-01 -4.620199999999998752e-01 3.470284999999999798e+01 2.013799999999999955e+03
5.800000000000000294e-02 1.955604999999999982e-01 -1.564243499999999898e+00 3.256269999999999953e+01 2.012994999999999891e+03
5.900000000000000383e-02 1.954684999999999895e-01 -2.396538499999999683e+00 3.106684999999999874e+01 2.012349999999999909e+03
6.000000000000000472e-02 1.954039999999999944e-01 -2.917680000000000273e+00 3.029449999999999932e+01 2.011884999999999991e+03
6.099999999999999867e-02 1.953705000000000025e-01 -3.094570000000000043e+00 3.031145000000000067e+01 2.011630000000000109e+03
6.199999999999999956e-02 1.953699999999999881e-01 -2.905484999999999651e+00 3.116150000000000020e+01 2.011599999999999909e+03
6.300000000000000044e-02 1.954044999999999810e-01 -2.342519999999999936e+00 3.285800000000000409e+01 2.011809999999999945e+03
6.400000000000000133e-02 1.954744999999999955e-01 -1.412781499999999912e+00 3.537924999999999898e+01 2.012264999999999873e+03
6.500000000000000222e-02 1.955790000000000028e-01 -1.381399999999999295e-01 3.866779999999999973e+01 2.012954999999999927e+03
6.600000000000000311e-02 1.957154999999999867e-01 1.446355000000000057e+00 4.263424999999999443e+01 2.013865000000000009e+03
6.700000000000000400e-02 1.958799999999999986e-01 3.294999000000000233e+00 4.716389999999999816e+01 2.014980000000000018e+03
6.800000000000000488e-02 1.960685000000000067e-01 5.354514500000000510e+00 5.212514999999999787e+01 2.016255000000000109e+03
6.900000000000000577e-02 1.962754999999999916e-01 7.567210000000000214e+00 5.737865000000000038e+01 2.017670000000000073e+03
7.000000000000000666e-02 1.964954999999999896e-01 9.873934999999999462e+00 6.278584999999999638e+01 2.019175000000000182e+03
7.100000000000000755e-02 1.967229999999999812e-01 1.221696499999999830e+01 6.821610000000001151e+01 2.020740000000000009e+03
7.200000000000000844e-02 1.969529999999999892e-01 1.454222999999999999e+01 7.355230000000000246e+01 2.022329999999999927e+03
7.300000000000000933e-02 1.971804999999999808e-01 1.680154999999999887e+01 7.869575000000000387e+01 2.023904999999999973e+03
7.399999999999999634e-02 1.974015000000000075e-01 1.895449999999999946e+01 8.356969999999999743e+01 2.025444999999999936e+03
7.499999999999999722e-02 1.976124999999999965e-01 2.097015000000000029e+01 8.812209999999998900e+01 2.026925000000000182e+03
7.599999999999999811e-02 1.978119999999999878e-01 2.282760000000000034e+01 9.232699999999999818e+01 2.028325000000000045e+03
7.699999999999999900e-02 1.979980000000000073e-01 2.451715000000000089e+01 9.618465000000000487e+01 2.029639999999999873e+03
7.799999999999999989e-02 1.981715000000000004e-01 2.603930000000000078e+01 9.971944999999999482e+01 2.030865000000000009e+03
7.900000000000000078e-02 1.983324999999999949e-01 2.740420000000000300e+01 1.029766999999999939e+02 2.032000000000000000e+03
8.000000000000000167e-02 1.984834999999999794e-01 2.862969999999999970e+01 1.060180000000000007e+02 2.033074999999999818e+03
8.100000000000000255e-02 1.986260000000000248e-01 2.973920000000000030e+01 1.089145000000000039e+02 2.034090000000000146e+03
8.200000000000000344e-02 1.987625000000000086e-01 3.075894999999999868e+01 1.117390000000000043e+02 2.035059999999999945e+03
8.300000000000000433e-02 1.988965000000000038e-01 3.171560000000000201e+01 1.145594999999999999e+02 2.036014999999999873e+03
8.400000000000000522e-02 1.990304999999999991e-01 3.263389999999999702e+01 1.174354999999999905e+02 2.036964999999999918e+03
8.500000000000000611e-02 1.991664999999999963e-01 3.353430000000000177e+01 1.204089999999999918e+02 2.037925000000000182e+03
8.600000000000000699e-02 1.993054999999999966e-01 3.443189999999999884e+01 1.235070000000000050e+02 2.038909999999999854e+03
8.700000000000000788e-02 1.994489999999999874e-01 3.533530000000000371e+01 1.267349999999999994e+02 2.039929999999999836e+03
8.800000000000000877e-02 1.995970000000000244e-01 3.624644999999999584e+01 1.300800000000000125e+02 2.040974999999999909e+03
8.899999999999999578e-02 1.997490000000000099e-01 3.716055000000000064e+01 1.335124999999999886e+02 2.042049999999999955e+03
8.999999999999999667e-02 1.999039999999999984e-01 3.806730000000000302e+01 1.369884999999999877e+02 2.043144999999999982e+03
9.099999999999999756e-02 2.000595000000000012e-01 3.895134999999999792e+01 1.404535000000000196e+02 2.044244999999999891e+03
9.199999999999999845e-02 2.002140000000000031e-01 3.979395000000000238e+01 1.438475000000000250e+02 2.045340000000000146e+03
9.299999999999999933e-02 2.003645000000000009e-01 4.057439999999999714e+01 1.471069999999999993e+02 2.046414999999999964e+03
9.400000000000000022e-02 2.005089999999999928e-01 4.127105000000000246e+01 1.501705000000000041e+02 2.047440000000000055e+03
9.500000000000000111e-02 2.006455000000000044e-01 4.186305000000000121e+01 1.529819999999999993e+02 2.048414999999999964e+03
9.600000000000000200e-02 2.007709999999999773e-01 4.233140000000000214e+01 1.554909999999999854e+02 2.049305000000000291e+03
9.700000000000000289e-02 2.008829999999999782e-01 4.265999999999999659e+01 1.576589999999999918e+02 2.050114999999999782e+03
9.800000000000000377e-02 2.009809999999999930e-01 4.283660000000000423e+01 1.594574999999999818e+02 2.050824999999999818e+03
9.900000000000000466e-02 2.010635000000000061e-01 4.285330000000000439e+01 1.608700000000000045e+02 2.051420000000000073e+03
1.000000000000000056e-01 2.011295000000000166e-01 4.270705000000000240e+01 1.618924999999999841e+02 2.051904999999999745e+03
1.010000000000000064e-01 2.011795000000000111e-01 4.239995000000000402e+01 1.625339999999999918e+02 2.052269999999999982e+03
1.020000000000000073e-01 2.012134999999999896e-01 4.193885000000000218e+01 1.628154999999999859e+02 2.052525000000000091e+03
1.030000000000000082e-01 2.012320000000000220e-01 4.133509999999999707e+01 1.627649999999999864e+02 2.052670000000000073e+03
1.040000000000000091e-01 2.012365000000000126e-01 4.060414999999999708e+01 1.624230000000000018e+02 2.052715000000000146e+03
1.050000000000000100e-01 2.012285000000000046e-01 3.976454999999999984e+01 1.618340000000000032e+02 2.052670000000000073e+03
1.059999999999999970e-01 2.012094999999999856e-01 3.883735000000000070e+01 1.610475000000000136e+02 2.052550000000000182e+03
1.069999999999999979e-01 2.011819999999999997e-01 3.784474999999999767e+01 1.601140000000000043e+02 2.052364999999999782e+03
1.079999999999999988e-01 2.011475000000000068e-01 3.680969999999999942e+01 1.590835000000000150e+02 2.052125000000000000e+03
1.089999999999999997e-01 2.011089999999999822e-01 3.575440000000000396e+01 1.580060000000000002e+02 2.051860000000000127e+03
1.100000000000000006e-01 2.010675000000000101e-01 3.469989999999999952e+01 1.569234999999999900e+02 2.051570000000000164e+03
1.110000000000000014e-01 2.010250000000000092e-01 3.366509999999999536e+01 1.558760000000000048e+02 2.051269999999999982e+03
1.120000000000000023e-01 2.009835000000000094e-01 3.266624999999999801e+01 1.548940000000000055e+02 2.050970000000000255e+03
1.130000000000000032e-01 2.009434999999999971e-01 3.171625000000000227e+01 1.540014999999999930e+02 2.050690000000000055e+03
1.140000000000000041e-01 2.009074999999999889e-01 3.082475000000000165e+01 1.532135000000000105e+02 2.050429999999999836e+03
1.150000000000000050e-01 2.008745000000000114e-01 2.999735000000000085e+01 1.525369999999999777e+02 2.050190000000000055e+03
1.160000000000000059e-01 2.008455000000000101e-01 2.923590000000000089e+01 1.519714999999999918e+02 2.049984999999999673e+03
1.170000000000000068e-01 2.008205000000000129e-01 2.853860000000000241e+01 1.515065000000000168e+02 2.049795000000000073e+03
1.180000000000000077e-01 2.007994999999999919e-01 2.789999999999999858e+01 1.511250000000000000e+02 2.049640000000000327e+03
1.190000000000000085e-01 2.007815000000000016e-01 2.731184999999999974e+01 1.508034999999999854e+02 2.049509999999999764e+03
1.200000000000000094e-01 2.007649999999999990e-01 2.676310000000000144e+01 1.505155000000000030e+02 2.049389999999999873e+03
1.209999999999999964e-01 2.007504999999999984e-01 2.624119999999999919e+01 1.502290000000000134e+02 2.049275000000000091e+03
1.219999999999999973e-01 2.007355000000000111e-01 2.573219999999999885e+01 1.499110000000000014e+02 2.049164999999999964e+03
1.229999999999999982e-01 2.007184999999999941e-01 2.522200000000000131e+01 1.495294999999999845e+02 2.049045000000000073e+03
1.239999999999999991e-01 2.006990000000000163e-01 2.469699999999999918e+01 1.490534999999999854e+02 2.048904999999999745e+03
1.250000000000000000e-01 2.006755000000000067e-01 2.414475000000000193e+01 1.484569999999999936e+02 2.048739999999999782e+03
1.260000000000000009e-01 2.006470000000000198e-01 2.355499999999999972e+01 1.477194999999999823e+02 2.048534999999999854e+03
1.270000000000000018e-01 2.006129999999999858e-01 2.291984999999999673e+01 1.468259999999999934e+02 2.048289999999999964e+03
1.280000000000000027e-01 2.005720000000000003e-01 2.223465000000000202e+01 1.457710000000000150e+02 2.048009999999999764e+03
1.290000000000000036e-01 2.005250000000000088e-01 2.149790000000000134e+01 1.445559999999999832e+02 2.047675000000000182e+03
1.300000000000000044e-01 2.004714999999999969e-01 2.071164999999999878e+01 1.431910000000000025e+02 2.047299999999999955e+03
1.310000000000000053e-01 2.004115000000000202e-01 1.988130000000000308e+01 1.416940000000000168e+02 2.046880000000000109e+03
1.320000000000000062e-01 2.003464999999999829e-01 1.901539999999999964e+01 1.400905000000000200e+02 2.046420000000000073e+03
1.330000000000000071e-01 2.002774999999999972e-01 1.812509999999999977e+01 1.384105000000000132e+02 2.045934999999999945e+03
1.340000000000000080e-01 2.002049999999999941e-01 1.722359999999999758e+01 1.366885000000000048e+02 2.045425000000000182e+03
1.350000000000000089e-01 2.001304999999999890e-01 1.632564999999999955e+01 1.349635000000000105e+02 2.044900000000000091e+03
1.360000000000000098e-01 2.000560000000000116e-01 1.544660000000000011e+01 1.332724999999999795e+02 2.044375000000000000e+03
1.370000000000000107e-01 1.999835000000000085e-01 1.460170000000000101e+01 1.316519999999999868e+02 2.043860000000000127e+03
1.380000000000000115e-01 1.999130000000000074e-01 1.380535000000000068e+01 1.301364999999999839e+02 2.043360000000000127e+03
1.390000000000000124e-01 1.998475000000000112e-01 1.307055000000000078e+01 1.287545000000000073e+02 2.042894999999999982e+03
1.400000000000000133e-01 1.997875000000000068e-01 1.240814999999999912e+01 1.275300000000000011e+02 2.042465000000000146e+03
1.410000000000000142e-01 1.997329999999999939e-01 1.182656499999999866e+01 1.264809999999999945e+02 2.042079999999999927e+03
1.420000000000000151e-01 1.996864999999999890e-01 1.133140999999999998e+01 1.256165000000000020e+02 2.041744999999999891e+03
1.430000000000000160e-01 1.996470000000000189e-01 1.092552500000000038e+01 1.249405000000000001e+02 2.041454999999999927e+03
1.440000000000000169e-01 1.996155000000000013e-01 1.060862499999999997e+01 1.244489999999999981e+02 2.041230000000000018e+03
1.450000000000000178e-01 1.995914999999999773e-01 1.037790999999999997e+01 1.241324999999999932e+02 2.041050000000000182e+03
1.459999999999999909e-01 1.995750000000000024e-01 1.022805499999999945e+01 1.239765000000000015e+02 2.040924999999999955e+03
1.469999999999999918e-01 1.995649999999999924e-01 1.015156499999999973e+01 1.239609999999999985e+02 2.040845000000000027e+03
1.479999999999999927e-01 1.995615000000000028e-01 1.013937999999999917e+01 1.240639999999999930e+02 2.040815000000000055e+03
1.489999999999999936e-01 1.995624999999999760e-01 1.018112999999999957e+01 1.242614999999999981e+02 2.040815000000000055e+03
1.499999999999999944e-01 1.995675000000000088e-01 1.026572499999999977e+01 1.245285000000000082e+02 2.040845000000000027e+03
1.509999999999999953e-01 1.995755000000000168e-01 1.038179999999999836e+01 1.248400000000000034e+02 2.040900000000000091e+03
1.519999999999999962e-01 1.995865000000000000e-01 1.051820000000000022e+01 1.251719999999999970e+02 2.040965000000000146e+03
1.529999999999999971e-01 1.995979999999999976e-01 1.066404999999999959e+01 1.255035000000000025e+02 2.041045000000000073e+03
1.539999999999999980e-01 1.996094999999999953e-01 1.080969999999999942e+01 1.258145000000000095e+02 2.041125000000000000e+03
1.549999999999999989e-01 1.996215000000000073e-01 1.094630000000000081e+01 1.260889999999999986e+02 2.041204999999999927e+03
1.559999999999999998e-01 1.996314999999999895e-01 1.106639999999999979e+01 1.263139999999999930e+02 2.041279999999999745e+03
1.570000000000000007e-01 1.996394999999999975e-01 1.116410000000000124e+01 1.264789999999999992e+02 2.041335000000000036e+03
1.580000000000000016e-01 1.996459999999999901e-01 1.123499999999999943e+01 1.265790000000000077e+02 2.041380000000000109e+03
1.590000000000000024e-01 1.996495000000000075e-01 1.127619999999999933e+01 1.266105000000000018e+02 2.041409999999999854e+03
