# t [s], A [cm^2], U [cm/s], P [cPa], c [cm/s]
1.000000000000000021e-03 7.469040000000000123e-01 5.620500000000000496e-03 9.756565000000000509e+01 1.614539999999999964e+03
2.000000000000000042e-03 7.468900000000000539e-01 -3.139524999999999781e-03 9.753385000000000105e+01 1.614534999999999854e+03
3.000000000000000062e-03 7.469594999999999985e-01 1.035819999999999796e-01 9.764580000000000837e+01 1.614565000000000055e+03
4.000000000000000083e-03 7.470164999999999722e-01 2.051974000000000020e-01 9.776534999999999798e+01 1.614595000000000027e+03
5.000000000000000104e-03 7.469719999999999693e-01 1.670587000000000044e-01 9.767754999999999654e+01 1.614575000000000045e+03
6.000000000000000125e-03 7.468790000000000706e-01 5.139150000000003438e-02 9.741265000000001351e+01 1.614514999999999873e+03
7.000000000000000146e-03 7.467989999999999906e-01 -5.570249999999998813e-02 9.708889999999999532e+01 1.614434999999999945e+03
8.000000000000000167e-03 7.466675000000000395e-01 -2.554100000000000259e-01 9.660339999999999350e+01 1.614325000000000045e+03
9.000000000000001055e-03 7.464534999999999920e-01 -5.986650000000001137e-01 9.586260000000000048e+01 1.614150000000000091e+03
1.000000000000000194e-02 7.461630000000000207e-01 -1.073430000000000106e+00 9.483854999999999791e+01 1.613909999999999854e+03
1.099999999999999936e-02 7.457679999999999865e-01 -1.703639999999999821e+00 9.346139999999999759e+01 1.613585000000000036e+03
1.200000000000000025e-02 7.452525000000000954e-01 -2.496715000000000018e+00 9.167109999999999559e+01 1.613159999999999854e+03
1.300000000000000114e-02 7.446615000000000872e-01 -3.355350000000000055e+00 8.954404999999999859e+01 1.612634999999999991e+03
1.400000000000000203e-02 7.440940000000000332e-01 -4.093775499999999568e+00 8.730889999999999418e+01 1.612065000000000055e+03
1.499999999999999944e-02 7.436369999999999925e-01 -4.536884500000000209e+00 8.523460000000000036e+01 1.611509999999999991e+03
1.600000000000000033e-02 7.433214999999999684e-01 -4.601690000000000502e+00 8.350244999999999607e+01 1.611014999999999873e+03
1.700000000000000122e-02 7.431200000000000028e-01 -4.315249999999999808e+00 8.214635000000001241e+01 1.610595000000000027e+03
1.800000000000000211e-02 7.429639999999999578e-01 -3.783954999999999735e+00 8.106544999999999845e+01 1.610235000000000127e+03
1.900000000000000300e-02 7.427809999999999135e-01 -3.142490000000000006e+00 8.008214999999999861e+01 1.609904999999999973e+03
2.000000000000000042e-02 7.425170000000000936e-01 -2.503153600000000090e+00 7.901685000000000514e+01 1.609555000000000064e+03
2.100000000000000130e-02 7.421564999999999968e-01 -1.920854999999999979e+00 7.775374999999999659e+01 1.609164999999999964e+03
2.200000000000000219e-02 7.417199999999999349e-01 -1.385525000000000118e+00 7.627384999999999593e+01 1.608724999999999909e+03
2.299999999999999961e-02 7.412509999999999932e-01 -8.435049999999999493e-01 7.464345000000000141e+01 1.608255000000000109e+03
2.400000000000000050e-02 7.407924999999999649e-01 -2.351950000000000429e-01 7.296944999999999482e+01 1.607764999999999873e+03
2.500000000000000139e-02 7.403695000000000137e-01 4.700749999999995765e-01 7.134465000000000146e+01 1.607284999999999854e+03
2.600000000000000228e-02 7.399800000000000821e-01 1.254750000000000032e+00 6.980695000000000050e+01 1.606815000000000055e+03
2.700000000000000316e-02 7.395955000000000723e-01 2.052509999999999835e+00 6.832160000000000366e+01 1.606360000000000127e+03
2.800000000000000058e-02 7.391720000000000512e-01 2.762739999999999974e+00 6.678889999999999816e+01 1.605894999999999982e+03
2.900000000000000147e-02 7.386604999999999421e-01 3.274490000000000123e+00 6.507035000000000480e+01 1.605394999999999982e+03
3.000000000000000236e-02 7.380225000000000257e-01 3.494010000000000282e+00 6.302799999999999869e+01 1.604824999999999818e+03
3.099999999999999978e-02 7.372419999999999529e-01 3.369320000000000093e+00 6.056569999999999965e+01 1.604159999999999854e+03
3.200000000000000067e-02 7.363315000000000277e-01 2.904225000000000279e+00 5.766165000000000163e+01 1.603394999999999982e+03
3.300000000000000155e-02 7.353294999999999693e-01 2.158049999999999802e+00 5.438134999999999764e+01 1.602534999999999854e+03
3.400000000000000244e-02 7.342929999999999735e-01 1.230704999999999494e+00 5.086719999999999686e+01 1.601610000000000127e+03
3.500000000000000333e-02 7.332859999999999934e-01 2.401499999999998636e-01 4.731184999999999974e+01 1.600664999999999964e+03
3.600000000000000422e-02 7.323665000000000314e-01 -6.996899999999994790e-01 4.392310000000000514e+01 1.599744999999999891e+03
3.700000000000000511e-02 7.315810000000000368e-01 -1.495299999999999407e+00 4.089305000000000234e+01 1.598900000000000091e+03
3.799999999999999906e-02 7.309590000000000254e-01 -2.081815000000000193e+00 3.837519999999999953e+01 1.598175000000000182e+03
3.899999999999999994e-02 7.305144999999999555e-01 -2.423669999999999991e+00 3.647275000000000489e+01 1.597590000000000146e+03
4.000000000000000083e-02 7.302494999999999958e-01 -2.510116000000000014e+00 3.523725000000000307e+01 1.597174999999999955e+03
4.100000000000000172e-02 7.301564999999999861e-01 -2.347325000000000106e+00 3.467515000000000214e+01 1.596929999999999836e+03
4.200000000000000261e-02 7.302230000000000665e-01 -1.949755000000000127e+00 3.476035000000000252e+01 1.596860000000000127e+03
4.300000000000000350e-02 7.304355000000000153e-01 -1.332884999999999875e+00 3.544785000000000252e+01 1.596954999999999927e+03
4.400000000000000439e-02 7.307829999999999604e-01 -5.087549999999998462e-01 3.668594999999999828e+01 1.597200000000000045e+03
4.499999999999999833e-02 7.312549999999999883e-01 5.148399999999999643e-01 3.842445000000000022e+01 1.597595000000000027e+03
4.599999999999999922e-02 7.318424999999999514e-01 1.732019999999999449e+00 4.061655000000000371e+01 1.598115000000000009e+03
4.700000000000000011e-02 7.325364999999999238e-01 3.134829999999999561e+00 4.321779999999999688e+01 1.598759999999999991e+03
4.800000000000000100e-02 7.333260000000000334e-01 4.709100000000000286e+00 4.618139999999999645e+01 1.599500000000000000e+03
4.900000000000000189e-02 7.341945000000000832e-01 6.432030000000000136e+00 4.945445000000000846e+01 1.600345000000000027e+03
5.000000000000000278e-02 7.351259999999999462e-01 8.271445999999999188e+00 5.297550000000000381e+01 1.601259999999999991e+03
5.100000000000000366e-02 7.360970000000000013e-01 1.018760999999999939e+01 5.667470000000000141e+01 1.602235000000000127e+03
5.200000000000000455e-02 7.370879999999999654e-01 1.213623500000000099e+01 6.047655000000000314e+01 1.603255000000000109e+03
5.300000000000000544e-02 7.380765000000000242e-01 1.407261000000000095e+01 6.430485000000000184e+01 1.604289999999999964e+03
5.399999999999999939e-02 7.390440000000000342e-01 1.595528499999999994e+01 6.808780000000000143e+01 1.605329999999999927e+03
5.500000000000000028e-02 7.399765000000000370e-01 1.774940000000000140e+01 7.176344999999999175e+01 1.606349999999999909e+03
5.600000000000000117e-02 7.408630000000000493e-01 1.942864999999999753e+01 7.528379999999999939e+01 1.607340000000000146e+03
5.700000000000000205e-02 7.416994999999999560e-01 2.097595000000000098e+01 7.861695000000000277e+01 1.608295000000000073e+03
5.800000000000000294e-02 7.424844999999999917e-01 2.238325000000000031e+01 8.174770000000000891e+01 1.609204999999999927e+03
5.900000000000000383e-02 7.432199999999999918e-01 2.365015000000000001e+01 8.467625000000001023e+01 1.610059999999999945e+03
6.000000000000000472e-02 7.439124999999999766e-01 2.478280000000000172e+01 8.741610000000000014e+01 1.610875000000000000e+03
6.099999999999999867e-02 7.445690000000000364e-01 2.579185000000000016e+01 8.999109999999998877e+01 1.611644999999999982e+03
6.199999999999999956e-02 7.451989999999999448e-01 2.669129999999999825e+01 9.243205000000000382e+01 1.612375000000000000e+03
6.300000000000000044e-02 7.458110000000000017e-01 2.749730000000000274e+01 9.477400000000000091e+01 1.613075000000000045e+03
6.400000000000000133e-02 7.464139999999999109e-01 2.822694999999999865e+01 9.705434999999999945e+01 1.613760000000000218e+03
6.500000000000000222e-02 7.470170000000000421e-01 2.889750000000000085e+01 9.930760000000000787e+01 1.614429999999999836e+03
6.600000000000000311e-02 7.476275000000000004e-01 2.952499999999999858e+01 1.015673500000000047e+02 1.615105000000000018e+03
6.700000000000000400e-02 7.482520000000000282e-01 3.012375000000000114e+01 1.038589999999999947e+02 1.615775000000000091e+03
6.800000000000000488e-02 7.488939999999999486e-01 3.070459999999999923e+01 1.062030000000000030e+02 1.616460000000000036e+03
6.900000000000000577e-02 7.495540000000000536e-01 3.127465000000000117e+01 1.086080000000000041e+02 1.617159999999999854e+03
7.000000000000000666e-02 7.502309999999999812e-01 3.183610000000000184e+01 1.110740000000000123e+02 1.617869999999999891e+03
7.100000000000000755e-02 7.509205000000001018e-01 3.238639999999999475e+01 1.135900000000000034e+02 1.618595000000000027e+03
7.200000000000000844e-02 7.516149999999999221e-01 3.291859999999999786e+01 1.161340000000000003e+02 1.619329999999999927e+03
7.300000000000000933e-02 7.523055000000000714e-01 3.342170000000000130e+01 1.186769999999999925e+02 1.620059999999999945e+03
7.399999999999999634e-02 7.529824999999999990e-01 3.388214999999999577e+01 1.211825000000000045e+02 1.620789999999999964e+03
7.499999999999999722e-02 7.536339999999999151e-01 3.428499999999999659e+01 1.236105000000000018e+02 1.621494999999999891e+03
7.599999999999999811e-02 7.542505000000000459e-01 3.461490000000000578e+01 1.259205000000000041e+02 1.622179999999999836e+03
7.699999999999999900e-02 7.548209999999999642e-01 3.485770000000000124e+01 1.280734999999999957e+02 1.622815000000000055e+03
7.799999999999999989e-02 7.553380000000000649e-01 3.500119999999999720e+01 1.300349999999999966e+02 1.623404999999999973e+03
7.900000000000000078e-02 7.557945000000000357e-01 3.503584999999999638e+01 1.317764999999999986e+02 1.623945000000000164e+03
8.000000000000000167e-02 7.561860000000000248e-01 3.495544999999999902e+01 1.332760000000000105e+02 1.624409999999999854e+03
8.100000000000000255e-02 7.565100000000000158e-01 3.475740000000000407e+01 1.345225000000000080e+02 1.624809999999999945e+03
8.200000000000000344e-02 7.567669999999999675e-01 3.444259999999999877e+01 1.355105000000000075e+02 1.625144999999999982e+03
8.300000000000000433e-02 7.569580000000000197e-01 3.401545000000000130e+01 1.362450000000000045e+02 1.625410000000000082e+03
8.400000000000000522e-02 7.570879999999999832e-01 3.348380000000000223e+01 1.367369999999999948e+02 1.625599999999999909e+03
8.500000000000000611e-02 7.571615000000000428e-01 3.285810000000000031e+01 1.370054999999999836e+02 1.625724999999999909e+03
8.600000000000000699e-02 7.571855000000000668e-01 3.215155000000000030e+01 1.370755000000000052e+02 1.625795000000000073e+03
8.700000000000000788e-02 7.571684999999999111e-01 3.137910000000000110e+01 1.369750000000000227e+02 1.625809999999999945e+03
8.800000000000000877e-02 7.571174999999999988e-01 3.055689999999999884e+01 1.367359999999999900e+02 1.625789999999999964e+03
8.899999999999999578e-02 7.570414999999999228e-01 2.970195000000000007e+01 1.363909999999999911e+02 1.625724999999999909e+03
8.999999999999999667e-02 7.569494999999999418e-01 2.883109999999999928e+01 1.359745000000000061e+02 1.625634999999999991e+03
9.099999999999999756e-02 7.568489999999999940e-01 2.796034999999999826e+01 1.355180000000000007e+02 1.625529999999999973e+03
9.199999999999999845e-02 7.567479999999999762e-01 2.710444999999999993e+01 1.350504999999999995e+02 1.625420000000000073e+03
9.299999999999999933e-02 7.566519999999999913e-01 2.627619999999999933e+01 1.345974999999999966e+02 1.625300000000000182e+03
9.400000000000000022e-02 7.565660000000000718e-01 2.548564999999999969e+01 1.341810000000000116e+02 1.625190000000000055e+03
9.500000000000000111e-02 7.564925000000000122e-01 2.474044999999999916e+01 1.338154999999999859e+02 1.625085000000000036e+03
9.600000000000000200e-02 7.564349999999999685e-01 2.404480000000000217e+01 1.335115000000000123e+02 1.624994999999999891e+03
9.700000000000000289e-02 7.563925000000000232e-01 2.340015000000000001e+01 1.332725000000000080e+02 1.624920000000000073e+03
9.800000000000000377e-02 7.563649999999999540e-01 2.280489999999999995e+01 1.330964999999999918e+02 1.624860000000000127e+03
9.900000000000000466e-02 7.563489999999999380e-01 2.225464999999999804e+01 1.329764999999999873e+02 1.624815000000000055e+03
1.000000000000000056e-01 7.563414999999999999e-01 2.174309999999999832e+01 1.329014999999999986e+02 1.624785000000000082e+03
1.010000000000000064e-01 7.563389999999999835e-01 2.126169999999999760e+01 1.328559999999999945e+02 1.624759999999999991e+03
1.020000000000000073e-01 7.563355000000000494e-01 2.080089999999999861e+01 1.328234999999999957e+02 1.624740000000000009e+03
1.030000000000000082e-01 7.563269999999999715e-01 2.035034999999999883e+01 1.327835000000000036e+02 1.624715000000000146e+03
1.040000000000000091e-01 7.563085000000000502e-01 1.989945000000000164e+01 1.327180000000000177e+02 1.624694999999999936e+03
1.050000000000000100e-01 7.562750000000000306e-01 1.943795000000000073e+01 1.326080000000000041e+02 1.624659999999999854e+03
1.059999999999999970e-01 7.562225000000000197e-01 1.895660000000000167e+01 1.324359999999999786e+02 1.624610000000000127e+03
1.069999999999999979e-01 7.561480000000000423e-01 1.844740000000000180e+01 1.321885000000000048e+02 1.624545000000000073e+03
1.079999999999999988e-01 7.560489999999999711e-01 1.790439999999999898e+01 1.318545000000000016e+02 1.624460000000000036e+03
1.089999999999999997e-01 7.559249999999999581e-01 1.732370000000000232e+01 1.314275000000000091e+02 1.624345000000000027e+03
1.100000000000000006e-01 7.557754999999999335e-01 1.670374999999999943e+01 1.309055000000000177e+02 1.624210000000000036e+03
1.110000000000000014e-01 7.556015000000000370e-01 1.604570000000000007e+01 1.302909999999999968e+02 1.624050000000000182e+03
1.120000000000000023e-01 7.554069999999999396e-01 1.535310000000000130e+01 1.295914999999999964e+02 1.623860000000000127e+03
1.130000000000000032e-01 7.551944999999999908e-01 1.463199999999999967e+01 1.288190000000000168e+02 1.623654999999999973e+03
1.140000000000000041e-01 7.549694999999999601e-01 1.389040999999999926e+01 1.279900000000000091e+02 1.623434999999999945e+03
1.150000000000000050e-01 7.547369999999999912e-01 1.313824999999999932e+01 1.271239999999999952e+02 1.623200000000000045e+03
1.160000000000000059e-01 7.545034999999999936e-01 1.238655499999999954e+01 1.262415000000000020e+02 1.622960000000000036e+03
1.170000000000000068e-01 7.542744999999999589e-01 1.164717500000000072e+01 1.253659999999999997e+02 1.622715000000000146e+03
1.180000000000000077e-01 7.540560000000000596e-01 1.093215000000000003e+01 1.245210000000000008e+02 1.622480000000000018e+03
1.190000000000000085e-01 7.538544999999999829e-01 1.025303000000000075e+01 1.237289999999999850e+02 1.622250000000000000e+03
1.200000000000000094e-01 7.536749999999999838e-01 9.620440000000000325e+00 1.230090000000000003e+02 1.622039999999999964e+03
1.209999999999999964e-01 7.535209999999999964e-01 9.043540000000000134e+00 1.223804999999999978e+02 1.621855000000000018e+03
1.219999999999999973e-01 7.533959999999999546e-01 8.529770000000000962e+00 1.218564999999999969e+02 1.621695000000000164e+03
1.229999999999999982e-01 7.533020000000000271e-01 8.084224999999999994e+00 1.214465000000000003e+02 1.621555000000000064e+03
1.239999999999999991e-01 7.532389999999999919e-01 7.709780000000000300e+00 1.211554999999999893e+02 1.621454999999999927e+03
1.250000000000000000e-01 7.532075000000000298e-01 7.406975000000000975e+00 1.209840000000000089e+02 1.621390000000000100e+03
1.260000000000000009e-01 7.532054999999999723e-01 7.174005000000000187e+00 1.209279999999999973e+02 1.621349999999999909e+03
1.270000000000000018e-01 7.532309999999999839e-01 7.006959999999999411e+00 1.209799999999999898e+02 1.621340000000000146e+03
1.280000000000000027e-01 7.532790000000000319e-01 6.900120000000000253e+00 1.211269999999999953e+02 1.621365000000000009e+03
1.290000000000000036e-01 7.533465000000000300e-01 6.846270000000000522e+00 1.213549999999999898e+02 1.621400000000000091e+03
1.300000000000000044e-01 7.534289999999999043e-01 6.837114999999999831e+00 1.216484999999999985e+02 1.621465000000000146e+03
1.310000000000000053e-01 7.535209999999999964e-01 6.863675000000000637e+00 1.219885000000000019e+02 1.621545000000000073e+03
1.320000000000000062e-01 7.536194999999999977e-01 6.916690000000000005e+00 1.223580000000000041e+02 1.621634999999999991e+03
1.330000000000000071e-01 7.537184999999999580e-01 6.986995000000000289e+00 1.227399999999999949e+02 1.621730000000000018e+03
1.340000000000000080e-01 7.538145000000000540e-01 7.065859999999999808e+00 1.231185000000000116e+02 1.621829999999999927e+03
1.350000000000000089e-01 7.539044999999999774e-01 7.145270000000000010e+00 1.234789999999999992e+02 1.621925000000000182e+03
1.360000000000000098e-01 7.539860000000000451e-01 7.218125000000000568e+00 1.238094999999999999e+02 1.622009999999999991e+03
1.370000000000000107e-01 7.540554999999999897e-01 7.278449999999999420e+00 1.241004999999999967e+02 1.622095000000000027e+03
1.380000000000000115e-01 7.541130000000000333e-01 7.321445000000000647e+00 1.243445000000000107e+02 1.622170000000000073e+03
1.390000000000000124e-01 7.541565000000000074e-01 7.343579999999999330e+00 1.245379999999999967e+02 1.622224999999999909e+03
1.400000000000000133e-01 7.541864999999999819e-01 7.342579999999999885e+00 1.246779999999999973e+02 1.622269999999999982e+03
1.410000000000000142e-01 7.542029999999999568e-01 7.317375000000000185e+00 1.247650000000000006e+02 1.622304999999999836e+03
1.420000000000000151e-01 7.542069999999999608e-01 7.268030000000000435e+00 1.248019999999999925e+02 1.622320000000000164e+03
1.430000000000000160e-01 7.541990000000000638e-01 7.195639999999999148e+00 1.247920000000000016e+02 1.622329999999999927e+03
1.440000000000000169e-01 7.541819999999999080e-01 7.102190000000000225e+00 1.247404999999999973e+02 1.622319999999999936e+03
1.450000000000000178e-01 7.541565000000000074e-01 6.990404999999999980e+00 1.246550000000000011e+02 1.622304999999999836e+03
1.459999999999999909e-01 7.541249999999999343e-01 6.863569999999999283e+00 1.245420000000000016e+02 1.622280000000000200e+03
1.469999999999999918e-01 7.540900000000000380e-01 6.725379999999999470e+00 1.244085000000000036e+02 1.622250000000000000e+03
1.479999999999999927e-01 7.540519999999999445e-01 6.579729999999999634e+00 1.242630000000000052e+02 1.622215000000000146e+03
1.489999999999999936e-01 7.540139999999999620e-01 6.430540000000000589e+00 1.241115000000000066e+02 1.622179999999999836e+03
1.499999999999999944e-01 7.539770000000000083e-01 6.281584999999999752e+00 1.239619999999999891e+02 1.622139999999999873e+03
1.509999999999999953e-01 7.539430000000000298e-01 6.136350000000000193e+00 1.238190000000000026e+02 1.622099999999999909e+03
1.519999999999999962e-01 7.539130000000000553e-01 5.997844999999999871e+00 1.236875000000000000e+02 1.622070000000000164e+03
1.529999999999999971e-01 7.538865000000000149e-01 5.868545000000000122e+00 1.235715000000000003e+02 1.622035000000000082e+03
1.539999999999999980e-01 7.538650000000000073e-01 5.750280000000000058e+00 1.234724999999999966e+02 1.622005000000000109e+03
1.549999999999999989e-01 7.538485000000000325e-01 5.644205000000000361e+00 1.233910000000000053e+02 1.621980000000000018e+03
1.559999999999999998e-01 7.538365000000000204e-01 5.550800000000000622e+00 1.233275000000000006e+02 1.621965000000000146e+03
1.570000000000000007e-01 7.538279999999999426e-01 5.469915000000000305e+00 1.232789999999999964e+02 1.621945000000000164e+03
1.580000000000000016e-01 7.538229999999999098e-01 5.400819999999999510e+00 1.232439999999999998e+02 1.621934999999999945e+03
1.590000000000000024e-01 7.538199999999999346e-01 5.342330000000000467e+00 1.232185000000000059e+02 1.621920000000000073e+03
