# t [s], A [cm^2], U [cm/s], P [cPa], c [cm/s]
1.000000000000000021e-03 1.578910000000000036e-01 3.139609999999999901e-01 9.961419999999999675e+01 1.817974999999999909e+03
2.000000000000000042e-03 1.578585000000000127e-01 1.906996499999999983e+00 9.657349999999999568e+01 1.817699999999999818e+03
3.000000000000000062e-03 1.577454999999999830e-01 3.858408999999999978e+00 9.254874999999999829e+01 1.816804999999999836e+03
4.000000000000000083e-03 1.575779999999999959e-01 6.020954999999999835e+00 8.805989999999999895e+01 1.815505000000000109e+03
5.000000000000000104e-03 1.573855000000000115e-01 8.338964999999999961e+00 8.384925000000001205e+01 1.814025000000000091e+03
6.000000000000000125e-03 1.571909999999999974e-01 1.069567999999999941e+01 8.028810000000000002e+01 1.812545000000000073e+03
7.000000000000000146e-03 1.570044999999999913e-01 1.292053999999999903e+01 7.732160000000000366e+01 1.811134999999999991e+03
8.000000000000000167e-03 1.568295000000000106e-01 1.488680000000000092e+01 7.472284999999999400e+01 1.809835000000000036e+03
9.000000000000001055e-03 1.566684999999999883e-01 1.657529999999999859e+01 7.239714999999999634e+01 1.808659999999999854e+03
1.000000000000000194e-02 1.565259999999999985e-01 1.801950000000000074e+01 7.039054999999999040e+01 1.807625000000000000e+03
1.099999999999999936e-02 1.564030000000000142e-01 1.924214999999999876e+01 6.873149999999999693e+01 1.806744999999999891e+03
1.200000000000000025e-02 1.562989999999999935e-01 2.025515000000000043e+01 6.739135000000000275e+01 1.806009999999999991e+03
1.300000000000000114e-02 1.562135000000000051e-01 2.107140000000000057e+01 6.632410000000000139e+01 1.805410000000000082e+03
1.400000000000000203e-02 1.561429999999999763e-01 2.170080000000000098e+01 6.547284999999999400e+01 1.804930000000000064e+03
1.499999999999999944e-02 1.560860000000000025e-01 2.215324999999999989e+01 6.476999999999999602e+01 1.804539999999999964e+03
1.600000000000000033e-02 1.560389999999999833e-01 2.245964999999999989e+01 6.418210000000000548e+01 1.804224999999999909e+03
1.700000000000000122e-02 1.560024999999999884e-01 2.268869999999999720e+01 6.377100000000000080e+01 1.803990000000000009e+03
1.800000000000000211e-02 1.559800000000000075e-01 2.293704999999999927e+01 6.370029999999999859e+01 1.803849999999999909e+03
1.900000000000000300e-02 1.559769999999999768e-01 2.329394999999999882e+01 6.416320000000000334e+01 1.803840000000000146e+03
2.000000000000000042e-02 1.559975000000000112e-01 2.380294999999999916e+01 6.527504999999999313e+01 1.804000000000000000e+03
2.100000000000000130e-02 1.560429999999999873e-01 2.444255000000000067e+01 6.699370000000000402e+01 1.804329999999999927e+03
2.200000000000000219e-02 1.561089999999999978e-01 2.513315000000000055e+01 6.910850000000000648e+01 1.804809999999999945e+03
2.299999999999999961e-02 1.561870000000000203e-01 2.576425000000000054e+01 7.129605000000000814e+01 1.805375000000000000e+03
2.400000000000000050e-02 1.562660000000000160e-01 2.622960000000000136e+01 7.321380000000000621e+01 1.805954999999999927e+03
2.500000000000000139e-02 1.563355000000000161e-01 2.645660000000000167e+01 7.459344999999999004e+01 1.806469999999999800e+03
2.600000000000000228e-02 1.563879999999999992e-01 2.642285000000000039e+01 7.530469999999999686e+01 1.806869999999999891e+03
2.700000000000000316e-02 1.564200000000000035e-01 2.615554999999999808e+01 7.537250000000000227e+01 1.807119999999999891e+03
2.800000000000000058e-02 1.564329999999999887e-01 2.571674999999999756e+01 7.494839999999999236e+01 1.807235000000000127e+03
2.900000000000000147e-02 1.564305000000000001e-01 2.518144999999999811e+01 7.424969999999999004e+01 1.807230000000000018e+03
3.000000000000000236e-02 1.564185000000000159e-01 2.461500000000000199e+01 7.348964999999999748e+01 1.807154999999999973e+03
3.099999999999999978e-02 1.564035000000000009e-01 2.405794999999999817e+01 7.282075000000000387e+01 1.807049999999999955e+03
3.200000000000000067e-02 1.563879999999999992e-01 2.352094999999999914e+01 7.230625000000000568e+01 1.806945000000000164e+03
3.300000000000000155e-02 1.563740000000000130e-01 2.298955000000000126e+01 7.192240000000001032e+01 1.806849999999999909e+03
3.400000000000000244e-02 1.563614999999999866e-01 2.243569999999999709e+01 7.158570000000000277e+01 1.806755000000000109e+03
3.500000000000000333e-02 1.563470000000000137e-01 2.183164999999999978e+01 7.119374999999999432e+01 1.806654999999999973e+03
3.600000000000000422e-02 1.563289999999999957e-01 2.116295000000000215e+01 7.066665000000000418e+01 1.806529999999999973e+03
3.700000000000000511e-02 1.563060000000000005e-01 2.043625000000000114e+01 6.997780000000000200e+01 1.806369999999999891e+03
3.799999999999999906e-02 1.562780000000000002e-01 1.968169999999999931e+01 6.916854999999999620e+01 1.806174999999999955e+03
3.899999999999999994e-02 1.562474999999999836e-01 1.894839999999999947e+01 6.834229999999999450e+01 1.805954999999999927e+03
4.000000000000000083e-02 1.562175000000000091e-01 1.829449999999999932e+01 6.764240000000000919e+01 1.805740000000000009e+03
4.100000000000000172e-02 1.561934999999999851e-01 1.777499999999999858e+01 6.721769999999999357e+01 1.805565000000000055e+03
4.200000000000000261e-02 1.561804999999999999e-01 1.743005000000000138e+01 6.718774999999999409e+01 1.805464999999999918e+03
4.300000000000000350e-02 1.561810000000000143e-01 1.727584999999999837e+01 6.761345000000000027e+01 1.805460000000000036e+03
4.400000000000000439e-02 1.561980000000000035e-01 1.730154999999999887e+01 6.848199999999999932e+01 1.805570000000000164e+03
4.499999999999999833e-02 1.562294999999999934e-01 1.747050000000000125e+01 6.970705000000000950e+01 1.805789999999999964e+03
4.599999999999999922e-02 1.562735000000000096e-01 1.772650000000000148e+01 7.114310000000000400e+01 1.806095000000000027e+03
4.700000000000000011e-02 1.563239999999999907e-01 1.800249999999999773e+01 7.260984999999999445e+01 1.806449999999999818e+03
4.800000000000000100e-02 1.563765000000000016e-01 1.823029999999999973e+01 7.391989999999999839e+01 1.806825000000000045e+03
4.900000000000000189e-02 1.564234999999999931e-01 1.834844999999999970e+01 7.490505000000000280e+01 1.807160000000000082e+03
5.000000000000000278e-02 1.564590000000000147e-01 1.830914999999999893e+01 7.543625000000000114e+01 1.807420000000000073e+03
5.100000000000000366e-02 1.564790000000000070e-01 1.808135000000000048e+01 7.543540000000000134e+01 1.807575000000000045e+03
5.200000000000000455e-02 1.564804999999999946e-01 1.765160000000000196e+01 7.487765000000000271e+01 1.807585000000000036e+03
5.300000000000000544e-02 1.564615000000000034e-01 1.702230000000000132e+01 7.378645000000000209e+01 1.807465000000000146e+03
5.399999999999999939e-02 1.564230000000000065e-01 1.620889999999999986e+01 7.222290000000000987e+01 1.807195000000000164e+03
5.500000000000000028e-02 1.563665000000000194e-01 1.523605000000000054e+01 7.027289999999999281e+01 1.806795000000000073e+03
5.600000000000000117e-02 1.562945000000000029e-01 1.413374999999999915e+01 6.803409999999999513e+01 1.806284999999999854e+03
5.700000000000000205e-02 1.562095000000000011e-01 1.293505000000000038e+01 6.560559999999999548e+01 1.805674999999999955e+03
5.800000000000000294e-02 1.561155000000000181e-01 1.167336500000000044e+01 6.308070000000000022e+01 1.805005000000000109e+03
5.900000000000000383e-02 1.560159999999999880e-01 1.038214999999999932e+01 6.054354999999999620e+01 1.804289999999999964e+03
6.000000000000000472e-02 1.559139999999999970e-01 9.093935000000000102e+00 5.806860000000000355e+01 1.803554999999999836e+03
6.099999999999999867e-02 1.558130000000000071e-01 7.841065000000000396e+00 5.572249999999999659e+01 1.802824999999999818e+03
6.199999999999999956e-02 1.557145000000000057e-01 6.655495000000000161e+00 5.356645000000000323e+01 1.802115000000000009e+03
6.300000000000000044e-02 1.556224999999999969e-01 5.569160000000000110e+00 5.165845000000000198e+01 1.801449999999999818e+03
6.400000000000000133e-02 1.555394999999999972e-01 4.613520000000000287e+00 5.005445000000000277e+01 1.800845000000000027e+03
6.500000000000000222e-02 1.554679999999999951e-01 3.818960000000000132e+00 4.880875000000000341e+01 1.800324999999999818e+03
6.600000000000000311e-02 1.554099999999999926e-01 3.213750000000000107e+00 4.797229999999999706e+01 1.799900000000000091e+03
6.700000000000000400e-02 1.553680000000000061e-01 2.822750000000000092e+00 4.759009999999999962e+01 1.799590000000000146e+03
6.800000000000000488e-02 1.553444999999999965e-01 2.666030000000000122e+00 4.769854999999999734e+01 1.799404999999999973e+03
6.900000000000000577e-02 1.553404999999999925e-01 2.757690000000000197e+00 4.832215000000000060e+01 1.799360000000000127e+03
7.000000000000000666e-02 1.553569999999999951e-01 3.104880000000000084e+00 4.947114999999999441e+01 1.799465000000000146e+03
7.100000000000000755e-02 1.553950000000000053e-01 3.707270000000000287e+00 5.113965000000000316e+01 1.799720000000000027e+03
7.200000000000000844e-02 1.554539999999999811e-01 4.556985000000000063e+00 5.330590000000000117e+01 1.800134999999999991e+03
7.300000000000000933e-02 1.555345000000000200e-01 5.639009999999999856e+00 5.593245000000000289e+01 1.800695000000000164e+03
7.399999999999999634e-02 1.556339999999999946e-01 6.931969999999999743e+00 5.896869999999999834e+01 1.801394999999999982e+03
7.499999999999999722e-02 1.557514999999999872e-01 8.409279999999998978e+00 6.235320000000000107e+01 1.802230000000000018e+03
7.599999999999999811e-02 1.558845000000000092e-01 1.004030500000000004e+01 6.601754999999999995e+01 1.803170000000000073e+03
7.699999999999999900e-02 1.560305000000000164e-01 1.179211000000000098e+01 6.988954999999999984e+01 1.804210000000000036e+03
7.799999999999999989e-02 1.561865000000000059e-01 1.363034999999999997e+01 7.389674999999999727e+01 1.805335000000000036e+03
7.900000000000000078e-02 1.563495000000000024e-01 1.552125000000000199e+01 7.796954999999999814e+01 1.806509999999999991e+03
8.000000000000000167e-02 1.565179999999999905e-01 1.743220000000000169e+01 8.204434999999999434e+01 1.807724999999999909e+03
8.100000000000000255e-02 1.566879999999999939e-01 1.933354999999999890e+01 8.606550000000000011e+01 1.808954999999999927e+03
8.200000000000000344e-02 1.568585000000000118e-01 2.119894999999999996e+01 8.998730000000000473e+01 1.810195000000000164e+03
8.300000000000000433e-02 1.570265000000000133e-01 2.300655000000000072e+01 9.377479999999999905e+01 1.811420000000000073e+03
8.400000000000000522e-02 1.571905000000000108e-01 2.473920000000000030e+01 9.740555000000000518e+01 1.812615000000000009e+03
8.500000000000000611e-02 1.573505000000000043e-01 2.638479999999999848e+01 1.008680499999999967e+02 1.813784999999999854e+03
8.600000000000000699e-02 1.575039999999999774e-01 2.793639999999999901e+01 1.041617500000000121e+02 1.814920000000000073e+03
8.700000000000000788e-02 1.576520000000000143e-01 2.939150000000000063e+01 1.072960000000000065e+02 1.816005000000000109e+03
8.800000000000000877e-02 1.577945000000000042e-01 3.075189999999999912e+01 1.102884999999999991e+02 1.817054999999999836e+03
8.899999999999999578e-02 1.579320000000000168e-01 3.202270000000000039e+01 1.131620000000000061e+02 1.818069999999999936e+03
8.999999999999999667e-02 1.580639999999999823e-01 3.321155000000000257e+01 1.159424999999999955e+02 1.819050000000000182e+03
9.099999999999999756e-02 1.581930000000000003e-01 3.432755000000000223e+01 1.186564999999999941e+02 1.820009999999999991e+03
9.199999999999999845e-02 1.583195000000000019e-01 3.538054999999999950e+01 1.213310000000000031e+02 1.820944999999999936e+03
9.299999999999999933e-02 1.584435000000000149e-01 3.637984999999999758e+01 1.239869999999999948e+02 1.821865000000000009e+03
9.400000000000000022e-02 1.585664999999999991e-01 3.733395000000000152e+01 1.266425000000000125e+02 1.822779999999999973e+03
9.500000000000000111e-02 1.586889999999999967e-01 3.824944999999999595e+01 1.293084999999999809e+02 1.823690000000000055e+03
9.600000000000000200e-02 1.588114999999999943e-01 3.913105000000000189e+01 1.319889999999999759e+02 1.824599999999999909e+03
9.700000000000000289e-02 1.589345000000000063e-01 3.998080000000000211e+01 1.346814999999999998e+02 1.825509999999999991e+03
9.800000000000000377e-02 1.590570000000000039e-01 4.079860000000000042e+01 1.373779999999999859e+02 1.826424999999999955e+03
9.900000000000000466e-02 1.591795000000000015e-01 4.158180000000000121e+01 1.400625000000000000e+02 1.827335000000000036e+03
1.000000000000000056e-01 1.593009999999999982e-01 4.232564999999999600e+01 1.427164999999999964e+02 1.828240000000000009e+03
1.010000000000000064e-01 1.594209999999999794e-01 4.302374999999999972e+01 1.453160000000000025e+02 1.829134999999999991e+03
1.020000000000000073e-01 1.595395000000000008e-01 4.366810000000000258e+01 1.478360000000000127e+02 1.830014999999999873e+03
1.030000000000000082e-01 1.596540000000000181e-01 4.425005000000000166e+01 1.502490000000000236e+02 1.830869999999999891e+03
1.040000000000000091e-01 1.597640000000000171e-01 4.476024999999999920e+01 1.525294999999999845e+02 1.831695000000000164e+03
1.050000000000000100e-01 1.598689999999999833e-01 4.518959999999999866e+01 1.546514999999999986e+02 1.832474999999999909e+03
1.059999999999999970e-01 1.599674999999999847e-01 4.552925000000000466e+01 1.565919999999999845e+02 1.833215000000000146e+03
1.069999999999999979e-01 1.600584999999999924e-01 4.577145000000000152e+01 1.583310000000000173e+02 1.833900000000000091e+03
1.079999999999999988e-01 1.601414999999999922e-01 4.590970000000000084e+01 1.598520000000000039e+02 1.834519999999999982e+03
1.089999999999999997e-01 1.602149999999999963e-01 4.593900000000000006e+01 1.611435000000000173e+02 1.835079999999999927e+03
1.100000000000000006e-01 1.602794999999999914e-01 4.585629999999999740e+01 1.621974999999999909e+02 1.835565000000000055e+03
1.110000000000000014e-01 1.603344999999999909e-01 4.566049999999999898e+01 1.630115000000000123e+02 1.835980000000000018e+03
1.120000000000000023e-01 1.603785000000000072e-01 4.535264999999999702e+01 1.635875000000000057e+02 1.836320000000000164e+03
1.130000000000000032e-01 1.604130000000000000e-01 4.493605000000000160e+01 1.639334999999999809e+02 1.836585000000000036e+03
1.140000000000000041e-01 1.604375000000000107e-01 4.441615000000000180e+01 1.640600000000000023e+02 1.836780000000000200e+03
1.150000000000000050e-01 1.604524999999999979e-01 4.380034999999999457e+01 1.639839999999999804e+02 1.836900000000000091e+03
1.160000000000000059e-01 1.604585000000000039e-01 4.309779999999999944e+01 1.637235000000000014e+02 1.836954999999999927e+03
1.170000000000000068e-01 1.604569999999999885e-01 4.231935000000000002e+01 1.633009999999999877e+02 1.836950000000000045e+03
1.180000000000000077e-01 1.604474999999999929e-01 4.147679999999999723e+01 1.627415000000000020e+02 1.836889999999999873e+03
1.190000000000000085e-01 1.604319999999999913e-01 4.058285000000000053e+01 1.620704999999999814e+02 1.836780000000000200e+03
1.200000000000000094e-01 1.604105000000000114e-01 3.965070000000000050e+01 1.613135000000000048e+02 1.836630000000000109e+03
1.209999999999999964e-01 1.603849999999999998e-01 3.869315000000000282e+01 1.604954999999999927e+02 1.836440000000000055e+03
1.219999999999999973e-01 1.603554999999999842e-01 3.772299999999999898e+01 1.596419999999999959e+02 1.836230000000000018e+03
1.229999999999999982e-01 1.603245000000000087e-01 3.675180000000000291e+01 1.587729999999999961e+02 1.836000000000000000e+03
1.239999999999999991e-01 1.602915000000000034e-01 3.579019999999999868e+01 1.579089999999999918e+02 1.835755000000000109e+03
1.250000000000000000e-01 1.602580000000000116e-01 3.484734999999999872e+01 1.570635000000000048e+02 1.835500000000000000e+03
1.260000000000000009e-01 1.602240000000000053e-01 3.393064999999999998e+01 1.562504999999999882e+02 1.835250000000000000e+03
1.270000000000000018e-01 1.601910000000000001e-01 3.304574999999999818e+01 1.554774999999999920e+02 1.835005000000000109e+03
1.280000000000000027e-01 1.601579999999999948e-01 3.219644999999999868e+01 1.547479999999999905e+02 1.834760000000000218e+03
1.290000000000000036e-01 1.601274999999999782e-01 3.138465000000000060e+01 1.540635000000000048e+02 1.834530000000000200e+03
1.300000000000000044e-01 1.600975000000000037e-01 3.061035000000000039e+01 1.534200000000000159e+02 1.834304999999999836e+03
1.310000000000000053e-01 1.600690000000000168e-01 2.987199999999999989e+01 1.528114999999999952e+02 1.834089999999999918e+03
1.320000000000000062e-01 1.600415000000000032e-01 2.916635000000000133e+01 1.522289999999999850e+02 1.833884999999999991e+03
1.330000000000000071e-01 1.600150000000000183e-01 2.848910000000000053e+01 1.516614999999999895e+02 1.833679999999999836e+03
1.340000000000000080e-01 1.599889999999999923e-01 2.783474999999999966e+01 1.510949999999999989e+02 1.833485000000000127e+03
1.350000000000000089e-01 1.599625000000000075e-01 2.719709999999999894e+01 1.505175000000000125e+02 1.833285000000000082e+03
1.360000000000000098e-01 1.599359999999999948e-01 2.656974999999999909e+01 1.499139999999999873e+02 1.833085000000000036e+03
1.370000000000000107e-01 1.599085000000000090e-01 2.594599999999999795e+01 1.492704999999999984e+02 1.832880000000000109e+03
1.380000000000000115e-01 1.598789999999999933e-01 2.531935000000000002e+01 1.485754999999999768e+02 1.832660000000000082e+03
1.390000000000000124e-01 1.598485000000000045e-01 2.468399999999999750e+01 1.478174999999999955e+02 1.832430000000000064e+03
1.400000000000000133e-01 1.598145000000000260e-01 2.403474999999999895e+01 1.469879999999999995e+02 1.832175000000000182e+03
1.410000000000000142e-01 1.597780000000000034e-01 2.336749999999999972e+01 1.460805000000000007e+02 1.831904999999999973e+03
1.420000000000000151e-01 1.597385000000000055e-01 2.267920000000000158e+01 1.450904999999999916e+02 1.831610000000000127e+03
1.430000000000000160e-01 1.596960000000000046e-01 2.196835000000000093e+01 1.440185000000000173e+02 1.831289999999999964e+03
1.440000000000000169e-01 1.596494999999999997e-01 2.123474999999999824e+01 1.428669999999999902e+02 1.830950000000000045e+03
1.450000000000000178e-01 1.596000000000000196e-01 2.047964999999999947e+01 1.416415000000000077e+02 1.830585000000000036e+03
1.459999999999999909e-01 1.595475000000000088e-01 1.970575000000000188e+01 1.403505000000000109e+02 1.830195000000000164e+03
1.469999999999999918e-01 1.594924999999999815e-01 1.891714999999999947e+01 1.390049999999999955e+02 1.829784999999999854e+03
1.479999999999999927e-01 1.594345000000000068e-01 1.811905000000000143e+01 1.376195000000000164e+02 1.829364999999999782e+03
1.489999999999999936e-01 1.593755000000000033e-01 1.731779999999999831e+01 1.362094999999999914e+02 1.828920000000000073e+03
1.499999999999999944e-01 1.593144999999999978e-01 1.652045000000000030e+01 1.347909999999999968e+02 1.828474999999999909e+03
1.509999999999999953e-01 1.592534999999999923e-01 1.573464999999999847e+01 1.333830000000000098e+02 1.828025000000000091e+03
1.519999999999999962e-01 1.591925000000000145e-01 1.496829999999999927e+01 1.320020000000000095e+02 1.827569999999999936e+03
1.529999999999999971e-01 1.591319999999999957e-01 1.422930000000000028e+01 1.306659999999999968e+02 1.827125000000000000e+03
1.539999999999999980e-01 1.590734999999999788e-01 1.352519999999999989e+01 1.293909999999999911e+02 1.826684999999999945e+03
1.549999999999999989e-01 1.590169999999999917e-01 1.286294999999999966e+01 1.281924999999999955e+02 1.826264999999999873e+03
1.559999999999999998e-01 1.589634999999999798e-01 1.224878000000000000e+01 1.270819999999999936e+02 1.825869999999999891e+03
1.570000000000000007e-01 1.589125000000000121e-01 1.168785499999999900e+01 1.260700000000000074e+02 1.825490000000000009e+03
1.580000000000000016e-01 1.588660000000000072e-01 1.118416000000000032e+01 1.251639999999999873e+02 1.825144999999999982e+03
1.590000000000000024e-01 1.588235000000000063e-01 1.074048499999999962e+01 1.243684999999999974e+02 1.824824999999999818e+03
