# t [s], A [cm^2], U [cm/s], P [cPa], c [cm/s]
1.000000000000000021e-03 6.010785000000000711e-01 3.939600000000001434e-03 1.016879999999999882e+02 1.459005000000000109e+03
2.000000000000000042e-03 6.010694999999999233e-01 -8.039499999999999988e-04 1.016719999999999970e+02 1.458994999999999891e+03
3.000000000000000062e-03 6.010975000000000623e-01 4.187430000000000319e-02 1.017109999999999985e+02 1.459009999999999991e+03
4.000000000000000083e-03 6.011504999999999210e-01 1.268359000000000014e-01 1.018119999999999976e+02 1.459034999999999854e+03
5.000000000000000104e-03 6.011655000000000193e-01 1.581776000000000015e-01 1.018509999999999991e+02 1.459045000000000073e+03
6.000000000000000125e-03 6.011314999999999298e-01 1.119800999999999991e-01 1.017729999999999961e+02 1.459034999999999854e+03
7.000000000000000146e-03 6.010854999999999393e-01 4.393900000000000583e-02 1.016225000000000023e+02 1.459005000000000109e+03
8.000000000000000167e-03 6.010435000000000638e-01 -2.081600000000000117e-02 1.014364999999999952e+02 1.458960000000000036e+03
9.000000000000001055e-03 6.009794999999999998e-01 -1.297129999999999672e-01 1.011689999999999969e+02 1.458904999999999973e+03
1.000000000000000194e-02 6.008739999999999082e-01 -3.169200000000000905e-01 1.007715000000000032e+02 1.458815000000000055e+03
1.099999999999999936e-02 6.007230000000000070e-01 -5.885499999999999066e-01 1.002134000000000071e+02 1.458690000000000055e+03
1.200000000000000025e-02 6.005154999999999799e-01 -9.543449999999999989e-01 9.946000000000000796e+01 1.458519999999999982e+03
1.300000000000000114e-02 6.002419999999999423e-01 -1.421405000000000030e+00 9.847540000000000759e+01 1.458295000000000073e+03
1.400000000000000203e-02 5.999090000000000256e-01 -1.964604999999999713e+00 9.725954999999999018e+01 1.458009999999999991e+03
1.499999999999999944e-02 5.995440000000000769e-01 -2.517159999999999620e+00 9.586840000000000828e+01 1.457680000000000064e+03
1.600000000000000033e-02 5.991859999999999964e-01 -2.992250000000000298e+00 9.439839999999999520e+01 1.457320000000000164e+03
1.700000000000000122e-02 5.988649999999999807e-01 -3.315530499999999936e+00 9.295169999999998822e+01 1.456940000000000055e+03
1.800000000000000211e-02 5.985940000000000705e-01 -3.446950999999999876e+00 9.160050000000001091e+01 1.456585000000000036e+03
1.900000000000000300e-02 5.983665000000000234e-01 -3.385205500000000089e+00 9.037424999999998931e+01 1.456235000000000127e+03
2.000000000000000042e-02 5.981635000000000701e-01 -3.159126500000000171e+00 8.925960000000000605e+01 1.455904999999999973e+03
2.100000000000000130e-02 5.979634999999999811e-01 -2.813178499999999804e+00 8.821430000000000859e+01 1.455585000000000036e+03
2.200000000000000219e-02 5.977440000000000531e-01 -2.392558000000000185e+00 8.718459999999998900e+01 1.455264999999999873e+03
2.299999999999999961e-02 5.974939999999999696e-01 -1.931409999999999849e+00 8.612300000000000466e+01 1.454940000000000055e+03
2.400000000000000050e-02 5.972104999999999775e-01 -1.446415000000000006e+00 8.500084999999999980e+01 1.454599999999999909e+03
2.500000000000000139e-02 5.969004999999999450e-01 -9.368949999999998113e-01 8.381399999999999295e+01 1.454240000000000009e+03
2.600000000000000228e-02 5.965749999999999664e-01 -3.908500000000003638e-01 8.257900000000000773e+01 1.453869999999999891e+03
2.700000000000000316e-02 5.962475000000000414e-01 2.056400000000002670e-01 8.132384999999999309e+01 1.453494999999999891e+03
2.800000000000000058e-02 5.959254999999999969e-01 8.591699999999997672e-01 8.007524999999999693e+01 1.453119999999999891e+03
2.900000000000000147e-02 5.956105000000000427e-01 1.562754999999999894e+00 7.884829999999999472e+01 1.452744999999999891e+03
3.000000000000000236e-02 5.952975000000000350e-01 2.293979999999999908e+00 7.763994999999999891e+01 1.452369999999999891e+03
3.099999999999999978e-02 5.949740000000000029e-01 3.017369999999999663e+00 7.642830000000000723e+01 1.452000000000000000e+03
3.200000000000000067e-02 5.946259999999999879e-01 3.690020000000000078e+00 7.517660000000000764e+01 1.451619999999999891e+03
3.300000000000000155e-02 5.942399999999999904e-01 4.269054999999999822e+00 7.384175000000000466e+01 1.451224999999999909e+03
3.400000000000000244e-02 5.938044999999999574e-01 4.719145000000000145e+00 7.238349999999999795e+01 1.450800000000000182e+03
3.500000000000000333e-02 5.933174999999999422e-01 5.019070000000000142e+00 7.077519999999999811e+01 1.450349999999999909e+03
3.600000000000000422e-02 5.927820000000000311e-01 5.165404999999999802e+00 6.901085000000000491e+01 1.449865000000000009e+03
3.700000000000000511e-02 5.922095000000000553e-01 5.172744999999999926e+00 6.710904999999999632e+01 1.449340000000000146e+03
3.799999999999999906e-02 5.916190000000000060e-01 5.070719999999999672e+00 6.511199999999999477e+01 1.448799999999999955e+03
3.899999999999999994e-02 5.910309999999999730e-01 4.898884999999999934e+00 6.308035000000000281e+01 1.448250000000000000e+03
4.000000000000000083e-02 5.904674999999999230e-01 4.700235000000000163e+00 6.108585000000000065e+01 1.447704999999999927e+03
4.100000000000000172e-02 5.899489999999999457e-01 4.515724999999999767e+00 5.920255000000000223e+01 1.447184999999999945e+03
4.200000000000000261e-02 5.894920000000000160e-01 4.380335000000000534e+00 5.749960000000000093e+01 1.446699999999999818e+03
4.300000000000000350e-02 5.891089999999999938e-01 4.320879999999999832e+00 5.603594999999999970e+01 1.446275000000000091e+03
4.400000000000000439e-02 5.888069999999999693e-01 4.355720000000000702e+00 5.485719999999999885e+01 1.445914999999999964e+03
4.499999999999999833e-02 5.885909999999999753e-01 4.496157000000000181e+00 5.399490000000000123e+01 1.445634999999999991e+03
4.599999999999999922e-02 5.884624999999999995e-01 4.748194999999999943e+00 5.346790000000000020e+01 1.445434999999999945e+03
4.700000000000000011e-02 5.884224999999999595e-01 5.114905000000000257e+00 5.328459999999999752e+01 1.445329999999999927e+03
4.800000000000000100e-02 5.884694999999999787e-01 5.598314999999999486e+00 5.344620000000000459e+01 1.445320000000000164e+03
4.900000000000000189e-02 5.886019999999999586e-01 6.200770000000000337e+00 5.394924999999999926e+01 1.445394999999999982e+03
5.000000000000000278e-02 5.888204999999999689e-01 6.925379999999999647e+00 5.478770000000000095e+01 1.445565000000000055e+03
5.100000000000000366e-02 5.891230000000000633e-01 7.775640000000000107e+00 5.595430000000000348e+01 1.445825000000000045e+03
5.200000000000000455e-02 5.895090000000000607e-01 8.754575000000000884e+00 5.744035000000000224e+01 1.446170000000000073e+03
5.300000000000000544e-02 5.899754999999999860e-01 9.863340000000000884e+00 5.923520000000000607e+01 1.446605000000000018e+03
5.399999999999999939e-02 5.905194999999999750e-01 1.109991999999999912e+01 6.132524999999999693e+01 1.447119999999999891e+03
5.500000000000000028e-02 5.911364999999999537e-01 1.245861999999999981e+01 6.369265000000000043e+01 1.447719999999999800e+03
5.600000000000000117e-02 5.918185000000000251e-01 1.392914500000000011e+01 6.631485000000000696e+01 1.448384999999999991e+03
5.700000000000000205e-02 5.925584999999999880e-01 1.549720999999999904e+01 6.916415000000000646e+01 1.449119999999999891e+03
5.800000000000000294e-02 5.933464999999999989e-01 1.714489000000000019e+01 7.220839999999999748e+01 1.449909999999999854e+03
5.900000000000000383e-02 5.941724999999999923e-01 1.885178000000000154e+01 7.541204999999999359e+01 1.450759999999999991e+03
6.000000000000000472e-02 5.950260000000000549e-01 2.059629999999999939e+01 7.873734999999999218e+01 1.451639999999999873e+03
6.099999999999999867e-02 5.958974999999999689e-01 2.235670000000000002e+01 8.214639999999999986e+01 1.452559999999999945e+03
6.199999999999999956e-02 5.967774999999999608e-01 2.411250000000000071e+01 8.560275000000000034e+01 1.453500000000000000e+03
6.300000000000000044e-02 5.976584999999999814e-01 2.584505000000000052e+01 8.907255000000000678e+01 1.454450000000000045e+03
6.400000000000000133e-02 5.985329999999999817e-01 2.753845000000000098e+01 9.252694999999999936e+01 1.455409999999999854e+03
6.500000000000000222e-02 5.993964999999999987e-01 2.917974999999999852e+01 9.594129999999999825e+01 1.456365000000000009e+03
6.600000000000000311e-02 6.002445000000000697e-01 3.075890000000000413e+01 9.929749999999999943e+01 1.457309999999999945e+03
6.700000000000000400e-02 6.010760000000000547e-01 3.226885000000000048e+01 1.025822000000000003e+02 1.458244999999999891e+03
6.800000000000000488e-02 6.018885000000000485e-01 3.370495000000000374e+01 1.057865999999999929e+02 1.459160000000000082e+03
6.900000000000000577e-02 6.026830000000000798e-01 3.506479999999999819e+01 1.089083499999999987e+02 1.460059999999999945e+03
7.000000000000000666e-02 6.034595000000000375e-01 3.634745000000000203e+01 1.119465000000000003e+02 1.460945000000000164e+03
7.100000000000000755e-02 6.042184999999999917e-01 3.755339999999999634e+01 1.149044999999999987e+02 1.461809999999999945e+03
7.200000000000000844e-02 6.049614999999999299e-01 3.868384999999999962e+01 1.177874999999999943e+02 1.462654999999999973e+03
7.300000000000000933e-02 6.056905000000000205e-01 3.974054999999999893e+01 1.205994999999999919e+02 1.463480000000000018e+03
7.399999999999999634e-02 6.064060000000000006e-01 4.072530000000000427e+01 1.233479999999999990e+02 1.464289999999999964e+03
7.499999999999999722e-02 6.071090000000000098e-01 4.163949999999999818e+01 1.260365000000000038e+02 1.465079999999999927e+03
7.599999999999999811e-02 6.078000000000000069e-01 4.248440000000000083e+01 1.286694999999999993e+02 1.465865000000000009e+03
7.699999999999999900e-02 6.084784999999999222e-01 4.326045000000000584e+01 1.312479999999999905e+02 1.466625000000000000e+03
7.799999999999999989e-02 6.091440000000000188e-01 4.396755000000000280e+01 1.337710000000000150e+02 1.467375000000000000e+03
7.900000000000000078e-02 6.097954999999999348e-01 4.460459999999999781e+01 1.362359999999999900e+02 1.468110000000000127e+03
8.000000000000000167e-02 6.104309999999999459e-01 4.517029999999999745e+01 1.386379999999999768e+02 1.468825000000000045e+03
8.100000000000000255e-02 6.110484999999999944e-01 4.566244999999999976e+01 1.409689999999999941e+02 1.469525000000000091e+03
8.200000000000000344e-02 6.116454999999999531e-01 4.607869999999999777e+01 1.432219999999999800e+02 1.470200000000000045e+03
8.300000000000000433e-02 6.122184999999999988e-01 4.641660000000000252e+01 1.453855000000000075e+02 1.470855000000000018e+03
8.400000000000000522e-02 6.127655000000000740e-01 4.667385000000000161e+01 1.474495000000000005e+02 1.471480000000000018e+03
8.500000000000000611e-02 6.132835000000000925e-01 4.684850000000000136e+01 1.494050000000000011e+02 1.472079999999999927e+03
8.600000000000000699e-02 6.137704999999999966e-01 4.693919999999999959e+01 1.512415000000000020e+02 1.472650000000000091e+03
8.700000000000000788e-02 6.142239999999999922e-01 4.694519999999999982e+01 1.529515000000000100e+02 1.473180000000000064e+03
8.800000000000000877e-02 6.146435000000000093e-01 4.686650000000000205e+01 1.545269999999999868e+02 1.473670000000000073e+03
8.899999999999999578e-02 6.150264999999999205e-01 4.670404999999999518e+01 1.559629999999999939e+02 1.474130000000000109e+03
8.999999999999999667e-02 6.153729999999999478e-01 4.645950000000000557e+01 1.572565000000000168e+02 1.474549999999999955e+03
9.099999999999999756e-02 6.156829999999999803e-01 4.613540000000000418e+01 1.584054999999999893e+02 1.474924999999999955e+03
9.199999999999999845e-02 6.159554999999999891e-01 4.573505000000000109e+01 1.594105000000000132e+02 1.475259999999999991e+03
9.299999999999999933e-02 6.161929999999999907e-01 4.526254999999999740e+01 1.602729999999999961e+02 1.475549999999999955e+03
9.400000000000000022e-02 6.163944999999999563e-01 4.472270000000000323e+01 1.609979999999999905e+02 1.475804999999999836e+03
9.500000000000000111e-02 6.165629999999999722e-01 4.412099999999999511e+01 1.615910000000000082e+02 1.476019999999999982e+03
9.600000000000000200e-02 6.166994999999999560e-01 4.346345000000000169e+01 1.620589999999999975e+02 1.476200000000000045e+03
9.700000000000000289e-02 6.168065000000000353e-01 4.275665000000000049e+01 1.624099999999999966e+02 1.476345000000000027e+03
9.800000000000000377e-02 6.168869999999999632e-01 4.200775000000000148e+01 1.626544999999999845e+02 1.476454999999999927e+03
9.900000000000000466e-02 6.169424999999999493e-01 4.122409999999999997e+01 1.628019999999999925e+02 1.476534999999999854e+03
1.000000000000000056e-01 6.169769999999999976e-01 4.041329999999999956e+01 1.628644999999999925e+02 1.476585000000000036e+03
1.010000000000000064e-01 6.169930000000000136e-01 3.958294999999999675e+01 1.628534999999999968e+02 1.476615000000000009e+03
1.020000000000000073e-01 6.169930000000000136e-01 3.874054999999999893e+01 1.627804999999999893e+02 1.476619999999999891e+03
1.030000000000000082e-01 6.169810000000000016e-01 3.789339999999999975e+01 1.626580000000000155e+02 1.476615000000000009e+03
1.040000000000000091e-01 6.169584999999999653e-01 3.704814999999999969e+01 1.624959999999999809e+02 1.476585000000000036e+03
1.050000000000000100e-01 6.169290000000000607e-01 3.621069999999999567e+01 1.623059999999999832e+02 1.476555000000000064e+03
1.059999999999999970e-01 6.168940000000000534e-01 3.538620000000000232e+01 1.620964999999999918e+02 1.476505000000000109e+03
1.069999999999999979e-01 6.168555000000000010e-01 3.457869999999999777e+01 1.618745000000000118e+02 1.476454999999999927e+03
1.079999999999999988e-01 6.168150000000000022e-01 3.379124999999999801e+01 1.616474999999999795e+02 1.476400000000000091e+03
1.089999999999999997e-01 6.167730000000000157e-01 3.302559999999999718e+01 1.614194999999999993e+02 1.476340000000000146e+03
1.100000000000000006e-01 6.167300000000000004e-01 3.228239999999999554e+01 1.611924999999999955e+02 1.476279999999999973e+03
1.110000000000000014e-01 6.166860000000000674e-01 3.156129999999999924e+01 1.609675000000000011e+02 1.476215000000000146e+03
1.120000000000000023e-01 6.166409999999999947e-01 3.086079999999999757e+01 1.607439999999999998e+02 1.476150000000000091e+03
1.130000000000000032e-01 6.165940000000000865e-01 3.017855000000000132e+01 1.605190000000000055e+02 1.476085000000000036e+03
1.140000000000000041e-01 6.165435000000000221e-01 2.951154999999999973e+01 1.602899999999999920e+02 1.476019999999999982e+03
1.150000000000000050e-01 6.164879999999999249e-01 2.885624999999999929e+01 1.600514999999999759e+02 1.475945000000000164e+03
1.160000000000000059e-01 6.164275000000000171e-01 2.820870000000000033e+01 1.597980000000000018e+02 1.475875000000000000e+03
1.170000000000000068e-01 6.163600000000000190e-01 2.756494999999999962e+01 1.595250000000000057e+02 1.475795000000000073e+03
1.180000000000000077e-01 6.162840000000000540e-01 2.692095000000000127e+01 1.592264999999999873e+02 1.475710000000000036e+03
1.190000000000000085e-01 6.161974999999999536e-01 2.627289999999999992e+01 1.588969999999999914e+02 1.475615000000000009e+03
1.200000000000000094e-01 6.161010000000000097e-01 2.561744999999999806e+01 1.585320000000000107e+02 1.475509999999999991e+03
1.209999999999999964e-01 6.159934999999999716e-01 2.495159999999999911e+01 1.581285000000000025e+02 1.475400000000000091e+03
1.219999999999999973e-01 6.158740000000000325e-01 2.427315000000000111e+01 1.576829999999999927e+02 1.475275000000000091e+03
1.229999999999999982e-01 6.157425000000000814e-01 2.358044999999999902e+01 1.571940000000000168e+02 1.475144999999999982e+03
1.239999999999999991e-01 6.155990000000000073e-01 2.287265000000000015e+01 1.566614999999999895e+02 1.474994999999999891e+03
1.250000000000000000e-01 6.154439999999999911e-01 2.214975000000000094e+01 1.560860000000000127e+02 1.474839999999999918e+03
1.260000000000000009e-01 6.152794999999999792e-01 2.141250000000000142e+01 1.554699999999999989e+02 1.474670000000000073e+03
1.270000000000000018e-01 6.151050000000000129e-01 2.066254999999999953e+01 1.548179999999999836e+02 1.474489999999999782e+03
1.280000000000000027e-01 6.149229999999999974e-01 1.990220000000000056e+01 1.541334999999999980e+02 1.474300000000000182e+03
1.290000000000000036e-01 6.147344999999999615e-01 1.913459999999999894e+01 1.534234999999999900e+02 1.474105000000000018e+03
1.300000000000000044e-01 6.145420000000000327e-01 1.836325000000000074e+01 1.526939999999999884e+02 1.473905000000000200e+03
1.310000000000000053e-01 6.143475000000000463e-01 1.759239999999999782e+01 1.519535000000000196e+02 1.473695000000000164e+03
1.320000000000000062e-01 6.141535000000000188e-01 1.682655000000000101e+01 1.512090000000000032e+02 1.473490000000000009e+03
1.330000000000000071e-01 6.139609999999999790e-01 1.607039999999999935e+01 1.504689999999999941e+02 1.473279999999999973e+03
1.340000000000000080e-01 6.137734999999999719e-01 1.532890000000000086e+01 1.497425000000000068e+02 1.473074999999999818e+03
1.350000000000000089e-01 6.135924999999999851e-01 1.460675999999999952e+01 1.490380000000000109e+02 1.472875000000000000e+03
1.360000000000000098e-01 6.134200000000000763e-01 1.390850000000000009e+01 1.483615000000000066e+02 1.472674999999999955e+03
1.370000000000000107e-01 6.132575000000000109e-01 1.323844000000000065e+01 1.477214999999999918e+02 1.472490000000000009e+03
1.380000000000000115e-01 6.131070000000000686e-01 1.260026999999999830e+01 1.471229999999999905e+02 1.472315000000000055e+03
1.390000000000000124e-01 6.129689999999999861e-01 1.199712000000000067e+01 1.465714999999999861e+02 1.472150000000000091e+03
1.400000000000000133e-01 6.128445000000000142e-01 1.143160500000000113e+01 1.460709999999999980e+02 1.471994999999999891e+03
1.410000000000000142e-01 6.127340000000000009e-01 1.090542999999999907e+01 1.456229999999999905e+02 1.471855000000000018e+03
1.420000000000000151e-01 6.126380000000000159e-01 1.041970500000000044e+01 1.452289999999999850e+02 1.471735000000000127e+03
1.430000000000000160e-01 6.125555000000000305e-01 9.974655000000000271e+00 1.448894999999999982e+02 1.471625000000000000e+03
1.440000000000000169e-01 6.124864999999999338e-01 9.569789999999999353e+00 1.446019999999999754e+02 1.471525000000000091e+03
1.450000000000000178e-01 6.124294999999999600e-01 9.204100000000000392e+00 1.443644999999999925e+02 1.471445000000000164e+03
1.459999999999999909e-01 6.123844999999999983e-01 8.875820000000000931e+00 1.441730000000000018e+02 1.471375000000000000e+03
1.469999999999999918e-01 6.123499999999999499e-01 8.582670000000000243e+00 1.440229999999999961e+02 1.471315000000000055e+03
1.479999999999999927e-01 6.123235000000000205e-01 8.322100000000000719e+00 1.439099999999999966e+02 1.471269999999999982e+03
1.489999999999999936e-01 6.123045000000000293e-01 8.091149999999998954e+00 1.438274999999999864e+02 1.471234999999999900e+03
1.499999999999999944e-01 6.122909999999999187e-01 7.886694999999999567e+00 1.437710000000000150e+02 1.471204999999999927e+03
1.509999999999999953e-01 6.122825000000000628e-01 7.705549999999999677e+00 1.437334999999999923e+02 1.471184999999999945e+03
1.519999999999999962e-01 6.122765000000000013e-01 7.544534999999999769e+00 1.437104999999999961e+02 1.471164999999999964e+03
1.529999999999999971e-01 6.122724999999999973e-01 7.400560000000000471e+00 1.436954999999999814e+02 1.471150000000000091e+03
1.539999999999999980e-01 6.122684999999999933e-01 7.270704999999999529e+00 1.436854999999999905e+02 1.471139999999999873e+03
1.549999999999999989e-01 6.122650000000000592e-01 7.152255000000000251e+00 1.436754999999999995e+02 1.471125000000000000e+03
1.559999999999999998e-01 6.122594999999999565e-01 7.042735000000000412e+00 1.436619999999999777e+02 1.471119999999999891e+03
1.570000000000000007e-01 6.122524999999999773e-01 6.939960000000000129e+00 1.436415000000000077e+02 1.471110000000000127e+03
1.580000000000000016e-01 6.122429999999999817e-01 6.842005000000000337e+00 1.436129999999999995e+02 1.471094999999999800e+03
1.590000000000000024e-01 6.122305000000000108e-01 6.747234999999999872e+00 1.435735000000000241e+02 1.471085000000000036e+03
