# t [s], A [cm^2], U [cm/s], P [cPa], c [cm/s]
1.000000000000000021e-03 1.609855000000000036e-01 3.107604999999999951e-01 8.813374999999999204e+01 1.995144999999999982e+03
2.000000000000000042e-03 1.609530000000000127e-01 1.697686000000000028e+00 8.516594999999999516e+01 1.994809999999999945e+03
3.000000000000000062e-03 1.608525000000000094e-01 3.387506999999999824e+00 8.120035000000000025e+01 1.993840000000000146e+03
4.000000000000000083e-03 1.607104999999999784e-01 5.273629000000000566e+00 7.691450000000000387e+01 1.992490000000000009e+03
5.000000000000000104e-03 1.605540000000000023e-01 7.301599999999999646e+00 7.306080000000000041e+01 1.991005000000000109e+03
6.000000000000000125e-03 1.604005000000000014e-01 9.332525000000000404e+00 6.990434999999999377e+01 1.989559999999999945e+03
7.000000000000000146e-03 1.602540000000000076e-01 1.118637999999999977e+01 6.724540000000000362e+01 1.988210000000000036e+03
8.000000000000000167e-03 1.601174999999999959e-01 1.277780499999999897e+01 6.484895000000000209e+01 1.986974999999999909e+03
9.000000000000001055e-03 1.599944999999999840e-01 1.413011000000000195e+01 6.272074999999999534e+01 1.985869999999999891e+03
1.000000000000000194e-02 1.598875000000000157e-01 1.527635000000000076e+01 6.093420000000000414e+01 1.984920000000000073e+03
1.099999999999999936e-02 1.597965000000000080e-01 1.622755000000000081e+01 5.948029999999999973e+01 1.984125000000000000e+03
1.200000000000000025e-02 1.597215000000000162e-01 1.698995000000000033e+01 5.830284999999999940e+01 1.983470000000000027e+03
1.300000000000000114e-02 1.596589999999999954e-01 1.756625000000000014e+01 5.732489999999999952e+01 1.982940000000000055e+03
1.400000000000000203e-02 1.596064999999999845e-01 1.796055000000000135e+01 5.645430000000000348e+01 1.982500000000000000e+03
1.499999999999999944e-02 1.595610000000000084e-01 1.820860000000000056e+01 5.565730000000000643e+01 1.982125000000000000e+03
1.600000000000000033e-02 1.595239999999999991e-01 1.840050000000000097e+01 5.505205000000000126e+01 1.981825000000000045e+03
1.700000000000000122e-02 1.595015000000000183e-01 1.865964999999999918e+01 5.490080000000000382e+01 1.981639999999999873e+03
1.800000000000000211e-02 1.595000000000000029e-01 1.908735000000000070e+01 5.547574999999999790e+01 1.981639999999999873e+03
1.900000000000000300e-02 1.595245000000000135e-01 1.971195000000000164e+01 5.688894999999999413e+01 1.981855000000000018e+03
2.000000000000000042e-02 1.595735000000000070e-01 2.047270000000000323e+01 5.899689999999999657e+01 1.982289999999999964e+03
2.100000000000000130e-02 1.596405000000000185e-01 2.124414999999999765e+01 6.142924999999999613e+01 1.982884999999999991e+03
2.200000000000000219e-02 1.597139999999999949e-01 2.188340000000000174e+01 6.371245000000000402e+01 1.983539999999999964e+03
2.299999999999999961e-02 1.597810000000000064e-01 2.227799999999999869e+01 6.542475000000000307e+01 1.984150000000000091e+03
2.400000000000000050e-02 1.598310000000000008e-01 2.237704999999999700e+01 6.631839999999999691e+01 1.984619999999999891e+03
2.500000000000000139e-02 1.598605000000000165e-01 2.219749999999999801e+01 6.636995000000000289e+01 1.984900000000000091e+03
2.600000000000000228e-02 1.598680000000000101e-01 2.180745000000000289e+01 6.575220000000000198e+01 1.984994999999999891e+03
2.700000000000000316e-02 1.598585000000000145e-01 2.129619999999999891e+01 6.474699999999999989e+01 1.984929999999999836e+03
2.800000000000000058e-02 1.598390000000000088e-01 2.074285000000000068e+01 6.363965000000000316e+01 1.984764999999999873e+03
2.900000000000000147e-02 1.598149999999999848e-01 2.019514999999999816e+01 6.263190000000000168e+01 1.984559999999999945e+03
3.000000000000000236e-02 1.597905000000000020e-01 1.966295000000000215e+01 6.180010000000000048e+01 1.984349999999999909e+03
3.099999999999999978e-02 1.597675000000000067e-01 1.912574999999999648e+01 6.110210000000000008e+01 1.984144999999999982e+03
3.200000000000000067e-02 1.597449999999999981e-01 1.854979999999999762e+01 6.042300000000000182e+01 1.983945000000000164e+03
3.300000000000000155e-02 1.597195000000000142e-01 1.790690000000000026e+01 5.963779999999999859e+01 1.983715000000000146e+03
3.400000000000000244e-02 1.596889999999999976e-01 1.719059999999999988e+01 5.866995000000000005e+01 1.983454999999999927e+03
3.500000000000000333e-02 1.596535000000000037e-01 1.642370000000000019e+01 5.752915000000000134e+01 1.983144999999999982e+03
3.600000000000000422e-02 1.596144999999999925e-01 1.565690000000000026e+01 5.631900000000000261e+01 1.982800000000000182e+03
3.700000000000000511e-02 1.595745000000000080e-01 1.495800000000000018e+01 5.521330000000000382e+01 1.982450000000000045e+03
3.799999999999999906e-02 1.595400000000000151e-01 1.439600000000000080e+01 5.441035000000000110e+01 1.982144999999999982e+03
3.899999999999999994e-02 1.595165000000000055e-01 1.402384999999999948e+01 5.407949999999999591e+01 1.981924999999999955e+03
4.000000000000000083e-02 1.595074999999999965e-01 1.386615000000000109e+01 5.431490000000000151e+01 1.981835000000000036e+03
4.100000000000000172e-02 1.595159999999999911e-01 1.391284999999999883e+01 5.510925000000000296e+01 1.981900000000000091e+03
4.200000000000000261e-02 1.595405000000000018e-01 1.412124999999999986e+01 5.635294999999999987e+01 1.982095000000000027e+03
4.300000000000000350e-02 1.595769999999999966e-01 1.442445000000000022e+01 5.785505000000000564e+01 1.982409999999999854e+03
4.400000000000000439e-02 1.596210000000000129e-01 1.474314999999999998e+01 5.938004999999999711e+01 1.982789999999999964e+03
4.499999999999999833e-02 1.596650000000000014e-01 1.499830000000000041e+01 6.068880000000000052e+01 1.983174999999999955e+03
4.599999999999999922e-02 1.597029999999999839e-01 1.512219999999999942e+01 6.157614999999999839e+01 1.983509999999999991e+03
4.700000000000000011e-02 1.597274999999999945e-01 1.506559999999999988e+01 6.189674999999999727e+01 1.983740000000000009e+03
4.800000000000000100e-02 1.597359999999999891e-01 1.480085000000000051e+01 6.157755000000000223e+01 1.983819999999999936e+03
4.900000000000000189e-02 1.597254999999999925e-01 1.432130000000000081e+01 6.061580000000000013e+01 1.983735000000000127e+03
5.000000000000000278e-02 1.596950000000000036e-01 1.363795000000000002e+01 5.906739999999999924e+01 1.983474999999999909e+03
5.100000000000000366e-02 1.596460000000000101e-01 1.277459999999999951e+01 5.702814999999999657e+01 1.983050000000000182e+03
5.200000000000000455e-02 1.595805000000000140e-01 1.176286999999999949e+01 5.461514999999999986e+01 1.982474999999999909e+03
5.300000000000000544e-02 1.595020000000000049e-01 1.063842499999999980e+01 5.195024999999999693e+01 1.981789999999999964e+03
5.399999999999999939e-02 1.594140000000000001e-01 9.437960000000000349e+00 4.914900000000000091e+01 1.981009999999999991e+03
5.500000000000000028e-02 1.593200000000000172e-01 8.198225000000000762e+00 4.631565000000000509e+01 1.980180000000000064e+03
5.600000000000000117e-02 1.592230000000000034e-01 6.955420000000000158e+00 4.354250000000000398e+01 1.979325000000000045e+03
5.700000000000000205e-02 1.591265000000000041e-01 5.745944999999999858e+00 4.091279999999999717e+01 1.978470000000000027e+03
5.800000000000000294e-02 1.590329999999999799e-01 4.606499999999999595e+00 3.850450000000000017e+01 1.977640000000000100e+03
5.900000000000000383e-02 1.589464999999999906e-01 3.574257499999999865e+00 3.639324999999999477e+01 1.976864999999999782e+03
6.000000000000000472e-02 1.588684999999999958e-01 2.686327000000000353e+00 3.465404999999999802e+01 1.976175000000000182e+03
6.099999999999999867e-02 1.588034999999999863e-01 1.978608149999999899e+00 3.335965000000000202e+01 1.975590000000000146e+03
6.199999999999999956e-02 1.587530000000000052e-01 1.484170250000000024e+00 3.257829999999999870e+01 1.975130000000000109e+03
6.300000000000000044e-02 1.587195000000000134e-01 1.231362499999999915e+00 3.236869999999999692e+01 1.974825000000000045e+03
6.400000000000000133e-02 1.587054999999999993e-01 1.241970000000000018e+00 3.277550000000000097e+01 1.974684999999999945e+03
6.500000000000000222e-02 1.587135000000000074e-01 1.529625000000000012e+00 3.382474999999999454e+01 1.974730000000000018e+03
6.600000000000000311e-02 1.587425000000000086e-01 2.098845499999999920e+00 3.552100000000000080e+01 1.974970000000000027e+03
6.700000000000000400e-02 1.587950000000000195e-01 2.944605000000000139e+00 3.784590000000000032e+01 1.975409999999999854e+03
6.800000000000000488e-02 1.588690000000000102e-01 4.052654999999999674e+00 4.075879999999999370e+01 1.976050000000000182e+03
6.900000000000000577e-02 1.589635000000000076e-01 5.400425000000000253e+00 4.419929999999999382e+01 1.976869999999999891e+03
7.000000000000000666e-02 1.590774999999999828e-01 6.958394999999999442e+00 4.809109999999999729e+01 1.977865000000000009e+03
7.100000000000000755e-02 1.592080000000000162e-01 8.691929999999999268e+00 5.234700000000000131e+01 1.979009999999999991e+03
7.200000000000000844e-02 1.593525000000000080e-01 1.056299500000000080e+01 5.687400000000000233e+01 1.980279999999999973e+03
7.300000000000000933e-02 1.595084999999999975e-01 1.253243499999999955e+01 6.157894999999999897e+01 1.981655000000000200e+03
7.399999999999999634e-02 1.596719999999999806e-01 1.456174999999999997e+01 6.637360000000001037e+01 1.983105000000000018e+03
7.499999999999999722e-02 1.598410000000000108e-01 1.661489999999999867e+01 7.117879999999999541e+01 1.984599999999999909e+03
7.599999999999999811e-02 1.600119999999999876e-01 1.865970000000000084e+01 7.592824999999999136e+01 1.986130000000000109e+03
7.699999999999999900e-02 1.601825000000000054e-01 2.066915000000000191e+01 8.057095000000001050e+01 1.987659999999999854e+03
7.799999999999999989e-02 1.603519999999999945e-01 2.262229999999999919e+01 8.507235000000000014e+01 1.989180000000000064e+03
7.900000000000000078e-02 1.605174999999999796e-01 2.450410000000000110e+01 8.941460000000000719e+01 1.990675000000000182e+03
8.000000000000000167e-02 1.606795000000000029e-01 2.630595000000000283e+01 9.359524999999999295e+01 1.992139999999999873e+03
8.100000000000000255e-02 1.608370000000000077e-01 2.802454999999999785e+01 9.762459999999998672e+01 1.993565000000000055e+03
8.200000000000000344e-02 1.609900000000000220e-01 2.966134999999999877e+01 1.015233499999999935e+02 1.994954999999999927e+03
8.300000000000000433e-02 1.611394999999999911e-01 3.122135000000000105e+01 1.053182500000000061e+02 1.996315000000000055e+03
8.400000000000000522e-02 1.612859999999999849e-01 3.271200000000000330e+01 1.090404999999999944e+02 1.997644999999999982e+03
8.500000000000000611e-02 1.614300000000000179e-01 3.414170000000000016e+01 1.127175000000000011e+02 1.998960000000000036e+03
8.600000000000000699e-02 1.615719999999999934e-01 3.551885000000000048e+01 1.163760000000000048e+02 2.000265000000000100e+03
8.700000000000000788e-02 1.617135000000000100e-01 3.685070000000000334e+01 1.200335000000000036e+02 2.001554999999999836e+03
8.800000000000000877e-02 1.618545000000000122e-01 3.814280000000000115e+01 1.237019999999999982e+02 2.002849999999999909e+03
8.899999999999999578e-02 1.619964999999999877e-01 3.939804999999999779e+01 1.273834999999999980e+02 2.004139999999999873e+03
8.999999999999999667e-02 1.621374999999999900e-01 4.061695000000000277e+01 1.310715000000000146e+02 2.005434999999999945e+03
9.099999999999999756e-02 1.622784999999999922e-01 4.179715000000000202e+01 1.347515000000000214e+02 2.006730000000000018e+03
9.199999999999999845e-02 1.624194999999999944e-01 4.293375000000000341e+01 1.384019999999999868e+02 2.008019999999999982e+03
9.299999999999999933e-02 1.625584999999999947e-01 4.401950000000000074e+01 1.419945000000000164e+02 2.009299999999999955e+03
9.400000000000000022e-02 1.626954999999999929e-01 4.504560000000000031e+01 1.454979999999999905e+02 2.010559999999999945e+03
9.500000000000000111e-02 1.628295000000000159e-01 4.600164999999999793e+01 1.488799999999999955e+02 2.011795000000000073e+03
9.600000000000000200e-02 1.629589999999999927e-01 4.687680000000000291e+01 1.521045000000000016e+02 2.012990000000000009e+03
9.700000000000000289e-02 1.630830000000000057e-01 4.765994999999999493e+01 1.551385000000000218e+02 2.014139999999999873e+03
9.800000000000000377e-02 1.632004999999999983e-01 4.834049999999999869e+01 1.579515000000000100e+02 2.015224999999999909e+03
9.900000000000000466e-02 1.633100000000000107e-01 4.890885000000000105e+01 1.605160000000000196e+02 2.016244999999999891e+03
1.000000000000000056e-01 1.634110000000000007e-01 4.935679999999999978e+01 1.628095000000000141e+02 2.017184999999999945e+03
1.010000000000000064e-01 1.635030000000000094e-01 4.967815000000000225e+01 1.648160000000000025e+02 2.018039999999999964e+03
1.020000000000000073e-01 1.635845000000000216e-01 4.986899999999999977e+01 1.665240000000000009e+02 2.018799999999999955e+03
1.030000000000000082e-01 1.636549999999999949e-01 4.992810000000000059e+01 1.679300000000000068e+02 2.019469999999999800e+03
1.040000000000000091e-01 1.637160000000000004e-01 4.985679999999999978e+01 1.690370000000000061e+02 2.020034999999999854e+03
1.050000000000000100e-01 1.637655000000000083e-01 4.965925000000000011e+01 1.698549999999999898e+02 2.020509999999999991e+03
1.059999999999999970e-01 1.638045000000000195e-01 4.934239999999999782e+01 1.704000000000000057e+02 2.020880000000000109e+03
1.069999999999999979e-01 1.638339999999999796e-01 4.891554999999999609e+01 1.706935000000000002e+02 2.021164999999999964e+03
1.079999999999999988e-01 1.638539999999999996e-01 4.839010000000000389e+01 1.707624999999999886e+02 2.021360000000000127e+03
1.089999999999999997e-01 1.638649999999999829e-01 4.777920000000000300e+01 1.706370000000000005e+02 2.021474999999999909e+03
1.100000000000000006e-01 1.638689999999999869e-01 4.709720000000000084e+01 1.703495000000000061e+02 2.021525000000000091e+03
1.110000000000000014e-01 1.638669999999999849e-01 4.635899999999999466e+01 1.699335000000000093e+02 2.021509999999999991e+03
1.120000000000000023e-01 1.638594999999999913e-01 4.557954999999999757e+01 1.694205000000000041e+02 2.021444999999999936e+03
1.130000000000000032e-01 1.638469999999999926e-01 4.477329999999999899e+01 1.688425000000000011e+02 2.021345000000000027e+03
1.140000000000000041e-01 1.638319999999999776e-01 4.395374999999999943e+01 1.682264999999999873e+02 2.021204999999999927e+03
1.150000000000000050e-01 1.638149999999999884e-01 4.313275000000000148e+01 1.675969999999999800e+02 2.021049999999999955e+03
1.160000000000000059e-01 1.637959999999999972e-01 4.232059999999999889e+01 1.669724999999999966e+02 2.020880000000000109e+03
1.170000000000000068e-01 1.637764999999999915e-01 4.152539999999999765e+01 1.663679999999999950e+02 2.020704999999999927e+03
1.180000000000000077e-01 1.637575000000000003e-01 4.075314999999999799e+01 1.657930000000000064e+02 2.020525000000000091e+03
1.190000000000000085e-01 1.637379999999999947e-01 4.000750000000000028e+01 1.652500000000000000e+02 2.020345000000000027e+03
1.200000000000000094e-01 1.637200000000000044e-01 3.928995000000000459e+01 1.647404999999999973e+02 2.020174999999999955e+03
1.209999999999999964e-01 1.637014999999999998e-01 3.859989999999999810e+01 1.642565000000000168e+02 2.020005000000000109e+03
1.219999999999999973e-01 1.636839999999999962e-01 3.793489999999999895e+01 1.637909999999999968e+02 2.019844999999999800e+03
1.229999999999999982e-01 1.636670000000000069e-01 3.729084999999999894e+01 1.633310000000000173e+02 2.019680000000000064e+03
1.239999999999999991e-01 1.636495000000000033e-01 3.666239999999999810e+01 1.628614999999999782e+02 2.019514999999999873e+03
1.250000000000000000e-01 1.636314999999999853e-01 3.604344999999999999e+01 1.623679999999999950e+02 2.019349999999999909e+03
1.260000000000000009e-01 1.636124999999999940e-01 3.542725000000000080e+01 1.618335000000000150e+02 2.019174999999999955e+03
1.270000000000000018e-01 1.635920000000000152e-01 3.480695000000000050e+01 1.612425000000000068e+02 2.018980000000000018e+03
1.280000000000000027e-01 1.635699999999999932e-01 3.417600000000000193e+01 1.605810000000000173e+02 2.018779999999999973e+03
1.290000000000000036e-01 1.635455000000000103e-01 3.352855000000000274e+01 1.598369999999999891e+02 2.018549999999999955e+03
1.300000000000000044e-01 1.635175000000000101e-01 3.285965000000000202e+01 1.590004999999999882e+02 2.018295000000000073e+03
1.310000000000000053e-01 1.634869999999999934e-01 3.216555000000000319e+01 1.580664999999999907e+02 2.018009999999999991e+03
1.320000000000000062e-01 1.634530000000000149e-01 3.144409999999999883e+01 1.570314999999999941e+02 2.017700000000000045e+03
1.330000000000000071e-01 1.634154999999999913e-01 3.069449999999999790e+01 1.558974999999999795e+02 2.017349999999999909e+03
1.340000000000000080e-01 1.633744999999999781e-01 2.991795000000000115e+01 1.546709999999999923e+02 2.016974999999999909e+03
1.350000000000000089e-01 1.633304999999999896e-01 2.911699999999999733e+01 1.533609999999999900e+02 2.016570000000000164e+03
1.360000000000000098e-01 1.632830000000000115e-01 2.829594999999999771e+01 1.519800000000000182e+02 2.016134999999999991e+03
1.370000000000000107e-01 1.632330000000000170e-01 2.746059999999999945e+01 1.505445000000000277e+02 2.015679999999999836e+03
1.380000000000000115e-01 1.631814999999999793e-01 2.661775000000000091e+01 1.490745000000000005e+02 2.015204999999999927e+03
1.390000000000000124e-01 1.631289999999999962e-01 2.577524999999999977e+01 1.475885000000000105e+02 2.014724999999999909e+03
1.400000000000000133e-01 1.630745000000000111e-01 2.494149999999999778e+01 1.461084999999999923e+02 2.014224999999999909e+03
1.410000000000000142e-01 1.630205000000000126e-01 2.412515000000000143e+01 1.446564999999999941e+02 2.013730000000000018e+03
1.420000000000000151e-01 1.629674999999999874e-01 2.333469999999999800e+01 1.432529999999999859e+02 2.013240000000000009e+03
1.430000000000000160e-01 1.629154999999999909e-01 2.257829999999999870e+01 1.419165000000000134e+02 2.012765000000000100e+03
1.440000000000000169e-01 1.628660000000000108e-01 2.186309999999999931e+01 1.406639999999999873e+02 2.012305000000000064e+03
1.450000000000000178e-01 1.628185000000000049e-01 2.119545000000000101e+01 1.395084999999999980e+02 2.011865000000000009e+03
1.459999999999999909e-01 1.627744999999999886e-01 2.058024999999999949e+01 1.384619999999999891e+02 2.011460000000000036e+03
1.469999999999999918e-01 1.627345000000000041e-01 2.002114999999999867e+01 1.375300000000000011e+02 2.011085000000000036e+03
1.479999999999999927e-01 1.626974999999999949e-01 1.952015000000000100e+01 1.367160000000000082e+02 2.010744999999999891e+03
1.489999999999999936e-01 1.626644999999999897e-01 1.907789999999999964e+01 1.360210000000000150e+02 2.010440000000000055e+03
1.499999999999999944e-01 1.626365000000000172e-01 1.869355000000000189e+01 1.354399999999999977e+02 2.010175000000000182e+03
1.509999999999999953e-01 1.626115000000000199e-01 1.836495000000000033e+01 1.349679999999999893e+02 2.009945000000000164e+03
1.519999999999999962e-01 1.625909999999999855e-01 1.808874999999999744e+01 1.345949999999999989e+02 2.009750000000000000e+03
1.529999999999999971e-01 1.625734999999999819e-01 1.786064999999999969e+01 1.343104999999999905e+02 2.009585000000000036e+03
1.539999999999999980e-01 1.625595000000000234e-01 1.767564999999999742e+01 1.341030000000000086e+02 2.009454999999999927e+03
1.549999999999999989e-01 1.625484999999999847e-01 1.752815000000000012e+01 1.339594999999999914e+02 2.009345000000000027e+03
1.559999999999999998e-01 1.625400000000000178e-01 1.741234999999999999e+01 1.338675000000000068e+02 2.009260000000000218e+03
1.570000000000000007e-01 1.625334999999999974e-01 1.732229999999999848e+01 1.338139999999999930e+02 2.009200000000000045e+03
1.580000000000000016e-01 1.625284999999999924e-01 1.725220000000000198e+01 1.337864999999999895e+02 2.009150000000000091e+03
1.590000000000000024e-01 1.625254999999999894e-01 1.719644999999999868e+01 1.337749999999999773e+02 2.009110000000000127e+03
