# t [s], A [cm^2], U [cm/s], P [cPa], c [cm/s]
1.000000000000000021e-03 4.937574999999999603e-01 3.281349999999995382e-03 1.068619999999999948e+02 1.440835000000000036e+03
2.000000000000000042e-03 4.937515000000000098e-01 8.633420500000000327e-04 1.068479999999999990e+02 1.440824999999999818e+03
3.000000000000000062e-03 4.937770000000000215e-01 4.999315000000000009e-02 1.068925000000000125e+02 1.440845000000000027e+03
4.000000000000000083e-03 4.938204999999999956e-01 1.302361999999999964e-01 1.069890000000000043e+02 1.440875000000000000e+03
5.000000000000000104e-03 4.938305000000000056e-01 1.506113000000000035e-01 1.070199999999999960e+02 1.440889999999999873e+03
6.000000000000000125e-03 4.938055000000000083e-01 1.032861500000000071e-01 1.069445000000000050e+02 1.440875000000000000e+03
7.000000000000000146e-03 4.937725000000000586e-01 3.864899999999998892e-02 1.068010000000000019e+02 1.440840000000000146e+03
8.000000000000000167e-03 4.937394999999999978e-01 -3.094150000000001066e-02 1.066099999999999994e+02 1.440795000000000073e+03
9.000000000000001055e-03 4.936840000000000117e-01 -1.484694999999999765e-01 1.063264999999999958e+02 1.440724999999999909e+03
1.000000000000000194e-02 4.935939999999999772e-01 -3.427400000000000446e-01 1.059039999999999964e+02 1.440619999999999891e+03
1.099999999999999936e-02 4.934634999999999438e-01 -6.206699999999999440e-01 1.053100000000000023e+02 1.440469999999999800e+03
1.200000000000000025e-02 4.932845000000000146e-01 -9.910950000000000593e-01 1.045099999999999909e+02 1.440264999999999873e+03
1.300000000000000114e-02 4.930495000000000294e-01 -1.456160000000000121e+00 1.034735000000000014e+02 1.439985000000000127e+03
1.400000000000000203e-02 4.927664999999999962e-01 -1.986915000000000209e+00 1.022057499999999948e+02 1.439640000000000100e+03
1.499999999999999944e-02 4.924570000000000336e-01 -2.518339999999999801e+00 1.007641500000000008e+02 1.439230000000000018e+03
1.600000000000000033e-02 4.921505000000000463e-01 -2.969664999999999999e+00 9.924080000000000723e+01 1.438785000000000082e+03
1.700000000000000122e-02 4.918704999999999883e-01 -3.272435000000000205e+00 9.773279999999999745e+01 1.438335000000000036e+03
1.800000000000000211e-02 4.916270000000000362e-01 -3.389188499999999937e+00 9.631129999999998859e+01 1.437880000000000109e+03
1.900000000000000300e-02 4.914169999999999927e-01 -3.317514500000000144e+00 9.500974999999999682e+01 1.437454999999999927e+03
2.000000000000000042e-02 4.912285000000000124e-01 -3.082904000000000089e+00 9.382189999999999941e+01 1.437034999999999854e+03
2.100000000000000130e-02 4.910435000000000216e-01 -2.726112500000000161e+00 9.271274999999999977e+01 1.436634999999999991e+03
2.200000000000000219e-02 4.908479999999999510e-01 -2.289814999999999934e+00 9.163439999999999941e+01 1.436240000000000009e+03
2.299999999999999961e-02 4.906314999999999982e-01 -1.807809999999999917e+00 9.054110000000000014e+01 1.435835000000000036e+03
2.400000000000000050e-02 4.903905000000000070e-01 -1.298964999999999925e+00 8.940174999999999272e+01 1.435420000000000073e+03
2.500000000000000139e-02 4.901284999999999670e-01 -7.668550000000002864e-01 8.820539999999999736e+01 1.434985000000000127e+03
2.600000000000000228e-02 4.898514999999999953e-01 -2.044950000000000934e-01 8.695985000000000298e+01 1.434539999999999964e+03
2.700000000000000316e-02 4.895690000000000319e-01 3.979099999999999859e-01 8.568385000000000673e+01 1.434085000000000036e+03
2.800000000000000058e-02 4.892859999999999987e-01 1.045189999999999841e+00 8.439785000000000537e+01 1.433625000000000000e+03
2.900000000000000147e-02 4.890035000000000354e-01 1.731764999999999999e+00 8.311465000000001169e+01 1.433164999999999964e+03
3.000000000000000236e-02 4.887190000000000145e-01 2.439700000000000202e+00 8.183369999999999322e+01 1.432700000000000045e+03
3.099999999999999978e-02 4.884255000000000124e-01 3.140320000000000000e+00 8.053974999999999795e+01 1.432230000000000018e+03
3.200000000000000067e-02 4.881145000000000067e-01 3.798555000000000348e+00 7.920564999999999145e+01 1.431750000000000000e+03
3.300000000000000155e-02 4.877754999999999730e-01 4.378795000000000215e+00 7.779810000000000514e+01 1.431255000000000109e+03
3.400000000000000244e-02 4.874025000000000163e-01 4.851085000000000313e+00 7.628584999999999638e+01 1.430730000000000018e+03
3.500000000000000333e-02 4.869930000000000092e-01 5.196385000000000254e+00 7.464709999999999468e+01 1.430170000000000073e+03
3.600000000000000422e-02 4.865484999999999394e-01 5.409669999999999312e+00 7.287624999999999886e+01 1.429585000000000036e+03
3.700000000000000511e-02 4.860769999999999813e-01 5.500835000000000363e+00 7.098725000000000307e+01 1.428965000000000146e+03
3.799999999999999906e-02 4.855900000000000216e-01 5.492740000000000400e+00 6.901370000000000005e+01 1.428325000000000045e+03
3.899999999999999994e-02 4.851024999999999920e-01 5.417320000000000135e+00 6.700579999999999359e+01 1.427670000000000073e+03
4.000000000000000083e-02 4.846295000000000464e-01 5.311160000000000103e+00 6.502469999999999573e+01 1.427025000000000091e+03
4.100000000000000172e-02 4.841870000000000340e-01 5.210694999999999411e+00 6.313604999999999734e+01 1.426400000000000091e+03
4.200000000000000261e-02 4.837890000000000246e-01 5.148735000000000284e+00 6.140384999999999849e+01 1.425809999999999945e+03
4.300000000000000350e-02 4.834445000000000547e-01 5.152199999999999669e+00 5.988535000000000252e+01 1.425284999999999854e+03
4.400000000000000439e-02 4.831630000000000091e-01 5.241494000000000320e+00 5.862789999999999679e+01 1.424829999999999927e+03
4.499999999999999833e-02 4.829494999999999760e-01 5.430636500000000311e+00 5.766724999999999568e+01 1.424465000000000146e+03
4.599999999999999922e-02 4.828069999999999862e-01 5.728780000000000427e+00 5.702810000000000201e+01 1.424190000000000055e+03
4.700000000000000011e-02 4.827380000000000004e-01 6.141434999999999533e+00 5.672485000000000355e+01 1.424019999999999982e+03
4.800000000000000100e-02 4.827424999999999633e-01 6.672204999999999941e+00 5.676404999999999745e+01 1.423954999999999927e+03
4.900000000000000189e-02 4.828199999999999714e-01 7.323780000000000179e+00 5.714625000000000199e+01 1.423994999999999891e+03
5.000000000000000278e-02 4.829704999999999693e-01 8.098510000000000986e+00 5.786769999999999925e+01 1.424150000000000091e+03
5.100000000000000366e-02 4.831919999999999549e-01 8.998370000000001312e+00 5.892175000000000296e+01 1.424404999999999973e+03
5.200000000000000455e-02 4.834844999999999837e-01 1.002446499999999929e+01 6.029919999999999902e+01 1.424769999999999982e+03
5.300000000000000544e-02 4.838449999999999696e-01 1.117616999999999905e+01 6.198814999999999742e+01 1.425240000000000009e+03
5.399999999999999939e-02 4.842710000000000070e-01 1.245048000000000066e+01 6.397379999999999711e+01 1.425805000000000064e+03
5.500000000000000028e-02 4.847569999999999935e-01 1.384112000000000009e+01 6.623775000000000546e+01 1.426465000000000146e+03
5.600000000000000117e-02 4.852994999999999948e-01 1.533846000000000132e+01 6.875750000000000739e+01 1.427210000000000036e+03
5.700000000000000205e-02 4.858905000000000030e-01 1.692962999999999951e+01 7.150679999999999836e+01 1.428039999999999964e+03
5.800000000000000294e-02 4.865245000000000264e-01 1.859874999999999901e+01 7.445565000000000566e+01 1.428940000000000055e+03
5.900000000000000383e-02 4.871929999999999872e-01 2.032789999999999964e+01 7.757139999999999702e+01 1.429904999999999973e+03
6.000000000000000472e-02 4.878885000000000027e-01 2.209810000000000230e+01 8.081980000000000075e+01 1.430920000000000073e+03
6.099999999999999867e-02 4.886035000000000239e-01 2.389010000000000034e+01 8.416639999999999588e+01 1.431974999999999909e+03
6.199999999999999956e-02 4.893310000000000159e-01 2.568560000000000088e+01 8.757775000000000887e+01 1.433070000000000164e+03
6.300000000000000044e-02 4.900645000000000140e-01 2.746760000000000090e+01 9.102379999999999427e+01 1.434174999999999955e+03
6.400000000000000133e-02 4.907989999999999853e-01 2.922159999999999869e+01 9.447669999999999391e+01 1.435304999999999836e+03
6.500000000000000222e-02 4.915304999999999813e-01 3.093530000000000157e+01 9.791429999999999723e+01 1.436440000000000055e+03
6.600000000000000311e-02 4.922549999999999981e-01 3.259919999999999618e+01 1.013190500000000043e+02 1.437570000000000164e+03
6.700000000000000400e-02 4.929715000000000069e-01 3.420629999999999882e+01 1.046778000000000048e+02 1.438694999999999936e+03
6.800000000000000488e-02 4.936785000000000201e-01 3.575175000000000125e+01 1.079821000000000026e+02 1.439809999999999945e+03
6.900000000000000577e-02 4.943744999999999390e-01 3.723290000000000077e+01 1.112288000000000068e+02 1.440914999999999964e+03
7.000000000000000666e-02 4.950614999999999877e-01 3.864839999999999520e+01 1.144164999999999992e+02 1.442010000000000218e+03
7.100000000000000755e-02 4.957389999999999852e-01 3.999819999999999709e+01 1.175484999999999900e+02 1.443085000000000036e+03
7.200000000000000844e-02 4.964079999999999604e-01 4.128294999999999959e+01 1.206270000000000095e+02 1.444150000000000091e+03
7.300000000000000933e-02 4.970694999999999419e-01 4.250359999999999872e+01 1.236574999999999989e+02 1.445199999999999818e+03
7.399999999999999634e-02 4.977239999999999998e-01 4.366115000000000634e+01 1.266439999999999912e+02 1.446244999999999891e+03
7.499999999999999722e-02 4.983720000000000372e-01 4.475629999999999598e+01 1.295904999999999916e+02 1.447269999999999982e+03
7.599999999999999811e-02 4.990140000000000131e-01 4.578934999999999889e+01 1.324995000000000118e+02 1.448289999999999964e+03
7.699999999999999900e-02 4.996494999999999687e-01 4.675979999999999848e+01 1.353710000000000093e+02 1.449295000000000073e+03
7.799999999999999989e-02 5.002780000000000005e-01 4.766665000000000418e+01 1.382034999999999911e+02 1.450295000000000073e+03
7.900000000000000078e-02 5.008969999999999256e-01 4.850795000000000101e+01 1.409925000000000068e+02 1.451275000000000091e+03
8.000000000000000167e-02 5.015060000000000073e-01 4.928119999999999834e+01 1.437319999999999993e+02 1.452244999999999891e+03
8.100000000000000255e-02 5.021025000000000071e-01 4.998329999999999984e+01 1.464134999999999991e+02 1.453194999999999936e+03
8.200000000000000344e-02 5.026839999999999087e-01 5.061100000000000421e+01 1.490264999999999986e+02 1.454119999999999891e+03
8.300000000000000433e-02 5.032484999999999875e-01 5.116055000000000064e+01 1.515614999999999952e+02 1.455029999999999973e+03
8.400000000000000522e-02 5.037924999999999764e-01 5.162850000000000250e+01 1.540040000000000191e+02 1.455910000000000082e+03
8.500000000000000611e-02 5.043139999999999290e-01 5.201174999999999926e+01 1.563439999999999941e+02 1.456759999999999991e+03
8.600000000000000699e-02 5.048105000000000508e-01 5.230734999999999957e+01 1.585695000000000050e+02 1.457569999999999936e+03
8.700000000000000788e-02 5.052799999999999514e-01 5.251340000000000430e+01 1.606700000000000159e+02 1.458340000000000146e+03
8.800000000000000877e-02 5.057205000000000172e-01 5.262845000000000084e+01 1.626354999999999791e+02 1.459070000000000164e+03
8.899999999999999578e-02 5.061299999999999688e-01 5.265214999999999890e+01 1.644594999999999914e+02 1.459755000000000109e+03
8.999999999999999667e-02 5.065079999999999583e-01 5.258495000000000630e+01 1.661349999999999909e+02 1.460389999999999873e+03
9.099999999999999756e-02 5.068534999999999568e-01 5.242835000000000178e+01 1.676589999999999918e+02 1.460980000000000018e+03
9.199999999999999845e-02 5.071660000000000057e-01 5.218475000000000108e+01 1.690305000000000177e+02 1.461514999999999873e+03
9.299999999999999933e-02 5.074469999999999814e-01 5.185759999999999792e+01 1.702495000000000118e+02 1.462000000000000000e+03
9.400000000000000022e-02 5.076954999999999663e-01 5.145105000000000217e+01 1.713185000000000002e+02 1.462434999999999945e+03
9.500000000000000111e-02 5.079130000000000589e-01 5.097025000000000006e+01 1.722435000000000116e+02 1.462819999999999936e+03
9.600000000000000200e-02 5.081014999999999837e-01 5.042105000000000103e+01 1.730289999999999964e+02 1.463150000000000091e+03
9.700000000000000289e-02 5.082619999999999916e-01 4.980995000000000061e+01 1.736829999999999927e+02 1.463440000000000055e+03
9.800000000000000377e-02 5.083969999999999878e-01 4.914395000000000380e+01 1.742164999999999964e+02 1.463684999999999945e+03
9.900000000000000466e-02 5.085079999999999600e-01 4.843049999999999500e+01 1.746380000000000052e+02 1.463889999999999873e+03
1.000000000000000056e-01 5.085979999999999945e-01 4.767750000000000199e+01 1.749594999999999914e+02 1.464055000000000064e+03
1.010000000000000064e-01 5.086690000000000378e-01 4.689265000000000327e+01 1.751920000000000073e+02 1.464190000000000055e+03
1.020000000000000073e-01 5.087230000000000363e-01 4.608379999999999654e+01 1.753485000000000014e+02 1.464289999999999964e+03
1.030000000000000082e-01 5.087635000000000352e-01 4.525865000000000293e+01 1.754389999999999930e+02 1.464365000000000009e+03
1.040000000000000091e-01 5.087920000000000220e-01 4.442419999999999902e+01 1.754759999999999991e+02 1.464414999999999964e+03
1.050000000000000100e-01 5.088110000000000133e-01 4.358715000000000117e+01 1.754699999999999989e+02 1.464445000000000164e+03
1.059999999999999970e-01 5.088224999999999554e-01 4.275329999999999586e+01 1.754295000000000186e+02 1.464460000000000036e+03
1.069999999999999979e-01 5.088274999999999881e-01 4.192759999999999820e+01 1.753640000000000043e+02 1.464465000000000146e+03
1.079999999999999988e-01 5.088280000000000580e-01 4.111400000000000432e+01 1.752800000000000011e+02 1.464460000000000036e+03
1.089999999999999997e-01 5.088245000000000129e-01 4.031535000000000224e+01 1.751820000000000164e+02 1.464444999999999936e+03
1.100000000000000006e-01 5.088179999999999925e-01 3.953350000000000364e+01 1.750740000000000123e+02 1.464420000000000073e+03
1.110000000000000014e-01 5.088084999999999969e-01 3.876909999999999457e+01 1.749585000000000150e+02 1.464389999999999873e+03
1.120000000000000023e-01 5.087960000000000260e-01 3.802179999999999893e+01 1.748344999999999914e+02 1.464355000000000018e+03
1.130000000000000032e-01 5.087789999999999813e-01 3.729050000000000153e+01 1.746999999999999886e+02 1.464315000000000055e+03
1.140000000000000041e-01 5.087589999999999613e-01 3.657314999999999827e+01 1.745545000000000186e+02 1.464269999999999982e+03
1.150000000000000050e-01 5.087334999999999496e-01 3.586704999999999899e+01 1.743924999999999841e+02 1.464220000000000027e+03
1.160000000000000059e-01 5.087015000000000287e-01 3.516929999999999978e+01 1.742104999999999961e+02 1.464159999999999854e+03
1.170000000000000068e-01 5.086629999999999763e-01 3.447634999999999650e+01 1.740029999999999859e+02 1.464090000000000146e+03
1.180000000000000077e-01 5.086165000000000269e-01 3.378504999999999825e+01 1.737649999999999864e+02 1.464014999999999873e+03
1.190000000000000085e-01 5.085610000000000408e-01 3.309194999999999709e+01 1.734915000000000020e+02 1.463924999999999955e+03
1.200000000000000094e-01 5.084954999999999892e-01 3.239400000000000546e+01 1.731795000000000186e+02 1.463825000000000045e+03
1.209999999999999964e-01 5.084189999999999543e-01 3.168844999999999601e+01 1.728229999999999791e+02 1.463710000000000036e+03
1.219999999999999973e-01 5.083325000000000760e-01 3.097325000000000017e+01 1.724200000000000159e+02 1.463579999999999927e+03
1.229999999999999982e-01 5.082339999999999636e-01 3.024674999999999869e+01 1.719694999999999823e+02 1.463429999999999836e+03
1.239999999999999991e-01 5.081255000000000077e-01 2.950800000000000267e+01 1.714705000000000155e+02 1.463275000000000091e+03
1.250000000000000000e-01 5.080054999999999987e-01 2.875679999999999836e+01 1.709234999999999900e+02 1.463095000000000027e+03
1.260000000000000009e-01 5.078750000000000764e-01 2.799365000000000236e+01 1.703310000000000173e+02 1.462905000000000200e+03
1.270000000000000018e-01 5.077359999999999651e-01 2.721974999999999767e+01 1.696954999999999814e+02 1.462700000000000045e+03
1.280000000000000027e-01 5.075884999999999980e-01 2.643694999999999595e+01 1.690210000000000150e+02 1.462480000000000018e+03
1.290000000000000036e-01 5.074339999999999407e-01 2.564789999999999992e+01 1.683139999999999930e+02 1.462250000000000000e+03
1.300000000000000044e-01 5.072734999999999328e-01 2.485559999999999903e+01 1.675799999999999841e+02 1.462005000000000109e+03
1.310000000000000053e-01 5.071099999999999497e-01 2.406354999999999933e+01 1.668259999999999934e+02 1.461760000000000218e+03
1.320000000000000062e-01 5.069434999999999913e-01 2.327574999999999861e+01 1.660600000000000023e+02 1.461505000000000109e+03
1.330000000000000071e-01 5.067770000000000330e-01 2.249640000000000128e+01 1.652889999999999873e+02 1.461250000000000000e+03
1.340000000000000080e-01 5.066114999999999924e-01 2.172974999999999923e+01 1.645215000000000032e+02 1.460990000000000009e+03
1.350000000000000089e-01 5.064484999999999681e-01 2.098019999999999996e+01 1.637655000000000030e+02 1.460730000000000018e+03
1.360000000000000098e-01 5.062910000000000466e-01 2.025195000000000078e+01 1.630285000000000082e+02 1.460480000000000018e+03
1.370000000000000107e-01 5.061390000000000056e-01 1.954885000000000161e+01 1.623165000000000191e+02 1.460235000000000127e+03
1.380000000000000115e-01 5.059939999999999438e-01 1.887464999999999904e+01 1.616365000000000123e+02 1.460000000000000000e+03
1.390000000000000124e-01 5.058579999999999188e-01 1.823254999999999981e+01 1.609945000000000164e+02 1.459769999999999982e+03
1.400000000000000133e-01 5.057300000000000129e-01 1.762514999999999787e+01 1.603940000000000055e+02 1.459554999999999836e+03
1.410000000000000142e-01 5.056129999999999791e-01 1.705445000000000277e+01 1.598385000000000105e+02 1.459355000000000018e+03
1.420000000000000151e-01 5.055064999999999698e-01 1.652195000000000036e+01 1.593310000000000173e+02 1.459170000000000073e+03
1.430000000000000160e-01 5.054094999999999560e-01 1.602844999999999942e+01 1.588704999999999927e+02 1.458994999999999891e+03
1.440000000000000169e-01 5.053225000000000078e-01 1.557399999999999984e+01 1.584590000000000032e+02 1.458835000000000036e+03
1.450000000000000178e-01 5.052465000000000428e-01 1.515830000000000055e+01 1.580944999999999823e+02 1.458694999999999936e+03
1.459999999999999909e-01 5.051790000000000447e-01 1.478014999999999901e+01 1.577744999999999891e+02 1.458569999999999936e+03
1.469999999999999918e-01 5.051204999999999723e-01 1.443815000000000026e+01 1.574960000000000093e+02 1.458454999999999927e+03
1.479999999999999927e-01 5.050700000000000189e-01 1.413030000000000008e+01 1.572565000000000168e+02 1.458355000000000018e+03
1.489999999999999936e-01 5.050255000000000161e-01 1.385440000000000005e+01 1.570509999999999877e+02 1.458264999999999873e+03
1.499999999999999944e-01 5.049875000000000336e-01 1.360800000000000054e+01 1.568754999999999882e+02 1.458190000000000055e+03
1.509999999999999953e-01 5.049550000000000427e-01 1.338850000000000051e+01 1.567250000000000227e+02 1.458119999999999891e+03
1.519999999999999962e-01 5.049259999999999859e-01 1.319320000000000093e+01 1.565949999999999989e+02 1.458059999999999945e+03
1.529999999999999971e-01 5.049004999999999743e-01 1.301950000000000074e+01 1.564819999999999993e+02 1.458005000000000109e+03
1.539999999999999980e-01 5.048774999999999791e-01 1.286495000000000033e+01 1.563815000000000168e+02 1.457960000000000036e+03
1.549999999999999989e-01 5.048555000000000126e-01 1.272719999999999985e+01 1.562905000000000086e+02 1.457920000000000073e+03
1.559999999999999998e-01 5.048359999999999514e-01 1.260389999999999944e+01 1.562055000000000007e+02 1.457875000000000000e+03
1.570000000000000007e-01 5.048159999999999314e-01 1.249324999999999974e+01 1.561245000000000118e+02 1.457835000000000036e+03
1.580000000000000016e-01 5.047969999999999402e-01 1.239344999999999963e+01 1.560459999999999923e+02 1.457805000000000064e+03
1.590000000000000024e-01 5.047774999999999901e-01 1.230294999999999916e+01 1.559669999999999845e+02 1.457764999999999873e+03
