# t [s], A [cm^2], U [cm/s], P [cPa], c [cm/s]
1.000000000000000021e-03 7.244220000000000104e-01 4.722549999999998971e-03 9.551890000000000214e+01 1.630565000000000055e+03
2.000000000000000042e-03 7.244114999999999860e-01 -4.649800000000002542e-04 9.549134999999999707e+01 1.630554999999999836e+03
3.000000000000000062e-03 7.244779999999999553e-01 1.062995999999999941e-01 9.560550000000000637e+01 1.630585000000000036e+03
4.000000000000000083e-03 7.245300000000000074e-01 2.003456500000000140e-01 9.572104999999999109e+01 1.630615000000000009e+03
5.000000000000000104e-03 7.244905000000000372e-01 1.618835000000000135e-01 9.563899999999999579e+01 1.630599999999999909e+03
6.000000000000000125e-03 7.244114999999999860e-01 5.624750000000000583e-02 9.539490000000000691e+01 1.630545000000000073e+03
7.000000000000000146e-03 7.243390000000000661e-01 -4.856449999999995493e-02 9.508330000000000837e+01 1.630474999999999909e+03
8.000000000000000167e-03 7.242195000000000160e-01 -2.410050000000000248e-01 9.461064999999999259e+01 1.630365000000000009e+03
9.000000000000001055e-03 7.240245000000000708e-01 -5.696150000000000935e-01 9.388684999999999548e+01 1.630199999999999818e+03
1.000000000000000194e-02 7.237500000000000044e-01 -1.035140000000000171e+00 9.286875000000000568e+01 1.629970000000000027e+03
1.099999999999999936e-02 7.233735000000000026e-01 -1.660775000000000112e+00 9.148584999999999923e+01 1.629650000000000091e+03
1.200000000000000025e-02 7.228864999999999874e-01 -2.440514999999999990e+00 8.969679999999999609e+01 1.629230000000000018e+03
1.300000000000000114e-02 7.223360000000000891e-01 -3.273249999999999993e+00 8.759084999999998900e+01 1.628720000000000027e+03
1.400000000000000203e-02 7.218080000000000052e-01 -3.989135000000000097e+00 8.538575000000000159e+01 1.628170000000000073e+03
1.499999999999999944e-02 7.213745000000000296e-01 -4.436281000000000141e+00 8.332480000000001041e+01 1.627630000000000109e+03
1.600000000000000033e-02 7.210600000000000342e-01 -4.545881999999999756e+00 8.156944999999998913e+01 1.627140000000000100e+03
1.700000000000000122e-02 7.208394999999999664e-01 -4.343130000000000379e+00 8.015205000000000268e+01 1.626715000000000146e+03
1.800000000000000211e-02 7.206595000000000084e-01 -3.918549999999999756e+00 7.898984999999998990e+01 1.626345000000000027e+03
1.900000000000000300e-02 7.204634999999999234e-01 -3.383855000000000057e+00 7.793585000000000207e+01 1.626000000000000000e+03
2.000000000000000042e-02 7.202089999999999881e-01 -2.830414499999999833e+00 7.684184999999999377e+01 1.625644999999999982e+03
2.100000000000000130e-02 7.198854999999999560e-01 -2.302567999999999948e+00 7.561129999999999995e+01 1.625264999999999873e+03
2.200000000000000219e-02 7.195074999999999665e-01 -1.793789999999999996e+00 7.422399999999998954e+01 1.624855000000000018e+03
2.299999999999999961e-02 7.191049999999999942e-01 -1.265185000000000004e+00 7.272599999999999909e+01 1.624420000000000073e+03
2.400000000000000050e-02 7.187090000000000423e-01 -6.754699999999997928e-01 7.119319999999999027e+01 1.623969999999999800e+03
2.500000000000000139e-02 7.183344999999999869e-01 -8.140000000000036096e-03 6.968850000000000477e+01 1.623525000000000091e+03
2.600000000000000228e-02 7.179759999999999476e-01 7.142299999999999205e-01 6.822990000000000066e+01 1.623085000000000036e+03
2.700000000000000316e-02 7.176104999999999290e-01 1.430700000000000083e+00 6.677805000000000746e+01 1.622650000000000091e+03
2.800000000000000058e-02 7.172005000000000186e-01 2.055039999999999978e+00 6.524360000000000070e+01 1.622195000000000164e+03
2.900000000000000147e-02 7.167094999999999994e-01 2.496084999999999887e+00 6.351100000000000279e+01 1.621700000000000045e+03
3.000000000000000236e-02 7.161104999999999832e-01 2.680120000000000058e+00 6.147070000000000078e+01 1.621130000000000109e+03
3.099999999999999978e-02 7.153935000000000155e-01 2.569610000000000394e+00 5.905254999999999654e+01 1.620485000000000127e+03
3.200000000000000067e-02 7.145715000000000261e-01 2.172919999999999963e+00 5.624980000000000047e+01 1.619750000000000000e+03
3.300000000000000155e-02 7.136774999999999647e-01 1.542454999999999909e+00 5.312754999999999939e+01 1.618940000000000055e+03
3.400000000000000244e-02 7.127574999999999328e-01 7.622050000000006875e-01 4.981315000000000026e+01 1.618075000000000045e+03
3.500000000000000333e-02 7.118625000000000647e-01 -7.018500000000038597e-02 4.647375000000000256e+01 1.617190000000000055e+03
3.600000000000000422e-02 7.110400000000000054e-01 -8.607599999999999696e-01 4.328849999999999909e+01 1.616340000000000146e+03
3.700000000000000511e-02 7.103269999999999307e-01 -1.532059999999999977e+00 4.042289999999999850e+01 1.615549999999999955e+03
3.799999999999999906e-02 7.097499999999999920e-01 -2.029365000000000308e+00 3.801069999999999993e+01 1.614860000000000127e+03
3.899999999999999994e-02 7.093205000000000204e-01 -2.321279999999999788e+00 3.614415000000000333e+01 1.614295000000000073e+03
4.000000000000000083e-02 7.090435000000000487e-01 -2.395801000000000069e+00 3.487290000000000134e+01 1.613875000000000000e+03
4.100000000000000172e-02 7.089145000000000030e-01 -2.254039000000000126e+00 3.421004999999999541e+01 1.613615000000000009e+03
4.200000000000000261e-02 7.089259999999999451e-01 -1.903585000000000083e+00 3.414114999999999611e+01 1.613505000000000109e+03
4.300000000000000350e-02 7.090699999999999781e-01 -1.353157500000000013e+00 3.463554999999999495e+01 1.613549999999999955e+03
4.400000000000000439e-02 7.093380000000000241e-01 -6.096250000000000835e-01 3.565520000000000067e+01 1.613735000000000127e+03
4.499999999999999833e-02 7.097229999999999928e-01 3.221750000000001002e-01 3.716040000000000276e+01 1.614059999999999945e+03
4.599999999999999922e-02 7.102169999999999872e-01 1.437495000000000189e+00 3.911189999999999856e+01 1.614505000000000109e+03
4.700000000000000011e-02 7.108114999999999295e-01 2.728584999999999816e+00 4.146934999999999860e+01 1.615069999999999936e+03
4.800000000000000100e-02 7.114949999999999886e-01 4.181815000000000282e+00 4.418854999999999933e+01 1.615735000000000127e+03
4.900000000000000189e-02 7.122560000000000002e-01 5.775970000000000049e+00 4.721909999999999741e+01 1.616494999999999891e+03
5.000000000000000278e-02 7.130765000000000020e-01 7.482212999999999781e+00 5.050275000000000603e+01 1.617329999999999927e+03
5.100000000000000366e-02 7.139390000000001013e-01 9.265391499999999780e+00 5.397419999999999618e+01 1.618224999999999909e+03
5.200000000000000455e-02 7.148255000000000026e-01 1.108688499999999877e+01 5.756390000000000384e+01 1.619164999999999964e+03
5.300000000000000544e-02 7.157160000000000188e-01 1.290770999999999979e+01 6.120179999999999865e+01 1.620130000000000109e+03
5.399999999999999939e-02 7.165960000000000107e-01 1.469148999999999994e+01 6.482195000000000107e+01 1.621105000000000018e+03
5.500000000000000028e-02 7.174525000000000485e-01 1.640729999999999933e+01 6.836715000000000941e+01 1.622070000000000164e+03
5.600000000000000117e-02 7.182749999999999968e-01 1.803115000000000023e+01 7.179210000000000491e+01 1.623019999999999982e+03
5.700000000000000205e-02 7.190590000000000037e-01 1.954684999999999917e+01 7.506559999999998922e+01 1.623940000000000055e+03
5.800000000000000294e-02 7.198025000000000118e-01 2.094575000000000031e+01 7.817130000000000223e+01 1.624815000000000055e+03
5.900000000000000383e-02 7.205074999999999674e-01 2.222619999999999862e+01 8.110670000000000357e+01 1.625664999999999964e+03
6.000000000000000472e-02 7.211780000000000967e-01 2.339219999999999899e+01 8.388159999999999172e+01 1.626464999999999918e+03
6.099999999999999867e-02 7.218189999999999884e-01 2.445210000000000150e+01 8.651570000000000960e+01 1.627240000000000009e+03
6.199999999999999956e-02 7.224390000000000533e-01 2.541730000000000089e+01 8.903544999999999732e+01 1.627974999999999909e+03
6.300000000000000044e-02 7.230455000000000076e-01 2.630100000000000193e+01 9.147124999999999773e+01 1.628695000000000164e+03
6.400000000000000133e-02 7.236449999999999827e-01 2.711724999999999852e+01 9.385509999999999309e+01 1.629394999999999982e+03
6.500000000000000222e-02 7.242454999999999865e-01 2.787934999999999874e+01 9.621719999999999118e+01 1.630085000000000036e+03
6.600000000000000311e-02 7.248520000000000518e-01 2.859965000000000046e+01 9.858360000000000412e+01 1.630775000000000091e+03
6.700000000000000400e-02 7.254689999999999195e-01 2.928784999999999883e+01 1.009755499999999984e+02 1.631465000000000146e+03
6.800000000000000488e-02 7.260980000000000212e-01 2.995085000000000264e+01 1.034055000000000035e+02 1.632164999999999964e+03
6.900000000000000577e-02 7.267384999999999540e-01 3.059195000000000420e+01 1.058774999999999977e+02 1.632875000000000000e+03
7.000000000000000666e-02 7.273890000000000633e-01 3.121065000000000111e+01 1.083874999999999886e+02 1.633595000000000027e+03
7.100000000000000755e-02 7.280444999999999833e-01 3.180294999999999916e+01 1.109205000000000041e+02 1.634315000000000055e+03
7.200000000000000844e-02 7.286984999999999157e-01 3.236169999999999902e+01 1.134555000000000007e+02 1.635045000000000073e+03
7.300000000000000933e-02 7.293429999999999636e-01 3.287715000000000032e+01 1.159654999999999916e+02 1.635764999999999873e+03
7.399999999999999634e-02 7.299705000000000776e-01 3.333834999999999837e+01 1.184170000000000016e+02 1.636474999999999909e+03
7.499999999999999722e-02 7.305715000000000403e-01 3.373340000000000316e+01 1.207770000000000010e+02 1.637159999999999854e+03
7.599999999999999811e-02 7.311385000000000245e-01 3.405095000000000027e+01 1.230114999999999981e+02 1.637815000000000055e+03
7.699999999999999900e-02 7.316635000000000222e-01 3.428074999999999761e+01 1.250895000000000010e+02 1.638430000000000064e+03
7.799999999999999989e-02 7.321400000000000130e-01 3.441424999999999557e+01 1.269830000000000041e+02 1.639000000000000000e+03
7.900000000000000078e-02 7.325650000000000217e-01 3.444530000000000314e+01 1.286705000000000041e+02 1.639514999999999873e+03
8.000000000000000167e-02 7.329334999999999045e-01 3.437035000000000196e+01 1.301370000000000005e+02 1.639970000000000027e+03
8.100000000000000255e-02 7.332440000000000069e-01 3.418864999999999554e+01 1.313725000000000023e+02 1.640365000000000009e+03
8.200000000000000344e-02 7.334979999999999833e-01 3.390229999999999677e+01 1.323764999999999930e+02 1.640699999999999818e+03
8.300000000000000433e-02 7.336964999999999737e-01 3.351604999999999990e+01 1.331530000000000200e+02 1.640969999999999800e+03
8.400000000000000522e-02 7.338424999999999532e-01 3.303740000000000521e+01 1.337139999999999986e+02 1.641179999999999836e+03
8.500000000000000611e-02 7.339409999999999545e-01 3.247605000000000075e+01 1.340755000000000052e+02 1.641335000000000036e+03
8.600000000000000699e-02 7.339964999999999407e-01 3.184355000000000047e+01 1.342584999999999980e+02 1.641430000000000064e+03
8.700000000000000788e-02 7.340169999999999195e-01 3.115305000000000035e+01 1.342884999999999991e+02 1.641485000000000127e+03
8.800000000000000877e-02 7.340075000000000349e-01 3.041870000000000118e+01 1.341914999999999907e+02 1.641500000000000000e+03
8.899999999999999578e-02 7.339755000000000029e-01 2.965490000000000137e+01 1.339975000000000023e+02 1.641485000000000127e+03
8.999999999999999667e-02 7.339284999999999837e-01 2.887614999999999910e+01 1.337334999999999923e+02 1.641440000000000055e+03
9.099999999999999756e-02 7.338720000000000798e-01 2.809609999999999985e+01 1.334275000000000091e+02 1.641380000000000109e+03
9.199999999999999845e-02 7.338119999999999088e-01 2.732709999999999795e+01 1.331034999999999968e+02 1.641305000000000064e+03
9.299999999999999933e-02 7.337545000000000872e-01 2.657985000000000042e+01 1.327844999999999800e+02 1.641234999999999900e+03
9.400000000000000022e-02 7.337020000000000763e-01 2.586265000000000214e+01 1.324869999999999948e+02 1.641160000000000082e+03
9.500000000000000111e-02 7.336570000000000036e-01 2.518144999999999811e+01 1.322245000000000061e+02 1.641085000000000036e+03
9.600000000000000200e-02 7.336219999999999963e-01 2.453965000000000174e+01 1.320039999999999907e+02 1.641025000000000091e+03
9.700000000000000289e-02 7.335964999999999847e-01 2.393789999999999907e+01 1.318290000000000077e+02 1.640970000000000027e+03
9.800000000000000377e-02 7.335800000000000098e-01 2.337440000000000140e+01 1.316974999999999909e+02 1.640929999999999836e+03
9.900000000000000466e-02 7.335694999999999855e-01 2.284519999999999840e+01 1.316020000000000039e+02 1.640900000000000091e+03
1.000000000000000056e-01 7.335629999999999651e-01 2.234440000000000026e+01 1.315335000000000036e+02 1.640869999999999891e+03
1.010000000000000064e-01 7.335570000000000146e-01 2.186489999999999867e+01 1.314784999999999968e+02 1.640844999999999800e+03
1.020000000000000073e-01 7.335475000000000190e-01 2.139835000000000065e+01 1.314219999999999970e+02 1.640825000000000045e+03
1.030000000000000082e-01 7.335304999999999742e-01 2.093629999999999924e+01 1.313480000000000132e+02 1.640795000000000073e+03
1.040000000000000091e-01 7.335024999999999462e-01 2.047015000000000029e+01 1.312415000000000020e+02 1.640764999999999873e+03
1.050000000000000100e-01 7.334605000000000707e-01 1.999174999999999969e+01 1.310869999999999891e+02 1.640720000000000027e+03
1.059999999999999970e-01 7.334015000000000395e-01 1.949405000000000143e+01 1.308720000000000141e+02 1.640664999999999964e+03
1.069999999999999979e-01 7.333220000000000294e-01 1.897135000000000105e+01 1.305854999999999961e+02 1.640585000000000036e+03
1.079999999999999988e-01 7.332224999999999993e-01 1.841939999999999955e+01 1.302214999999999918e+02 1.640490000000000009e+03
1.089999999999999997e-01 7.331024999999999903e-01 1.783605000000000018e+01 1.297754999999999939e+02 1.640375000000000000e+03
1.100000000000000006e-01 7.329620000000000024e-01 1.722105000000000175e+01 1.292489999999999952e+02 1.640240000000000009e+03
1.110000000000000014e-01 7.328029999999999822e-01 1.657614999999999839e+01 1.286454999999999984e+02 1.640085000000000036e+03
1.120000000000000023e-01 7.326274999999999871e-01 1.590530000000000044e+01 1.279740000000000038e+02 1.639909999999999854e+03
1.130000000000000032e-01 7.324394999999999101e-01 1.521405000000000030e+01 1.272454999999999927e+02 1.639715000000000146e+03
1.140000000000000041e-01 7.322425000000000184e-01 1.450975000000000037e+01 1.264759999999999991e+02 1.639509999999999991e+03
1.150000000000000050e-01 7.320415000000000116e-01 1.380095999999999989e+01 1.256814999999999998e+02 1.639295000000000073e+03
1.160000000000000059e-01 7.318409999999999638e-01 1.309712500000000013e+01 1.248815000000000026e+02 1.639075000000000045e+03
1.170000000000000068e-01 7.316469999999999363e-01 1.240808000000000177e+01 1.240960000000000036e+02 1.638860000000000127e+03
1.180000000000000077e-01 7.314625000000000155e-01 1.174380500000000005e+01 1.233449999999999989e+02 1.638650000000000091e+03
1.190000000000000085e-01 7.312935000000000407e-01 1.111365999999999943e+01 1.226444999999999936e+02 1.638454999999999927e+03
1.200000000000000094e-01 7.311434999999999462e-01 1.052626500000000043e+01 1.220139999999999958e+02 1.638269999999999982e+03
1.209999999999999964e-01 7.310155000000000403e-01 9.988849999999999341e+00 1.214660000000000082e+02 1.638110000000000127e+03
1.219999999999999973e-01 7.309120000000000061e-01 9.507170000000000343e+00 1.210120000000000005e+02 1.637970000000000027e+03
1.229999999999999982e-01 7.308335000000000248e-01 9.085184999999999178e+00 1.206589999999999918e+02 1.637849999999999909e+03
1.239999999999999991e-01 7.307825000000000015e-01 8.724885000000000446e+00 1.204104999999999990e+02 1.637764999999999873e+03
1.250000000000000000e-01 7.307555000000000023e-01 8.426384999999999792e+00 1.202659999999999911e+02 1.637704999999999927e+03
1.260000000000000009e-01 7.307539999999999036e-01 8.187940000000001106e+00 1.202214999999999918e+02 1.637670000000000073e+03
1.270000000000000018e-01 7.307740000000000347e-01 8.006080000000000751e+00 1.202694999999999936e+02 1.637664999999999964e+03
1.280000000000000027e-01 7.308129999999999349e-01 7.875919999999999810e+00 1.204000000000000057e+02 1.637675000000000182e+03
1.290000000000000036e-01 7.308679999999999621e-01 7.791399999999999437e+00 1.205995000000000061e+02 1.637719999999999800e+03
1.300000000000000044e-01 7.309354999999999603e-01 7.745635000000000048e+00 1.208555000000000064e+02 1.637764999999999873e+03
1.310000000000000053e-01 7.310115000000000363e-01 7.731239999999999668e+00 1.211520000000000010e+02 1.637835000000000036e+03
1.320000000000000062e-01 7.310920000000000751e-01 7.740660000000000096e+00 1.214745000000000061e+02 1.637909999999999854e+03
1.330000000000000071e-01 7.311739999999999906e-01 7.766480000000000494e+00 1.218089999999999975e+02 1.637994999999999891e+03
1.340000000000000080e-01 7.312544999999999185e-01 7.801685000000000869e+00 1.221419999999999959e+02 1.638074999999999818e+03
1.350000000000000089e-01 7.313315000000000232e-01 7.839884999999999771e+00 1.224620000000000033e+02 1.638159999999999854e+03
1.360000000000000098e-01 7.314009999999999678e-01 7.875454999999999650e+00 1.227595000000000027e+02 1.638240000000000009e+03
1.370000000000000107e-01 7.314629999999999743e-01 7.903715000000000046e+00 1.230264999999999986e+02 1.638315000000000055e+03
1.380000000000000115e-01 7.315160000000000551e-01 7.920935000000000059e+00 1.232579999999999956e+02 1.638380000000000109e+03
1.390000000000000124e-01 7.315590000000000703e-01 7.924390000000000711e+00 1.234500000000000028e+02 1.638434999999999945e+03
1.400000000000000133e-01 7.315920000000000201e-01 7.912370000000000125e+00 1.236009999999999991e+02 1.638480000000000018e+03
1.410000000000000142e-01 7.316160000000000441e-01 7.884075000000000166e+00 1.237125000000000057e+02 1.638514999999999873e+03
1.420000000000000151e-01 7.316309999999999203e-01 7.839574999999999960e+00 1.237854999999999990e+02 1.638545000000000073e+03
1.430000000000000160e-01 7.316380000000000106e-01 7.779710000000000569e+00 1.238245000000000005e+02 1.638559999999999945e+03
1.440000000000000169e-01 7.316380000000000106e-01 7.705964999999999954e+00 1.238329999999999984e+02 1.638570000000000164e+03
1.450000000000000178e-01 7.316329999999999778e-01 7.620339999999999669e+00 1.238164999999999907e+02 1.638570000000000164e+03
1.459999999999999909e-01 7.316240000000000521e-01 7.525204999999999700e+00 1.237804999999999893e+02 1.638565000000000055e+03
1.469999999999999918e-01 7.316114999999999702e-01 7.423175000000000523e+00 1.237309999999999945e+02 1.638559999999999945e+03
1.479999999999999927e-01 7.315989999999999993e-01 7.316950000000000287e+00 1.236724999999999994e+02 1.638545000000000073e+03
1.489999999999999936e-01 7.315854999999999997e-01 7.209170000000000300e+00 1.236115000000000066e+02 1.638534999999999854e+03
1.499999999999999944e-01 7.315730000000000288e-01 7.102330000000000254e+00 1.235515000000000043e+02 1.638525000000000091e+03
1.509999999999999953e-01 7.315625000000000044e-01 6.998599999999999710e+00 1.234960000000000093e+02 1.638509999999999991e+03
1.519999999999999962e-01 7.315540000000000376e-01 6.899805000000000632e+00 1.234489999999999981e+02 1.638494999999999891e+03
1.529999999999999971e-01 7.315475000000000172e-01 6.807330000000000325e+00 1.234104999999999990e+02 1.638490000000000009e+03
1.539999999999999980e-01 7.315450000000000008e-01 6.722080000000000055e+00 1.233820000000000050e+02 1.638480000000000018e+03
1.549999999999999989e-01 7.315434999999999022e-01 6.644489999999999341e+00 1.233644999999999925e+02 1.638474999999999909e+03
1.559999999999999998e-01 7.315445000000000420e-01 6.574539999999999829e+00 1.233545000000000016e+02 1.638470000000000027e+03
1.570000000000000007e-01 7.315469999999999473e-01 6.511829999999999785e+00 1.233509999999999991e+02 1.638469999999999800e+03
1.580000000000000016e-01 7.315499999999999226e-01 6.455629999999999313e+00 1.233515000000000015e+02 1.638469999999999800e+03
1.590000000000000024e-01 7.315530000000000088e-01 6.404969999999999608e+00 1.233539999999999992e+02 1.638464999999999918e+03
