# t [s], A [cm^2], U [cm/s], P [cPa], c [cm/s]
1.000000000000000021e-03 2.066655000000000020e-01 3.693272000000000221e-01 8.615094999999999459e+01 2.089880000000000109e+03
2.000000000000000042e-03 2.065965000000000162e-01 1.899831500000000117e+00 8.270645000000000380e+01 2.089345000000000255e+03
3.000000000000000062e-03 2.064300000000000024e-01 3.766603499999999993e+00 7.795095000000000596e+01 2.088105000000000018e+03
4.000000000000000083e-03 2.062174999999999980e-01 5.877165500000000264e+00 7.305330000000000723e+01 2.086534999999999854e+03
5.000000000000000104e-03 2.060020000000000184e-01 8.131730000000001013e+00 6.897620000000000573e+01 2.084954999999999927e+03
6.000000000000000125e-03 2.058030000000000137e-01 1.026744000000000057e+01 6.577070000000000505e+01 2.083519999999999982e+03
7.000000000000000146e-03 2.056195000000000106e-01 1.204882999999999882e+01 6.295794999999999675e+01 2.082230000000000018e+03
8.000000000000000167e-03 2.054564999999999864e-01 1.347854999999999848e+01 6.042280000000000229e+01 2.081105000000000018e+03
9.000000000000001055e-03 2.053194999999999881e-01 1.463185000000000002e+01 5.833735000000000070e+01 2.080170000000000073e+03
1.000000000000000194e-02 2.052085000000000159e-01 1.553364999999999796e+01 5.671685000000000088e+01 2.079420000000000073e+03
1.099999999999999936e-02 2.051224999999999854e-01 1.621274999999999977e+01 5.550570000000000448e+01 2.078850000000000364e+03
1.200000000000000025e-02 2.050584999999999769e-01 1.669405000000000072e+01 5.464294999999999902e+01 2.078430000000000291e+03
1.300000000000000114e-02 2.050095000000000112e-01 1.697375000000000256e+01 5.397579999999999956e+01 2.078114999999999782e+03
1.400000000000000203e-02 2.049694999999999989e-01 1.709009999999999962e+01 5.339455000000000240e+01 2.077875000000000000e+03
1.499999999999999944e-02 2.049435000000000007e-01 1.719950000000000045e+01 5.310965000000000202e+01 2.077715000000000146e+03
1.600000000000000033e-02 2.049460000000000170e-01 1.752805000000000035e+01 5.365030000000000143e+01 2.077744999999999891e+03
1.700000000000000122e-02 2.049934999999999952e-01 1.822514999999999930e+01 5.549025000000000318e+01 2.078069999999999709e+03
1.800000000000000211e-02 2.050910000000000233e-01 1.924784999999999968e+01 5.862550000000000239e+01 2.078730000000000018e+03
1.900000000000000300e-02 2.052239999999999898e-01 2.036110000000000042e+01 6.243890000000000384e+01 2.079639999999999873e+03
2.000000000000000042e-02 2.053635000000000044e-01 2.124065000000000225e+01 6.592259999999998854e+01 2.080609999999999673e+03
2.100000000000000130e-02 2.054749999999999910e-01 2.161364999999999981e+01 6.810020000000000095e+01 2.081404999999999745e+03
2.200000000000000219e-02 2.055325000000000069e-01 2.136635000000000062e+01 6.842385000000000161e+01 2.081840000000000146e+03
2.299999999999999961e-02 2.055275000000000019e-01 2.057675000000000054e+01 6.696715000000000373e+01 2.081840000000000146e+03
2.400000000000000050e-02 2.054710000000000147e-01 1.946490000000000009e+01 6.434544999999999959e+01 2.081480000000000018e+03
2.500000000000000139e-02 2.053845000000000254e-01 1.829230000000000089e+01 6.142269999999999186e+01 2.080904999999999745e+03
2.600000000000000228e-02 2.052950000000000053e-01 1.726024999999999920e+01 5.895830000000000126e+01 2.080289999999999964e+03
2.700000000000000316e-02 2.052225000000000021e-01 1.645049999999999812e+01 5.735139999999999816e+01 2.079779999999999745e+03
2.800000000000000058e-02 2.051729999999999943e-01 1.582265000000000121e+01 5.656829999999999359e+01 2.079420000000000073e+03
2.900000000000000147e-02 2.051419999999999910e-01 1.525779999999999959e+01 5.624439999999999884e+01 2.079194999999999709e+03
3.000000000000000236e-02 2.051169999999999938e-01 1.462330000000000041e+01 5.588859999999999673e+01 2.079025000000000091e+03
3.099999999999999978e-02 2.050845000000000029e-01 1.383409999999999940e+01 5.510399999999999920e+01 2.078800000000000182e+03
3.200000000000000067e-02 2.050359999999999960e-01 1.289165000000000028e+01 5.374934999999999974e+01 2.078474999999999909e+03
3.300000000000000155e-02 2.049725000000000019e-01 1.188937999999999917e+01 5.199684999999999491e+01 2.078045000000000073e+03
3.400000000000000244e-02 2.049035000000000162e-01 1.098383499999999913e+01 5.027159999999999940e+01 2.077574999999999818e+03
3.500000000000000333e-02 2.048464999999999869e-01 1.034317500000000045e+01 4.909975000000000023e+01 2.077170000000000073e+03
3.600000000000000422e-02 2.048169999999999991e-01 1.009142500000000098e+01 4.892374999999999829e+01 2.076945000000000164e+03
3.700000000000000511e-02 2.048265000000000224e-01 1.026849999999999952e+01 4.995050000000000523e+01 2.076989999999999782e+03
3.799999999999999906e-02 2.048790000000000056e-01 1.081654999999999944e+01 5.208034999999999570e+01 2.077320000000000164e+03
3.899999999999999994e-02 2.049659999999999815e-01 1.159400000000000119e+01 5.492929999999999779e+01 2.077900000000000091e+03
4.000000000000000083e-02 2.050715000000000177e-01 1.240905000000000058e+01 5.792634999999999934e+01 2.078614999999999782e+03
4.100000000000000172e-02 2.051749999999999963e-01 1.306010000000000026e+01 6.044679999999999609e+01 2.079329999999999927e+03
4.200000000000000261e-02 2.052549999999999930e-01 1.337324999999999875e+01 6.194275000000000375e+01 2.079889999999999873e+03
4.300000000000000350e-02 2.052940000000000043e-01 1.322855000000000025e+01 6.203969999999999629e+01 2.080175000000000182e+03
4.400000000000000439e-02 2.052800000000000180e-01 1.257189999999999941e+01 6.058319999999999794e+01 2.080100000000000364e+03
4.499999999999999833e-02 2.052080000000000015e-01 1.141268999999999956e+01 5.763465000000000060e+01 2.079625000000000000e+03
4.599999999999999922e-02 2.050814999999999999e-01 9.811540000000000816e+00 5.342660000000000053e+01 2.078779999999999745e+03
4.700000000000000011e-02 2.049095000000000222e-01 7.862465000000000259e+00 4.829595000000000482e+01 2.077609999999999673e+03
4.800000000000000100e-02 2.047019999999999951e-01 5.674876000000000253e+00 4.261509999999999820e+01 2.076195000000000164e+03
4.900000000000000189e-02 2.044745000000000035e-01 3.359950000000000436e+00 3.673799999999999955e+01 2.074630000000000109e+03
5.000000000000000278e-02 2.042375000000000163e-01 1.022069999999999812e+00 3.096799999999999642e+01 2.073000000000000000e+03
5.100000000000000366e-02 2.040029999999999899e-01 -1.243985000000000118e+00 2.554899999999999949e+01 2.071385000000000218e+03
5.200000000000000455e-02 2.037805000000000033e-01 -3.352434999999999832e+00 2.067279999999999873e+01 2.069850000000000364e+03
5.300000000000000544e-02 2.035790000000000100e-01 -5.224515000000000242e+00 1.649437999999999960e+01 2.068444999999999709e+03
5.399999999999999939e-02 2.034044999999999881e-01 -6.786995000000000111e+00 1.314712499999999906e+01 2.067235000000000127e+03
5.500000000000000028e-02 2.032645000000000146e-01 -7.972675000000000622e+00 1.075115999999999872e+01 2.066250000000000000e+03
5.600000000000000117e-02 2.031634999999999969e-01 -8.722850000000001103e+00 9.413205000000001377e+00 2.065529999999999745e+03
5.700000000000000205e-02 2.031064999999999954e-01 -8.992010000000000502e+00 9.218064999999999287e+00 2.065109999999999673e+03
5.800000000000000294e-02 2.030969999999999998e-01 -8.752390000000000114e+00 1.021569500000000019e+01 2.065010000000000218e+03
5.900000000000000383e-02 2.031370000000000120e-01 -7.998499999999999943e+00 1.240775000000000006e+01 2.065244999999999891e+03
6.000000000000000472e-02 2.032260000000000177e-01 -6.749285000000000423e+00 1.573869999999999969e+01 2.065824999999999818e+03
6.099999999999999867e-02 2.033615000000000006e-01 -5.047659999999999592e+00 2.009445000000000192e+01 2.066725000000000364e+03
6.199999999999999956e-02 2.035389999999999977e-01 -2.957419999999999938e+00 2.530859999999999843e+01 2.067909999999999854e+03
6.300000000000000044e-02 2.037510000000000154e-01 -5.579749999999998877e-01 3.117705000000000126e+01 2.069349999999999909e+03
6.400000000000000133e-02 2.039905000000000190e-01 2.061939999999999884e+00 3.747525000000000261e+01 2.070974999999999909e+03
6.500000000000000222e-02 2.042479999999999851e-01 4.810535999999999923e+00 4.397690000000000055e+01 2.072744999999999891e+03
6.600000000000000311e-02 2.045155000000000167e-01 7.598499999999999588e+00 5.046979999999999933e+01 2.074585000000000036e+03
6.700000000000000400e-02 2.047835000000000072e-01 1.034306499999999929e+01 5.676715000000000089e+01 2.076440000000000055e+03
6.800000000000000488e-02 2.050460000000000060e-01 1.297144000000000119e+01 6.271465000000000600e+01 2.078264999999999873e+03
6.900000000000000577e-02 2.052955000000000196e-01 1.542255000000000109e+01 6.819400000000000261e+01 2.080005000000000109e+03
7.000000000000000666e-02 2.055279999999999885e-01 1.764924999999999855e+01 7.312430000000000518e+01 2.081640000000000327e+03
7.100000000000000755e-02 2.057400000000000062e-01 1.961934999999999718e+01 7.746244999999998981e+01 2.083130000000000109e+03
7.200000000000000844e-02 2.059285000000000143e-01 2.131689999999999685e+01 8.120345000000000368e+01 2.084470000000000255e+03
7.300000000000000933e-02 2.060949999999999727e-01 2.274220000000000041e+01 8.437924999999999898e+01 2.085654999999999745e+03
7.399999999999999634e-02 2.062390000000000057e-01 2.391185000000000116e+01 8.705680000000000973e+01 2.086685000000000400e+03
7.499999999999999722e-02 2.063645000000000063e-01 2.485670000000000002e+01 8.933334999999999582e+01 2.087590000000000146e+03
7.599999999999999811e-02 2.064745000000000053e-01 2.561974999999999980e+01 9.132994999999999663e+01 2.088380000000000109e+03
7.699999999999999900e-02 2.065739999999999799e-01 2.625204999999999700e+01 9.318164999999999054e+01 2.089099999999999909e+03
7.799999999999999989e-02 2.066675000000000040e-01 2.680874999999999986e+01 9.502694999999999936e+01 2.089774999999999636e+03
7.900000000000000078e-02 2.067614999999999870e-01 2.734414999999999907e+01 9.699645000000001005e+01 2.090444999999999709e+03
8.000000000000000167e-02 2.068605000000000027e-01 2.790769999999999840e+01 9.920179999999999154e+01 2.091150000000000091e+03
8.100000000000000255e-02 2.069679999999999853e-01 2.853995000000000104e+01 1.017267999999999972e+02 2.091914999999999964e+03
8.200000000000000344e-02 2.070879999999999943e-01 2.926939999999999742e+01 1.046214999999999975e+02 2.092760000000000218e+03
8.300000000000000433e-02 2.072220000000000173e-01 3.011099999999999710e+01 1.078969999999999914e+02 2.093704999999999927e+03
8.400000000000000522e-02 2.073699999999999988e-01 3.106550000000000011e+01 1.115289999999999964e+02 2.094744999999999891e+03
8.500000000000000611e-02 2.075314999999999799e-01 3.211979999999999791e+01 1.154579999999999984e+02 2.095880000000000109e+03
8.600000000000000699e-02 2.077029999999999987e-01 3.324889999999999901e+01 1.195949999999999989e+02 2.097085000000000036e+03
8.700000000000000788e-02 2.078820000000000112e-01 3.441795000000000471e+01 1.238325000000000102e+02 2.098344999999999800e+03
8.800000000000000877e-02 2.080639999999999989e-01 3.558559999999999945e+01 1.280494999999999948e+02 2.099635000000000218e+03
8.899999999999999578e-02 2.082444999999999991e-01 3.670694999999999908e+01 1.321214999999999975e+02 2.100909999999999854e+03
8.999999999999999667e-02 2.084179999999999922e-01 3.773659999999999570e+01 1.359300000000000068e+02 2.102144999999999982e+03
9.099999999999999756e-02 2.085810000000000164e-01 3.863205000000000666e+01 1.393685000000000116e+02 2.103304999999999836e+03
9.199999999999999845e-02 2.087284999999999835e-01 3.935575000000000045e+01 1.423470000000000084e+02 2.104360000000000127e+03
9.299999999999999933e-02 2.088565000000000005e-01 3.987749999999999773e+01 1.448009999999999877e+02 2.105284999999999854e+03
9.400000000000000022e-02 2.089634999999999965e-01 4.017595000000000027e+01 1.466875000000000000e+02 2.106055000000000291e+03
9.500000000000000111e-02 2.090474999999999972e-01 4.023940000000000339e+01 1.479904999999999973e+02 2.106670000000000073e+03
9.600000000000000200e-02 2.091075000000000017e-01 4.006620000000000203e+01 1.487185000000000059e+02 2.107114999999999782e+03
9.700000000000000289e-02 2.091445000000000110e-01 3.966440000000000055e+01 1.489035000000000082e+02 2.107399999999999636e+03
9.800000000000000377e-02 2.091589999999999838e-01 3.905095000000000027e+01 1.485975000000000250e+02 2.107519999999999982e+03
9.900000000000000466e-02 2.091534999999999922e-01 3.825045000000000073e+01 1.478675000000000068e+02 2.107494999999999891e+03
1.000000000000000056e-01 2.091299999999999826e-01 3.729339999999999833e+01 1.467920000000000016e+02 2.107345000000000255e+03
1.010000000000000064e-01 2.090925000000000145e-01 3.621470000000000056e+01 1.454569999999999936e+02 2.107095000000000255e+03
1.020000000000000073e-01 2.090440000000000076e-01 3.505169999999999675e+01 1.439509999999999934e+02 2.106755000000000109e+03
1.030000000000000082e-01 2.089874999999999927e-01 3.384219999999999828e+01 1.423600000000000136e+02 2.106364999999999782e+03
1.040000000000000091e-01 2.089270000000000016e-01 3.262300000000000466e+01 1.407655000000000030e+02 2.105945000000000164e+03
1.050000000000000100e-01 2.088654999999999817e-01 3.142830000000000013e+01 1.392394999999999925e+02 2.105505000000000109e+03
1.059999999999999970e-01 2.088059999999999916e-01 3.028814999999999813e+01 1.378449999999999989e+02 2.105090000000000146e+03
1.069999999999999979e-01 2.087510000000000199e-01 2.922760000000000247e+01 1.366295000000000073e+02 2.104690000000000055e+03
1.079999999999999988e-01 2.087025000000000130e-01 2.826565000000000083e+01 1.356279999999999859e+02 2.104350000000000364e+03
1.089999999999999997e-01 2.086620000000000141e-01 2.741474999999999795e+01 1.348605000000000018e+02 2.104054999999999836e+03
1.100000000000000006e-01 2.086299999999999821e-01 2.668039999999999878e+01 1.343294999999999959e+02 2.103819999999999709e+03
1.110000000000000014e-01 2.086069999999999869e-01 2.606129999999999924e+01 1.340240000000000009e+02 2.103650000000000091e+03
1.120000000000000023e-01 2.085925000000000140e-01 2.554974999999999952e+01 1.339170000000000016e+02 2.103534999999999854e+03
1.130000000000000032e-01 2.085859999999999936e-01 2.513210000000000122e+01 1.339704999999999870e+02 2.103480000000000018e+03
1.140000000000000041e-01 2.085850000000000204e-01 2.478985000000000127e+01 1.341365000000000123e+02 2.103460000000000036e+03
1.150000000000000050e-01 2.085885000000000100e-01 2.450094999999999956e+01 1.343589999999999804e+02 2.103480000000000018e+03
1.160000000000000059e-01 2.085940000000000016e-01 2.424089999999999989e+01 1.345784999999999911e+02 2.103510000000000218e+03
1.170000000000000068e-01 2.085984999999999923e-01 2.398420000000000130e+01 1.347350000000000136e+02 2.103539999999999964e+03
1.180000000000000077e-01 2.086010000000000086e-01 2.370599999999999952e+01 1.347719999999999914e+02 2.103550000000000182e+03
1.190000000000000085e-01 2.085985000000000200e-01 2.338344999999999985e+01 1.346380000000000052e+02 2.103534999999999854e+03
1.200000000000000094e-01 2.085889999999999966e-01 2.299699999999999989e+01 1.342920000000000016e+02 2.103465000000000146e+03
1.209999999999999964e-01 2.085710000000000064e-01 2.253139999999999787e+01 1.337049999999999841e+02 2.103340000000000146e+03
1.219999999999999973e-01 2.085429999999999784e-01 2.197684999999999889e+01 1.328600000000000136e+02 2.103150000000000091e+03
1.229999999999999982e-01 2.085055000000000103e-01 2.132929999999999993e+01 1.317554999999999836e+02 2.102885000000000218e+03
1.239999999999999991e-01 2.084574999999999900e-01 2.059074999999999989e+01 1.304055000000000177e+02 2.102550000000000182e+03
1.250000000000000000e-01 2.083995000000000153e-01 1.976905000000000001e+01 1.288359999999999843e+02 2.102144999999999982e+03
1.260000000000000009e-01 2.083325000000000038e-01 1.887754999999999939e+01 1.270880000000000081e+02 2.101680000000000291e+03
1.270000000000000018e-01 2.082589999999999997e-01 1.793404999999999916e+01 1.252090000000000032e+02 2.101159999999999854e+03
1.280000000000000027e-01 2.081800000000000039e-01 1.695994999999999919e+01 1.232564999999999884e+02 2.100605000000000018e+03
1.290000000000000036e-01 2.080984999999999918e-01 1.597905000000000086e+01 1.212905000000000086e+02 2.100029999999999745e+03
1.300000000000000044e-01 2.080159999999999787e-01 1.501595000000000013e+01 1.193725000000000023e+02 2.099449999999999818e+03
1.310000000000000053e-01 2.079360000000000097e-01 1.409485000000000099e+01 1.175600000000000023e+02 2.098885000000000218e+03
1.320000000000000062e-01 2.078599999999999892e-01 1.323859999999999992e+01 1.159060000000000059e+02 2.098345000000000255e+03
1.330000000000000071e-01 2.077900000000000025e-01 1.246710000000000029e+01 1.144549999999999983e+02 2.097845000000000255e+03
1.340000000000000080e-01 2.077284999999999826e-01 1.179664999999999964e+01 1.132420000000000044e+02 2.097404999999999745e+03
1.350000000000000089e-01 2.076764999999999861e-01 1.123921499999999973e+01 1.122909999999999968e+02 2.097029999999999745e+03
1.360000000000000098e-01 2.076350000000000140e-01 1.080200499999999941e+01 1.116129999999999995e+02 2.096725000000000364e+03
1.370000000000000107e-01 2.076044999999999974e-01 1.048737999999999992e+01 1.112085000000000008e+02 2.096505000000000109e+03
1.380000000000000115e-01 2.075849999999999917e-01 1.029280999999999935e+01 1.110660000000000025e+02 2.096359999999999673e+03
1.390000000000000124e-01 2.075759999999999827e-01 1.021127500000000055e+01 1.111640000000000015e+02 2.096284999999999854e+03
1.400000000000000133e-01 2.075770000000000115e-01 1.023186499999999910e+01 1.114729999999999990e+02 2.096284999999999854e+03
1.410000000000000142e-01 2.075869999999999937e-01 1.034028999999999954e+01 1.119560000000000031e+02 2.096340000000000146e+03
1.420000000000000151e-01 2.076040000000000108e-01 1.051994999999999969e+01 1.125730000000000075e+02 2.096454999999999927e+03
1.430000000000000160e-01 2.076264999999999916e-01 1.075259999999999927e+01 1.132795000000000130e+02 2.096605000000000018e+03
1.440000000000000169e-01 2.076525000000000176e-01 1.101914999999999978e+01 1.140330000000000013e+02 2.096779999999999745e+03
1.450000000000000178e-01 2.076815000000000189e-01 1.130075000000000074e+01 1.147899999999999920e+02 2.096980000000000018e+03
1.459999999999999909e-01 2.077105000000000201e-01 1.157929999999999993e+01 1.155120000000000005e+02 2.097185000000000400e+03
1.469999999999999918e-01 2.077380000000000060e-01 1.183830000000000027e+01 1.161645000000000039e+02 2.097380000000000109e+03
1.479999999999999927e-01 2.077634999999999899e-01 1.206344999999999956e+01 1.167185000000000059e+02 2.097560000000000400e+03
1.489999999999999936e-01 2.077855000000000119e-01 1.224295000000000044e+01 1.171525000000000034e+02 2.097715000000000146e+03
1.499999999999999944e-01 2.078025000000000011e-01 1.236799999999999855e+01 1.174495000000000005e+02 2.097840000000000146e+03
1.509999999999999953e-01 2.078145000000000131e-01 1.243280000000000030e+01 1.176034999999999968e+02 2.097925000000000182e+03
1.519999999999999962e-01 2.078204999999999913e-01 1.243500000000000050e+01 1.176125000000000114e+02 2.097974999999999909e+03
1.529999999999999971e-01 2.078214999999999923e-01 1.237515000000000143e+01 1.174834999999999923e+02 2.097984999999999673e+03
1.539999999999999980e-01 2.078165000000000151e-01 1.225679999999999836e+01 1.172270000000000039e+02 2.097954999999999927e+03
1.549999999999999989e-01 2.078065000000000051e-01 1.208609999999999829e+01 1.168619999999999948e+02 2.097890000000000327e+03
1.559999999999999998e-01 2.077924999999999911e-01 1.187134999999999962e+01 1.164095000000000084e+02 2.097789999999999964e+03
1.570000000000000007e-01 2.077745000000000009e-01 1.162224999999999930e+01 1.158940000000000055e+02 2.097670000000000073e+03
1.580000000000000016e-01 2.077545000000000086e-01 1.134975000000000023e+01 1.153420000000000130e+02 2.097530000000000200e+03
1.590000000000000024e-01 2.077324999999999866e-01 1.106498500000000007e+01 1.147779999999999916e+02 2.097380000000000109e+03
