# t [s], A [cm^2], U [cm/s], P [cPa], c [cm/s]
1.000000000000000021e-03 5.211814999999999642e-01 2.340700000000001113e-03 9.058910000000000196e+01 1.471259999999999991e+03
2.000000000000000042e-03 5.211750000000000549e-01 1.311919999999999840e-03 9.056954999999999245e+01 1.471250000000000000e+03
3.000000000000000062e-03 5.212219999999999631e-01 9.610004999999999242e-02 9.065670000000000073e+01 1.471279999999999973e+03
4.000000000000000083e-03 5.212649999999999784e-01 1.862489299999999792e-01 9.076060000000001082e+01 1.471309999999999945e+03
5.000000000000000104e-03 5.212485000000000035e-01 1.653865999999999947e-01 9.072265000000000157e+01 1.471305000000000064e+03
6.000000000000000125e-03 5.211965000000000625e-01 7.071499999999997232e-02 9.054009999999999536e+01 1.471259999999999991e+03
7.000000000000000146e-03 5.211434999999999818e-01 -3.237049999999996874e-02 9.028135000000000332e+01 1.471200000000000045e+03
8.000000000000000167e-03 5.210669999999999469e-01 -1.926049999999999152e-01 8.990430000000000632e+01 1.471105000000000018e+03
9.000000000000001055e-03 5.209375000000000533e-01 -4.671600000000000197e-01 8.932685000000000741e+01 1.470964999999999918e+03
1.000000000000000194e-02 5.207519999999999927e-01 -8.581049999999998956e-01 8.851085000000000491e+01 1.470755000000000109e+03
1.099999999999999936e-02 5.205030000000000490e-01 -1.369400000000000173e+00 8.742000000000000171e+01 1.470474999999999909e+03
1.200000000000000025e-02 5.201774999999999594e-01 -2.011849999999999916e+00 8.600960000000000605e+01 1.470099999999999909e+03
1.300000000000000114e-02 5.197819999999999663e-01 -2.752934999999999910e+00 8.428315000000000623e+01 1.469640000000000100e+03
1.400000000000000203e-02 5.193539999999999823e-01 -3.492250000000000298e+00 8.233830000000000382e+01 1.469099999999999909e+03
1.499999999999999944e-02 5.189470000000000471e-01 -4.094255000000000422e+00 8.034694999999999254e+01 1.468530000000000200e+03
1.600000000000000033e-02 5.186049999999999827e-01 -4.445786499999999641e+00 7.848895000000000266e+01 1.467970000000000027e+03
1.700000000000000122e-02 5.183429999999999982e-01 -4.495658499999999336e+00 7.688824999999999932e+01 1.467454999999999927e+03
1.800000000000000211e-02 5.181510000000000282e-01 -4.261929000000000300e+00 7.558174999999999955e+01 1.467005000000000109e+03
1.900000000000000300e-02 5.179974999999999996e-01 -3.814536999999999622e+00 7.452244999999999209e+01 1.466610000000000127e+03
2.000000000000000042e-02 5.178479999999999750e-01 -3.246264000000000038e+00 7.360734999999999673e+01 1.466250000000000000e+03
2.100000000000000130e-02 5.176705000000000334e-01 -2.642643899999999935e+00 7.271670000000000300e+01 1.465900000000000091e+03
2.200000000000000219e-02 5.174490000000000478e-01 -2.059201499999999907e+00 7.175180000000000291e+01 1.465545000000000073e+03
2.299999999999999961e-02 5.171829999999999483e-01 -1.512430000000000163e+00 7.066094999999999970e+01 1.465154999999999973e+03
2.400000000000000050e-02 5.168854999999999977e-01 -9.864849999999998342e-01 6.944355000000000189e+01 1.464740000000000009e+03
2.500000000000000139e-02 5.165739999999999776e-01 -4.510850000000001803e-01 6.813589999999999236e+01 1.464305000000000064e+03
2.600000000000000228e-02 5.162619999999999987e-01 1.179299999999998683e-01 6.678579999999999472e+01 1.463849999999999909e+03
2.700000000000000316e-02 5.159560000000000812e-01 7.233249999999999957e-01 6.542750000000000909e+01 1.463389999999999873e+03
2.800000000000000058e-02 5.156505000000000116e-01 1.340320000000000178e+00 6.406544999999999845e+01 1.462925000000000182e+03
2.900000000000000147e-02 5.153300000000000658e-01 1.919650000000000079e+00 6.266880000000000450e+01 1.462450000000000045e+03
3.000000000000000236e-02 5.149745000000000017e-01 2.397454999999999892e+00 6.117774999999999608e+01 1.461950000000000045e+03
3.099999999999999978e-02 5.145644999999999802e-01 2.708919999999999995e+00 5.951805000000000234e+01 1.461409999999999854e+03
3.200000000000000067e-02 5.140850000000000142e-01 2.802479999999999638e+00 5.761984999999999957e+01 1.460809999999999945e+03
3.300000000000000155e-02 5.135294999999999721e-01 2.651415000000000077e+00 5.543719999999999715e+01 1.460139999999999873e+03
3.400000000000000244e-02 5.129044999999999854e-01 2.260345000000000493e+00 5.296290000000000475e+01 1.459394999999999982e+03
3.500000000000000333e-02 5.122265000000000290e-01 1.665280000000000094e+00 5.023550000000000182e+01 1.458575000000000045e+03
3.600000000000000422e-02 5.115220000000000322e-01 9.271799999999998931e-01 4.733664999999999878e+01 1.457710000000000036e+03
3.700000000000000511e-02 5.108224999999999572e-01 1.219599999999996243e-01 4.438100000000000023e+01 1.456819999999999936e+03
3.799999999999999906e-02 5.101584999999999592e-01 -6.710949999999993310e-01 4.150079999999999814e+01 1.455934999999999945e+03
3.899999999999999994e-02 5.095589999999999842e-01 -1.378900000000000237e+00 3.882985000000000042e+01 1.455099999999999909e+03
4.000000000000000083e-02 5.090479999999999450e-01 -1.941730000000000178e+00 3.648910000000000053e+01 1.454345000000000027e+03
4.100000000000000172e-02 5.086420000000000385e-01 -2.316295000000000215e+00 3.457650000000000290e+01 1.453695000000000164e+03
4.200000000000000261e-02 5.083504999999999274e-01 -2.476040000000000241e+00 3.316145000000000209e+01 1.453180000000000064e+03
4.300000000000000350e-02 5.081784999999999775e-01 -2.408748999999999807e+00 3.228365000000000151e+01 1.452815000000000055e+03
4.400000000000000439e-02 5.081240000000000201e-01 -2.113030000000000186e+00 3.195604999999999762e+01 1.452610000000000127e+03
4.499999999999999833e-02 5.081835000000000102e-01 -1.594366500000000020e+00 3.216980000000000217e+01 1.452559999999999945e+03
4.599999999999999922e-02 5.083514999999999562e-01 -8.618649999999999922e-01 3.290064999999999884e+01 1.452670000000000073e+03
4.700000000000000011e-02 5.086199999999999610e-01 7.383499999999987295e-02 3.411440000000000339e+01 1.452930000000000064e+03
4.800000000000000100e-02 5.089829999999999632e-01 1.201300000000000257e+00 3.577125000000000199e+01 1.453329999999999927e+03
4.900000000000000189e-02 5.094300000000000495e-01 2.507794999999999774e+00 3.782854999999999990e+01 1.453860000000000127e+03
5.000000000000000278e-02 5.099534999999999485e-01 3.978169999999999540e+00 4.024129999999999541e+01 1.454509999999999991e+03
5.100000000000000366e-02 5.105429999999999691e-01 5.593745000000000189e+00 4.296219999999999573e+01 1.455269999999999982e+03
5.200000000000000455e-02 5.111885000000000456e-01 7.331190000000000317e+00 4.594104999999999706e+01 1.456115000000000009e+03
5.300000000000000544e-02 5.118765000000000676e-01 9.162979299999999938e+00 4.912449999999999761e+01 1.457034999999999854e+03
5.399999999999999939e-02 5.125954999999999817e-01 1.105781499999999973e+01 5.245665000000000333e+01 1.458009999999999991e+03
5.500000000000000028e-02 5.133309999999999818e-01 1.298231999999999964e+01 5.588040000000000163e+01 1.459034999999999854e+03
5.600000000000000117e-02 5.140730000000000022e-01 1.490276000000000067e+01 5.933939999999999770e+01 1.460085000000000036e+03
5.700000000000000205e-02 5.148070000000000146e-01 1.678720500000000015e+01 6.278085000000000093e+01 1.461139999999999873e+03
5.800000000000000294e-02 5.155254999999999699e-01 1.860745000000000005e+01 6.615774999999999295e+01 1.462190000000000055e+03
5.900000000000000383e-02 5.162204999999999711e-01 2.034009999999999962e+01 6.943139999999999645e+01 1.463224999999999909e+03
6.000000000000000472e-02 5.168865000000000265e-01 2.196775000000000233e+01 7.257304999999999495e+01 1.464235000000000127e+03
6.099999999999999867e-02 5.175210000000000088e-01 2.347935000000000016e+01 7.556470000000000198e+01 1.465210000000000036e+03
6.199999999999999956e-02 5.181234999999999591e-01 2.486979999999999791e+01 7.839910000000000423e+01 1.466139999999999873e+03
6.300000000000000044e-02 5.186960000000000459e-01 2.613940000000000197e+01 8.107920000000000016e+01 1.467035000000000082e+03
6.400000000000000133e-02 5.192415000000000225e-01 2.729325000000000045e+01 8.361670000000000869e+01 1.467894999999999982e+03
6.500000000000000222e-02 5.197654999999999914e-01 2.834004999999999797e+01 8.603040000000000020e+01 1.468714999999999918e+03
6.600000000000000311e-02 5.202725000000000266e-01 2.929145000000000110e+01 8.834434999999999150e+01 1.469505000000000109e+03
6.700000000000000400e-02 5.207684999999999675e-01 3.016060000000000230e+01 9.058559999999999945e+01 1.470269999999999982e+03
6.800000000000000488e-02 5.212589999999999169e-01 3.096184999999999832e+01 9.278274999999999295e+01 1.471025000000000091e+03
6.900000000000000577e-02 5.217509999999999648e-01 3.170964999999999989e+01 9.496359999999999957e+01 1.471759999999999991e+03
7.000000000000000666e-02 5.222480000000000455e-01 3.241765000000000185e+01 9.715409999999999968e+01 1.472505000000000109e+03
7.100000000000000755e-02 5.227554999999999286e-01 3.309844999999999970e+01 9.937569999999999482e+01 1.473250000000000000e+03
7.200000000000000844e-02 5.232755000000000045e-01 3.376234999999999786e+01 1.016466000000000065e+02 1.474014999999999873e+03
7.300000000000000933e-02 5.238110000000000266e-01 3.441724999999999568e+01 1.039771499999999946e+02 1.474785000000000082e+03
7.399999999999999634e-02 5.243610000000000770e-01 3.506774999999999665e+01 1.063725000000000023e+02 1.475575000000000045e+03
7.499999999999999722e-02 5.249249999999999750e-01 3.571520000000000294e+01 1.088290000000000077e+02 1.476384999999999991e+03
7.599999999999999811e-02 5.255004999999999260e-01 3.635745000000000005e+01 1.113389999999999986e+02 1.477210000000000036e+03
7.699999999999999900e-02 5.260819999999999386e-01 3.698910000000000053e+01 1.138840000000000003e+02 1.478039999999999964e+03
7.799999999999999989e-02 5.266655000000000086e-01 3.760170000000000101e+01 1.164424999999999955e+02 1.478884999999999991e+03
7.900000000000000078e-02 5.272440000000000460e-01 3.818469999999999942e+01 1.189869999999999948e+02 1.479720000000000027e+03
8.000000000000000167e-02 5.278110000000000301e-01 3.872579999999999956e+01 1.214885000000000019e+02 1.480554999999999836e+03
8.100000000000000255e-02 5.283594999999999819e-01 3.921200000000000330e+01 1.239139999999999873e+02 1.481360000000000127e+03
8.200000000000000344e-02 5.288815000000000044e-01 3.963025000000000375e+01 1.262325000000000017e+02 1.482139999999999873e+03
8.300000000000000433e-02 5.293729999999999825e-01 3.996835000000000093e+01 1.284139999999999873e+02 1.482884999999999991e+03
8.400000000000000522e-02 5.298260000000000192e-01 4.021545000000000414e+01 1.304309999999999832e+02 1.483579999999999927e+03
8.500000000000000611e-02 5.302369999999999584e-01 4.036280000000000001e+01 1.322615000000000123e+02 1.484224999999999909e+03
8.600000000000000699e-02 5.306029999999999358e-01 4.040415000000000134e+01 1.338870000000000005e+02 1.484799999999999955e+03
8.700000000000000788e-02 5.309220000000000050e-01 4.033570000000000277e+01 1.352975000000000136e+02 1.485319999999999936e+03
8.800000000000000877e-02 5.311919999999999975e-01 4.015679999999999694e+01 1.364869999999999948e+02 1.485775000000000091e+03
8.899999999999999578e-02 5.314145000000000119e-01 3.986929999999999552e+01 1.374565000000000055e+02 1.486150000000000091e+03
8.999999999999999667e-02 5.315910000000000357e-01 3.947809999999999775e+01 1.382115000000000009e+02 1.486464999999999918e+03
9.099999999999999756e-02 5.317244999999999333e-01 3.899044999999999561e+01 1.387660000000000196e+02 1.486715000000000146e+03
9.199999999999999845e-02 5.318190000000000417e-01 3.841580000000000439e+01 1.391345000000000027e+02 1.486904999999999973e+03
9.299999999999999933e-02 5.318775000000000031e-01 3.776545000000000130e+01 1.393379999999999939e+02 1.487034999999999854e+03
9.400000000000000022e-02 5.319070000000000187e-01 3.705219999999999914e+01 1.394004999999999939e+02 1.487115000000000009e+03
9.500000000000000111e-02 5.319120000000000514e-01 3.628969999999999629e+01 1.393455000000000155e+02 1.487155000000000200e+03
9.600000000000000200e-02 5.318979999999999819e-01 3.549204999999999899e+01 1.391999999999999886e+02 1.487154999999999973e+03
9.700000000000000289e-02 5.318705000000000238e-01 3.467340000000000089e+01 1.389894999999999925e+02 1.487134999999999991e+03
9.800000000000000377e-02 5.318344999999999878e-01 3.384734999999999872e+01 1.387390000000000043e+02 1.487085000000000036e+03
9.900000000000000466e-02 5.317945000000000588e-01 3.302640000000000242e+01 1.384710000000000036e+02 1.487034999999999854e+03
1.000000000000000056e-01 5.317564999999999653e-01 3.222180000000000177e+01 1.382069999999999936e+02 1.486970000000000027e+03
1.010000000000000064e-01 5.317214999999999581e-01 3.144289999999999807e+01 1.379625000000000057e+02 1.486904999999999973e+03
1.020000000000000073e-01 5.316935000000000411e-01 3.069704999999999728e+01 1.377514999999999930e+02 1.486845000000000027e+03
1.030000000000000082e-01 5.316735000000000211e-01 2.998940000000000339e+01 1.375829999999999984e+02 1.486795000000000073e+03
1.040000000000000091e-01 5.316635000000000666e-01 2.932285000000000252e+01 1.374615000000000009e+02 1.486755000000000109e+03
1.050000000000000100e-01 5.316624999999999268e-01 2.869785000000000252e+01 1.373884999999999934e+02 1.486730000000000018e+03
1.059999999999999970e-01 5.316690000000000582e-01 2.811285000000000167e+01 1.373609999999999900e+02 1.486710000000000036e+03
1.069999999999999979e-01 5.316825000000000578e-01 2.756425000000000125e+01 1.373720000000000141e+02 1.486704999999999927e+03
1.079999999999999988e-01 5.317000000000000615e-01 2.704684999999999917e+01 1.374120000000000061e+02 1.486710000000000036e+03
1.089999999999999997e-01 5.317195000000000116e-01 2.655400000000000205e+01 1.374685000000000059e+02 1.486715000000000146e+03
1.100000000000000006e-01 5.317380000000000440e-01 2.607815000000000083e+01 1.375289999999999964e+02 1.486730000000000018e+03
1.110000000000000014e-01 5.317514999999999326e-01 2.561120000000000019e+01 1.375785000000000196e+02 1.486734999999999900e+03
1.120000000000000023e-01 5.317579999999999529e-01 2.514499999999999957e+01 1.376014999999999873e+02 1.486744999999999891e+03
1.130000000000000032e-01 5.317540000000000600e-01 2.467154999999999987e+01 1.375854999999999961e+02 1.486735000000000127e+03
1.140000000000000041e-01 5.317370000000000152e-01 2.418345000000000056e+01 1.375169999999999959e+02 1.486710000000000036e+03
1.150000000000000050e-01 5.317049999999999832e-01 2.367445000000000022e+01 1.373854999999999791e+02 1.486674999999999955e+03
1.160000000000000059e-01 5.316564999999999763e-01 2.313945000000000007e+01 1.371825000000000045e+02 1.486619999999999891e+03
1.170000000000000068e-01 5.315904999999999658e-01 2.257479999999999976e+01 1.369019999999999868e+02 1.486539999999999964e+03
1.180000000000000077e-01 5.315069999999999517e-01 2.197850000000000037e+01 1.365414999999999850e+02 1.486434999999999945e+03
1.190000000000000085e-01 5.314054999999999751e-01 2.135040000000000049e+01 1.361014999999999873e+02 1.486309999999999945e+03
1.200000000000000094e-01 5.312875000000000236e-01 2.069194999999999851e+01 1.355860000000000127e+02 1.486154999999999973e+03
1.209999999999999964e-01 5.311555000000000026e-01 2.000649999999999906e+01 1.350020000000000095e+02 1.485985000000000127e+03
1.219999999999999973e-01 5.310114999999999696e-01 1.929874999999999829e+01 1.343584999999999923e+02 1.485789999999999964e+03
1.229999999999999982e-01 5.308579999999999410e-01 1.857484999999999786e+01 1.336675000000000182e+02 1.485590000000000146e+03
1.239999999999999991e-01 5.306980000000000031e-01 1.784230000000000160e+01 1.329435000000000002e+02 1.485365000000000009e+03
1.250000000000000000e-01 5.305349999999999788e-01 1.710920000000000130e+01 1.322015000000000100e+02 1.485134999999999991e+03
1.260000000000000009e-01 5.303729999999999833e-01 1.638434999999999775e+01 1.314565000000000055e+02 1.484900000000000091e+03
1.270000000000000018e-01 5.302149999999999919e-01 1.567665000000000042e+01 1.307270000000000039e+02 1.484674999999999955e+03
1.280000000000000027e-01 5.300650000000000084e-01 1.499499999999999922e+01 1.300270000000000152e+02 1.484449999999999818e+03
1.290000000000000036e-01 5.299255000000000493e-01 1.434766499999999922e+01 1.293729999999999905e+02 1.484235000000000127e+03
1.300000000000000044e-01 5.298005000000000075e-01 1.374226000000000170e+01 1.287775000000000034e+02 1.484034999999999854e+03
1.310000000000000053e-01 5.296904999999999530e-01 1.318520999999999965e+01 1.282515000000000214e+02 1.483855000000000018e+03
1.320000000000000062e-01 5.295985000000000831e-01 1.268164499999999961e+01 1.278044999999999902e+02 1.483694999999999936e+03
1.330000000000000071e-01 5.295250000000000234e-01 1.223524499999999904e+01 1.274414999999999907e+02 1.483559999999999945e+03
1.340000000000000080e-01 5.294710000000000250e-01 1.184814499999999882e+01 1.271674999999999898e+02 1.483449999999999818e+03
1.350000000000000089e-01 5.294360000000000177e-01 1.152081000000000088e+01 1.269815000000000111e+02 1.483365000000000009e+03
1.360000000000000098e-01 5.294194999999999318e-01 1.125221000000000160e+01 1.268814999999999884e+02 1.483309999999999945e+03
1.370000000000000107e-01 5.294194999999999318e-01 1.103980999999999923e+01 1.268619999999999948e+02 1.483280000000000200e+03
1.380000000000000115e-01 5.294349999999999890e-01 1.087979999999999947e+01 1.269170000000000016e+02 1.483269999999999982e+03
1.390000000000000124e-01 5.294639999999999347e-01 1.076724499999999907e+01 1.270360000000000014e+02 1.483289999999999964e+03
1.400000000000000133e-01 5.295035000000000158e-01 1.069646499999999989e+01 1.272090000000000032e+02 1.483315000000000055e+03
1.410000000000000142e-01 5.295509999999999939e-01 1.066105500000000106e+01 1.274240000000000066e+02 1.483365000000000009e+03
1.420000000000000151e-01 5.296049999999999924e-01 1.065428499999999978e+01 1.276705000000000041e+02 1.483425000000000182e+03
1.430000000000000160e-01 5.296615000000000073e-01 1.066936000000000107e+01 1.279354999999999905e+02 1.483494999999999891e+03
1.440000000000000169e-01 5.297199999999999687e-01 1.069966499999999954e+01 1.282085000000000150e+02 1.483565000000000055e+03
1.450000000000000178e-01 5.297764999999999835e-01 1.073880000000000123e+01 1.284789999999999850e+02 1.483644999999999982e+03
1.459999999999999909e-01 5.298300000000000232e-01 1.078099999999999881e+01 1.287379999999999995e+02 1.483719999999999800e+03
1.469999999999999918e-01 5.298789999999999889e-01 1.082113999999999976e+01 1.289770000000000039e+02 1.483785000000000082e+03
1.479999999999999927e-01 5.299220000000000041e-01 1.085483999999999938e+01 1.291904999999999859e+02 1.483855000000000018e+03
1.489999999999999936e-01 5.299584999999999990e-01 1.087856000000000023e+01 1.293750000000000000e+02 1.483914999999999964e+03
1.499999999999999944e-01 5.299880000000000146e-01 1.088963000000000036e+01 1.295264999999999986e+02 1.483965000000000146e+03
1.509999999999999953e-01 5.300099999999999811e-01 1.088625000000000043e+01 1.296435000000000173e+02 1.484005000000000109e+03
1.519999999999999962e-01 5.300255000000000383e-01 1.086742999999999881e+01 1.297274999999999920e+02 1.484034999999999854e+03
1.529999999999999971e-01 5.300340000000000051e-01 1.083298999999999879e+01 1.297789999999999964e+02 1.484059999999999945e+03
1.539999999999999980e-01 5.300365000000000215e-01 1.078341499999999975e+01 1.298009999999999877e+02 1.484070000000000164e+03
1.549999999999999989e-01 5.300344999999999640e-01 1.071982500000000016e+01 1.297969999999999970e+02 1.484079999999999927e+03
1.559999999999999998e-01 5.300279999999999436e-01 1.064379999999999882e+01 1.297710000000000150e+02 1.484079999999999927e+03
1.570000000000000007e-01 5.300175000000000303e-01 1.055735500000000116e+01 1.297280000000000086e+02 1.484069999999999936e+03
1.580000000000000016e-01 5.300055000000000183e-01 1.046278500000000022e+01 1.296725000000000136e+02 1.484059999999999945e+03
1.590000000000000024e-01 5.299920000000000186e-01 1.036251999999999995e+01 1.296095000000000255e+02 1.484045000000000073e+03
