# t [s], A [cm^2], U [cm/s], P [cPa], c [cm/s]
1.000000000000000021e-03 1.384400000000000075e-01 3.858125000000000027e-01 8.581014999999999304e+01 1.852320000000000164e+03
2.000000000000000042e-03 1.384084999999999899e-01 1.891352999999999840e+00 8.276640000000000441e+01 1.851970000000000027e+03
3.000000000000000062e-03 1.383125000000000049e-01 3.685999500000000317e+00 7.880854999999999677e+01 1.850964999999999918e+03
4.000000000000000083e-03 1.381764999999999799e-01 5.666428500000000312e+00 7.463894999999999413e+01 1.849559999999999945e+03
5.000000000000000104e-03 1.380264999999999964e-01 7.777185000000000237e+00 7.098015000000000896e+01 1.848029999999999973e+03
6.000000000000000125e-03 1.378800000000000026e-01 9.874604999999998967e+00 6.804555000000000575e+01 1.846534999999999854e+03
7.000000000000000146e-03 1.377410000000000023e-01 1.178038500000000077e+01 6.560880000000000223e+01 1.845144999999999982e+03
8.000000000000000167e-03 1.376120000000000121e-01 1.341310000000000002e+01 6.342610000000000525e+01 1.843869999999999891e+03
9.000000000000001055e-03 1.374945000000000195e-01 1.480020000000000024e+01 6.149325000000000330e+01 1.842734999999999900e+03
1.000000000000000194e-02 1.373925000000000007e-01 1.597785000000000011e+01 5.987720000000000198e+01 1.841755000000000109e+03
1.099999999999999936e-02 1.373059999999999836e-01 1.695690000000000097e+01 5.856250000000000000e+01 1.840930000000000064e+03
1.200000000000000025e-02 1.372335000000000083e-01 1.774735000000000085e+01 5.749645000000000294e+01 1.840250000000000000e+03
1.300000000000000114e-02 1.371740000000000181e-01 1.836080000000000112e+01 5.662825000000000131e+01 1.839695000000000164e+03
1.400000000000000203e-02 1.371245000000000103e-01 1.880444999999999922e+01 5.589244999999999663e+01 1.839240000000000009e+03
1.499999999999999944e-02 1.370824999999999960e-01 1.910069999999999979e+01 5.524060000000000059e+01 1.838865000000000009e+03
1.600000000000000033e-02 1.370484999999999898e-01 1.931649999999999778e+01 5.472809999999999775e+01 1.838565000000000055e+03
1.700000000000000122e-02 1.370244999999999935e-01 1.956159999999999854e+01 5.455180000000000007e+01 1.838365000000000009e+03
1.800000000000000211e-02 1.370184999999999875e-01 1.994585000000000008e+01 5.496869999999999834e+01 1.838315000000000055e+03
1.900000000000000300e-02 1.370345000000000035e-01 2.052469999999999928e+01 5.614379999999999882e+01 1.838474999999999909e+03
2.000000000000000042e-02 1.370740000000000014e-01 2.126800000000000068e+01 5.802790000000000248e+01 1.838860000000000127e+03
2.100000000000000130e-02 1.371330000000000049e-01 2.206745000000000090e+01 6.033719999999999573e+01 1.839424999999999955e+03
2.200000000000000219e-02 1.372019999999999906e-01 2.277539999999999765e+01 6.263609999999999900e+01 1.840095000000000027e+03
2.299999999999999961e-02 1.372700000000000031e-01 2.325435000000000230e+01 6.447709999999999297e+01 1.840750000000000000e+03
2.400000000000000050e-02 1.373240000000000016e-01 2.341830000000000211e+01 6.553629999999999711e+01 1.841289999999999964e+03
2.500000000000000139e-02 1.373584999999999945e-01 2.325274999999999892e+01 6.569790000000000418e+01 1.841644999999999982e+03
2.600000000000000228e-02 1.373690000000000189e-01 2.281009999999999849e+01 6.506480000000000530e+01 1.841775000000000091e+03
2.700000000000000316e-02 1.373594999999999955e-01 2.218554999999999922e+01 6.390004999999999313e+01 1.841710000000000036e+03
2.800000000000000058e-02 1.373365000000000002e-01 2.148295000000000243e+01 6.252795000000000414e+01 1.841500000000000000e+03
2.900000000000000147e-02 1.373064999999999980e-01 2.078545000000000087e+01 6.123270000000000124e+01 1.841224999999999909e+03
3.000000000000000236e-02 1.372760000000000091e-01 2.013745000000000118e+01 6.018710000000000093e+01 1.840934999999999945e+03
3.099999999999999978e-02 1.372490000000000099e-01 1.954224999999999923e+01 5.942869999999999919e+01 1.840675000000000182e+03
3.200000000000000067e-02 1.372265000000000013e-01 1.897299999999999898e+01 5.888105000000000189e+01 1.840454999999999927e+03
3.300000000000000155e-02 1.372059999999999946e-01 1.839050000000000296e+01 5.840550000000000352e+01 1.840264999999999873e+03
3.400000000000000244e-02 1.371860000000000024e-01 1.776225000000000165e+01 5.786249999999999716e+01 1.840075000000000045e+03
3.500000000000000333e-02 1.371634999999999938e-01 1.707730000000000103e+01 5.716514999999999702e+01 1.839860000000000127e+03
3.600000000000000422e-02 1.371370000000000089e-01 1.635369999999999990e+01 5.631074999999999875e+01 1.839610000000000127e+03
3.700000000000000511e-02 1.371070000000000066e-01 1.563649999999999984e+01 5.538569999999999993e+01 1.839329999999999927e+03
3.799999999999999906e-02 1.370770000000000044e-01 1.498780000000000001e+01 5.454279999999999973e+01 1.839039999999999964e+03
3.899999999999999994e-02 1.370509999999999784e-01 1.447235000000000049e+01 5.395994999999999919e+01 1.838789999999999964e+03
4.000000000000000083e-02 1.370335000000000025e-01 1.414120000000000132e+01 5.379200000000000159e+01 1.838615000000000009e+03
4.100000000000000172e-02 1.370290000000000119e-01 1.401895000000000024e+01 5.412850000000000250e+01 1.838565000000000055e+03
4.200000000000000261e-02 1.370389999999999942e-01 1.409724999999999895e+01 5.496790000000000020e+01 1.838644999999999982e+03
4.300000000000000350e-02 1.370640000000000192e-01 1.433514999999999873e+01 5.621374999999999744e+01 1.838869999999999891e+03
4.400000000000000439e-02 1.370999999999999996e-01 1.466584999999999894e+01 5.769060000000000343e+01 1.839199999999999818e+03
4.499999999999999833e-02 1.371425000000000005e-01 1.500755000000000017e+01 5.917549999999999955e+01 1.839599999999999909e+03
4.599999999999999922e-02 1.371855000000000158e-01 1.527599999999999980e+01 6.043489999999999895e+01 1.840009999999999991e+03
4.700000000000000011e-02 1.372220000000000106e-01 1.539569999999999972e+01 6.126044999999999874e+01 1.840360000000000127e+03
4.800000000000000100e-02 1.372464999999999935e-01 1.530845000000000056e+01 6.149625000000000341e+01 1.840599999999999909e+03
4.900000000000000189e-02 1.372535000000000005e-01 1.497844999999999871e+01 6.105445000000000277e+01 1.840674999999999955e+03
5.000000000000000278e-02 1.372415000000000163e-01 1.439310000000000045e+01 5.991825000000000045e+01 1.840559999999999945e+03
5.100000000000000366e-02 1.372069999999999956e-01 1.356085000000000029e+01 5.813419999999999987e+01 1.840244999999999891e+03
5.200000000000000455e-02 1.371529999999999971e-01 1.250759500000000024e+01 5.579720000000000368e+01 1.839740000000000009e+03
5.300000000000000544e-02 1.370804999999999940e-01 1.127100500000000061e+01 5.303280000000000172e+01 1.839050000000000182e+03
5.399999999999999939e-02 1.369929999999999759e-01 9.896114999999999995e+00 4.997960000000000491e+01 1.838220000000000027e+03
5.500000000000000028e-02 1.368945000000000023e-01 8.431274999999999409e+00 4.677580000000000382e+01 1.837279999999999973e+03
5.600000000000000117e-02 1.367889999999999939e-01 6.925485000000000113e+00 4.354999999999999716e+01 1.836275000000000091e+03
5.700000000000000205e-02 1.366799999999999959e-01 5.426655000000000229e+00 4.041729999999999734e+01 1.835235000000000127e+03
5.800000000000000294e-02 1.365719999999999990e-01 3.981144500000000086e+00 3.747894999999999754e+01 1.834199999999999818e+03
5.900000000000000383e-02 1.364680000000000060e-01 2.633454500000000031e+00 3.482410000000000139e+01 1.833199999999999818e+03
6.000000000000000472e-02 1.363715000000000066e-01 1.426144999999999996e+00 3.253280000000000172e+01 1.832280000000000200e+03
6.099999999999999867e-02 1.362865000000000049e-01 3.994699999999999918e-01 3.067739999999999867e+01 1.831454999999999927e+03
6.199999999999999956e-02 1.362144999999999884e-01 -4.093999999999999861e-01 2.932369999999999877e+01 1.830755000000000109e+03
6.300000000000000044e-02 1.361585000000000156e-01 -9.675439999999999596e-01 2.852919999999999945e+01 1.830210000000000036e+03
6.400000000000000133e-02 1.361209999999999920e-01 -1.247767999999999988e+00 2.834094999999999942e+01 1.829839999999999918e+03
6.500000000000000222e-02 1.361045000000000171e-01 -1.230175000000000018e+00 2.879180000000000206e+01 1.829655000000000200e+03
6.600000000000000311e-02 1.361085000000000211e-01 -9.035060000000000313e-01 2.989734999999999943e+01 1.829680000000000064e+03
6.700000000000000400e-02 1.361350000000000060e-01 -2.661620000000000097e-01 3.165299999999999869e+01 1.829914999999999964e+03
6.800000000000000488e-02 1.361850000000000005e-01 6.734700000000000131e-01 3.403284999999999627e+01 1.830365000000000009e+03
6.900000000000000577e-02 1.362559999999999882e-01 1.897289999999999921e+00 3.699000000000000199e+01 1.831025000000000091e+03
7.000000000000000666e-02 1.363475000000000104e-01 3.378455999999999904e+00 4.045879999999999654e+01 1.831884999999999991e+03
7.100000000000000755e-02 1.364585000000000103e-01 5.082840000000000025e+00 4.435869999999999891e+01 1.832930000000000064e+03
7.200000000000000844e-02 1.365854999999999986e-01 6.970899999999999430e+00 4.859879999999999711e+01 1.834130000000000109e+03
7.300000000000000933e-02 1.367265000000000008e-01 8.999750000000000583e+00 5.308315000000000339e+01 1.835465000000000146e+03
7.399999999999999634e-02 1.368769999999999987e-01 1.112501499999999943e+01 5.771565000000000367e+01 1.836905000000000200e+03
7.499999999999999722e-02 1.370359999999999912e-01 1.330305999999999855e+01 6.240494999999999948e+01 1.838425000000000182e+03
7.599999999999999811e-02 1.371985000000000010e-01 1.549235000000000007e+01 6.706789999999999452e+01 1.839985000000000127e+03
7.699999999999999900e-02 1.373630000000000129e-01 1.765525000000000233e+01 7.163309999999999889e+01 1.841569999999999936e+03
7.799999999999999989e-02 1.375264999999999960e-01 1.975890000000000057e+01 7.604269999999999641e+01 1.843150000000000091e+03
7.900000000000000078e-02 1.376864999999999895e-01 2.177649999999999864e+01 8.025399999999999068e+01 1.844704999999999927e+03
8.000000000000000167e-02 1.378420000000000201e-01 2.368775000000000119e+01 8.424010000000001241e+01 1.846215000000000146e+03
8.100000000000000255e-02 1.379909999999999748e-01 2.547925000000000040e+01 8.798999999999999488e+01 1.847675000000000182e+03
8.200000000000000344e-02 1.381330000000000058e-01 2.714470000000000027e+01 9.150764999999999816e+01 1.849070000000000164e+03
8.300000000000000433e-02 1.382684999999999886e-01 2.868440000000000012e+01 9.481074999999999875e+01 1.850400000000000091e+03
8.400000000000000522e-02 1.383975000000000066e-01 3.010454999999999970e+01 9.792814999999998804e+01 1.851670000000000073e+03
8.500000000000000611e-02 1.385200000000000042e-01 3.141635000000000133e+01 1.008982499999999902e+02 1.852884999999999991e+03
8.600000000000000699e-02 1.386379999999999835e-01 3.263504999999999967e+01 1.037638000000000034e+02 1.854050000000000182e+03
8.700000000000000788e-02 1.387519999999999865e-01 3.377805000000000035e+01 1.065715000000000003e+02 1.855184999999999945e+03
8.800000000000000877e-02 1.388639999999999874e-01 3.486390000000000100e+01 1.093654999999999973e+02 1.856289999999999964e+03
8.899999999999999578e-02 1.389750000000000152e-01 3.591060000000000230e+01 1.121854999999999905e+02 1.857394999999999982e+03
8.999999999999999667e-02 1.390859999999999874e-01 3.693430000000000035e+01 1.150649999999999977e+02 1.858500000000000000e+03
9.099999999999999756e-02 1.391985000000000028e-01 3.794835000000000491e+01 1.180270000000000010e+02 1.859615000000000009e+03
9.199999999999999845e-02 1.393130000000000202e-01 3.896229999999999905e+01 1.210850000000000080e+02 1.860750000000000000e+03
9.299999999999999933e-02 1.394305000000000128e-01 3.998145000000000238e+01 1.242390000000000043e+02 1.861909999999999854e+03
9.400000000000000022e-02 1.395504999999999940e-01 4.100650000000000261e+01 1.274799999999999898e+02 1.863105000000000018e+03
9.500000000000000111e-02 1.396724999999999772e-01 4.203374999999999773e+01 1.307869999999999777e+02 1.864319999999999936e+03
9.600000000000000200e-02 1.397970000000000046e-01 4.305535000000000423e+01 1.341299999999999955e+02 1.865549999999999955e+03
9.700000000000000289e-02 1.399225000000000052e-01 4.405995000000000061e+01 1.374720000000000084e+02 1.866795000000000073e+03
9.800000000000000377e-02 1.400474999999999914e-01 4.503345000000000198e+01 1.407715000000000032e+02 1.868045000000000073e+03
9.900000000000000466e-02 1.401720000000000188e-01 4.595985000000000298e+01 1.439834999999999923e+02 1.869280000000000200e+03
1.000000000000000056e-01 1.402930000000000010e-01 4.682210000000000605e+01 1.470635000000000048e+02 1.870490000000000009e+03
1.010000000000000064e-01 1.404100000000000070e-01 4.760314999999999941e+01 1.499685000000000059e+02 1.871655000000000200e+03
1.020000000000000073e-01 1.405215000000000214e-01 4.828679999999999950e+01 1.526594999999999800e+02 1.872769999999999982e+03
1.030000000000000082e-01 1.406255000000000144e-01 4.885829999999999984e+01 1.551019999999999754e+02 1.873815000000000055e+03
1.040000000000000091e-01 1.407209999999999850e-01 4.930539999999999878e+01 1.572685000000000173e+02 1.874784999999999854e+03
1.050000000000000100e-01 1.408079999999999887e-01 4.961844999999999573e+01 1.591385000000000218e+02 1.875659999999999854e+03
1.059999999999999970e-01 1.408844999999999958e-01 4.979095000000000226e+01 1.607015000000000100e+02 1.876434999999999945e+03
1.069999999999999979e-01 1.409509999999999930e-01 4.982000000000000028e+01 1.619519999999999982e+02 1.877110000000000127e+03
1.079999999999999988e-01 1.410064999999999791e-01 4.970615000000000094e+01 1.628949999999999818e+02 1.877679999999999836e+03
1.089999999999999997e-01 1.410514999999999963e-01 4.945354999999999990e+01 1.635414999999999850e+02 1.878139999999999873e+03
1.100000000000000006e-01 1.410854999999999748e-01 4.906945000000000334e+01 1.639100000000000250e+02 1.878494999999999891e+03
1.110000000000000014e-01 1.411100000000000132e-01 4.856425000000000125e+01 1.640244999999999891e+02 1.878750000000000000e+03
1.120000000000000023e-01 1.411250000000000004e-01 4.795089999999999719e+01 1.639149999999999920e+02 1.878909999999999854e+03
1.130000000000000032e-01 1.411310000000000064e-01 4.724434999999999718e+01 1.636129999999999995e+02 1.878985000000000127e+03
1.140000000000000041e-01 1.411295000000000188e-01 4.646110000000000184e+01 1.631545000000000130e+02 1.878985000000000127e+03
1.150000000000000050e-01 1.411224999999999841e-01 4.561849999999999739e+01 1.625745000000000005e+02 1.878914999999999964e+03
1.160000000000000059e-01 1.411100000000000132e-01 4.473404999999999632e+01 1.619089999999999918e+02 1.878800000000000182e+03
1.170000000000000068e-01 1.410934999999999828e-01 4.382489999999999952e+01 1.611924999999999955e+02 1.878640000000000100e+03
1.180000000000000077e-01 1.410739999999999772e-01 4.290740000000000265e+01 1.604544999999999959e+02 1.878450000000000045e+03
1.190000000000000085e-01 1.410524999999999973e-01 4.199625000000000341e+01 1.597235000000000014e+02 1.878239999999999782e+03
1.200000000000000094e-01 1.410305000000000031e-01 4.110425000000000040e+01 1.590225000000000080e+02 1.878030000000000200e+03
1.209999999999999964e-01 1.410084999999999811e-01 4.024214999999999520e+01 1.583689999999999998e+02 1.877805000000000064e+03
1.219999999999999973e-01 1.409874999999999878e-01 3.941799999999999926e+01 1.577744999999999891e+02 1.877590000000000146e+03
1.229999999999999982e-01 1.409675000000000233e-01 3.863710000000000377e+01 1.572464999999999975e+02 1.877389999999999873e+03
1.239999999999999991e-01 1.409489999999999910e-01 3.790245000000000175e+01 1.567864999999999895e+02 1.877204999999999927e+03
1.250000000000000000e-01 1.409320000000000017e-01 3.721399999999999864e+01 1.563894999999999982e+02 1.877034999999999854e+03
1.260000000000000009e-01 1.409170000000000145e-01 3.656954999999999956e+01 1.560464999999999804e+02 1.876884999999999991e+03
1.270000000000000018e-01 1.409035000000000148e-01 3.596465000000000600e+01 1.557454999999999927e+02 1.876740000000000009e+03
1.280000000000000027e-01 1.408915000000000028e-01 3.539289999999999736e+01 1.554705000000000155e+02 1.876610000000000127e+03
1.290000000000000036e-01 1.408800000000000052e-01 3.484660000000000224e+01 1.552019999999999982e+02 1.876494999999999891e+03
1.300000000000000044e-01 1.408685000000000076e-01 3.431694999999999851e+01 1.549205000000000041e+02 1.876375000000000000e+03
1.310000000000000053e-01 1.408570000000000100e-01 3.379460000000000264e+01 1.546059999999999945e+02 1.876255000000000109e+03
1.320000000000000062e-01 1.408439999999999970e-01 3.327020000000000266e+01 1.542379999999999995e+02 1.876125000000000000e+03
1.330000000000000071e-01 1.408294999999999964e-01 3.273449999999999704e+01 1.537994999999999948e+02 1.875974999999999909e+03
1.340000000000000080e-01 1.408129999999999937e-01 3.217950000000000443e+01 1.532735000000000127e+02 1.875815000000000055e+03
1.350000000000000089e-01 1.407940000000000025e-01 3.159799999999999898e+01 1.526485000000000127e+02 1.875615000000000009e+03
1.360000000000000098e-01 1.407710000000000072e-01 3.098445000000000249e+01 1.519150000000000205e+02 1.875389999999999873e+03
1.370000000000000107e-01 1.407450000000000090e-01 3.033509999999999707e+01 1.510685000000000002e+02 1.875125000000000000e+03
1.380000000000000115e-01 1.407150000000000067e-01 2.964820000000000277e+01 1.501095000000000255e+02 1.874829999999999927e+03
1.390000000000000124e-01 1.406815000000000149e-01 2.892399999999999949e+01 1.490409999999999968e+02 1.874494999999999891e+03
1.400000000000000133e-01 1.406439999999999912e-01 2.816479999999999961e+01 1.478729999999999905e+02 1.874125000000000000e+03
1.410000000000000142e-01 1.406025000000000191e-01 2.737500000000000000e+01 1.466179999999999950e+02 1.873715000000000146e+03
1.420000000000000151e-01 1.405589999999999895e-01 2.656069999999999709e+01 1.452930000000000064e+02 1.873279999999999973e+03
1.430000000000000160e-01 1.405119999999999980e-01 2.572960000000000136e+01 1.439170000000000016e+02 1.872815000000000055e+03
1.440000000000000169e-01 1.404634999999999911e-01 2.489070000000000249e+01 1.425120000000000005e+02 1.872329999999999927e+03
1.450000000000000178e-01 1.404134999999999966e-01 2.405389999999999873e+01 1.411020000000000039e+02 1.871835000000000036e+03
1.459999999999999909e-01 1.403630000000000155e-01 2.322944999999999993e+01 1.397094999999999914e+02 1.871335000000000036e+03
1.469999999999999918e-01 1.403129999999999933e-01 2.242779999999999774e+01 1.383590000000000089e+02 1.870829999999999927e+03
1.479999999999999927e-01 1.402634999999999854e-01 2.165905000000000058e+01 1.370710000000000264e+02 1.870340000000000146e+03
1.489999999999999936e-01 1.402160000000000073e-01 2.093249999999999744e+01 1.358659999999999854e+02 1.869869999999999891e+03
1.499999999999999944e-01 1.401709999999999900e-01 2.025645000000000095e+01 1.347605000000000075e+02 1.869420000000000073e+03
1.509999999999999953e-01 1.401290000000000036e-01 1.963770000000000238e+01 1.337680000000000007e+02 1.869000000000000000e+03
1.519999999999999962e-01 1.400905000000000067e-01 1.908169999999999789e+01 1.328990000000000009e+02 1.868610000000000127e+03
1.529999999999999971e-01 1.400560000000000138e-01 1.859199999999999875e+01 1.321585000000000036e+02 1.868265000000000100e+03
1.539999999999999980e-01 1.400259999999999838e-01 1.817045000000000243e+01 1.315484999999999900e+02 1.867960000000000036e+03
1.549999999999999989e-01 1.400000000000000133e-01 1.781700000000000017e+01 1.310670000000000073e+02 1.867695000000000164e+03
1.559999999999999998e-01 1.399785000000000057e-01 1.752994999999999948e+01 1.307090000000000032e+02 1.867474999999999909e+03
1.570000000000000007e-01 1.399610000000000021e-01 1.730604999999999905e+01 1.304644999999999868e+02 1.867295000000000073e+03
1.580000000000000016e-01 1.399480000000000168e-01 1.714065000000000083e+01 1.303240000000000123e+02 1.867160000000000082e+03
1.590000000000000024e-01 1.399384999999999935e-01 1.702810000000000201e+01 1.302735000000000127e+02 1.867065000000000055e+03
