# t [s], A [cm^2], U [cm/s], P [cPa], c [cm/s]
1.000000000000000021e-03 5.285770000000000746e-01 3.544349999999994727e-03 9.310575000000000045e+01 1.527275000000000091e+03
2.000000000000000042e-03 5.285695000000000254e-01 -1.635604999999999828e-03 9.308574999999999022e+01 1.527264999999999873e+03
3.000000000000000062e-03 5.286024999999999752e-01 6.384745000000000004e-02 9.314889999999999759e+01 1.527284999999999854e+03
4.000000000000000083e-03 5.286469999999999780e-01 1.545859500000000275e-01 9.325889999999999702e+01 1.527315000000000055e+03
5.000000000000000104e-03 5.286470000000000891e-01 1.649799999999999878e-01 9.326804999999998813e+01 1.527315000000000055e+03
6.000000000000000125e-03 5.286070000000000491e-01 9.690399999999999014e-02 9.314185000000000514e+01 1.527289999999999964e+03
7.000000000000000146e-03 5.285664999999999392e-01 2.183000000000001606e-02 9.295140000000000668e+01 1.527250000000000000e+03
8.000000000000000167e-03 5.285199999999999898e-01 -7.047950000000002824e-02 9.269884999999999309e+01 1.527190000000000055e+03
9.000000000000001055e-03 5.284400000000000208e-01 -2.396224999999999605e-01 9.231369999999999720e+01 1.527105000000000018e+03
1.000000000000000194e-02 5.283165000000000777e-01 -5.058949999999999836e-01 9.174819999999999709e+01 1.526970000000000027e+03
1.099999999999999936e-02 5.281439999999999468e-01 -8.770449999999999635e-01 9.096524999999999750e+01 1.526784999999999854e+03
1.200000000000000025e-02 5.279095000000000315e-01 -1.367734999999999701e+00 8.991759999999999309e+01 1.526530000000000200e+03
1.300000000000000114e-02 5.276119999999999699e-01 -1.965560000000000196e+00 8.858665000000000589e+01 1.526204999999999927e+03
1.400000000000000203e-02 5.272765000000000368e-01 -2.603899999999999881e+00 8.702564999999999884e+01 1.525815000000000055e+03
1.499999999999999944e-02 5.269420000000000215e-01 -3.179124999999999979e+00 8.535450000000000159e+01 1.525384999999999991e+03
1.600000000000000033e-02 5.266440000000000010e-01 -3.593994999999999607e+00 8.371189999999999998e+01 1.524940000000000055e+03
1.700000000000000122e-02 5.263980000000000325e-01 -3.792115000000000347e+00 8.220465000000000089e+01 1.524514999999999873e+03
1.800000000000000211e-02 5.262025000000000174e-01 -3.768240500000000104e+00 8.087944999999999141e+01 1.524119999999999891e+03
1.900000000000000300e-02 5.260380000000000056e-01 -3.558266499999999777e+00 7.972220000000000084e+01 1.523755000000000109e+03
2.000000000000000042e-02 5.258795000000000552e-01 -3.219430000000000014e+00 7.867570000000000618e+01 1.523409999999999854e+03
2.100000000000000130e-02 5.257070000000000354e-01 -2.809391950000000193e+00 7.766554999999999609e+01 1.523070000000000164e+03
2.200000000000000219e-02 5.255054999999999588e-01 -2.369880999999999904e+00 7.662645000000000550e+01 1.522730000000000018e+03
2.299999999999999961e-02 5.252749999999999364e-01 -1.918484999999999996e+00 7.552009999999999934e+01 1.522369999999999891e+03
2.400000000000000050e-02 5.250215000000000298e-01 -1.450134999999999952e+00 7.434199999999999875e+01 1.521994999999999891e+03
2.500000000000000139e-02 5.247585000000000166e-01 -9.468049999999998967e-01 7.311469999999999914e+01 1.521610000000000127e+03
2.600000000000000228e-02 5.244959999999999622e-01 -3.909000000000002473e-01 7.187239999999999895e+01 1.521220000000000027e+03
2.700000000000000316e-02 5.242415000000000269e-01 2.228400000000001491e-01 7.064345000000000141e+01 1.520829999999999927e+03
2.800000000000000058e-02 5.239924999999999722e-01 8.806650000000000311e-01 6.943690000000000850e+01 1.520440000000000055e+03
2.900000000000000147e-02 5.237399999999999833e-01 1.549545000000000172e+00 6.823619999999999663e+01 1.520054999999999836e+03
3.000000000000000236e-02 5.234699999999999909e-01 2.182495000000000296e+00 6.700119999999999720e+01 1.519654999999999973e+03
3.099999999999999978e-02 5.231664999999999788e-01 2.727519999999999722e+00 6.567695000000000505e+01 1.519240000000000009e+03
3.200000000000000067e-02 5.228169999999999762e-01 3.138040000000000163e+00 6.420674999999999955e+01 1.518795000000000073e+03
3.300000000000000155e-02 5.224145000000000039e-01 3.382394999999999818e+00 6.254680000000000462e+01 1.518304999999999836e+03
3.400000000000000244e-02 5.219595000000000207e-01 3.450384999999999813e+00 6.067839999999999634e+01 1.517764999999999873e+03
3.500000000000000333e-02 5.214620000000000921e-01 3.355055000000000121e+00 5.861530000000000484e+01 1.517184999999999945e+03
3.600000000000000422e-02 5.209394999999999998e-01 3.130114999999999981e+00 5.640444999999999709e+01 1.516559999999999945e+03
3.700000000000000511e-02 5.204109999999999570e-01 2.823145000000000238e+00 5.411995000000000289e+01 1.515914999999999964e+03
3.799999999999999906e-02 5.199015000000000164e-01 2.487319999999999975e+00 5.185259999999999536e+01 1.515269999999999982e+03
3.899999999999999994e-02 5.194305000000000172e-01 2.173909999999999787e+00 4.969835000000000491e+01 1.514650000000000091e+03
4.000000000000000083e-02 5.190154999999999630e-01 1.926484999999999559e+00 4.774745000000000061e+01 1.514069999999999936e+03
4.100000000000000172e-02 5.186695000000000055e-01 1.777954999999999952e+00 4.607625000000000171e+01 1.513559999999999945e+03
4.200000000000000261e-02 5.183999999999999719e-01 1.750214999999999854e+00 4.474295000000000044e+01 1.513134999999999991e+03
4.300000000000000350e-02 5.182124999999999648e-01 1.855704999999999938e+00 4.378665000000000163e+01 1.512799999999999955e+03
4.400000000000000439e-02 5.181069999999999842e-01 2.100087999999999955e+00 4.322889999999999588e+01 1.512579999999999927e+03
4.499999999999999833e-02 5.180844999999999478e-01 2.485244999999999926e+00 4.307724999999999937e+01 1.512464999999999918e+03
4.599999999999999922e-02 5.181430000000000202e-01 3.011800000000000033e+00 4.332954999999999757e+01 1.512465000000000146e+03
4.700000000000000011e-02 5.182805000000000328e-01 3.680730000000000057e+00 4.397785000000000366e+01 1.512569999999999936e+03
4.800000000000000100e-02 5.184969999999999857e-01 4.493789999999999729e+00 4.501115000000000066e+01 1.512789999999999964e+03
4.900000000000000189e-02 5.187895000000000145e-01 5.452880000000000393e+00 4.641670000000000584e+01 1.513125000000000000e+03
5.000000000000000278e-02 5.191565000000000207e-01 6.558729999999999727e+00 4.817980000000000018e+01 1.513559999999999945e+03
5.100000000000000366e-02 5.195944999999999592e-01 7.809269999999999712e+00 5.028325000000000244e+01 1.514094999999999800e+03
5.200000000000000455e-02 5.200989999999999780e-01 9.198324999999998752e+00 5.270564999999999856e+01 1.514719999999999800e+03
5.300000000000000544e-02 5.206644999999999746e-01 1.071490999999999971e+01 5.542034999999999911e+01 1.515434999999999945e+03
5.399999999999999939e-02 5.212820000000000231e-01 1.234305000000000163e+01 5.839504999999999768e+01 1.516240000000000009e+03
5.500000000000000028e-02 5.219439999999999635e-01 1.406260999999999939e+01 6.159210000000000207e+01 1.517105000000000018e+03
5.600000000000000117e-02 5.226410000000000222e-01 1.585030000000000072e+01 6.496970000000000312e+01 1.518034999999999854e+03
5.700000000000000205e-02 5.233630000000000226e-01 1.768148000000000053e+01 6.848395000000000721e+01 1.519014999999999873e+03
5.800000000000000294e-02 5.241010000000000391e-01 1.953150000000000119e+01 7.209045000000000414e+01 1.520025000000000091e+03
5.900000000000000383e-02 5.248460000000000347e-01 2.137734999999999985e+01 7.574760000000000559e+01 1.521065000000000055e+03
6.000000000000000472e-02 5.255920000000000591e-01 2.319855000000000089e+01 7.941774999999999807e+01 1.522125000000000000e+03
6.099999999999999867e-02 5.263315000000000632e-01 2.497834999999999894e+01 8.306925000000001091e+01 1.523184999999999945e+03
6.199999999999999956e-02 5.270624999999999893e-01 2.670365000000000322e+01 8.667754999999999654e+01 1.524240000000000009e+03
6.300000000000000044e-02 5.277819999999999734e-01 2.836514999999999986e+01 9.022509999999999764e+01 1.525289999999999964e+03
6.400000000000000133e-02 5.284879999999999578e-01 2.995725000000000193e+01 9.370140000000000668e+01 1.526329999999999927e+03
6.500000000000000222e-02 5.291810000000000125e-01 3.147710000000000008e+01 9.710320000000000107e+01 1.527349999999999909e+03
6.600000000000000311e-02 5.298614999999999853e-01 3.292445000000000022e+01 1.004319000000000131e+02 1.528355000000000018e+03
6.700000000000000400e-02 5.305325000000000735e-01 3.430075000000000074e+01 1.036924500000000080e+02 1.529349999999999909e+03
6.800000000000000488e-02 5.311945000000000139e-01 3.560855000000000103e+01 1.068945499999999953e+02 1.530324999999999818e+03
6.900000000000000577e-02 5.318500000000000449e-01 3.685105000000000075e+01 1.100474999999999994e+02 1.531289999999999964e+03
7.000000000000000666e-02 5.325005000000000432e-01 3.803140000000000498e+01 1.131604999999999990e+02 1.532244999999999891e+03
7.100000000000000755e-02 5.331464999999999677e-01 3.915234999999999843e+01 1.162425000000000068e+02 1.533194999999999936e+03
7.200000000000000844e-02 5.337905000000000566e-01 4.021594999999999942e+01 1.192994999999999948e+02 1.534134999999999991e+03
7.300000000000000933e-02 5.344320000000000181e-01 4.122285000000000110e+01 1.223349999999999937e+02 1.535069999999999936e+03
7.399999999999999634e-02 5.350699999999999346e-01 4.217270000000000607e+01 1.253485000000000014e+02 1.535994999999999891e+03
7.499999999999999722e-02 5.357030000000000403e-01 4.306374999999999886e+01 1.283360000000000127e+02 1.536914999999999964e+03
7.599999999999999811e-02 5.363295000000000146e-01 4.389294999999999902e+01 1.312899999999999920e+02 1.537829999999999927e+03
7.699999999999999900e-02 5.369460000000000344e-01 4.465635000000000332e+01 1.341979999999999791e+02 1.538730000000000018e+03
7.799999999999999989e-02 5.375499999999999723e-01 4.534914999999999452e+01 1.370480000000000018e+02 1.539615000000000009e+03
7.900000000000000078e-02 5.381375000000000464e-01 4.596625000000000227e+01 1.398224999999999909e+02 1.540480000000000018e+03
8.000000000000000167e-02 5.387049999999999894e-01 4.650244999999999607e+01 1.425054999999999836e+02 1.541319999999999936e+03
8.100000000000000255e-02 5.392500000000000071e-01 4.695295000000000130e+01 1.450805000000000007e+02 1.542134999999999991e+03
8.200000000000000344e-02 5.397684999999999844e-01 4.731345000000000312e+01 1.475305000000000177e+02 1.542909999999999854e+03
8.300000000000000433e-02 5.402569999999999872e-01 4.758075000000000188e+01 1.498414999999999964e+02 1.543650000000000091e+03
8.400000000000000522e-02 5.407144999999999868e-01 4.775244999999999607e+01 1.520009999999999764e+02 1.544349999999999909e+03
8.500000000000000611e-02 5.411384999999999668e-01 4.782750000000000057e+01 1.539984999999999786e+02 1.545000000000000000e+03
8.600000000000000699e-02 5.415274999999999395e-01 4.780604999999999905e+01 1.558274999999999864e+02 1.545610000000000127e+03
8.700000000000000788e-02 5.418815000000000159e-01 4.768949999999999534e+01 1.574830000000000041e+02 1.546160000000000082e+03
8.800000000000000877e-02 5.421994999999999454e-01 4.748064999999999714e+01 1.589644999999999868e+02 1.546664999999999964e+03
8.899999999999999578e-02 5.424830000000000485e-01 4.718325000000000102e+01 1.602735000000000127e+02 1.547119999999999891e+03
8.999999999999999667e-02 5.427319999999999922e-01 4.680254999999999654e+01 1.614145000000000039e+02 1.547514999999999873e+03
9.099999999999999756e-02 5.429490000000000149e-01 4.634475000000000477e+01 1.623955000000000268e+02 1.547869999999999891e+03
9.199999999999999845e-02 5.431350000000000344e-01 4.581705000000000183e+01 1.632244999999999777e+02 1.548174999999999955e+03
9.299999999999999933e-02 5.432934999999999848e-01 4.522759999999999536e+01 1.639144999999999754e+02 1.548434999999999945e+03
9.400000000000000022e-02 5.434265000000000345e-01 4.458525000000000205e+01 1.644774999999999920e+02 1.548655000000000200e+03
9.500000000000000111e-02 5.435370000000000479e-01 4.389920000000000044e+01 1.649290000000000020e+02 1.548840000000000146e+03
9.600000000000000200e-02 5.436280000000000001e-01 4.317900000000000205e+01 1.652835000000000036e+02 1.548990000000000009e+03
9.700000000000000289e-02 5.437030000000000474e-01 4.243430000000000035e+01 1.655564999999999998e+02 1.549115000000000009e+03
9.800000000000000377e-02 5.437655000000000127e-01 4.167414999999999736e+01 1.657644999999999982e+02 1.549210000000000036e+03
9.900000000000000466e-02 5.438169999999999948e-01 4.090725000000000477e+01 1.659209999999999923e+02 1.549289999999999964e+03
1.000000000000000056e-01 5.438609999999999278e-01 4.014140000000000441e+01 1.660409999999999968e+02 1.549355000000000018e+03
1.010000000000000064e-01 5.438994999999999802e-01 3.938315000000000055e+01 1.661340000000000146e+02 1.549400000000000091e+03
1.020000000000000073e-01 5.439344999999999875e-01 3.863785000000000025e+01 1.662119999999999891e+02 1.549440000000000055e+03
1.030000000000000082e-01 5.439674999999999372e-01 3.790944999999999965e+01 1.662805000000000177e+02 1.549480000000000018e+03
1.040000000000000091e-01 5.439979999999999816e-01 3.720019999999999527e+01 1.663460000000000036e+02 1.549505000000000109e+03
1.050000000000000100e-01 5.440270000000000383e-01 3.651115000000000066e+01 1.664099999999999966e+02 1.549534999999999854e+03
1.059999999999999970e-01 5.440549999999999553e-01 3.584170000000000300e+01 1.664730000000000132e+02 1.549559999999999945e+03
1.069999999999999979e-01 5.440800000000000081e-01 3.519019999999999726e+01 1.665324999999999989e+02 1.549585000000000036e+03
1.079999999999999988e-01 5.441019999999999746e-01 3.455389999999999873e+01 1.665835000000000150e+02 1.549599999999999909e+03
1.089999999999999997e-01 5.441194999999999782e-01 3.392909999999999826e+01 1.666209999999999809e+02 1.549610000000000127e+03
1.100000000000000006e-01 5.441310000000000313e-01 3.331184999999999974e+01 1.666394999999999982e+02 1.549619999999999891e+03
1.110000000000000014e-01 5.441344999999999654e-01 3.269754999999999967e+01 1.666295000000000073e+02 1.549615000000000009e+03
1.120000000000000023e-01 5.441300000000000026e-01 3.208190000000000452e+01 1.665850000000000080e+02 1.549610000000000127e+03
1.130000000000000032e-01 5.441145000000000564e-01 3.146055000000000135e+01 1.665000000000000000e+02 1.549590000000000146e+03
1.140000000000000041e-01 5.440884999999999749e-01 3.082965000000000089e+01 1.663669999999999902e+02 1.549554999999999836e+03
1.150000000000000050e-01 5.440500000000000336e-01 3.018595000000000184e+01 1.661804999999999950e+02 1.549500000000000000e+03
1.160000000000000059e-01 5.439990000000000103e-01 2.952689999999999770e+01 1.659384999999999764e+02 1.549440000000000055e+03
1.170000000000000068e-01 5.439355000000000162e-01 2.885085000000000122e+01 1.656390000000000100e+02 1.549355000000000018e+03
1.180000000000000077e-01 5.438594999999999402e-01 2.815704999999999814e+01 1.652810000000000059e+02 1.549259999999999991e+03
1.190000000000000085e-01 5.437714999999999632e-01 2.744575000000000031e+01 1.648665000000000020e+02 1.549144999999999982e+03
1.200000000000000094e-01 5.436720000000000441e-01 2.671829999999999927e+01 1.643990000000000009e+02 1.549014999999999873e+03
1.209999999999999964e-01 5.435634999999999772e-01 2.597684999999999889e+01 1.638834999999999980e+02 1.548869999999999891e+03
1.219999999999999973e-01 5.434465000000000545e-01 2.522460000000000235e+01 1.633274999999999864e+02 1.548715000000000146e+03
1.229999999999999982e-01 5.433234999999999593e-01 2.446544999999999703e+01 1.627384999999999877e+02 1.548549999999999955e+03
1.239999999999999991e-01 5.431960000000000122e-01 2.370390000000000086e+01 1.621259999999999764e+02 1.548375000000000000e+03
1.250000000000000000e-01 5.430669999999999664e-01 2.294519999999999982e+01 1.615000000000000000e+02 1.548195000000000164e+03
1.260000000000000009e-01 5.429380000000000317e-01 2.219470000000000098e+01 1.608710000000000093e+02 1.548009999999999991e+03
1.270000000000000018e-01 5.428115000000000023e-01 2.145799999999999841e+01 1.602504999999999882e+02 1.547824999999999818e+03
1.280000000000000027e-01 5.426895000000000469e-01 2.074060000000000059e+01 1.596475000000000080e+02 1.547650000000000091e+03
1.290000000000000036e-01 5.425735000000000419e-01 2.004779999999999873e+01 1.590730000000000075e+02 1.547469999999999800e+03
1.300000000000000044e-01 5.424664999999999626e-01 1.938439999999999941e+01 1.585344999999999800e+02 1.547309999999999945e+03
1.310000000000000053e-01 5.423685000000000311e-01 1.875459999999999994e+01 1.580414999999999850e+02 1.547150000000000091e+03
1.320000000000000062e-01 5.422825000000000006e-01 1.816195000000000093e+01 1.575989999999999895e+02 1.547014999999999873e+03
1.330000000000000071e-01 5.422074999999999534e-01 1.760914999999999964e+01 1.572115000000000009e+02 1.546884999999999991e+03
1.340000000000000080e-01 5.421445000000000292e-01 1.709795000000000087e+01 1.568820000000000050e+02 1.546769999999999982e+03
1.350000000000000089e-01 5.420939999999999648e-01 1.662910000000000110e+01 1.566109999999999900e+02 1.546679999999999836e+03
1.360000000000000098e-01 5.420555000000000234e-01 1.620244999999999891e+01 1.563994999999999891e+02 1.546599999999999909e+03
1.370000000000000107e-01 5.420279999999999543e-01 1.581715000000000160e+01 1.562429999999999950e+02 1.546534999999999854e+03
1.380000000000000115e-01 5.420104999999999507e-01 1.547124999999999950e+01 1.561390000000000100e+02 1.546490000000000009e+03
1.390000000000000124e-01 5.420025000000000537e-01 1.516230000000000189e+01 1.560815000000000055e+02 1.546454999999999927e+03
1.400000000000000133e-01 5.420019999999999838e-01 1.488724999999999987e+01 1.560645000000000095e+02 1.546434999999999945e+03
1.410000000000000142e-01 5.420080000000000453e-01 1.464270000000000138e+01 1.560824999999999818e+02 1.546424999999999955e+03
1.420000000000000151e-01 5.420190000000000285e-01 1.442495000000000083e+01 1.561265000000000214e+02 1.546424999999999955e+03
1.430000000000000160e-01 5.420329999999999870e-01 1.423025000000000162e+01 1.561904999999999859e+02 1.546434999999999945e+03
1.440000000000000169e-01 5.420494999999999619e-01 1.405489999999999995e+01 1.562674999999999841e+02 1.546450000000000045e+03
1.450000000000000178e-01 5.420665000000000067e-01 1.389535000000000053e+01 1.563509999999999991e+02 1.546465000000000146e+03
1.459999999999999909e-01 5.420835000000000514e-01 1.374830000000000041e+01 1.564360000000000070e+02 1.546480000000000018e+03
1.469999999999999918e-01 5.420989999999999975e-01 1.361090000000000089e+01 1.565169999999999959e+02 1.546500000000000000e+03
1.479999999999999927e-01 5.421130000000000670e-01 1.348059999999999903e+01 1.565905000000000200e+02 1.546514999999999873e+03
1.489999999999999936e-01 5.421245000000000092e-01 1.335529999999999973e+01 1.566535000000000082e+02 1.546525000000000091e+03
1.499999999999999944e-01 5.421340000000000048e-01 1.323329999999999984e+01 1.567044999999999959e+02 1.546539999999999964e+03
1.509999999999999953e-01 5.421405000000000252e-01 1.311345000000000027e+01 1.567429999999999950e+02 1.546555000000000064e+03
1.519999999999999962e-01 5.421445000000000292e-01 1.299484999999999957e+01 1.567675000000000125e+02 1.546559999999999945e+03
1.529999999999999971e-01 5.421464999999999756e-01 1.287689999999999912e+01 1.567800000000000011e+02 1.546565000000000055e+03
1.539999999999999980e-01 5.421454999999999469e-01 1.275949999999999918e+01 1.567810000000000059e+02 1.546559999999999945e+03
1.549999999999999989e-01 5.421435000000000004e-01 1.264254999999999995e+01 1.567719999999999914e+02 1.546559999999999945e+03
1.559999999999999998e-01 5.421394999999999964e-01 1.252619999999999933e+01 1.567545000000000073e+02 1.546555000000000064e+03
1.570000000000000007e-01 5.421350000000000335e-01 1.241084999999999994e+01 1.567315000000000111e+02 1.546545000000000073e+03
1.580000000000000016e-01 5.421295000000000419e-01 1.229680000000000106e+01 1.567040000000000077e+02 1.546545000000000073e+03
1.590000000000000024e-01 5.421234999999999804e-01 1.218445000000000000e+01 1.566734999999999900e+02 1.546535000000000082e+03
