# t [s], A [cm^2], U [cm/s], P [cPa], c [cm/s]
1.000000000000000021e-03 1.537160000000000193e-01 2.237369999999999914e-01 1.013465999999999951e+02 1.767159999999999854e+03
2.000000000000000042e-03 1.536974999999999869e-01 1.661205999999999960e+00 9.864275000000000659e+01 1.766994999999999891e+03
3.000000000000000062e-03 1.536075000000000079e-01 3.453532499999999672e+00 9.516804999999999382e+01 1.766244999999999891e+03
4.000000000000000083e-03 1.534650000000000181e-01 5.440363399999999849e+00 9.116400000000000148e+01 1.765074999999999818e+03
5.000000000000000104e-03 1.532930000000000126e-01 7.572684999999999889e+00 8.722069999999999368e+01 1.763675000000000182e+03
6.000000000000000125e-03 1.531115000000000115e-01 9.775560000000000471e+00 8.372894999999999754e+01 1.762210000000000036e+03
7.000000000000000146e-03 1.529320000000000124e-01 1.192794499999999935e+01 8.077344999999999686e+01 1.760779999999999973e+03
8.000000000000000167e-03 1.527610000000000079e-01 1.390912999999999933e+01 7.823045000000000471e+01 1.759429999999999836e+03
9.000000000000001055e-03 1.526000000000000134e-01 1.565913000000000110e+01 7.596985000000000809e+01 1.758179999999999836e+03
1.000000000000000194e-02 1.524524999999999908e-01 1.718110000000000070e+01 7.396895000000000664e+01 1.757050000000000182e+03
1.099999999999999936e-02 1.523214999999999986e-01 1.849620000000000175e+01 7.225755000000000905e+01 1.756059999999999945e+03
1.200000000000000025e-02 1.522080000000000100e-01 1.961779999999999902e+01 7.084064999999999657e+01 1.755199999999999818e+03
1.300000000000000114e-02 1.521104999999999818e-01 2.055424999999999969e+01 6.969110000000000582e+01 1.754480000000000018e+03
1.400000000000000203e-02 1.520294999999999841e-01 2.131269999999999953e+01 6.876724999999999000e+01 1.753884999999999991e+03
1.499999999999999944e-02 1.519619999999999860e-01 2.189885000000000304e+01 6.801734999999999332e+01 1.753394999999999982e+03
1.600000000000000033e-02 1.519059999999999855e-01 2.232249999999999801e+01 6.738989999999999725e+01 1.752994999999999891e+03
1.700000000000000122e-02 1.518589999999999940e-01 2.261064999999999969e+01 6.686469999999999914e+01 1.752670000000000073e+03
1.800000000000000211e-02 1.518220000000000125e-01 2.281465000000000032e+01 6.648435000000000628e+01 1.752414999999999964e+03
1.900000000000000300e-02 1.517965000000000009e-01 2.300274999999999892e+01 6.635360000000000014e+01 1.752244999999999891e+03
2.000000000000000042e-02 1.517864999999999909e-01 2.324049999999999727e+01 6.659989999999999100e+01 1.752190000000000055e+03
2.100000000000000130e-02 1.517944999999999989e-01 2.356884999999999764e+01 6.731435000000000457e+01 1.752264999999999873e+03
2.200000000000000219e-02 1.518220000000000125e-01 2.399105000000000132e+01 6.850440000000000396e+01 1.752480000000000018e+03
2.299999999999999961e-02 1.518674999999999886e-01 2.447339999999999804e+01 7.007800000000000296e+01 1.752829999999999927e+03
2.400000000000000050e-02 1.519265000000000199e-01 2.495680000000000121e+01 7.186299999999999955e+01 1.753284999999999854e+03
2.500000000000000139e-02 1.519935000000000036e-01 2.537465000000000259e+01 7.364965000000000828e+01 1.753799999999999955e+03
2.600000000000000228e-02 1.520615000000000161e-01 2.567020000000000124e+01 7.524105000000000132e+01 1.754325000000000045e+03
2.700000000000000316e-02 1.521239999999999815e-01 2.580855000000000032e+01 7.649465000000000714e+01 1.754815000000000055e+03
2.800000000000000058e-02 1.521764999999999923e-01 2.578200000000000003e+01 7.734555000000000291e+01 1.755230000000000018e+03
2.900000000000000147e-02 1.522169999999999912e-01 2.560689999999999955e+01 7.780790000000000362e+01 1.755555000000000064e+03
3.000000000000000236e-02 1.522465000000000068e-01 2.531595000000000084e+01 7.795714999999999861e+01 1.755789999999999964e+03
3.099999999999999978e-02 1.522654999999999981e-01 2.494684999999999775e+01 7.790014999999999645e+01 1.755950000000000045e+03
3.200000000000000067e-02 1.522764999999999813e-01 2.453240000000000265e+01 7.774285000000000423e+01 1.756050000000000182e+03
3.300000000000000155e-02 1.522835000000000161e-01 2.409375000000000000e+01 7.756475000000000364e+01 1.756105000000000018e+03
3.400000000000000244e-02 1.522875000000000201e-01 2.363799999999999812e+01 7.740494999999999948e+01 1.756144999999999982e+03
3.500000000000000333e-02 1.522890000000000077e-01 2.316015000000000157e+01 7.726170000000000471e+01 1.756159999999999854e+03
3.600000000000000422e-02 1.522890000000000077e-01 2.264840000000000231e+01 7.710384999999999422e+01 1.756159999999999854e+03
3.700000000000000511e-02 1.522860000000000047e-01 2.209084999999999965e+01 7.688785000000000025e+01 1.756144999999999982e+03
3.799999999999999906e-02 1.522795000000000121e-01 2.148144999999999882e+01 7.657730000000000814e+01 1.756099999999999909e+03
3.899999999999999994e-02 1.522685000000000011e-01 2.082455000000000211e+01 7.615850000000000364e+01 1.756030000000000200e+03
4.000000000000000083e-02 1.522540000000000004e-01 2.013640000000000185e+01 7.564949999999998909e+01 1.755920000000000073e+03
4.100000000000000172e-02 1.522359999999999824e-01 1.944429999999999836e+01 7.510044999999999504e+01 1.755789999999999964e+03
4.200000000000000261e-02 1.522169999999999912e-01 1.878215000000000146e+01 7.458625000000000682e+01 1.755644999999999982e+03
4.300000000000000350e-02 1.521994999999999876e-01 1.818504999999999683e+01 7.419225000000000136e+01 1.755514999999999873e+03
4.400000000000000439e-02 1.521870000000000167e-01 1.768345000000000056e+01 7.399799999999999045e+01 1.755420000000000073e+03
4.499999999999999833e-02 1.521810000000000107e-01 1.729769999999999897e+01 7.406159999999999854e+01 1.755375000000000000e+03
4.599999999999999922e-02 1.521845000000000003e-01 1.703479999999999706e+01 7.440800000000000125e+01 1.755394999999999982e+03
4.700000000000000011e-02 1.521980000000000000e-01 1.688745000000000118e+01 7.502404999999998836e+01 1.755490000000000009e+03
4.800000000000000100e-02 1.522209999999999952e-01 1.683545000000000158e+01 7.586009999999998854e+01 1.755654999999999973e+03
4.900000000000000189e-02 1.522515000000000118e-01 1.684855000000000302e+01 7.683750000000000568e+01 1.755880000000000109e+03
5.000000000000000278e-02 1.522880000000000067e-01 1.689090000000000202e+01 7.786005000000000109e+01 1.756144999999999982e+03
5.100000000000000366e-02 1.523260000000000169e-01 1.692530000000000001e+01 7.882669999999998822e+01 1.756430000000000064e+03
5.200000000000000455e-02 1.523625000000000118e-01 1.691760000000000019e+01 7.964424999999999955e+01 1.756704999999999927e+03
5.300000000000000544e-02 1.523940000000000017e-01 1.683924999999999983e+01 8.023629999999999995e+01 1.756944999999999936e+03
5.399999999999999939e-02 1.524189999999999989e-01 1.666924999999999812e+01 8.054970000000000141e+01 1.757130000000000109e+03
5.500000000000000028e-02 1.524334999999999996e-01 1.639499999999999957e+01 8.055649999999999977e+01 1.757250000000000000e+03
5.600000000000000117e-02 1.524375000000000036e-01 1.601160000000000139e+01 8.025254999999999939e+01 1.757279999999999973e+03
5.700000000000000205e-02 1.524294999999999956e-01 1.552064999999999984e+01 7.965404999999999802e+01 1.757224999999999909e+03
5.800000000000000294e-02 1.524105000000000043e-01 1.492910000000000181e+01 7.879165000000000418e+01 1.757085000000000036e+03
5.900000000000000383e-02 1.523805000000000021e-01 1.424729999999999919e+01 7.770525000000000659e+01 1.756865000000000009e+03
6.000000000000000472e-02 1.523410000000000042e-01 1.348805000000000121e+01 7.643899999999999295e+01 1.756569999999999936e+03
6.099999999999999867e-02 1.522934999999999983e-01 1.266554999999999964e+01 7.503759999999999764e+01 1.756210000000000036e+03
6.199999999999999956e-02 1.522394999999999998e-01 1.179490999999999978e+01 7.354419999999998936e+01 1.755804999999999836e+03
6.300000000000000044e-02 1.521799999999999820e-01 1.089206500000000055e+01 7.199975000000000591e+01 1.755360000000000127e+03
6.400000000000000133e-02 1.521170000000000022e-01 9.973940000000000694e+00 7.044310000000000116e+01 1.754884999999999991e+03
6.500000000000000222e-02 1.520529999999999937e-01 9.058389999999999276e+00 6.891225000000000023e+01 1.754400000000000091e+03
6.600000000000000311e-02 1.519884999999999986e-01 8.164529999999999177e+00 6.744525000000000148e+01 1.753909999999999854e+03
6.700000000000000400e-02 1.519250000000000045e-01 7.312789999999999679e+00 6.608105000000000473e+01 1.753430000000000064e+03
6.800000000000000488e-02 1.518654999999999866e-01 6.524395000000000167e+00 6.486010000000000275e+01 1.752980000000000018e+03
6.900000000000000577e-02 1.518110000000000015e-01 5.821189999999999642e+00 6.382359999999999900e+01 1.752559999999999945e+03
7.000000000000000666e-02 1.517629999999999812e-01 5.224854999999999805e+00 6.301275000000000404e+01 1.752195000000000164e+03
7.100000000000000755e-02 1.517239999999999978e-01 4.756115000000000315e+00 6.246725000000000705e+01 1.751894999999999982e+03
7.200000000000000844e-02 1.516954999999999831e-01 4.433844999999999814e+00 6.222315000000000396e+01 1.751670000000000073e+03
7.300000000000000933e-02 1.516790000000000083e-01 4.274235000000000007e+00 6.231135000000000446e+01 1.751529999999999973e+03
7.399999999999999634e-02 1.516755000000000186e-01 4.289960000000000662e+00 6.275515000000000043e+01 1.751494999999999891e+03
7.499999999999999722e-02 1.516869999999999885e-01 4.489614999999999689e+00 6.356935000000000002e+01 1.751570000000000164e+03
7.599999999999999811e-02 1.517129999999999868e-01 4.877264999999999517e+00 6.475889999999999702e+01 1.751759999999999991e+03
7.699999999999999900e-02 1.517554999999999876e-01 5.452315000000000467e+00 6.631889999999999930e+01 1.752065000000000055e+03
7.799999999999999989e-02 1.518130000000000035e-01 6.209564999999999557e+00 6.823429999999999040e+01 1.752490000000000009e+03
7.900000000000000078e-02 1.518859999999999932e-01 7.139495000000000147e+00 7.048130000000000450e+01 1.753030000000000200e+03
8.000000000000000167e-02 1.519735000000000114e-01 8.228775000000000617e+00 7.302840000000000487e+01 1.753679999999999836e+03
8.100000000000000255e-02 1.520745000000000013e-01 9.460919999999999774e+00 7.583795000000000641e+01 1.754430000000000064e+03
8.200000000000000344e-02 1.521869999999999890e-01 1.081699000000000055e+01 7.886814999999999998e+01 1.755275000000000091e+03
8.300000000000000433e-02 1.523105000000000153e-01 1.227644000000000091e+01 8.207519999999999527e+01 1.756204999999999927e+03
8.400000000000000522e-02 1.524429999999999952e-01 1.381780000000000186e+01 8.541495000000000459e+01 1.757199999999999818e+03
8.500000000000000611e-02 1.525825000000000098e-01 1.541965000000000074e+01 8.884510000000000218e+01 1.758259999999999991e+03
8.600000000000000699e-02 1.527270000000000016e-01 1.706129999999999924e+01 9.232624999999998749e+01 1.759355000000000018e+03
8.700000000000000788e-02 1.528760000000000119e-01 1.872319999999999851e+01 9.582374999999998977e+01 1.760490000000000009e+03
8.800000000000000877e-02 1.530265000000000097e-01 2.038775000000000048e+01 9.930875000000000341e+01 1.761634999999999991e+03
8.899999999999999578e-02 1.531790000000000096e-01 2.203945000000000221e+01 1.027570000000000050e+02 1.762805000000000064e+03
8.999999999999999667e-02 1.533309999999999951e-01 2.366499999999999915e+01 1.061522500000000093e+02 1.763965000000000146e+03
9.099999999999999756e-02 1.534820000000000073e-01 2.525379999999999825e+01 1.094825000000000017e+02 1.765130000000000109e+03
9.199999999999999845e-02 1.536315000000000042e-01 2.679724999999999824e+01 1.127419999999999902e+02 1.766284999999999854e+03
9.299999999999999933e-02 1.537789999999999990e-01 2.828920000000000101e+01 1.159290000000000020e+02 1.767424999999999955e+03
9.400000000000000022e-02 1.539245000000000196e-01 2.972510000000000119e+01 1.190450000000000017e+02 1.768550000000000182e+03
9.500000000000000111e-02 1.540675000000000239e-01 3.110215000000000174e+01 1.220939999999999941e+02 1.769654999999999973e+03
9.600000000000000200e-02 1.542084999999999984e-01 3.241844999999999999e+01 1.250805000000000007e+02 1.770750000000000000e+03
9.700000000000000289e-02 1.543470000000000120e-01 3.367310000000000514e+01 1.280109999999999957e+02 1.771829999999999927e+03
9.800000000000000377e-02 1.544834999999999958e-01 3.486554999999999893e+01 1.308880000000000052e+02 1.772894999999999982e+03
9.900000000000000466e-02 1.546180000000000054e-01 3.599555000000000149e+01 1.337160000000000082e+02 1.773940000000000055e+03
1.000000000000000056e-01 1.547499999999999987e-01 3.706255000000000166e+01 1.364954999999999927e+02 1.774974999999999909e+03
1.010000000000000064e-01 1.548799999999999899e-01 3.806589999999999918e+01 1.392255000000000109e+02 1.775994999999999891e+03
1.020000000000000073e-01 1.550084999999999935e-01 3.900464999999999804e+01 1.419030000000000200e+02 1.777000000000000000e+03
1.030000000000000082e-01 1.551339999999999941e-01 3.987729999999999819e+01 1.445219999999999914e+02 1.777984999999999900e+03
1.040000000000000091e-01 1.552574999999999927e-01 4.068210000000000548e+01 1.470754999999999768e+02 1.778954999999999927e+03
1.050000000000000100e-01 1.553780000000000161e-01 4.141680000000000206e+01 1.495550000000000068e+02 1.779900000000000091e+03
1.059999999999999970e-01 1.554955000000000087e-01 4.207880000000000109e+01 1.519495000000000005e+02 1.780829999999999927e+03
1.069999999999999979e-01 1.556095000000000117e-01 4.266550000000000153e+01 1.542489999999999952e+02 1.781730000000000018e+03
1.079999999999999988e-01 1.557195000000000107e-01 4.317399999999999949e+01 1.564420000000000073e+02 1.782595000000000027e+03
1.089999999999999997e-01 1.558249999999999913e-01 4.360150000000000148e+01 1.585174999999999841e+02 1.783430000000000064e+03
1.100000000000000006e-01 1.559249999999999803e-01 4.394530000000000314e+01 1.604650000000000034e+02 1.784220000000000027e+03
1.110000000000000014e-01 1.560205000000000064e-01 4.420280000000000342e+01 1.622740000000000009e+02 1.784980000000000018e+03
1.120000000000000023e-01 1.561095000000000121e-01 4.437194999999999823e+01 1.639360000000000070e+02 1.785690000000000055e+03
1.130000000000000032e-01 1.561925000000000119e-01 4.445090000000000430e+01 1.654424999999999955e+02 1.786344999999999800e+03
1.140000000000000041e-01 1.562689999999999912e-01 4.443864999999999554e+01 1.667875000000000227e+02 1.786954999999999927e+03
1.150000000000000050e-01 1.563380000000000047e-01 4.433460000000000178e+01 1.679660000000000082e+02 1.787505000000000109e+03
1.160000000000000059e-01 1.564004999999999979e-01 4.413899999999999579e+01 1.689745000000000061e+02 1.788005000000000109e+03
1.170000000000000068e-01 1.564550000000000107e-01 4.385294999999999987e+01 1.698120000000000118e+02 1.788445000000000164e+03
1.180000000000000077e-01 1.565020000000000022e-01 4.347849999999999682e+01 1.704800000000000182e+02 1.788829999999999927e+03
1.190000000000000085e-01 1.565420000000000145e-01 4.301865000000000094e+01 1.709814999999999827e+02 1.789150000000000091e+03
1.200000000000000094e-01 1.565739999999999910e-01 4.247735000000000127e+01 1.713215000000000146e+02 1.789414999999999964e+03
1.209999999999999964e-01 1.565995000000000026e-01 4.185949999999999704e+01 1.715064999999999884e+02 1.789619999999999891e+03
1.219999999999999973e-01 1.566175000000000206e-01 4.117104999999999393e+01 1.715475000000000136e+02 1.789769999999999982e+03
1.229999999999999982e-01 1.566290000000000182e-01 4.041854999999999620e+01 1.714549999999999841e+02 1.789869999999999891e+03
1.239999999999999991e-01 1.566345000000000098e-01 3.960954999999999870e+01 1.712415000000000020e+02 1.789920000000000073e+03
1.250000000000000000e-01 1.566339999999999955e-01 3.875189999999999912e+01 1.709205000000000041e+02 1.789920000000000073e+03
1.260000000000000009e-01 1.566279999999999895e-01 3.785389999999999588e+01 1.705079999999999814e+02 1.789885000000000218e+03
1.270000000000000018e-01 1.566174999999999928e-01 3.692409999999999570e+01 1.700174999999999841e+02 1.789809999999999945e+03
1.280000000000000027e-01 1.566025000000000056e-01 3.597095000000000198e+01 1.694644999999999868e+02 1.789694999999999936e+03
1.290000000000000036e-01 1.565850000000000020e-01 3.500270000000000437e+01 1.688629999999999995e+02 1.789559999999999945e+03
1.300000000000000044e-01 1.565644999999999953e-01 3.402714999999999890e+01 1.682259999999999991e+02 1.789400000000000091e+03
1.310000000000000053e-01 1.565415000000000001e-01 3.305129999999999768e+01 1.675654999999999859e+02 1.789224999999999909e+03
1.320000000000000062e-01 1.565165000000000028e-01 3.208174999999999955e+01 1.668919999999999959e+02 1.789034999999999854e+03
1.330000000000000071e-01 1.564905000000000046e-01 3.112400000000000233e+01 1.662135000000000105e+02 1.788825000000000045e+03
1.340000000000000080e-01 1.564639999999999920e-01 3.018254999999999910e+01 1.655360000000000014e+02 1.788619999999999891e+03
1.350000000000000089e-01 1.564364999999999783e-01 2.926095000000000113e+01 1.648644999999999925e+02 1.788400000000000091e+03
1.360000000000000098e-01 1.564079999999999915e-01 2.836175000000000068e+01 1.642015000000000100e+02 1.788180000000000064e+03
1.370000000000000107e-01 1.563804999999999779e-01 2.748644999999999783e+01 1.635464999999999804e+02 1.787954999999999927e+03
1.380000000000000115e-01 1.563519999999999910e-01 2.663550000000000040e+01 1.628985000000000127e+02 1.787735000000000127e+03
1.390000000000000124e-01 1.563240000000000185e-01 2.580859999999999843e+01 1.622549999999999955e+02 1.787514999999999873e+03
1.400000000000000133e-01 1.562955000000000039e-01 2.500439999999999685e+01 1.616105000000000018e+02 1.787289999999999964e+03
1.410000000000000142e-01 1.562669999999999892e-01 2.422124999999999773e+01 1.609615000000000009e+02 1.787059999999999945e+03
1.420000000000000151e-01 1.562379999999999880e-01 2.345655000000000001e+01 1.603004999999999995e+02 1.786825000000000045e+03
1.430000000000000160e-01 1.562080000000000135e-01 2.270749999999999957e+01 1.596220000000000141e+02 1.786595000000000027e+03
1.440000000000000169e-01 1.561774999999999969e-01 2.197104999999999819e+01 1.589189999999999827e+02 1.786349999999999909e+03
1.450000000000000178e-01 1.561460000000000070e-01 2.124390000000000001e+01 1.581845000000000141e+02 1.786099999999999909e+03
1.459999999999999909e-01 1.561130000000000018e-01 2.052304999999999779e+01 1.574139999999999873e+02 1.785835000000000036e+03
1.469999999999999918e-01 1.560785000000000089e-01 1.980525000000000091e+01 1.566009999999999991e+02 1.785565000000000055e+03
1.479999999999999927e-01 1.560420000000000140e-01 1.908789999999999765e+01 1.557414999999999736e+02 1.785280000000000200e+03
1.489999999999999936e-01 1.560040000000000038e-01 1.836864999999999881e+01 1.548324999999999818e+02 1.784974999999999909e+03
1.499999999999999944e-01 1.559634999999999772e-01 1.764580000000000126e+01 1.538720000000000141e+02 1.784654999999999973e+03
1.509999999999999953e-01 1.559210000000000040e-01 1.691794999999999760e+01 1.528594999999999970e+02 1.784325000000000045e+03
1.519999999999999962e-01 1.558765000000000012e-01 1.618465000000000131e+01 1.517950000000000159e+02 1.783970000000000027e+03
1.529999999999999971e-01 1.558289999999999953e-01 1.544604999999999961e+01 1.506814999999999998e+02 1.783605000000000018e+03
1.539999999999999980e-01 1.557800000000000018e-01 1.470299999999999940e+01 1.495235000000000127e+02 1.783215000000000146e+03
1.549999999999999989e-01 1.557290000000000063e-01 1.395699999999999896e+01 1.483249999999999886e+02 1.782815000000000055e+03
1.559999999999999998e-01 1.556759999999999811e-01 1.321025000000000027e+01 1.470935000000000059e+02 1.782400000000000091e+03
1.570000000000000007e-01 1.556210000000000093e-01 1.246565999999999974e+01 1.458365000000000009e+02 1.781974999999999909e+03
1.580000000000000016e-01 1.555654999999999955e-01 1.172661500000000068e+01 1.445625000000000000e+02 1.781534999999999854e+03
1.590000000000000024e-01 1.555090000000000083e-01 1.099692999999999898e+01 1.432819999999999823e+02 1.781089999999999918e+03
