# t [s], A [cm^2], U [cm/s], P [cPa], c [cm/s]
1.000000000000000021e-03 2.138279999999999903e-01 2.469445000000000112e-01 1.030380000000000109e+02 1.974869999999999891e+03
2.000000000000000042e-03 2.137815000000000132e-01 1.766041999999999890e+00 9.997595000000001164e+01 1.974554999999999836e+03
3.000000000000000062e-03 2.136319999999999886e-01 3.672258999999999940e+00 9.574275000000000091e+01 1.973605000000000018e+03
4.000000000000000083e-03 2.134139999999999926e-01 5.813880000000000159e+00 9.093359999999999843e+01 1.972250000000000000e+03
5.000000000000000104e-03 2.131685000000000108e-01 8.127679999999999794e+00 8.638569999999999993e+01 1.970730000000000018e+03
6.000000000000000125e-03 2.129245000000000165e-01 1.047919499999999893e+01 8.252235000000000298e+01 1.969240000000000009e+03
7.000000000000000146e-03 2.126935000000000076e-01 1.267258499999999977e+01 7.927404999999998836e+01 1.967849999999999909e+03
8.000000000000000167e-03 2.124780000000000002e-01 1.457507500000000000e+01 7.640099999999999625e+01 1.966574999999999818e+03
9.000000000000001055e-03 2.122835000000000139e-01 1.617944999999999922e+01 7.384749999999999659e+01 1.965434999999999945e+03
1.000000000000000194e-02 2.121144999999999836e-01 1.752325000000000088e+01 7.168699999999999761e+01 1.964465000000000146e+03
1.099999999999999936e-02 2.119725000000000081e-01 1.862930000000000064e+01 6.994495000000000573e+01 1.963654999999999973e+03
1.200000000000000025e-02 2.118570000000000175e-01 1.951344999999999885e+01 6.858724999999999739e+01 1.963005000000000109e+03
1.300000000000000114e-02 2.117654999999999954e-01 2.018789999999999907e+01 6.755119999999999436e+01 1.962494999999999891e+03
1.400000000000000203e-02 2.116930000000000200e-01 2.065749999999999886e+01 6.674190000000000111e+01 1.962099999999999909e+03
1.499999999999999944e-02 2.116345000000000032e-01 2.094050000000000011e+01 6.607094999999999629e+01 1.961789999999999964e+03
1.600000000000000033e-02 2.115885000000000127e-01 2.110000000000000142e+01 6.555235000000000412e+01 1.961554999999999836e+03
1.700000000000000122e-02 2.115599999999999981e-01 2.124645000000000294e+01 6.535365000000000180e+01 1.961410000000000082e+03
1.800000000000000211e-02 2.115564999999999807e-01 2.149905000000000044e+01 6.573064999999999714e+01 1.961404999999999973e+03
1.900000000000000300e-02 2.115854999999999819e-01 2.193104999999999905e+01 6.687874999999999659e+01 1.961579999999999927e+03
2.000000000000000042e-02 2.116494999999999904e-01 2.253535000000000110e+01 6.880140000000000100e+01 1.961950000000000045e+03
2.100000000000000130e-02 2.117435000000000012e-01 2.322674999999999912e+01 7.127084999999999582e+01 1.962490000000000009e+03
2.200000000000000219e-02 2.118535000000000001e-01 2.387554999999999694e+01 7.389154999999999518e+01 1.963134999999999991e+03
2.299999999999999961e-02 2.119645000000000001e-01 2.435395000000000110e+01 7.622759999999999536e+01 1.963789999999999964e+03
2.400000000000000050e-02 2.120615000000000139e-01 2.457564999999999955e+01 7.793455000000000155e+01 1.964365000000000009e+03
2.500000000000000139e-02 2.121325000000000016e-01 2.451684999999999803e+01 7.884940000000000282e+01 1.964799999999999955e+03
2.600000000000000228e-02 2.121744999999999881e-01 2.421419999999999817e+01 7.901194999999999879e+01 1.965070000000000164e+03
2.700000000000000316e-02 2.121905000000000041e-01 2.374344999999999928e+01 7.862065000000001191e+01 1.965179999999999836e+03
2.800000000000000058e-02 2.121875000000000011e-01 2.318975000000000009e+01 7.794519999999999982e+01 1.965180000000000064e+03
2.900000000000000147e-02 2.121740000000000015e-01 2.261970000000000169e+01 7.723234999999999673e+01 1.965110000000000127e+03
3.000000000000000236e-02 2.121580000000000132e-01 2.206494999999999962e+01 7.663519999999999754e+01 1.965019999999999982e+03
3.099999999999999978e-02 2.121419999999999972e-01 2.152074999999999960e+01 7.618625000000000114e+01 1.964930000000000064e+03
3.200000000000000067e-02 2.121270000000000100e-01 2.095579999999999998e+01 7.581385000000000218e+01 1.964844999999999800e+03
3.300000000000000155e-02 2.121095000000000064e-01 2.033079999999999998e+01 7.539029999999999632e+01 1.964744999999999891e+03
3.400000000000000244e-02 2.120865000000000111e-01 1.961744999999999806e+01 7.479245000000000232e+01 1.964615000000000009e+03
3.500000000000000333e-02 2.120540000000000203e-01 1.881299999999999883e+01 7.395609999999999218e+01 1.964430000000000064e+03
3.600000000000000422e-02 2.120124999999999926e-01 1.794715000000000060e+01 7.290870000000001028e+01 1.964194999999999936e+03
3.700000000000000511e-02 2.119645000000000001e-01 1.707809999999999917e+01 7.177235000000000298e+01 1.963920000000000073e+03
3.799999999999999906e-02 2.119155000000000066e-01 1.628090000000000259e+01 7.073734999999999218e+01 1.963644999999999982e+03
3.899999999999999994e-02 2.118754999999999944e-01 1.562995000000000090e+01 7.001460000000000150e+01 1.963404999999999973e+03
4.000000000000000083e-02 2.118504999999999971e-01 1.518164999999999942e+01 6.978155000000000996e+01 1.963255000000000109e+03
4.100000000000000172e-02 2.118474999999999941e-01 1.496170000000000044e+01 7.013710000000000377e+01 1.963224999999999909e+03
4.200000000000000261e-02 2.118680000000000008e-01 1.495974999999999966e+01 7.107640000000000668e+01 1.963329999999999927e+03
4.300000000000000350e-02 2.119125000000000036e-01 1.513185000000000002e+01 7.249054999999999893e+01 1.963574999999999818e+03
4.400000000000000439e-02 2.119739999999999958e-01 1.540925000000000011e+01 7.418870000000001141e+01 1.963920000000000073e+03
4.499999999999999833e-02 2.120454999999999979e-01 1.571109999999999829e+01 7.593420000000000414e+01 1.964325000000000045e+03
4.599999999999999922e-02 2.121175000000000144e-01 1.595704999999999885e+01 7.748599999999999000e+01 1.964735000000000127e+03
4.700000000000000011e-02 2.121804999999999941e-01 1.607820000000000249e+01 7.863535000000000252e+01 1.965099999999999909e+03
4.800000000000000100e-02 2.122255000000000114e-01 1.602449999999999974e+01 7.923234999999999673e+01 1.965369999999999891e+03
4.900000000000000189e-02 2.122479999999999922e-01 1.576764999999999972e+01 7.919849999999999568e+01 1.965509999999999991e+03
5.000000000000000278e-02 2.122439999999999882e-01 1.530025000000000190e+01 7.852539999999999054e+01 1.965500000000000000e+03
5.100000000000000366e-02 2.122129999999999850e-01 1.463224999999999909e+01 7.726304999999999268e+01 1.965329999999999927e+03
5.200000000000000455e-02 2.121564999999999979e-01 1.378604999999999947e+01 7.550190000000000623e+01 1.965009999999999991e+03
5.300000000000000544e-02 2.120779999999999887e-01 1.279100000000000037e+01 7.335309999999999775e+01 1.964565000000000055e+03
5.399999999999999939e-02 2.119814999999999894e-01 1.167956000000000039e+01 7.093179999999999552e+01 1.964009999999999991e+03
5.500000000000000028e-02 2.118714999999999904e-01 1.048446999999999996e+01 6.834569999999999368e+01 1.963380000000000109e+03
5.600000000000000117e-02 2.117525000000000102e-01 9.237610000000000099e+00 6.568909999999999627e+01 1.962690000000000055e+03
5.700000000000000205e-02 2.116279999999999828e-01 7.970139999999999780e+00 6.304344999999999999e+01 1.961974999999999909e+03
5.800000000000000294e-02 2.115029999999999966e-01 6.713210000000000122e+00 6.047964999999999947e+01 1.961244999999999891e+03
5.900000000000000383e-02 2.113804999999999990e-01 5.498939999999999273e+00 5.806394999999999840e+01 1.960534999999999854e+03
6.000000000000000472e-02 2.112634999999999930e-01 4.360895000000000188e+00 5.586155000000000115e+01 1.959849999999999909e+03
6.099999999999999867e-02 2.111564999999999970e-01 3.333990499999999635e+00 5.393970000000000198e+01 1.959230000000000018e+03
6.199999999999999956e-02 2.110619999999999996e-01 2.453672000000000075e+00 5.236775000000000091e+01 1.958674999999999955e+03
6.300000000000000044e-02 2.109840000000000049e-01 1.754398024999999972e+00 5.121474999999999511e+01 1.958210000000000036e+03
6.400000000000000133e-02 2.109254999999999880e-01 1.267711749999999915e+00 5.054565000000000197e+01 1.957860000000000127e+03
6.500000000000000222e-02 2.108899999999999941e-01 1.020189500000000082e+00 5.041575000000000273e+01 1.957640000000000100e+03
6.600000000000000311e-02 2.108800000000000119e-01 1.031534999999999869e+00 5.086580000000000013e+01 1.957569999999999936e+03
6.700000000000000400e-02 2.108979999999999744e-01 1.313146499999999994e+00 5.191785000000000139e+01 1.957654999999999973e+03
6.800000000000000488e-02 2.109440000000000204e-01 1.867274500000000170e+00 5.357224999999999682e+01 1.957894999999999982e+03
6.900000000000000577e-02 2.110179999999999834e-01 2.686895000000000255e+00 5.580750000000000455e+01 1.958309999999999945e+03
7.000000000000000666e-02 2.111200000000000021e-01 3.756155000000000133e+00 5.858100000000000307e+01 1.958880000000000109e+03
7.100000000000000755e-02 2.112475000000000047e-01 5.051474999999999937e+00 6.183209999999999695e+01 1.959605000000000018e+03
7.200000000000000844e-02 2.113984999999999892e-01 6.542940000000000644e+00 6.548615000000000919e+01 1.960465000000000146e+03
7.300000000000000933e-02 2.115690000000000071e-01 8.196049999999999613e+00 6.945935000000000059e+01 1.961445000000000164e+03
7.399999999999999634e-02 2.117559999999999998e-01 9.973645000000001204e+00 7.366360000000000241e+01 1.962514999999999873e+03
7.499999999999999722e-02 2.119550000000000045e-01 1.183762000000000114e+01 7.801160000000000139e+01 1.963670000000000073e+03
7.599999999999999811e-02 2.121625000000000039e-01 1.375072999999999901e+01 8.242159999999999798e+01 1.964869999999999891e+03
7.699999999999999900e-02 2.123744999999999938e-01 1.567849999999999966e+01 8.682104999999999961e+01 1.966105000000000018e+03
7.799999999999999989e-02 2.125879999999999992e-01 1.759009999999999962e+01 9.114979999999999905e+01 1.967349999999999909e+03
7.900000000000000078e-02 2.128005000000000035e-01 1.945984999999999943e+01 9.536209999999999809e+01 1.968595000000000027e+03
8.000000000000000167e-02 2.130084999999999895e-01 2.126754999999999995e+01 9.942810000000000059e+01 1.969815000000000055e+03
8.100000000000000255e-02 2.132114999999999982e-01 2.299900000000000233e+01 1.033325999999999993e+02 1.971009999999999991e+03
8.200000000000000344e-02 2.134085000000000010e-01 2.464540000000000219e+01 1.070751999999999953e+02 1.972175000000000182e+03
8.300000000000000433e-02 2.135994999999999977e-01 2.620340000000000202e+01 1.106665000000000134e+02 1.973305000000000064e+03
8.400000000000000522e-02 2.137840000000000018e-01 2.767349999999999710e+01 1.141264999999999930e+02 1.974400000000000091e+03
8.500000000000000611e-02 2.139635000000000009e-01 2.905969999999999942e+01 1.174795000000000016e+02 1.975465000000000146e+03
8.600000000000000699e-02 2.141375000000000084e-01 3.036789999999999878e+01 1.207520000000000095e+02 1.976505000000000109e+03
8.700000000000000788e-02 2.143089999999999995e-01 3.160499999999999687e+01 1.239710000000000036e+02 1.977519999999999982e+03
8.800000000000000877e-02 2.144774999999999876e-01 3.277765000000000128e+01 1.271570000000000107e+02 1.978529999999999973e+03
8.899999999999999578e-02 2.146445000000000158e-01 3.389159999999999684e+01 1.303255000000000052e+02 1.979525000000000091e+03
8.999999999999999667e-02 2.148110000000000019e-01 3.495120000000000005e+01 1.334839999999999804e+02 1.980514999999999873e+03
9.099999999999999756e-02 2.149760000000000004e-01 3.595865000000000578e+01 1.366345000000000027e+02 1.981500000000000000e+03
9.199999999999999845e-02 2.151405000000000123e-01 3.691409999999999769e+01 1.397684999999999889e+02 1.982485000000000127e+03
9.299999999999999933e-02 2.153035000000000088e-01 3.781560000000000343e+01 1.428729999999999905e+02 1.983454999999999927e+03
9.400000000000000022e-02 2.154645000000000032e-01 3.865925000000000011e+01 1.459284999999999854e+02 1.984424999999999955e+03
9.500000000000000111e-02 2.156230000000000091e-01 3.943954999999999700e+01 1.489114999999999895e+02 1.985369999999999891e+03
9.600000000000000200e-02 2.157779999999999976e-01 4.014965000000000117e+01 1.517959999999999923e+02 1.986299999999999955e+03
9.700000000000000289e-02 2.159274999999999944e-01 4.078195000000000192e+01 1.545529999999999973e+02 1.987194999999999936e+03
9.800000000000000377e-02 2.160714999999999997e-01 4.132829999999999870e+01 1.571564999999999941e+02 1.988059999999999945e+03
9.900000000000000466e-02 2.162069999999999825e-01 4.178070000000000306e+01 1.595790000000000077e+02 1.988875000000000000e+03
1.000000000000000056e-01 2.163344999999999851e-01 4.213134999999999764e+01 1.617959999999999923e+02 1.989644999999999982e+03
1.010000000000000064e-01 2.164515000000000189e-01 4.237349999999999994e+01 1.637870000000000061e+02 1.990349999999999909e+03
1.020000000000000073e-01 2.165575000000000139e-01 4.250155000000000172e+01 1.655335000000000036e+02 1.990994999999999891e+03
1.030000000000000082e-01 2.166520000000000112e-01 4.251140000000000185e+01 1.670235000000000127e+02 1.991570000000000164e+03
1.040000000000000091e-01 2.167339999999999822e-01 4.240094999999999459e+01 1.682489999999999952e+02 1.992069999999999936e+03
1.050000000000000100e-01 2.168029999999999957e-01 4.217009999999999792e+01 1.692065000000000055e+02 1.992490000000000009e+03
1.059999999999999970e-01 2.168585000000000096e-01 4.182115000000000293e+01 1.699010000000000105e+02 1.992835000000000036e+03
1.069999999999999979e-01 2.169014999999999971e-01 4.135849999999999937e+01 1.703400000000000034e+02 1.993099999999999909e+03
1.079999999999999988e-01 2.169325000000000003e-01 4.078920000000000101e+01 1.705384999999999991e+02 1.993295000000000073e+03
1.089999999999999997e-01 2.169504999999999906e-01 4.012210000000000321e+01 1.705149999999999864e+02 1.993414999999999964e+03
1.100000000000000006e-01 2.169579999999999842e-01 3.936825000000000330e+01 1.702930000000000064e+02 1.993470000000000027e+03
1.110000000000000014e-01 2.169554999999999956e-01 3.853990000000000293e+01 1.698990000000000009e+02 1.993464999999999918e+03
1.120000000000000023e-01 2.169439999999999980e-01 3.765059999999999718e+01 1.693629999999999995e+02 1.993404999999999973e+03
1.130000000000000032e-01 2.169249999999999790e-01 3.671439999999999770e+01 1.687129999999999939e+02 1.993295000000000073e+03
1.140000000000000041e-01 2.169000000000000095e-01 3.574549999999999983e+01 1.679795000000000016e+02 1.993150000000000091e+03
1.150000000000000050e-01 2.168700000000000072e-01 3.475759999999999650e+01 1.671904999999999859e+02 1.992974999999999909e+03
1.160000000000000059e-01 2.168364999999999876e-01 3.376364999999999839e+01 1.663704999999999927e+02 1.992779999999999973e+03
1.170000000000000068e-01 2.168009999999999937e-01 3.277524999999999977e+01 1.655425000000000182e+02 1.992569999999999936e+03
1.180000000000000077e-01 2.167644999999999988e-01 3.180255000000000365e+01 1.647255000000000109e+02 1.992349999999999909e+03
1.190000000000000085e-01 2.167270000000000030e-01 3.085369999999999635e+01 1.639325000000000045e+02 1.992130000000000109e+03
1.200000000000000094e-01 2.166899999999999937e-01 2.993500000000000227e+01 1.631734999999999900e+02 1.991910000000000082e+03
1.209999999999999964e-01 2.166540000000000132e-01 2.905059999999999931e+01 1.624524999999999864e+02 1.991695000000000164e+03
1.219999999999999973e-01 2.166195000000000204e-01 2.820260000000000034e+01 1.617705000000000268e+02 1.991485000000000127e+03
1.229999999999999982e-01 2.165860000000000007e-01 2.739110000000000156e+01 1.611235000000000070e+02 1.991279999999999973e+03
1.239999999999999991e-01 2.165535000000000099e-01 2.661435000000000173e+01 1.605040000000000191e+02 1.991085000000000036e+03
1.250000000000000000e-01 2.165219999999999922e-01 2.586905000000000143e+01 1.599014999999999986e+02 1.990894999999999982e+03
1.260000000000000009e-01 2.164909999999999890e-01 2.515050000000000097e+01 1.593029999999999973e+02 1.990700000000000045e+03
1.270000000000000018e-01 2.164594999999999991e-01 2.445295000000000130e+01 1.586940000000000168e+02 1.990514999999999873e+03
1.280000000000000027e-01 2.164280000000000093e-01 2.377009999999999934e+01 1.580589999999999975e+02 1.990319999999999936e+03
1.290000000000000036e-01 2.163944999999999896e-01 2.309505000000000052e+01 1.573824999999999932e+02 1.990119999999999891e+03
1.300000000000000044e-01 2.163594999999999824e-01 2.242135000000000034e+01 1.566510000000000105e+02 1.989904999999999973e+03
1.310000000000000053e-01 2.163214999999999999e-01 2.174264999999999759e+01 1.558509999999999991e+02 1.989679999999999836e+03
1.320000000000000062e-01 2.162800000000000000e-01 2.105340000000000344e+01 1.549714999999999918e+02 1.989429999999999836e+03
1.330000000000000071e-01 2.162350000000000105e-01 2.034915000000000163e+01 1.540060000000000002e+02 1.989159999999999854e+03
1.340000000000000080e-01 2.161859999999999893e-01 1.962664999999999793e+01 1.529490000000000123e+02 1.988869999999999891e+03
1.350000000000000089e-01 2.161325000000000052e-01 1.888425000000000153e+01 1.518000000000000114e+02 1.988550000000000182e+03
1.360000000000000098e-01 2.160745000000000027e-01 1.812174999999999869e+01 1.505620000000000118e+02 1.988204999999999927e+03
1.370000000000000107e-01 2.160130000000000106e-01 1.734074999999999989e+01 1.492425000000000068e+02 1.987835000000000036e+03
1.380000000000000115e-01 2.159470000000000001e-01 1.654435000000000144e+01 1.478514999999999873e+02 1.987444999999999936e+03
1.390000000000000124e-01 2.158774999999999999e-01 1.573729999999999940e+01 1.464039999999999964e+02 1.987035000000000082e+03
1.400000000000000133e-01 2.158055000000000112e-01 1.492565000000000097e+01 1.449164999999999850e+02 1.986610000000000127e+03
1.410000000000000142e-01 2.157315000000000205e-01 1.411660000000000004e+01 1.434074999999999989e+02 1.986170000000000073e+03
1.420000000000000151e-01 2.156569999999999876e-01 1.331804999999999950e+01 1.418985000000000127e+02 1.985719999999999800e+03
1.430000000000000160e-01 2.155814999999999815e-01 1.253855000000000075e+01 1.404105000000000132e+02 1.985269999999999982e+03
1.440000000000000169e-01 2.155075000000000185e-01 1.178659000000000034e+01 1.389639999999999986e+02 1.984829999999999927e+03
1.450000000000000178e-01 2.154349999999999876e-01 1.107061500000000009e+01 1.375799999999999841e+02 1.984400000000000091e+03
1.459999999999999909e-01 2.153650000000000009e-01 1.039822500000000005e+01 1.362760000000000105e+02 1.983985000000000127e+03
1.469999999999999918e-01 2.152990000000000181e-01 9.776400000000000645e+00 1.350660000000000025e+02 1.983585000000000036e+03
1.479999999999999927e-01 2.152370000000000116e-01 9.210684999999999789e+00 1.339644999999999868e+02 1.983215000000000146e+03
1.489999999999999936e-01 2.151804999999999968e-01 8.705540000000000944e+00 1.329795000000000016e+02 1.982869999999999891e+03
1.499999999999999944e-01 2.151285000000000003e-01 8.263664999999999594e+00 1.321154999999999973e+02 1.982559999999999945e+03
1.509999999999999953e-01 2.150830000000000242e-01 7.886425000000000018e+00 1.313754999999999882e+02 1.982284999999999854e+03
1.519999999999999962e-01 2.150429999999999842e-01 7.573570000000000135e+00 1.307560000000000002e+02 1.982039999999999964e+03
1.529999999999999971e-01 2.150080000000000047e-01 7.323415000000000674e+00 1.302529999999999859e+02 1.981829999999999927e+03
1.539999999999999980e-01 2.149790000000000034e-01 7.132964999999999556e+00 1.298584999999999923e+02 1.981654999999999973e+03
1.549999999999999989e-01 2.149555000000000216e-01 6.998099999999999987e+00 1.295620000000000118e+02 1.981509999999999991e+03
1.559999999999999998e-01 2.149369999999999892e-01 6.913759999999999906e+00 1.293520000000000039e+02 1.981389999999999873e+03
1.570000000000000007e-01 2.149225000000000163e-01 6.874200000000000088e+00 1.292154999999999916e+02 1.981300000000000182e+03
1.580000000000000016e-01 2.149119999999999919e-01 6.873215000000000074e+00 1.291390000000000100e+02 1.981230000000000018e+03
1.590000000000000024e-01 2.149039999999999839e-01 6.904345000000000176e+00 1.291094999999999970e+02 1.981180000000000064e+03
