# t [s], A [cm^2], U [cm/s], P [cPa], c [cm/s]
1.000000000000000021e-03 7.015474999999999905e-01 5.095999999999996366e-03 1.075270000000000010e+02 1.609289999999999964e+03
2.000000000000000042e-03 7.015385000000000648e-01 4.139135000000000383e-03 1.075004999999999882e+02 1.609279999999999973e+03
3.000000000000000062e-03 7.016189999999999927e-01 1.346947500000000020e-01 1.076405000000000030e+02 1.609315000000000055e+03
4.000000000000000083e-03 7.016610000000000902e-01 2.200813999999999826e-01 1.077394999999999925e+02 1.609340000000000146e+03
5.000000000000000104e-03 7.015985000000000138e-01 1.465505000000000002e-01 1.075904999999999916e+02 1.609315000000000055e+03
6.000000000000000125e-03 7.015074999999999505e-01 1.802500000000001323e-02 1.072745000000000033e+02 1.609244999999999891e+03
7.000000000000000146e-03 7.014110000000000067e-01 -1.309750000000000636e-01 1.068550000000000040e+02 1.609144999999999982e+03
8.000000000000000167e-03 7.012389999999999457e-01 -4.184050000000000269e-01 1.061910000000000025e+02 1.608990000000000009e+03
9.000000000000001055e-03 7.009784999999999489e-01 -8.657299999999999995e-01 1.052049999999999983e+02 1.608769999999999982e+03
1.000000000000000194e-02 7.006259999999999710e-01 -1.463375000000000092e+00 1.038594999999999970e+02 1.608454999999999927e+03
1.099999999999999936e-02 7.001520000000001076e-01 -2.237729999999999997e+00 1.020696499999999958e+02 1.608034999999999854e+03
1.200000000000000025e-02 6.995569999999999844e-01 -3.159745000000000026e+00 9.981530000000000769e+01 1.607490000000000009e+03
1.300000000000000114e-02 6.989140000000000352e-01 -4.074385000000000367e+00 9.725370000000000914e+01 1.606855000000000018e+03
1.400000000000000203e-02 6.983319999999999528e-01 -4.760374999999999801e+00 9.468934999999999036e+01 1.606195000000000164e+03
1.499999999999999944e-02 6.978884999999999117e-01 -5.048504999999999576e+00 9.242079999999999984e+01 1.605575000000000045e+03
1.600000000000000033e-02 6.975945000000000062e-01 -4.892665000000000042e+00 9.060869999999999891e+01 1.605034999999999854e+03
1.700000000000000122e-02 6.974035000000000650e-01 -4.367905000000000371e+00 8.923519999999999186e+01 1.604590000000000146e+03
1.800000000000000211e-02 6.972359999999999669e-01 -3.622935000000000016e+00 8.813785000000000025e+01 1.604200000000000045e+03
1.900000000000000300e-02 6.970175000000000676e-01 -2.816924499999999831e+00 8.708975000000000932e+01 1.603835000000000036e+03
2.000000000000000042e-02 6.967034999999999201e-01 -2.062571000000000154e+00 8.589175000000000182e+01 1.603445000000000164e+03
2.100000000000000130e-02 6.962919999999999110e-01 -1.395219999999999905e+00 8.444244999999999379e+01 1.603000000000000000e+03
2.200000000000000219e-02 6.958155000000000312e-01 -7.799100000000001032e-01 8.275745000000000573e+01 1.602509999999999991e+03
2.299999999999999961e-02 6.953214999999999257e-01 -1.496450000000000280e-01 8.093520000000000891e+01 1.601980000000000018e+03
2.400000000000000050e-02 6.948469999999999924e-01 5.479699999999998461e-01 7.909264999999999191e+01 1.601440000000000055e+03
2.500000000000000139e-02 6.944034999999999513e-01 1.317724999999999813e+00 7.730519999999999925e+01 1.600905000000000200e+03
2.600000000000000228e-02 6.939729999999999510e-01 2.106775000000000286e+00 7.557144999999999868e+01 1.600384999999999991e+03
2.700000000000000316e-02 6.935149999999999926e-01 2.815655000000000019e+00 7.380924999999999159e+01 1.599855000000000018e+03
2.800000000000000058e-02 6.929809999999999581e-01 3.323434999999999917e+00 7.187884999999999991e+01 1.599289999999999964e+03
2.900000000000000147e-02 6.923270000000000257e-01 3.519360000000000710e+00 6.962430000000000518e+01 1.598654999999999973e+03
3.000000000000000236e-02 6.915299999999999780e-01 3.332995000000000374e+00 6.692284999999999684e+01 1.597924999999999955e+03
3.099999999999999978e-02 6.905925000000000535e-01 2.754669999999999952e+00 6.372724999999999795e+01 1.597079999999999927e+03
3.200000000000000067e-02 6.895495000000000374e-01 1.839690000000000047e+00 6.008894999999999698e+01 1.596130000000000109e+03
3.300000000000000155e-02 6.884569999999999856e-01 6.962000000000001521e-01 5.615540000000000020e+01 1.595099999999999909e+03
3.400000000000000244e-02 6.873834999999999251e-01 -5.388000000000001677e-01 5.214399999999999835e+01 1.594045000000000073e+03
3.500000000000000333e-02 6.863965000000000760e-01 -1.725365000000000038e+00 4.830389999999999873e+01 1.593009999999999991e+03
3.600000000000000422e-02 6.855519999999999392e-01 -2.741880000000000095e+00 4.487689999999999912e+01 1.592059999999999945e+03
3.700000000000000511e-02 6.848914999999999864e-01 -3.497335000000000083e+00 4.206714999999999804e+01 1.591244999999999891e+03
3.799999999999999906e-02 6.844384999999999497e-01 -3.935599999999999987e+00 4.002154999999999774e+01 1.590610000000000127e+03
3.899999999999999994e-02 6.842019999999999769e-01 -4.031710000000000349e+00 3.882394999999999641e+01 1.590184999999999945e+03
4.000000000000000083e-02 6.841779999999999529e-01 -3.784555000000000113e+00 3.849915000000000020e+01 1.589980000000000018e+03
4.100000000000000172e-02 6.843555000000000055e-01 -3.207504999999999828e+00 3.902545000000000641e+01 1.589994999999999891e+03
4.200000000000000261e-02 6.847185000000000077e-01 -2.320195000000000007e+00 4.034990000000000521e+01 1.590230000000000018e+03
4.300000000000000350e-02 6.852510000000000545e-01 -1.143135000000000012e+00 4.240285000000000082e+01 1.590670000000000073e+03
4.400000000000000439e-02 6.859370000000000189e-01 3.038650000000000517e-01 4.510819999999999652e+01 1.591295000000000073e+03
4.499999999999999833e-02 6.867590000000000083e-01 2.000060000000000393e+00 4.838824999999999932e+01 1.592085000000000036e+03
4.599999999999999922e-02 6.877005000000000479e-01 3.920255000000000489e+00 5.216369999999999862e+01 1.593019999999999982e+03
4.700000000000000011e-02 6.887404999999999777e-01 6.031555000000000888e+00 5.635094999999999743e+01 1.594079999999999927e+03
4.800000000000000100e-02 6.898565000000000946e-01 8.291695000000000704e+00 6.085970000000000368e+01 1.595244999999999891e+03
4.900000000000000189e-02 6.910214999999999552e-01 1.064928749999999980e+01 6.559205000000000041e+01 1.596480000000000018e+03
5.000000000000000278e-02 6.922090000000000742e-01 1.304683999999999955e+01 7.044460000000000832e+01 1.597775000000000091e+03
5.100000000000000366e-02 6.933925000000000782e-01 1.542489499999999936e+01 7.531270000000000664e+01 1.599090000000000146e+03
5.200000000000000455e-02 6.945464999999999556e-01 1.772656500000000079e+01 8.009680000000000177e+01 1.600394999999999982e+03
5.300000000000000544e-02 6.956510000000000193e-01 1.990210000000000079e+01 8.470875000000000909e+01 1.601684999999999945e+03
5.399999999999999939e-02 6.966909999999999492e-01 2.191199999999999903e+01 8.907830000000001291e+01 1.602920000000000073e+03
5.500000000000000028e-02 6.976575000000000415e-01 2.372895000000000110e+01 9.315540000000000020e+01 1.604095000000000027e+03
5.600000000000000117e-02 6.985470000000000290e-01 2.533794999999999931e+01 9.691290000000000759e+01 1.605190000000000055e+03
5.700000000000000205e-02 6.993610000000000104e-01 2.673554999999999993e+01 1.003468499999999892e+02 1.606215000000000146e+03
5.800000000000000294e-02 7.001060000000000061e-01 2.792790000000000106e+01 1.034712000000000103e+02 1.607154999999999973e+03
5.900000000000000383e-02 7.007909999999999417e-01 2.892905000000000015e+01 1.063167499999999990e+02 1.608030000000000200e+03
6.000000000000000472e-02 7.014270000000000227e-01 2.975835000000000008e+01 1.089254999999999995e+02 1.608829999999999927e+03
6.099999999999999867e-02 7.020260000000000389e-01 3.043939999999999912e+01 1.113469999999999942e+02 1.609585000000000036e+03
6.199999999999999956e-02 7.026004999999999612e-01 3.099794999999999945e+01 1.136340000000000003e+02 1.610295000000000073e+03
6.300000000000000044e-02 7.031629999999999825e-01 3.146085000000000065e+01 1.158389999999999986e+02 1.610980000000000018e+03
6.400000000000000133e-02 7.037255000000000038e-01 3.185484999999999900e+01 1.180140000000000100e+02 1.611644999999999982e+03
6.500000000000000222e-02 7.042964999999999920e-01 3.220490000000000208e+01 1.202015000000000100e+02 1.612304999999999836e+03
6.600000000000000311e-02 7.048849999999999838e-01 3.253300000000000125e+01 1.224389999999999930e+02 1.612980000000000018e+03
6.700000000000000400e-02 7.054960000000000120e-01 3.285660000000000025e+01 1.247514999999999930e+02 1.613659999999999854e+03
6.800000000000000488e-02 7.061304999999999943e-01 3.318724999999999881e+01 1.271514999999999986e+02 1.614365000000000009e+03
6.900000000000000577e-02 7.067864999999999842e-01 3.352979999999999450e+01 1.296374999999999886e+02 1.615085000000000036e+03
7.000000000000000666e-02 7.074584999999999901e-01 3.388195000000000334e+01 1.321924999999999955e+02 1.615819999999999936e+03
7.100000000000000755e-02 7.081379999999999342e-01 3.423505000000000109e+01 1.347884999999999991e+02 1.616570000000000164e+03
7.200000000000000844e-02 7.088130000000000264e-01 3.457450000000000045e+01 1.373834999999999980e+02 1.617320000000000164e+03
7.300000000000000933e-02 7.094705000000000039e-01 3.488185000000000002e+01 1.399284999999999854e+02 1.618055000000000064e+03
7.399999999999999634e-02 7.100960000000000605e-01 3.513599999999999568e+01 1.423679999999999950e+02 1.618769999999999982e+03
7.499999999999999722e-02 7.106770000000000032e-01 3.531539999999999679e+01 1.446474999999999795e+02 1.619445000000000164e+03
7.599999999999999811e-02 7.112000000000000544e-01 3.539985000000000070e+01 1.467144999999999868e+02 1.620065000000000055e+03
7.699999999999999900e-02 7.116550000000000376e-01 3.537144999999999584e+01 1.485225000000000080e+02 1.620619999999999891e+03
7.799999999999999989e-02 7.120329999999999160e-01 3.521659999999999968e+01 1.500344999999999800e+02 1.621099999999999909e+03
7.900000000000000078e-02 7.123289999999999900e-01 3.492610000000000525e+01 1.512245000000000061e+02 1.621494999999999891e+03
8.000000000000000167e-02 7.125414999999999388e-01 3.449595000000000056e+01 1.520790000000000077e+02 1.621795000000000073e+03
8.100000000000000255e-02 7.126704999999999846e-01 3.392750000000000199e+01 1.525960000000000036e+02 1.622009999999999991e+03
8.200000000000000344e-02 7.127200000000000202e-01 3.322700000000000387e+01 1.527875000000000227e+02 1.622130000000000109e+03
8.300000000000000433e-02 7.126954999999999263e-01 3.240554999999999808e+01 1.526744999999999948e+02 1.622164999999999964e+03
8.400000000000000522e-02 7.126065000000000316e-01 3.147820000000000107e+01 1.522889999999999873e+02 1.622119999999999891e+03
8.500000000000000611e-02 7.124615000000000808e-01 3.046334999999999837e+01 1.516690000000000111e+02 1.622000000000000000e+03
8.600000000000000699e-02 7.122725000000000861e-01 2.938174999999999670e+01 1.508605000000000018e+02 1.621825000000000045e+03
8.700000000000000788e-02 7.120509999999999895e-01 2.825585000000000235e+01 1.499105000000000132e+02 1.621599999999999909e+03
8.800000000000000877e-02 7.118100000000000538e-01 2.710835000000000150e+01 1.488684999999999832e+02 1.621344999999999800e+03
8.899999999999999578e-02 7.115590000000000526e-01 2.596160000000000423e+01 1.477824999999999989e+02 1.621065000000000055e+03
8.999999999999999667e-02 7.113110000000000266e-01 2.483644999999999925e+01 1.466974999999999909e+02 1.620775000000000091e+03
9.099999999999999756e-02 7.110730000000000661e-01 2.375139999999999674e+01 1.456535000000000082e+02 1.620489999999999782e+03
9.199999999999999845e-02 7.108544999999999447e-01 2.272180000000000177e+01 1.446854999999999905e+02 1.620215000000000146e+03
9.299999999999999933e-02 7.106609999999999872e-01 2.175939999999999941e+01 1.438179999999999836e+02 1.619965000000000146e+03
9.400000000000000022e-02 7.104954999999999465e-01 2.087180000000000035e+01 1.430695000000000050e+02 1.619744999999999891e+03
9.500000000000000111e-02 7.103599999999999914e-01 2.006244999999999834e+01 1.424499999999999886e+02 1.619550000000000182e+03
9.600000000000000200e-02 7.102539999999999409e-01 1.933060000000000045e+01 1.419594999999999914e+02 1.619384999999999991e+03
9.700000000000000289e-02 7.101760000000000295e-01 1.867154999999999987e+01 1.415925000000000011e+02 1.619259999999999991e+03
9.800000000000000377e-02 7.101210000000000022e-01 1.807714999999999961e+01 1.413335000000000150e+02 1.619159999999999854e+03
9.900000000000000466e-02 7.100845000000000073e-01 1.753644999999999854e+01 1.411634999999999991e+02 1.619085000000000036e+03
1.000000000000000056e-01 7.100599999999999135e-01 1.703620000000000090e+01 1.410575000000000045e+02 1.619034999999999854e+03
1.010000000000000064e-01 7.100414999999999921e-01 1.656160000000000210e+01 1.409894999999999925e+02 1.618994999999999891e+03
1.020000000000000073e-01 7.100210000000000132e-01 1.609734999999999872e+01 1.409294999999999902e+02 1.618960000000000036e+03
1.030000000000000082e-01 7.099925000000000264e-01 1.562829999999999941e+01 1.408489999999999895e+02 1.618929999999999836e+03
1.040000000000000091e-01 7.099489999999999412e-01 1.514005000000000045e+01 1.407214999999999918e+02 1.618884999999999991e+03
1.050000000000000100e-01 7.098854999999999471e-01 1.462010000000000076e+01 1.405229999999999961e+02 1.618829999999999927e+03
1.059999999999999970e-01 7.097984999999999989e-01 1.405804999999999971e+01 1.402350000000000136e+02 1.618744999999999891e+03
1.069999999999999979e-01 7.096850000000000103e-01 1.344654999999999845e+01 1.398435000000000059e+02 1.618644999999999982e+03
1.079999999999999988e-01 7.095434999999999937e-01 1.278145500000000112e+01 1.393404999999999916e+02 1.618514999999999873e+03
1.089999999999999997e-01 7.093739999999999490e-01 1.206189499999999981e+01 1.387244999999999777e+02 1.618355000000000018e+03
1.100000000000000006e-01 7.091800000000000326e-01 1.129058000000000028e+01 1.380020000000000095e+02 1.618164999999999964e+03
1.110000000000000014e-01 7.089639999999999276e-01 1.047367500000000007e+01 1.371840000000000259e+02 1.617950000000000045e+03
1.120000000000000023e-01 7.087315000000000698e-01 9.620210000000000150e+00 1.362880000000000109e+02 1.617710000000000036e+03
1.130000000000000032e-01 7.084874999999999368e-01 8.741994999999999294e+00 1.353360000000000127e+02 1.617460000000000036e+03
1.140000000000000041e-01 7.082390000000000629e-01 7.852680000000000327e+00 1.343545000000000016e+02 1.617195000000000164e+03
1.150000000000000050e-01 7.079940000000000122e-01 6.967344999999999899e+00 1.333714999999999975e+02 1.616925000000000182e+03
1.160000000000000059e-01 7.077594999999999859e-01 6.101634999999999920e+00 1.324155000000000086e+02 1.616660000000000082e+03
1.170000000000000068e-01 7.075415000000000454e-01 5.271040000000000170e+00 1.315159999999999911e+02 1.616405000000000200e+03
1.180000000000000077e-01 7.073475000000000179e-01 4.490029999999999966e+00 1.306984999999999957e+02 1.616170000000000073e+03
1.190000000000000085e-01 7.071814999999999074e-01 3.771424999999999805e+00 1.299865000000000066e+02 1.615960000000000036e+03
1.200000000000000094e-01 7.070484999999999687e-01 3.125764999999999905e+00 1.293979999999999961e+02 1.615779999999999973e+03
1.209999999999999964e-01 7.069499999999999673e-01 2.560830000000000162e+00 1.289459999999999980e+02 1.615634999999999991e+03
1.219999999999999973e-01 7.068879999999999608e-01 2.081344999999999779e+00 1.286380000000000052e+02 1.615525000000000091e+03
1.229999999999999982e-01 7.068615000000000315e-01 1.688825000000000021e+00 1.284735000000000014e+02 1.615454999999999927e+03
1.239999999999999991e-01 7.068685000000000107e-01 1.381664999999999921e+00 1.284474999999999909e+02 1.615420000000000073e+03
1.250000000000000000e-01 7.069060000000000343e-01 1.155268500000000031e+00 1.285489999999999782e+02 1.615424999999999955e+03
1.260000000000000009e-01 7.069695000000000285e-01 1.002472999999999947e+00 1.287614999999999839e+02 1.615454999999999927e+03
1.270000000000000018e-01 7.070530000000000426e-01 9.139484999999999415e-01 1.290649999999999977e+02 1.615514999999999873e+03
1.280000000000000027e-01 7.071515000000000439e-01 8.787468499999999683e-01 1.294370000000000118e+02 1.615595000000000027e+03
1.290000000000000036e-01 7.072574999999999834e-01 8.848555000000000170e-01 1.298534999999999968e+02 1.615695000000000164e+03
1.300000000000000044e-01 7.073670000000000790e-01 9.197720000000000340e-01 1.302889999999999873e+02 1.615800000000000182e+03
1.310000000000000053e-01 7.074730000000000185e-01 9.710380500000000970e-01 1.307189999999999941e+02 1.615904999999999973e+03
1.320000000000000062e-01 7.075700000000000323e-01 1.026740149999999963e+00 1.311220000000000141e+02 1.616014999999999873e+03
1.330000000000000071e-01 7.076534999999999354e-01 1.075923500000000033e+00 1.314775000000000205e+02 1.616110000000000127e+03
1.340000000000000080e-01 7.077200000000000157e-01 1.108968500000000024e+00 1.317685000000000173e+02 1.616190000000000055e+03
1.350000000000000089e-01 7.077660000000000062e-01 1.117849499999999940e+00 1.319824999999999875e+02 1.616255000000000109e+03
1.360000000000000098e-01 7.077900000000000302e-01 1.096301500000000040e+00 1.321090000000000089e+02 1.616295000000000073e+03
1.370000000000000107e-01 7.077919999999999767e-01 1.039938999999999947e+00 1.321424999999999841e+02 1.616315000000000055e+03
1.380000000000000115e-01 7.077700000000000102e-01 9.462614999999998666e-01 1.320824999999999818e+02 1.616309999999999945e+03
1.390000000000000124e-01 7.077255000000000074e-01 8.146134999999999904e-01 1.319284999999999854e+02 1.616284999999999854e+03
1.400000000000000133e-01 7.076605000000000256e-01 6.460469999999999269e-01 1.316870000000000118e+02 1.616224999999999909e+03
1.410000000000000142e-01 7.075759999999999827e-01 4.431630000000000291e-01 1.313650000000000091e+02 1.616155000000000200e+03
1.420000000000000151e-01 7.074754999999999239e-01 2.099140000000000450e-01 1.309710000000000036e+02 1.616059999999999945e+03
1.430000000000000160e-01 7.073614999999999764e-01 -4.866000000000003656e-02 1.305174999999999841e+02 1.615940000000000055e+03
1.440000000000000169e-01 7.072369999999998935e-01 -3.266994999999999760e-01 1.300159999999999911e+02 1.615815000000000055e+03
1.450000000000000178e-01 7.071049999999999836e-01 -6.178010000000000446e-01 1.294789999999999850e+02 1.615675000000000182e+03
1.459999999999999909e-01 7.069680000000000408e-01 -9.153114999999998336e-01 1.289194999999999993e+02 1.615525000000000091e+03
1.469999999999999918e-01 7.068305000000000282e-01 -1.212616000000000138e+00 1.283495000000000061e+02 1.615369999999999891e+03
1.479999999999999927e-01 7.066934999999999745e-01 -1.503400999999999987e+00 1.277794999999999987e+02 1.615220000000000027e+03
1.489999999999999936e-01 7.065600000000000769e-01 -1.781930500000000084e+00 1.272194999999999965e+02 1.615059999999999945e+03
1.499999999999999944e-01 7.064314999999999900e-01 -2.043226000000000209e+00 1.266775000000000091e+02 1.614909999999999854e+03
1.509999999999999953e-01 7.063090000000000757e-01 -2.283275000000000166e+00 1.261599999999999966e+02 1.614759999999999991e+03
1.519999999999999962e-01 7.061935000000000295e-01 -2.499114999999999753e+00 1.256694999999999993e+02 1.614619999999999891e+03
1.529999999999999971e-01 7.060855000000000325e-01 -2.688925000000000232e+00 1.252085000000000008e+02 1.614490000000000009e+03
1.539999999999999980e-01 7.059845000000000148e-01 -2.852020000000000000e+00 1.247764999999999986e+02 1.614355000000000018e+03
1.549999999999999989e-01 7.058889999999999887e-01 -2.988785000000000025e+00 1.243719999999999999e+02 1.614240000000000009e+03
1.559999999999999998e-01 7.057984999999999953e-01 -3.100620000000000154e+00 1.239899999999999949e+02 1.614119999999999891e+03
1.570000000000000007e-01 7.057115000000000471e-01 -3.189740000000000020e+00 1.236260000000000048e+02 1.614014999999999873e+03
1.580000000000000016e-01 7.056264999999999343e-01 -3.259030000000000094e+00 1.232735000000000127e+02 1.613904999999999973e+03
1.590000000000000024e-01 7.055415000000000436e-01 -3.311835000000000306e+00 1.229259999999999877e+02 1.613805000000000064e+03
