# t [s], A [cm^2], U [cm/s], P [cPa], c [cm/s]
1.000000000000000021e-03 5.742920000000000247e-01 2.499400000000005784e-03 1.027374999999999972e+02 1.407735000000000127e+03
2.000000000000000042e-03 5.742850000000000454e-01 1.276615000000000041e-03 1.027235000000000014e+02 1.407724999999999909e+03
3.000000000000000062e-03 5.743245000000000156e-01 6.624920000000000808e-02 1.027805000000000035e+02 1.407750000000000000e+03
4.000000000000000083e-03 5.743759999999999977e-01 1.496396000000000115e-01 1.028774999999999977e+02 1.407779999999999973e+03
5.000000000000000104e-03 5.743789999999999729e-01 1.560850000000000015e-01 1.028884999999999934e+02 1.407784999999999854e+03
6.000000000000000125e-03 5.743420000000000192e-01 9.479500000000000426e-02 1.027860000000000014e+02 1.407769999999999982e+03
7.000000000000000146e-03 5.742994999999999628e-01 2.006900000000000350e-02 1.026140000000000043e+02 1.407724999999999909e+03
8.000000000000000167e-03 5.742475000000000218e-01 -7.390099999999999447e-02 1.023750000000000000e+02 1.407670000000000073e+03
9.000000000000001055e-03 5.741585000000000161e-01 -2.377274999999999805e-01 1.020105000000000075e+02 1.407575000000000045e+03
1.000000000000000194e-02 5.740174999999999583e-01 -4.931649999999999645e-01 1.014745000000000061e+02 1.407434999999999945e+03
1.099999999999999936e-02 5.738210000000000255e-01 -8.424050000000000704e-01 1.007351999999999919e+02 1.407244999999999891e+03
1.200000000000000025e-02 5.735569999999999835e-01 -1.292614999999999847e+00 9.975969999999999516e+01 1.406980000000000018e+03
1.300000000000000114e-02 5.732209999999999805e-01 -1.839689999999999825e+00 9.852344999999999686e+01 1.406639999999999873e+03
1.400000000000000203e-02 5.728260000000000574e-01 -2.441780000000000062e+00 9.704695000000000960e+01 1.406219999999999800e+03
1.499999999999999944e-02 5.724059999999999704e-01 -3.018709999999999560e+00 9.540819999999999368e+01 1.405744999999999891e+03
1.600000000000000033e-02 5.720009999999999817e-01 -3.478389999999999649e+00 9.372119999999999607e+01 1.405234999999999900e+03
1.700000000000000122e-02 5.716410000000000657e-01 -3.748450000000000060e+00 9.209749999999999659e+01 1.404724999999999909e+03
1.800000000000000211e-02 5.713375000000000536e-01 -3.795443000000000122e+00 9.061520000000000152e+01 1.404235000000000127e+03
1.900000000000000300e-02 5.710834999999999662e-01 -3.627096499999999946e+00 8.930365000000000464e+01 1.403775000000000091e+03
2.000000000000000042e-02 5.708594999999999642e-01 -3.282385499999999734e+00 8.814565000000000339e+01 1.403345000000000027e+03
2.100000000000000130e-02 5.706419999999999826e-01 -2.815735999999999795e+00 8.709114999999999895e+01 1.402940000000000055e+03
2.200000000000000219e-02 5.704090000000000549e-01 -2.280804999999999971e+00 8.607640000000000668e+01 1.402545000000000073e+03
2.299999999999999961e-02 5.701469999999999594e-01 -1.717764999999999986e+00 8.504354999999999620e+01 1.402139999999999873e+03
2.400000000000000050e-02 5.698524999999999840e-01 -1.147084999999999910e+00 8.395459999999999923e+01 1.401724999999999909e+03
2.500000000000000139e-02 5.695295000000000218e-01 -5.705800000000000871e-01 8.279699999999999704e+01 1.401299999999999955e+03
2.600000000000000228e-02 5.691895000000000149e-01 2.124499999999995836e-02 8.157984999999999332e+01 1.400855000000000018e+03
2.700000000000000316e-02 5.688414999999999999e-01 6.392500000000000959e-01 8.032390000000000896e+01 1.400394999999999982e+03
2.800000000000000058e-02 5.684915000000000385e-01 1.286540000000000017e+00 7.904930000000000234e+01 1.399929999999999836e+03
2.900000000000000147e-02 5.681399999999999784e-01 1.952925000000000022e+00 7.776564999999999372e+01 1.399460000000000036e+03
3.000000000000000236e-02 5.677809999999999802e-01 2.613900000000000112e+00 7.646604999999999563e+01 1.398980000000000018e+03
3.099999999999999978e-02 5.674029999999999907e-01 3.233680000000000554e+00 7.512704999999999700e+01 1.398494999999999891e+03
3.200000000000000067e-02 5.669919999999999405e-01 3.771095000000000308e+00 7.371289999999999054e+01 1.397985000000000127e+03
3.300000000000000155e-02 5.665369999999999573e-01 4.186929999999999374e+00 7.218344999999999345e+01 1.397450000000000045e+03
3.400000000000000244e-02 5.660290000000000044e-01 4.450870000000000104e+00 7.050350000000000250e+01 1.396875000000000000e+03
3.500000000000000333e-02 5.654654999999999543e-01 4.547375000000000611e+00 6.865215000000000600e+01 1.396250000000000000e+03
3.600000000000000422e-02 5.648520000000000207e-01 4.478374999999999773e+00 6.662905000000000655e+01 1.395579999999999927e+03
3.700000000000000511e-02 5.642004999999999937e-01 4.263349999999999085e+00 6.445815000000000339e+01 1.394875000000000000e+03
3.799999999999999906e-02 5.635295000000000165e-01 3.936244999999999994e+00 6.218634999999999735e+01 1.394130000000000109e+03
3.899999999999999994e-02 5.628600000000000270e-01 3.540779999999999816e+00 5.987924999999999898e+01 1.393375000000000000e+03
4.000000000000000083e-02 5.622154999999999792e-01 3.124390000000000001e+00 5.761384999999999934e+01 1.392630000000000109e+03
4.100000000000000172e-02 5.616170000000000329e-01 2.733240000000000336e+00 5.547070000000000078e+01 1.391909999999999854e+03
4.200000000000000261e-02 5.610840000000000272e-01 2.408100000000000573e+00 5.352674999999999983e+01 1.391244999999999891e+03
4.300000000000000350e-02 5.606315000000000603e-01 2.181634999999999991e+00 5.184915000000000163e+01 1.390650000000000091e+03
4.400000000000000439e-02 5.602700000000000458e-01 2.077904999999999891e+00 5.049160000000000537e+01 1.390150000000000091e+03
4.499999999999999833e-02 5.600064999999999626e-01 2.112639999999999851e+00 4.949250000000000682e+01 1.389750000000000000e+03
4.599999999999999922e-02 5.598449999999999260e-01 2.294680000000000053e+00 4.887529999999999575e+01 1.389464999999999918e+03
4.700000000000000011e-02 5.597849999999999770e-01 2.627765000000000128e+00 4.864990000000000236e+01 1.389300000000000182e+03
4.800000000000000100e-02 5.598259999999999348e-01 3.112264999999999837e+00 4.881530000000000058e+01 1.389259999999999991e+03
4.900000000000000189e-02 5.599650000000000460e-01 3.746504999999999974e+00 4.936209999999999809e+01 1.389339999999999918e+03
5.000000000000000278e-02 5.601979999999999738e-01 4.527519999999999989e+00 5.027490000000000236e+01 1.389539999999999964e+03
5.100000000000000366e-02 5.605204999999999771e-01 5.451180000000000803e+00 5.153419999999999845e+01 1.389860000000000127e+03
5.200000000000000455e-02 5.609279999999999822e-01 6.511879999999999669e+00 5.311730000000000018e+01 1.390289999999999964e+03
5.300000000000000544e-02 5.614135000000000097e-01 7.701950000000000074e+00 5.499860000000000326e+01 1.390819999999999936e+03
5.399999999999999939e-02 5.619695000000000107e-01 9.010995000000001198e+00 5.714989999999999526e+01 1.391449999999999818e+03
5.500000000000000028e-02 5.625885000000000469e-01 1.042567500000000003e+01 5.954019999999999868e+01 1.392159999999999854e+03
5.600000000000000117e-02 5.632610000000000117e-01 1.192949000000000126e+01 6.213549999999999329e+01 1.392950000000000045e+03
5.700000000000000205e-02 5.639770000000000616e-01 1.350342000000000020e+01 6.489955000000000496e+01 1.393799999999999955e+03
5.800000000000000294e-02 5.647259999999999502e-01 1.512642499999999934e+01 6.779439999999999600e+01 1.394704999999999927e+03
5.900000000000000383e-02 5.654980000000000562e-01 1.677643499999999932e+01 7.078145000000000664e+01 1.395655000000000200e+03
6.000000000000000472e-02 5.662825000000000220e-01 1.843155499999999947e+01 7.382295000000000584e+01 1.396634999999999991e+03
6.099999999999999867e-02 5.670709999999999917e-01 2.007099999999999795e+01 7.688330000000000553e+01 1.397625000000000000e+03
6.199999999999999956e-02 5.678545000000000398e-01 2.167634999999999934e+01 7.993054999999999666e+01 1.398634999999999991e+03
6.300000000000000044e-02 5.686275000000000635e-01 2.323160000000000025e+01 8.293739999999999668e+01 1.399639999999999873e+03
6.400000000000000133e-02 5.693850000000000300e-01 2.472429999999999950e+01 8.588245000000000573e+01 1.400634999999999991e+03
6.500000000000000222e-02 5.701235000000000053e-01 2.614550000000000196e+01 8.875000000000000000e+01 1.401615000000000009e+03
6.600000000000000311e-02 5.708415000000000017e-01 2.748944999999999794e+01 9.153104999999999336e+01 1.402574999999999818e+03
6.700000000000000400e-02 5.715394999999999781e-01 2.875369999999999848e+01 9.422209999999999752e+01 1.403514999999999873e+03
6.800000000000000488e-02 5.722175000000000455e-01 2.993850000000000122e+01 9.682519999999999527e+01 1.404424999999999955e+03
6.900000000000000577e-02 5.728775000000000395e-01 3.104635000000000034e+01 9.934590000000000032e+01 1.405320000000000164e+03
7.000000000000000666e-02 5.735235000000000749e-01 3.208164999999999623e+01 1.017949500000000000e+02 1.406195000000000164e+03
7.100000000000000755e-02 5.741580000000000572e-01 3.304964999999999975e+01 1.041833000000000027e+02 1.407049999999999955e+03
7.200000000000000844e-02 5.747835000000000027e-01 3.395650000000000546e+01 1.065244500000000016e+02 1.407884999999999991e+03
7.300000000000000933e-02 5.754040000000000266e-01 3.480835000000000434e+01 1.088315000000000055e+02 1.408714999999999918e+03
7.399999999999999634e-02 5.760220000000000340e-01 3.561119999999999663e+01 1.111165000000000020e+02 1.409535000000000082e+03
7.499999999999999722e-02 5.766394999999999715e-01 3.637024999999999864e+01 1.133905000000000030e+02 1.410349999999999909e+03
7.599999999999999811e-02 5.772580000000000489e-01 3.708964999999999890e+01 1.156595000000000084e+02 1.411164999999999964e+03
7.699999999999999900e-02 5.778784999999999616e-01 3.777240000000000464e+01 1.179300000000000068e+02 1.411974999999999909e+03
7.799999999999999989e-02 5.785004999999999731e-01 3.841995000000000005e+01 1.202014999999999958e+02 1.412785000000000082e+03
7.900000000000000078e-02 5.791230000000000544e-01 3.903220000000000312e+01 1.224729999999999990e+02 1.413594999999999800e+03
8.000000000000000167e-02 5.797434999999999672e-01 3.960760000000000502e+01 1.247374999999999829e+02 1.414404999999999973e+03
8.100000000000000255e-02 5.803595000000000281e-01 4.014324999999999477e+01 1.269860000000000042e+02 1.415210000000000036e+03
8.200000000000000344e-02 5.809674999999999701e-01 4.063490000000000180e+01 1.292055000000000007e+02 1.416005000000000109e+03
8.300000000000000433e-02 5.815635000000000110e-01 4.107750000000000057e+01 1.313824999999999932e+02 1.416789999999999964e+03
8.400000000000000522e-02 5.821430000000000771e-01 4.146524999999999750e+01 1.334995000000000118e+02 1.417554999999999836e+03
8.500000000000000611e-02 5.827005000000000656e-01 4.179224999999999568e+01 1.355405000000000086e+02 1.418299999999999955e+03
8.600000000000000699e-02 5.832330000000000014e-01 4.205264999999999986e+01 1.374879999999999995e+02 1.419009999999999991e+03
8.700000000000000788e-02 5.837360000000000326e-01 4.224089999999999634e+01 1.393255000000000052e+02 1.419690000000000055e+03
8.800000000000000877e-02 5.842055000000000442e-01 4.235235000000000127e+01 1.410380000000000109e+02 1.420329999999999927e+03
8.899999999999999578e-02 5.846379999999999910e-01 4.238325000000000387e+01 1.426140000000000043e+02 1.420930000000000064e+03
8.999999999999999667e-02 5.850314999999999266e-01 4.233089999999999975e+01 1.440409999999999968e+02 1.421485000000000127e+03
9.099999999999999756e-02 5.853840000000000154e-01 4.219415000000000049e+01 1.453129999999999882e+02 1.421985000000000127e+03
9.199999999999999845e-02 5.856945000000000068e-01 4.197319999999999851e+01 1.464254999999999995e+02 1.422425000000000182e+03
9.299999999999999933e-02 5.859630000000000116e-01 4.166965000000000430e+01 1.473764999999999930e+02 1.422824999999999818e+03
9.400000000000000022e-02 5.861899999999999888e-01 4.128655000000000541e+01 1.481684999999999945e+02 1.423164999999999964e+03
9.500000000000000111e-02 5.863764999999999672e-01 4.082835000000000036e+01 1.488059999999999832e+02 1.423450000000000045e+03
9.600000000000000200e-02 5.865255000000000329e-01 4.030069999999999908e+01 1.492964999999999804e+02 1.423684999999999945e+03
9.700000000000000289e-02 5.866390000000000216e-01 3.971025000000000205e+01 1.496499999999999773e+02 1.423869999999999891e+03
9.800000000000000377e-02 5.867204999999999782e-01 3.906470000000000198e+01 1.498790000000000191e+02 1.424009999999999991e+03
9.900000000000000466e-02 5.867725000000000302e-01 3.837245000000000061e+01 1.499959999999999809e+02 1.424109999999999900e+03
1.000000000000000056e-01 5.867994999999999184e-01 3.764225000000000421e+01 1.500165000000000077e+02 1.424170000000000073e+03
1.010000000000000064e-01 5.868060000000000498e-01 3.688335000000000008e+01 1.499555000000000007e+02 1.424200000000000045e+03
1.020000000000000073e-01 5.867949999999999555e-01 3.610459999999999781e+01 1.498294999999999959e+02 1.424200000000000045e+03
1.030000000000000082e-01 5.867700000000000138e-01 3.531494999999999607e+01 1.496519999999999868e+02 1.424179999999999836e+03
1.040000000000000091e-01 5.867360000000000353e-01 3.452275000000000205e+01 1.494395000000000095e+02 1.424134999999999991e+03
1.050000000000000100e-01 5.866959999999999953e-01 3.373545000000000016e+01 1.492044999999999959e+02 1.424085000000000036e+03
1.059999999999999970e-01 5.866519999999999513e-01 3.295985000000000298e+01 1.489590000000000032e+02 1.424019999999999982e+03
1.069999999999999979e-01 5.866075000000000594e-01 3.220145000000000124e+01 1.487129999999999939e+02 1.423960000000000036e+03
1.079999999999999988e-01 5.865639999999999743e-01 3.146450000000000102e+01 1.484755000000000109e+02 1.423889999999999873e+03
1.089999999999999997e-01 5.865225000000000577e-01 3.075195000000000078e+01 1.482514999999999930e+02 1.423820000000000164e+03
1.100000000000000006e-01 5.864840000000000053e-01 3.006544999999999845e+01 1.480450000000000159e+02 1.423750000000000000e+03
1.110000000000000014e-01 5.864489999999999981e-01 2.940525000000000233e+01 1.478569999999999993e+02 1.423684999999999945e+03
1.120000000000000023e-01 5.864169999999999661e-01 2.877024999999999721e+01 1.476870000000000118e+02 1.423625000000000000e+03
1.130000000000000032e-01 5.863869999999999916e-01 2.815840000000000032e+01 1.475314999999999941e+02 1.423565000000000055e+03
1.140000000000000041e-01 5.863574999999999759e-01 2.756640000000000157e+01 1.473865000000000123e+02 1.423514999999999873e+03
1.150000000000000050e-01 5.863275000000000015e-01 2.699054999999999893e+01 1.472454999999999927e+02 1.423460000000000036e+03
1.160000000000000059e-01 5.862944999999999407e-01 2.642614999999999981e+01 1.471025000000000205e+02 1.423409999999999854e+03
1.170000000000000068e-01 5.862574999999999870e-01 2.586860000000000070e+01 1.469495000000000005e+02 1.423349999999999909e+03
1.180000000000000077e-01 5.862140000000000128e-01 2.531289999999999907e+01 1.467785000000000082e+02 1.423284999999999854e+03
1.190000000000000085e-01 5.861619999999999608e-01 2.475434999999999874e+01 1.465815000000000055e+02 1.423215000000000146e+03
1.200000000000000094e-01 5.861005000000000242e-01 2.418860000000000099e+01 1.463539999999999850e+02 1.423139999999999873e+03
1.209999999999999964e-01 5.860279999999999934e-01 2.361185000000000045e+01 1.460875000000000057e+02 1.423049999999999955e+03
1.219999999999999973e-01 5.859425000000000328e-01 2.302085000000000292e+01 1.457789999999999964e+02 1.422950000000000045e+03
1.229999999999999982e-01 5.858455000000000190e-01 2.241335000000000122e+01 1.454244999999999948e+02 1.422829999999999927e+03
1.239999999999999991e-01 5.857345000000000468e-01 2.178795000000000215e+01 1.450219999999999914e+02 1.422694999999999936e+03
1.250000000000000000e-01 5.856114999999999515e-01 2.114424999999999955e+01 1.445735000000000241e+02 1.422555000000000064e+03
1.260000000000000009e-01 5.854759999999999964e-01 2.048270000000000124e+01 1.440790000000000077e+02 1.422394999999999982e+03
1.270000000000000018e-01 5.853304999999999758e-01 1.980505000000000138e+01 1.435425000000000182e+02 1.422215000000000146e+03
1.280000000000000027e-01 5.851750000000000007e-01 1.911364999999999981e+01 1.429685000000000059e+02 1.422029999999999973e+03
1.290000000000000036e-01 5.850119999999999765e-01 1.841189999999999927e+01 1.423644999999999925e+02 1.421829999999999927e+03
1.300000000000000044e-01 5.848440000000000305e-01 1.770380000000000109e+01 1.417375000000000114e+02 1.421625000000000000e+03
1.310000000000000053e-01 5.846729999999999983e-01 1.699425000000000097e+01 1.410960000000000036e+02 1.421409999999999854e+03
1.320000000000000062e-01 5.845009999999999373e-01 1.628824999999999790e+01 1.404499999999999886e+02 1.421195000000000164e+03
1.330000000000000071e-01 5.843309999999999338e-01 1.559135000000000026e+01 1.398079999999999927e+02 1.420974999999999909e+03
1.340000000000000080e-01 5.841665000000000330e-01 1.490915000000000035e+01 1.391814999999999998e+02 1.420759999999999991e+03
1.350000000000000089e-01 5.840084999999999305e-01 1.424717500000000037e+01 1.385780000000000030e+02 1.420555000000000064e+03
1.360000000000000098e-01 5.838600000000000456e-01 1.361070499999999939e+01 1.380084999999999980e+02 1.420349999999999909e+03
1.370000000000000107e-01 5.837240000000000206e-01 1.300471999999999895e+01 1.374800000000000182e+02 1.420164999999999964e+03
1.380000000000000115e-01 5.836000000000000076e-01 1.243352499999999949e+01 1.369995000000000118e+02 1.419990000000000009e+03
1.390000000000000124e-01 5.834909999999999819e-01 1.190072499999999955e+01 1.365734999999999957e+02 1.419829999999999927e+03
1.400000000000000133e-01 5.833979999999999722e-01 1.140919500000000042e+01 1.362060000000000173e+02 1.419690000000000055e+03
1.410000000000000142e-01 5.833215000000000483e-01 1.096093000000000117e+01 1.359005000000000223e+02 1.419570000000000164e+03
1.420000000000000151e-01 5.832610000000000294e-01 1.055694500000000069e+01 1.356569999999999823e+02 1.419465000000000146e+03
1.430000000000000160e-01 5.832169999999999854e-01 1.019745499999999971e+01 1.354759999999999991e+02 1.419380000000000109e+03
1.440000000000000169e-01 5.831884999999999986e-01 9.881615000000000038e+00 1.353559999999999945e+02 1.419319999999999936e+03
1.450000000000000178e-01 5.831744999999999290e-01 9.607934999999999448e+00 1.352925000000000182e+02 1.419280000000000200e+03
1.459999999999999909e-01 5.831740000000000812e-01 9.373960000000000292e+00 1.352814999999999941e+02 1.419250000000000000e+03
1.469999999999999918e-01 5.831850000000000644e-01 9.176750000000000185e+00 1.353174999999999955e+02 1.419244999999999891e+03
1.479999999999999927e-01 5.832060000000000022e-01 9.012774999999999537e+00 1.353935000000000173e+02 1.419244999999999891e+03
1.489999999999999936e-01 5.832355000000000178e-01 8.878219999999998890e+00 1.355029999999999859e+02 1.419264999999999873e+03
1.499999999999999944e-01 5.832705000000000251e-01 8.768934999999999036e+00 1.356380000000000052e+02 1.419295000000000073e+03
1.509999999999999953e-01 5.833104999999999540e-01 8.680730000000000501e+00 1.357914999999999850e+02 1.419329999999999927e+03
1.519999999999999962e-01 5.833524999999999405e-01 8.609429999999999694e+00 1.359569999999999936e+02 1.419375000000000000e+03
1.529999999999999971e-01 5.833954999999999558e-01 8.551020000000001176e+00 1.361270000000000095e+02 1.419420000000000073e+03
1.539999999999999980e-01 5.834375000000000533e-01 8.501744999999999663e+00 1.362950000000000159e+02 1.419469999999999800e+03
1.549999999999999989e-01 5.834779999999999411e-01 8.458190000000000097e+00 1.364569999999999936e+02 1.419509999999999991e+03
1.559999999999999998e-01 5.835150000000000059e-01 8.417329999999999757e+00 1.366080000000000041e+02 1.419559999999999945e+03
1.570000000000000007e-01 5.835485000000000255e-01 8.376604999999999634e+00 1.367445000000000164e+02 1.419605000000000018e+03
1.580000000000000016e-01 5.835770000000000124e-01 8.333925000000000693e+00 1.368629999999999995e+02 1.419639999999999873e+03
1.590000000000000024e-01 5.836014999999999953e-01 8.287639999999999674e+00 1.369624999999999773e+02 1.419674999999999955e+03
