# t [s], A [cm^2], U [cm/s], P [cPa], c [cm/s]
1.000000000000000021e-03 1.857415000000000038e-01 4.340882999999999825e-01 8.675464999999999804e+01 2.087515000000000327e+03
2.000000000000000042e-03 1.856710000000000027e-01 2.060630499999999810e+00 8.305035000000000878e+01 2.086989999999999782e+03
3.000000000000000062e-03 1.855104999999999948e-01 4.016469999999999985e+00 7.803419999999999845e+01 2.085820000000000164e+03
4.000000000000000083e-03 1.853095000000000159e-01 6.215410000000000323e+00 7.305424999999999613e+01 2.084385000000000218e+03
5.000000000000000104e-03 1.851119999999999988e-01 8.530545000000000044e+00 6.907694999999999652e+01 2.082974999999999909e+03
6.000000000000000125e-03 1.849314999999999987e-01 1.065673499999999940e+01 6.600254999999999939e+01 2.081720000000000255e+03
7.000000000000000146e-03 1.847675000000000012e-01 1.237218000000000018e+01 6.328525000000000489e+01 2.080600000000000364e+03
8.000000000000000167e-03 1.846245000000000247e-01 1.372254000000000040e+01 6.089634999999999820e+01 2.079644999999999982e+03
9.000000000000001055e-03 1.845080000000000053e-01 1.478525000000000134e+01 5.901910000000000167e+01 2.078869999999999891e+03
1.000000000000000194e-02 1.844164999999999832e-01 1.558140000000000036e+01 5.762049999999999983e+01 2.078275000000000091e+03
1.099999999999999936e-02 1.843474999999999975e-01 1.614989999999999881e+01 5.664060000000000628e+01 2.077829999999999927e+03
1.200000000000000025e-02 1.842995000000000050e-01 1.651849999999999952e+01 5.601389999999999958e+01 2.077534999999999854e+03
1.300000000000000114e-02 1.842650000000000121e-01 1.668694999999999951e+01 5.557110000000000127e+01 2.077324999999999818e+03
1.400000000000000203e-02 1.842395000000000005e-01 1.672214999999999918e+01 5.525124999999999886e+01 2.077180000000000291e+03
1.499999999999999944e-02 1.842304999999999915e-01 1.682185000000000130e+01 5.538635000000000019e+01 2.077140000000000327e+03
1.600000000000000033e-02 1.842535000000000145e-01 1.722259999999999991e+01 5.658015000000000327e+01 2.077300000000000182e+03
1.700000000000000122e-02 1.843230000000000146e-01 1.802694999999999936e+01 5.921815000000000140e+01 2.077760000000000218e+03
1.800000000000000211e-02 1.844365000000000032e-01 1.910665000000000191e+01 6.305245000000000033e+01 2.078515000000000327e+03
1.900000000000000300e-02 1.845745000000000025e-01 2.014589999999999748e+01 6.718800000000000239e+01 2.079439999999999600e+03
2.000000000000000042e-02 1.847044999999999937e-01 2.078464999999999918e+01 7.044859999999999900e+01 2.080324999999999818e+03
2.100000000000000130e-02 1.847924999999999984e-01 2.077584999999999837e+01 7.188820000000001187e+01 2.080940000000000055e+03
2.200000000000000219e-02 1.848184999999999967e-01 2.008375000000000199e+01 7.118590000000000373e+01 2.081154999999999745e+03
2.299999999999999961e-02 1.847845000000000182e-01 1.888329999999999842e+01 6.874745000000000061e+01 2.080965000000000146e+03
2.400000000000000050e-02 1.847074999999999967e-01 1.746884999999999977e+01 6.548335000000000150e+01 2.080470000000000255e+03
2.500000000000000139e-02 1.846154999999999879e-01 1.612484999999999857e+01 6.239504999999999768e+01 2.079855000000000018e+03
2.600000000000000228e-02 1.845324999999999882e-01 1.502149999999999963e+01 6.018059999999999832e+01 2.079300000000000182e+03
2.700000000000000316e-02 1.844744999999999857e-01 1.417685000000000173e+01 5.903000000000000114e+01 2.078894999999999982e+03
2.800000000000000058e-02 1.844394999999999785e-01 1.348629999999999995e+01 5.865879999999999939e+01 2.078650000000000091e+03
2.900000000000000147e-02 1.844195000000000140e-01 1.279360000000000142e+01 5.851695000000000135e+01 2.078505000000000109e+03
3.000000000000000236e-02 1.843974999999999920e-01 1.196975000000000122e+01 5.806204999999999927e+01 2.078355000000000018e+03
3.099999999999999978e-02 1.843629999999999991e-01 1.097288999999999959e+01 5.699309999999999832e+01 2.078135000000000218e+03
3.200000000000000067e-02 1.843124999999999902e-01 9.871124999999999261e+00 5.537189999999999657e+01 2.077800000000000182e+03
3.300000000000000155e-02 1.842524999999999857e-01 8.822305000000000064e+00 5.359895000000000209e+01 2.077399999999999636e+03
3.400000000000000244e-02 1.841980000000000006e-01 8.019120000000000914e+00 5.226004999999999967e+01 2.077029999999999745e+03
3.500000000000000333e-02 1.841665000000000108e-01 7.620720000000000383e+00 5.190480000000000160e+01 2.076805000000000291e+03
3.600000000000000422e-02 1.841714999999999880e-01 7.696995000000000253e+00 5.284335000000000093e+01 2.076815000000000055e+03
3.700000000000000511e-02 1.842179999999999929e-01 8.203609999999999403e+00 5.503229999999999933e+01 2.077105000000000018e+03
3.799999999999999906e-02 1.843004999999999782e-01 8.992245000000000488e+00 5.807874999999999943e+01 2.077635000000000218e+03
3.899999999999999994e-02 1.844029999999999836e-01 9.847405000000000186e+00 6.134544999999999959e+01 2.078310000000000400e+03
4.000000000000000083e-02 1.845050000000000023e-01 1.053513500000000036e+01 6.410999999999999943e+01 2.078994999999999891e+03
4.100000000000000172e-02 1.845839999999999981e-01 1.084895000000000032e+01 6.572514999999999930e+01 2.079529999999999745e+03
4.200000000000000261e-02 1.846210000000000073e-01 1.064254999999999995e+01 6.574019999999998731e+01 2.079789999999999964e+03
4.300000000000000350e-02 1.846025000000000027e-01 9.845680000000001542e+00 6.396099999999999852e+01 2.079690000000000055e+03
4.400000000000000439e-02 1.845240000000000213e-01 8.463264999999999816e+00 6.044844999999999402e+01 2.079184999999999945e+03
4.499999999999999833e-02 1.843889999999999973e-01 6.561540000000000816e+00 5.546699999999999875e+01 2.078300000000000182e+03
4.599999999999999922e-02 1.842050000000000076e-01 4.247880499999999948e+00 4.940630000000000166e+01 2.077079999999999927e+03
4.700000000000000011e-02 1.839844999999999953e-01 1.649924999999999864e+00 4.270024999999999693e+01 2.075610000000000127e+03
4.800000000000000100e-02 1.837415000000000020e-01 -1.100700000000000234e+00 3.576310000000000144e+01 2.073985000000000127e+03
4.900000000000000189e-02 1.834894999999999998e-01 -3.878425000000000455e+00 2.895165000000000077e+01 2.072295000000000073e+03
5.000000000000000278e-02 1.832400000000000140e-01 -6.567510000000000403e+00 2.255509999999999948e+01 2.070625000000000000e+03
5.100000000000000366e-02 1.830040000000000000e-01 -9.061659999999999826e+00 1.680394499999999880e+01 2.069029999999999745e+03
5.200000000000000455e-02 1.827900000000000080e-01 -1.126241500000000073e+01 1.188765000000000072e+01 2.067579999999999927e+03
5.300000000000000544e-02 1.826055000000000039e-01 -1.307813999999999943e+01 7.970587499999999714e+00 2.066329999999999927e+03
5.399999999999999939e-02 1.824580000000000091e-01 -1.442524999999999835e+01 5.200514999999999333e+00 2.065319999999999709e+03
5.500000000000000028e-02 1.823535000000000017e-01 -1.523254999999999981e+01 3.705210999999999810e+00 2.064590000000000146e+03
5.600000000000000117e-02 1.822960000000000136e-01 -1.544679999999999964e+01 3.580460000000000420e+00 2.064175000000000182e+03
5.700000000000000205e-02 1.822900000000000076e-01 -1.503960000000000008e+01 4.872790000000000177e+00 2.064099999999999909e+03
5.800000000000000294e-02 1.823359999999999981e-01 -1.401194999999999879e+01 7.563489999999999824e+00 2.064369999999999891e+03
5.900000000000000383e-02 1.824334999999999984e-01 -1.239659499999999959e+01 1.155941999999999936e+01 2.064984999999999673e+03
6.000000000000000472e-02 1.825785000000000047e-01 -1.025645500000000077e+01 1.669409999999999883e+01 2.065925000000000182e+03
6.099999999999999867e-02 1.827650000000000108e-01 -7.679669999999999774e+00 2.274014999999999986e+01 2.067150000000000091e+03
6.199999999999999956e-02 1.829844999999999944e-01 -4.771978000000000719e+00 2.942960000000000065e+01 2.068595000000000255e+03
6.300000000000000044e-02 1.832285000000000164e-01 -1.648260000000000058e+00 3.647905000000000086e+01 2.070215000000000146e+03
6.400000000000000133e-02 1.834859999999999824e-01 1.575760000000000272e+00 4.361275000000000546e+01 2.071934999999999945e+03
6.500000000000000222e-02 1.837484999999999813e-01 4.789899999999999380e+00 5.058185000000000286e+01 2.073694999999999709e+03
6.600000000000000311e-02 1.840060000000000029e-01 7.894390000000000462e+00 5.717609999999999815e+01 2.075435000000000400e+03
6.700000000000000400e-02 1.842524999999999857e-01 1.080308499999999938e+01 6.322950000000000159e+01 2.077099999999999909e+03
6.800000000000000488e-02 1.844804999999999917e-01 1.344540500000000094e+01 6.862139999999999418e+01 2.078654999999999745e+03
6.900000000000000577e-02 1.846855000000000024e-01 1.576825000000000188e+01 7.327600000000001046e+01 2.080065000000000055e+03
7.000000000000000666e-02 1.848660000000000025e-01 1.773710000000000164e+01 7.716140000000000043e+01 2.081305000000000291e+03
7.100000000000000755e-02 1.850185000000000024e-01 1.933745000000000047e+01 8.028894999999999982e+01 2.082364999999999782e+03
7.200000000000000844e-02 1.851455000000000184e-01 2.057500000000000284e+01 8.271209999999999241e+01 2.083250000000000000e+03
7.300000000000000933e-02 1.852475000000000094e-01 2.147509999999999764e+01 8.452394999999999925e+01 2.083970000000000255e+03
7.399999999999999634e-02 1.853275000000000061e-01 2.208084999999999809e+01 8.585219999999999629e+01 2.084545000000000073e+03
7.499999999999999722e-02 1.853914999999999869e-01 2.244984999999999786e+01 8.685094999999999743e+01 2.085000000000000000e+03
7.599999999999999811e-02 1.854439999999999977e-01 2.264954999999999785e+01 8.768965000000000032e+01 2.085380000000000109e+03
7.699999999999999900e-02 1.854905000000000026e-01 2.275209999999999866e+01 8.854019999999999868e+01 2.085720000000000255e+03
7.799999999999999989e-02 1.855375000000000218e-01 2.282874999999999943e+01 8.956380000000000052e+01 2.086050000000000182e+03
7.900000000000000078e-02 1.855910000000000060e-01 2.294429999999999836e+01 9.089815000000000111e+01 2.086425000000000182e+03
8.000000000000000167e-02 1.856550000000000145e-01 2.315259999999999962e+01 9.264744999999999209e+01 2.086869999999999891e+03
8.100000000000000255e-02 1.857334999999999958e-01 2.349300000000000210e+01 9.487465000000000259e+01 2.087404999999999745e+03
8.200000000000000344e-02 1.858285000000000076e-01 2.398790000000000333e+01 9.759805000000000064e+01 2.088050000000000182e+03
8.300000000000000433e-02 1.859399999999999942e-01 2.464189999999999969e+01 1.007912499999999909e+02 2.088815000000000055e+03
8.400000000000000522e-02 1.860674999999999968e-01 2.544245000000000090e+01 1.043874999999999886e+02 2.089680000000000291e+03
8.500000000000000611e-02 1.862090000000000134e-01 2.636175000000000068e+01 1.082839999999999918e+02 2.090635000000000218e+03
8.600000000000000699e-02 1.863595000000000113e-01 2.735930000000000106e+01 1.123534999999999968e+02 2.091659999999999854e+03
8.700000000000000788e-02 1.865160000000000151e-01 2.838554999999999851e+01 1.164530000000000030e+02 2.092725000000000364e+03
8.800000000000000877e-02 1.866725000000000190e-01 2.938575000000000159e+01 1.204339999999999975e+02 2.093795000000000073e+03
8.899999999999999578e-02 1.868235000000000035e-01 3.030409999999999826e+01 1.241525000000000034e+02 2.094835000000000036e+03
8.999999999999999667e-02 1.869649999999999923e-01 3.108700000000000330e+01 1.274789999999999992e+02 2.095805000000000291e+03
9.099999999999999756e-02 1.870919999999999805e-01 3.168694999999999951e+01 1.303044999999999902e+02 2.096684999999999945e+03
9.199999999999999845e-02 1.872004999999999919e-01 3.206494999999999607e+01 1.325459999999999923e+02 2.097440000000000055e+03
9.299999999999999933e-02 1.872874999999999956e-01 3.219254999999999711e+01 1.341510000000000105e+02 2.098050000000000182e+03
9.400000000000000022e-02 1.873515000000000041e-01 3.205324999999999847e+01 1.350969999999999800e+02 2.098505000000000109e+03
9.500000000000000111e-02 1.873914999999999886e-01 3.164270000000000138e+01 1.353915000000000077e+02 2.098795000000000073e+03
9.600000000000000200e-02 1.874075000000000046e-01 3.096884999999999977e+01 1.350709999999999980e+02 2.098920000000000073e+03
9.700000000000000289e-02 1.874004999999999976e-01 3.005055000000000121e+01 1.341935000000000002e+02 2.098890000000000327e+03
9.800000000000000377e-02 1.873734999999999984e-01 2.891620000000000346e+01 1.328380000000000223e+02 2.098720000000000255e+03
9.900000000000000466e-02 1.873285000000000089e-01 2.760229999999999961e+01 1.310969999999999800e+02 2.098429999999999836e+03
1.000000000000000056e-01 1.872690000000000188e-01 2.615070000000000050e+01 1.290704999999999814e+02 2.098029999999999745e+03
1.010000000000000064e-01 1.871984999999999899e-01 2.460699999999999932e+01 1.268654999999999973e+02 2.097559999999999945e+03
1.020000000000000073e-01 1.871209999999999818e-01 2.301829999999999998e+01 1.245829999999999984e+02 2.097034999999999854e+03
1.030000000000000082e-01 1.870399999999999840e-01 2.143090000000000117e+01 1.223250000000000028e+02 2.096484999999999673e+03
1.040000000000000091e-01 1.869589999999999863e-01 1.988834999999999908e+01 1.201790000000000020e+02 2.095934999999999945e+03
1.050000000000000100e-01 1.868814999999999782e-01 1.842999999999999972e+01 1.182249999999999943e+02 2.095399999999999636e+03
1.059999999999999970e-01 1.868110000000000048e-01 1.708915000000000006e+01 1.165244999999999891e+02 2.094914999999999964e+03
1.069999999999999979e-01 1.867479999999999973e-01 1.589160000000000039e+01 1.151254999999999882e+02 2.094480000000000018e+03
1.079999999999999988e-01 1.866960000000000008e-01 1.485510000000000019e+01 1.140534999999999997e+02 2.094114999999999782e+03
1.089999999999999997e-01 1.866555000000000020e-01 1.398845000000000027e+01 1.133170000000000073e+02 2.093824999999999818e+03
1.100000000000000006e-01 1.866265000000000007e-01 1.329170000000000051e+01 1.129039999999999964e+02 2.093614999999999782e+03
1.110000000000000014e-01 1.866085000000000105e-01 1.275600000000000023e+01 1.127835000000000036e+02 2.093485000000000127e+03
1.120000000000000023e-01 1.866010000000000169e-01 1.236489999999999867e+01 1.129085000000000036e+02 2.093420000000000073e+03
1.130000000000000032e-01 1.866025000000000045e-01 1.209525000000000006e+01 1.132189999999999941e+02 2.093414999999999964e+03
1.140000000000000041e-01 1.866094999999999837e-01 1.191864999999999952e+01 1.136444999999999936e+02 2.093460000000000036e+03
1.150000000000000050e-01 1.866209999999999813e-01 1.180339999999999989e+01 1.141099999999999994e+02 2.093529999999999745e+03
1.160000000000000059e-01 1.866339999999999943e-01 1.171604999999999919e+01 1.145384999999999991e+02 2.093609999999999673e+03
1.170000000000000068e-01 1.866450000000000053e-01 1.162364999999999959e+01 1.148564999999999969e+02 2.093680000000000291e+03
1.180000000000000077e-01 1.866530000000000133e-01 1.149520000000000053e+01 1.149989999999999952e+02 2.093730000000000018e+03
1.190000000000000085e-01 1.866539999999999866e-01 1.130375000000000085e+01 1.149104999999999990e+02 2.093734999999999673e+03
1.200000000000000094e-01 1.866464999999999930e-01 1.102759999999999962e+01 1.145515000000000043e+02 2.093684999999999945e+03
1.209999999999999964e-01 1.866299999999999903e-01 1.065159999999999840e+01 1.138979999999999961e+02 2.093574999999999818e+03
1.219999999999999973e-01 1.866025000000000045e-01 1.016778000000000048e+01 1.129435000000000002e+02 2.093390000000000327e+03
1.229999999999999982e-01 1.865645000000000220e-01 9.575730000000000075e+00 1.117005000000000052e+02 2.093135000000000218e+03
1.239999999999999991e-01 1.865165000000000017e-01 8.882525000000001114e+00 1.101980000000000075e+02 2.092809999999999945e+03
1.250000000000000000e-01 1.864589999999999859e-01 8.102029999999999177e+00 1.084799999999999898e+02 2.092420000000000073e+03
1.260000000000000009e-01 1.863940000000000041e-01 7.254165000000000418e+00 1.066020000000000039e+02 2.091984999999999673e+03
1.270000000000000018e-01 1.863229999999999886e-01 6.363469999999999516e+00 1.046305000000000121e+02 2.091505000000000109e+03
1.280000000000000027e-01 1.862495000000000123e-01 5.457709999999999617e+00 1.026349500000000035e+02 2.091005000000000109e+03
1.290000000000000036e-01 1.861745000000000205e-01 4.566254999999999953e+00 1.006864999999999952e+02 2.090494999999999891e+03
1.300000000000000044e-01 1.861014999999999753e-01 3.718460000000000321e+00 9.885525000000001228e+01 2.089994999999999891e+03
1.310000000000000053e-01 1.860324999999999895e-01 2.942080000000000251e+00 9.720250000000000057e+01 2.089519999999999982e+03
1.320000000000000062e-01 1.859704999999999830e-01 2.261833499999999830e+00 9.578309999999999036e+01 2.089090000000000146e+03
1.330000000000000071e-01 1.859164999999999845e-01 1.698215999999999948e+00 9.463849999999999341e+01 2.088720000000000255e+03
1.340000000000000080e-01 1.858730000000000104e-01 1.266520499999999938e+00 9.379749999999999943e+01 2.088409999999999854e+03
1.350000000000000089e-01 1.858394999999999908e-01 9.762144999999999850e-01 9.327474999999999739e+01 2.088180000000000291e+03
1.360000000000000098e-01 1.858184999999999976e-01 8.305900000000000505e-01 9.307005000000000905e+01 2.088024999999999636e+03
1.370000000000000107e-01 1.858090000000000019e-01 8.267875000000000085e-01 9.316939999999999600e+01 2.087954999999999927e+03
1.380000000000000115e-01 1.858099999999999752e-01 9.560790000000000122e-01 9.354600000000000648e+01 2.087949999999999818e+03
1.390000000000000124e-01 1.858215000000000006e-01 1.204463999999999979e+00 9.416179999999999950e+01 2.088019999999999982e+03
1.400000000000000133e-01 1.858420000000000072e-01 1.553504999999999914e+00 9.497020000000000550e+01 2.088150000000000091e+03
1.410000000000000142e-01 1.858694999999999931e-01 1.981279999999999930e+00 9.591814999999999714e+01 2.088329999999999927e+03
1.420000000000000151e-01 1.859024999999999983e-01 2.463534999999999808e+00 9.694890000000000896e+01 2.088545000000000073e+03
1.430000000000000160e-01 1.859385000000000066e-01 2.974820000000000242e+00 9.800509999999999877e+01 2.088784999999999854e+03
1.440000000000000169e-01 1.859755000000000158e-01 3.489679999999999893e+00 9.903119999999999834e+01 2.089034999999999854e+03
1.450000000000000178e-01 1.860114999999999963e-01 3.983749999999999680e+00 9.997549999999999670e+01 2.089279999999999745e+03
1.459999999999999909e-01 1.860445000000000015e-01 4.434784999999999755e+00 1.007926999999999964e+02 2.089510000000000218e+03
1.469999999999999918e-01 1.860740000000000172e-01 4.823520000000000252e+00 1.014453000000000031e+02 2.089704999999999927e+03
1.479999999999999927e-01 1.860970000000000124e-01 5.134380000000000166e+00 1.019060000000000059e+02 2.089864999999999782e+03
1.489999999999999936e-01 1.861134999999999873e-01 5.355974999999999930e+00 1.021554999999999893e+02 2.089984999999999673e+03
1.499999999999999944e-01 1.861224999999999963e-01 5.481410000000000338e+00 1.021869999999999976e+02 2.090055000000000291e+03
1.509999999999999953e-01 1.861240000000000117e-01 5.508364999999999512e+00 1.020020000000000095e+02 2.090065000000000055e+03
1.519999999999999962e-01 1.861170000000000047e-01 5.438940000000000552e+00 1.016115000000000066e+02 2.090029999999999745e+03
1.529999999999999971e-01 1.861035000000000050e-01 5.279315000000000424e+00 1.010360000000000014e+02 2.089940000000000055e+03
1.539999999999999980e-01 1.860824999999999840e-01 5.039225000000000065e+00 1.003019500000000050e+02 2.089800000000000182e+03
1.549999999999999989e-01 1.860559999999999992e-01 4.731304999999999872e+00 9.944060000000000343e+01 2.089625000000000000e+03
1.559999999999999998e-01 1.860249999999999959e-01 4.370309999999999917e+00 9.848769999999998959e+01 2.089414999999999964e+03
1.570000000000000007e-01 1.859899999999999887e-01 3.972290000000000099e+00 9.747944999999999993e+01 2.089184999999999945e+03
1.580000000000000016e-01 1.859530000000000072e-01 3.553749999999999964e+00 9.645189999999999486e+01 2.088940000000000055e+03
1.590000000000000024e-01 1.859155000000000113e-01 3.130829999999999558e+00 9.543895000000000550e+01 2.088680000000000291e+03
