# t [s], A [cm^2], U [cm/s], P [cPa], c [cm/s]
1.000000000000000021e-03 4.785479999999999734e-01 3.601699999999999346e-03 1.026595000000000084e+02 1.429945000000000164e+03
2.000000000000000042e-03 4.785409999999999942e-01 -6.721610000000000041e-04 1.026409999999999911e+02 1.429934999999999945e+03
3.000000000000000062e-03 4.785734999999999850e-01 6.496635000000000604e-02 1.027000000000000028e+02 1.429954999999999927e+03
4.000000000000000083e-03 4.786185000000000023e-01 1.559628000000000125e-01 1.028045000000000044e+02 1.429994999999999891e+03
5.000000000000000104e-03 4.786195000000000310e-01 1.660464999999999858e-01 1.028139999999999930e+02 1.430000000000000000e+03
6.000000000000000125e-03 4.785804999999999643e-01 9.490949999999997999e-02 1.026905000000000001e+02 1.429969999999999800e+03
7.000000000000000146e-03 4.785379999999999634e-01 1.050499999999998657e-02 1.024939999999999998e+02 1.429914999999999964e+03
8.000000000000000167e-03 4.784889999999999977e-01 -9.178700000000000747e-02 1.022300000000000040e+02 1.429849999999999909e+03
9.000000000000001055e-03 4.784070000000000267e-01 -2.715799999999999326e-01 1.018340000000000032e+02 1.429735000000000127e+03
1.000000000000000194e-02 4.782815000000000261e-01 -5.476450000000000484e-01 1.012595000000000027e+02 1.429579999999999927e+03
1.099999999999999936e-02 4.781104999999999938e-01 -9.183850000000000069e-01 1.004787499999999909e+02 1.429360000000000127e+03
1.200000000000000025e-02 4.778829999999999467e-01 -1.395245000000000068e+00 9.945210000000000150e+01 1.429070000000000164e+03
1.300000000000000114e-02 4.775905000000000289e-01 -1.978590000000000071e+00 9.814754999999999541e+01 1.428684999999999945e+03
1.400000000000000203e-02 4.772474999999999912e-01 -2.620509999999999895e+00 9.658929999999999438e+01 1.428215000000000146e+03
1.499999999999999944e-02 4.768894999999999662e-01 -3.223685000000000134e+00 9.487395000000000778e+01 1.427684999999999945e+03
1.600000000000000033e-02 4.765550000000000619e-01 -3.677644999999999609e+00 9.314000000000000057e+01 1.427130000000000109e+03
1.700000000000000122e-02 4.762724999999999875e-01 -3.900829999999999576e+00 9.151695000000000846e+01 1.426585000000000036e+03
1.800000000000000211e-02 4.760484999999999856e-01 -3.863716499999999776e+00 9.008424999999999727e+01 1.426070000000000164e+03
1.900000000000000300e-02 4.758705000000000296e-01 -3.588688799999999901e+00 8.885679999999999268e+01 1.425605000000000018e+03
2.000000000000000042e-02 4.757139999999999702e-01 -3.134477449999999887e+00 8.779175000000000750e+01 1.425179999999999836e+03
2.100000000000000130e-02 4.755519999999999747e-01 -2.574048499999999962e+00 8.681069999999999709e+01 1.424769999999999982e+03
2.200000000000000219e-02 4.753635000000000499e-01 -1.973060000000000036e+00 8.582734999999999559e+01 1.424365000000000009e+03
2.299999999999999961e-02 4.751360000000000028e-01 -1.374055000000000026e+00 8.477315000000000111e+01 1.423944999999999936e+03
2.400000000000000050e-02 4.748719999999999608e-01 -7.903150000000001008e-01 8.361424999999999841e+01 1.423490000000000009e+03
2.500000000000000139e-02 4.745805000000000162e-01 -2.104400000000001825e-01 8.235444999999999993e+01 1.423014999999999873e+03
2.600000000000000228e-02 4.742775000000000185e-01 3.891549999999996956e-01 8.102540000000000475e+01 1.422514999999999873e+03
2.700000000000000316e-02 4.739750000000000352e-01 1.029275000000000162e+00 7.966929999999999268e+01 1.422005000000000109e+03
2.800000000000000058e-02 4.736795000000000311e-01 1.715819999999999901e+00 7.832065000000000055e+01 1.421494999999999891e+03
2.900000000000000147e-02 4.733914999999999651e-01 2.433709999999999596e+00 7.699304999999999666e+01 1.420990000000000009e+03
3.000000000000000236e-02 4.730995000000000061e-01 3.147310000000000052e+00 7.567324999999999591e+01 1.420474999999999909e+03
3.099999999999999978e-02 4.727910000000000168e-01 3.806189999999999518e+00 7.432335000000000491e+01 1.419960000000000036e+03
3.200000000000000067e-02 4.724504999999999955e-01 4.354319999999999524e+00 7.288875000000000171e+01 1.419420000000000073e+03
3.300000000000000155e-02 4.720624999999999960e-01 4.740764999999999674e+00 7.131090000000000373e+01 1.418849999999999909e+03
3.400000000000000244e-02 4.716199999999999837e-01 4.929454999999999920e+00 6.954139999999999588e+01 1.418224999999999909e+03
3.500000000000000333e-02 4.711214999999999709e-01 4.906260000000000510e+00 6.755474999999999852e+01 1.417535000000000082e+03
3.600000000000000422e-02 4.705739999999999923e-01 4.682135000000000602e+00 6.535670000000000357e+01 1.416789999999999964e+03
3.700000000000000511e-02 4.699940000000000229e-01 4.290930000000000355e+00 6.298680000000000234e+01 1.415994999999999891e+03
3.799999999999999906e-02 4.694024999999999448e-01 3.783699999999999619e+00 6.051425000000000409e+01 1.415159999999999854e+03
3.899999999999999994e-02 4.688225000000000309e-01 3.220645000000000202e+00 5.802920000000000300e+01 1.414320000000000164e+03
4.000000000000000083e-02 4.682775000000000132e-01 2.662819999999999521e+00 5.563185000000000002e+01 1.413494999999999891e+03
4.100000000000000172e-02 4.677879999999999816e-01 2.165205000000000268e+00 5.342074999999999818e+01 1.412724999999999909e+03
4.200000000000000261e-02 4.673700000000000077e-01 1.772180000000000089e+00 5.148375000000000057e+01 1.412025000000000091e+03
4.300000000000000350e-02 4.670355000000000478e-01 1.515805000000000291e+00 4.989150000000000063e+01 1.411420000000000073e+03
4.400000000000000439e-02 4.667899999999999827e-01 1.415815000000000046e+00 4.869379999999999598e+01 1.410944999999999936e+03
4.499999999999999833e-02 4.666375000000000384e-01 1.481594999999999995e+00 4.791965000000000430e+01 1.410590000000000146e+03
4.599999999999999922e-02 4.665759999999999907e-01 1.714921850000000081e+00 4.757920000000000016e+01 1.410384999999999991e+03
4.700000000000000011e-02 4.666035000000000044e-01 2.112905000000000033e+00 4.766750000000000398e+01 1.410315000000000055e+03
4.800000000000000100e-02 4.667154999999999498e-01 2.670469999999999899e+00 4.816884999999999906e+01 1.410384999999999991e+03
4.900000000000000189e-02 4.669079999999999897e-01 3.382010000000000183e+00 4.906080000000000041e+01 1.410595000000000027e+03
5.000000000000000278e-02 4.671760000000000357e-01 4.241935999999999929e+00 5.031725000000000136e+01 1.410924999999999955e+03
5.100000000000000366e-02 4.675135000000000263e-01 5.244331000000000742e+00 5.191025000000000489e+01 1.411384999999999991e+03
5.200000000000000455e-02 4.679169999999999718e-01 6.381952500000000583e+00 5.381045000000000300e+01 1.411954999999999927e+03
5.300000000000000544e-02 4.683785000000000309e-01 7.645043000000000255e+00 5.598689999999999856e+01 1.412619999999999891e+03
5.399999999999999939e-02 4.688919999999999755e-01 9.020329999999999515e+00 5.840630000000000166e+01 1.413384999999999991e+03
5.500000000000000028e-02 4.694485000000000463e-01 1.049065000000000047e+01 6.103220000000000312e+01 1.414220000000000027e+03
5.600000000000000117e-02 4.700400000000000134e-01 1.203509000000000029e+01 6.382515000000000072e+01 1.415130000000000109e+03
5.700000000000000205e-02 4.706565000000000332e-01 1.362959999999999994e+01 6.674304999999999666e+01 1.416090000000000146e+03
5.800000000000000294e-02 4.712879999999999847e-01 1.524845499999999987e+01 6.974224999999999852e+01 1.417095000000000027e+03
5.900000000000000383e-02 4.719249999999999834e-01 1.686558499999999938e+01 7.277934999999999377e+01 1.418119999999999891e+03
6.000000000000000472e-02 4.725584999999999924e-01 1.845615000000000094e+01 7.581279999999999575e+01 1.419160000000000082e+03
6.099999999999999867e-02 4.731819999999999915e-01 1.999784999999999968e+01 7.880529999999998836e+01 1.420194999999999936e+03
6.199999999999999956e-02 4.737879999999999869e-01 2.147194999999999965e+01 8.172485000000000355e+01 1.421224999999999909e+03
6.300000000000000044e-02 4.743724999999999747e-01 2.286390000000000100e+01 8.454650000000000887e+01 1.422235000000000127e+03
6.400000000000000133e-02 4.749335000000000084e-01 2.416360000000000241e+01 8.725300000000000011e+01 1.423204999999999927e+03
6.500000000000000222e-02 4.754694999999999894e-01 2.536550000000000082e+01 8.983435000000000059e+01 1.424150000000000091e+03
6.600000000000000311e-02 4.759804999999999731e-01 2.646775000000000233e+01 9.228839999999999577e+01 1.425059999999999945e+03
6.700000000000000400e-02 4.764680000000000026e-01 2.747194999999999965e+01 9.461830000000000496e+01 1.425929999999999836e+03
6.800000000000000488e-02 4.769349999999999978e-01 2.838250000000000028e+01 9.683419999999999561e+01 1.426759999999999991e+03
6.900000000000000577e-02 4.773840000000000305e-01 2.920584999999999809e+01 9.894894999999999641e+01 1.427565000000000055e+03
7.000000000000000666e-02 4.778189999999999937e-01 2.994975000000000165e+01 1.009788000000000068e+02 1.428335000000000036e+03
7.100000000000000755e-02 4.782429999999999737e-01 3.062270000000000181e+01 1.029403000000000077e+02 1.429085000000000036e+03
7.200000000000000844e-02 4.786595000000000155e-01 3.123364999999999725e+01 1.048515000000000015e+02 1.429809999999999945e+03
7.300000000000000933e-02 4.790710000000000246e-01 3.179104999999999848e+01 1.067284999999999968e+02 1.430525000000000091e+03
7.399999999999999634e-02 4.794815000000000049e-01 3.230270000000000152e+01 1.085854999999999961e+02 1.431230000000000018e+03
7.499999999999999722e-02 4.798919999999999852e-01 3.277530000000000143e+01 1.104339999999999975e+02 1.431929999999999836e+03
7.599999999999999811e-02 4.803034999999999943e-01 3.321394999999999698e+01 1.122810000000000059e+02 1.432630000000000109e+03
7.699999999999999900e-02 4.807169999999999499e-01 3.362205000000000155e+01 1.141310000000000002e+02 1.433320000000000164e+03
7.799999999999999989e-02 4.811305000000000165e-01 3.400095000000000312e+01 1.159825000000000017e+02 1.434014999999999873e+03
7.900000000000000078e-02 4.815435000000000132e-01 3.435009999999999764e+01 1.178299999999999983e+02 1.434710000000000036e+03
8.000000000000000167e-02 4.819530000000000203e-01 3.466684999999999661e+01 1.196649999999999920e+02 1.435394999999999982e+03
8.100000000000000255e-02 4.823560000000000070e-01 3.494710000000000605e+01 1.214735000000000014e+02 1.436070000000000164e+03
8.200000000000000344e-02 4.827494999999999981e-01 3.518510000000000559e+01 1.232400000000000091e+02 1.436735000000000127e+03
8.300000000000000433e-02 4.831274999999999320e-01 3.537439999999999429e+01 1.249449999999999932e+02 1.437384999999999991e+03
8.400000000000000522e-02 4.834880000000000289e-01 3.550795000000000101e+01 1.265705000000000098e+02 1.438000000000000000e+03
8.500000000000000611e-02 4.838249999999999496e-01 3.557880000000000109e+01 1.280960000000000036e+02 1.438585000000000036e+03
8.600000000000000699e-02 4.841354999999999409e-01 3.558055000000000234e+01 1.295039999999999907e+02 1.439139999999999873e+03
8.700000000000000788e-02 4.844165000000000276e-01 3.550754999999999484e+01 1.307764999999999986e+02 1.439639999999999873e+03
8.800000000000000877e-02 4.846644999999999426e-01 3.535555000000000092e+01 1.319000000000000057e+02 1.440099999999999909e+03
8.899999999999999578e-02 4.848779999999999757e-01 3.512154999999999916e+01 1.328634999999999877e+02 1.440494999999999891e+03
8.999999999999999667e-02 4.850555000000000283e-01 3.480464999999999520e+01 1.336600000000000250e+02 1.440840000000000146e+03
9.099999999999999756e-02 4.851965000000000305e-01 3.440529999999999688e+01 1.342855000000000132e+02 1.441125000000000000e+03
9.199999999999999845e-02 4.853020000000000111e-01 3.392605000000000359e+01 1.347409999999999854e+02 1.441349999999999909e+03
9.299999999999999933e-02 4.853720000000000256e-01 3.337095000000000056e+01 1.350300000000000011e+02 1.441509999999999991e+03
9.400000000000000022e-02 4.854089999999999794e-01 3.274564999999999770e+01 1.351610000000000014e+02 1.441619999999999891e+03
9.500000000000000111e-02 4.854154999999999998e-01 3.205734999999999957e+01 1.351454999999999984e+02 1.441675000000000182e+03
9.600000000000000200e-02 4.853939999999999921e-01 3.131439999999999912e+01 1.349954999999999927e+02 1.441675000000000182e+03
9.700000000000000289e-02 4.853490000000000304e-01 3.052594999999999814e+01 1.347284999999999968e+02 1.441634999999999991e+03
9.800000000000000377e-02 4.852829999999999644e-01 2.970185000000000031e+01 1.343609999999999900e+02 1.441554999999999836e+03
9.900000000000000466e-02 4.851999999999999647e-01 2.885244999999999749e+01 1.339110000000000014e+02 1.441429999999999836e+03
1.000000000000000056e-01 4.851034999999999653e-01 2.798805000000000121e+01 1.333975000000000080e+02 1.441285000000000082e+03
1.010000000000000064e-01 4.849984999999999991e-01 2.711875000000000213e+01 1.328385000000000105e+02 1.441119999999999891e+03
1.020000000000000073e-01 4.848875000000000268e-01 2.625414999999999921e+01 1.322529999999999859e+02 1.440934999999999945e+03
1.030000000000000082e-01 4.847744999999999971e-01 2.540299999999999869e+01 1.316560000000000059e+02 1.440740000000000009e+03
1.040000000000000091e-01 4.846619999999999817e-01 2.457289999999999708e+01 1.310620000000000118e+02 1.440545000000000073e+03
1.050000000000000100e-01 4.845519999999999827e-01 2.377029999999999887e+01 1.304844999999999970e+02 1.440344999999999800e+03
1.059999999999999970e-01 4.844469999999999610e-01 2.300014999999999787e+01 1.299320000000000164e+02 1.440150000000000091e+03
1.069999999999999979e-01 4.843485000000000151e-01 2.226574999999999704e+01 1.294124999999999943e+02 1.439960000000000036e+03
1.079999999999999988e-01 4.842564999999999786e-01 2.156879999999999953e+01 1.289304999999999950e+02 1.439785000000000082e+03
1.089999999999999997e-01 4.841720000000000468e-01 2.090934999999999988e+01 1.284875000000000114e+02 1.439615000000000009e+03
1.100000000000000006e-01 4.840934999999999544e-01 2.028614999999999924e+01 1.280819999999999936e+02 1.439454999999999927e+03
1.110000000000000014e-01 4.840214999999999934e-01 1.969619999999999749e+01 1.277109999999999985e+02 1.439309999999999945e+03
1.120000000000000023e-01 4.839535000000000364e-01 1.913560000000000016e+01 1.273684999999999974e+02 1.439174999999999955e+03
1.130000000000000032e-01 4.838879999999999848e-01 1.859939999999999927e+01 1.270469999999999970e+02 1.439045000000000073e+03
1.140000000000000041e-01 4.838240000000000318e-01 1.808184999999999931e+01 1.267385000000000019e+02 1.438920000000000073e+03
1.150000000000000050e-01 4.837585000000000357e-01 1.757695000000000007e+01 1.264329999999999927e+02 1.438795000000000073e+03
1.160000000000000059e-01 4.836900000000000088e-01 1.707845000000000013e+01 1.261209999999999951e+02 1.438675000000000182e+03
1.170000000000000068e-01 4.836165000000000047e-01 1.658030000000000115e+01 1.257930000000000064e+02 1.438549999999999955e+03
1.180000000000000077e-01 4.835369999999999946e-01 1.607675000000000054e+01 1.254395000000000095e+02 1.438414999999999964e+03
1.190000000000000085e-01 4.834490000000000176e-01 1.556275000000000119e+01 1.250529999999999973e+02 1.438279999999999973e+03
1.200000000000000094e-01 4.833520000000000039e-01 1.503395000000000081e+01 1.246270000000000095e+02 1.438125000000000000e+03
1.209999999999999964e-01 4.832444999999999657e-01 1.448710000000000164e+01 1.241564999999999941e+02 1.437954999999999927e+03
1.219999999999999973e-01 4.831265000000000143e-01 1.391994500000000023e+01 1.236384999999999934e+02 1.437775000000000091e+03
1.229999999999999982e-01 4.829984999999999973e-01 1.333143499999999904e+01 1.230715000000000003e+02 1.437579999999999927e+03
1.239999999999999991e-01 4.828600000000000114e-01 1.272170999999999985e+01 1.224575000000000102e+02 1.437365000000000009e+03
1.250000000000000000e-01 4.827124999999999888e-01 1.209223500000000051e+01 1.217984999999999900e+02 1.437139999999999873e+03
1.260000000000000009e-01 4.825570000000000137e-01 1.144552499999999995e+01 1.211005000000000109e+02 1.436900000000000091e+03
1.270000000000000018e-01 4.823954999999999771e-01 1.078522000000000070e+01 1.203694999999999879e+02 1.436644999999999982e+03
1.280000000000000027e-01 4.822294999999999776e-01 1.011589999999999989e+01 1.196140000000000043e+02 1.436380000000000109e+03
1.290000000000000036e-01 4.820615000000000316e-01 9.443014999999999048e+00 1.188439999999999941e+02 1.436115000000000009e+03
1.300000000000000044e-01 4.818934999999999746e-01 8.772510000000000474e+00 1.180689999999999884e+02 1.435845000000000027e+03
1.310000000000000053e-01 4.817274999999999752e-01 8.110825000000000173e+00 1.173010000000000019e+02 1.435565000000000055e+03
1.320000000000000062e-01 4.815670000000000228e-01 7.464644999999999975e+00 1.165510000000000019e+02 1.435300000000000182e+03
1.330000000000000071e-01 4.814134999999999387e-01 6.840479999999999450e+00 1.158294999999999959e+02 1.435039999999999964e+03
1.340000000000000080e-01 4.812690000000000023e-01 6.244630000000000791e+00 1.151479999999999961e+02 1.434789999999999964e+03
1.350000000000000089e-01 4.811364999999999670e-01 5.683004999999999640e+00 1.145150000000000006e+02 1.434559999999999945e+03
1.360000000000000098e-01 4.810170000000000279e-01 5.160729999999999151e+00 1.139399999999999977e+02 1.434335000000000036e+03
1.370000000000000107e-01 4.809109999999999774e-01 4.682159999999999656e+00 1.134294999999999902e+02 1.434139999999999873e+03
1.380000000000000115e-01 4.808209999999999984e-01 4.250630000000000130e+00 1.129879999999999995e+02 1.433965000000000146e+03
1.390000000000000124e-01 4.807470000000000354e-01 3.868424999999999780e+00 1.126195000000000022e+02 1.433815000000000055e+03
1.400000000000000133e-01 4.806880000000000042e-01 3.536715000000000053e+00 1.123245000000000005e+02 1.433690000000000055e+03
1.410000000000000142e-01 4.806449999999999889e-01 3.255535000000000068e+00 1.121030000000000086e+02 1.433579999999999927e+03
1.420000000000000151e-01 4.806165000000000020e-01 3.023845000000000116e+00 1.119519999999999982e+02 1.433505000000000109e+03
1.430000000000000160e-01 4.806015000000000148e-01 2.839574999999999960e+00 1.118679999999999950e+02 1.433450000000000045e+03
1.440000000000000169e-01 4.805999999999999717e-01 2.699770000000000003e+00 1.118439999999999941e+02 1.433414999999999964e+03
1.450000000000000178e-01 4.806079999999999797e-01 2.600710000000000299e+00 1.118739999999999952e+02 1.433404999999999973e+03
1.459999999999999909e-01 4.806255000000000388e-01 2.538070000000000270e+00 1.119500000000000028e+02 1.433409999999999854e+03
1.469999999999999918e-01 4.806505000000000360e-01 2.507074999999999942e+00 1.120629999999999882e+02 1.433430000000000064e+03
1.479999999999999927e-01 4.806805000000000661e-01 2.502695000000000114e+00 1.122049999999999983e+02 1.433454999999999927e+03
1.489999999999999936e-01 4.807145000000000445e-01 2.519775000000000098e+00 1.123659999999999997e+02 1.433500000000000000e+03
1.499999999999999944e-01 4.807494999999999963e-01 2.553220000000000045e+00 1.125384999999999991e+02 1.433539999999999964e+03
1.509999999999999953e-01 4.807850000000000179e-01 2.598110000000000142e+00 1.127134999999999962e+02 1.433590000000000146e+03
1.519999999999999962e-01 4.808189999999999964e-01 2.649834999999999940e+00 1.128849999999999909e+02 1.433644999999999982e+03
1.529999999999999971e-01 4.808504999999999585e-01 2.704169999999999963e+00 1.130455000000000041e+02 1.433694999999999936e+03
1.539999999999999980e-01 4.808784999999999865e-01 2.757385000000000197e+00 1.131889999999999930e+02 1.433740000000000009e+03
1.549999999999999989e-01 4.809010000000000229e-01 2.806264999999999787e+00 1.133125000000000000e+02 1.433779999999999973e+03
1.559999999999999998e-01 4.809189999999999854e-01 2.848164999999999836e+00 1.134124999999999943e+02 1.433815000000000055e+03
1.570000000000000007e-01 4.809320000000000261e-01 2.881005000000000038e+00 1.134865000000000066e+02 1.433839999999999918e+03
1.580000000000000016e-01 4.809390000000000054e-01 2.903299999999999770e+00 1.135330000000000013e+02 1.433860000000000127e+03
1.590000000000000024e-01 4.809400000000000341e-01 2.914100000000000357e+00 1.135525000000000091e+02 1.433869999999999891e+03
