# t [s], A [cm^2], U [cm/s], P [cPa], c [cm/s]
1.000000000000000021e-03 1.648640000000000105e-01 1.209783150000000029e-01 9.380455000000000609e+01 1.982829999999999927e+03
2.000000000000000042e-03 1.648394999999999999e-01 1.332767999999999953e+00 9.134735000000000582e+01 1.982599999999999909e+03
3.000000000000000062e-03 1.647485000000000199e-01 2.910585999999999895e+00 8.791179999999999950e+01 1.981775000000000091e+03
4.000000000000000083e-03 1.646104999999999929e-01 4.706325500000000162e+00 8.382524999999999693e+01 1.980545000000000073e+03
5.000000000000000104e-03 1.644499999999999851e-01 6.670607500000000023e+00 7.974594999999999345e+01 1.979130000000000109e+03
6.000000000000000125e-03 1.642859999999999876e-01 8.720074999999999577e+00 7.612035000000000196e+01 1.977700000000000045e+03
7.000000000000000146e-03 1.641274999999999817e-01 1.070791000000000004e+01 7.302625000000000455e+01 1.976339999999999918e+03
8.000000000000000167e-03 1.639784999999999993e-01 1.249215500000000034e+01 7.029295000000000471e+01 1.975074999999999818e+03
9.000000000000001055e-03 1.638399999999999856e-01 1.402538499999999999e+01 6.780894999999999584e+01 1.973925000000000182e+03
1.000000000000000194e-02 1.637160000000000004e-01 1.532959999999999923e+01 6.561459999999999582e+01 1.972904999999999973e+03
1.099999999999999936e-02 1.636095000000000188e-01 1.642989999999999995e+01 6.376619999999999777e+01 1.972039999999999964e+03
1.200000000000000025e-02 1.635199999999999987e-01 1.734080000000000155e+01 6.226655000000000229e+01 1.971315000000000055e+03
1.300000000000000114e-02 1.634470000000000089e-01 1.807305000000000206e+01 6.108249999999999602e+01 1.970735000000000127e+03
1.400000000000000203e-02 1.633875000000000188e-01 1.862940000000000040e+01 6.014744999999999919e+01 1.970269999999999982e+03
1.499999999999999944e-02 1.633390000000000120e-01 1.901020000000000110e+01 5.936840000000000117e+01 1.969900000000000091e+03
1.600000000000000033e-02 1.632989999999999997e-01 1.923874999999999957e+01 5.868549999999999756e+01 1.969594999999999800e+03
1.700000000000000122e-02 1.632659999999999945e-01 1.938224999999999909e+01 5.814925000000000210e+01 1.969360000000000127e+03
1.800000000000000211e-02 1.632465000000000166e-01 1.954084999999999894e+01 5.793200000000000216e+01 1.969210000000000036e+03
1.900000000000000300e-02 1.632440000000000002e-01 1.980979999999999919e+01 5.824980000000000047e+01 1.969204999999999927e+03
2.000000000000000042e-02 1.632639999999999925e-01 2.023799999999999955e+01 5.924190000000000111e+01 1.969375000000000000e+03
2.100000000000000130e-02 1.633069999999999800e-01 2.080784999999999840e+01 6.088255000000000194e+01 1.969724999999999909e+03
2.200000000000000219e-02 1.633680000000000132e-01 2.144355000000000189e+01 6.296790000000000020e+01 1.970219999999999800e+03
2.299999999999999961e-02 1.634395000000000153e-01 2.204005000000000081e+01 6.517544999999999789e+01 1.970809999999999945e+03
2.400000000000000050e-02 1.635110000000000174e-01 2.249855000000000160e+01 6.716335000000000832e+01 1.971404999999999973e+03
2.500000000000000139e-02 1.635734999999999828e-01 2.275475000000000136e+01 6.866634999999999422e+01 1.971940000000000055e+03
2.600000000000000228e-02 1.636214999999999753e-01 2.279234999999999900e+01 6.955745000000000289e+01 1.972355000000000018e+03
2.700000000000000316e-02 1.636515000000000053e-01 2.263990000000000080e+01 6.986074999999999591e+01 1.972625000000000000e+03
2.800000000000000058e-02 1.636664999999999925e-01 2.235460000000000136e+01 6.971809999999999263e+01 1.972769999999999982e+03
2.900000000000000147e-02 1.636699999999999822e-01 2.200039999999999907e+01 6.932720000000000482e+01 1.972815000000000055e+03
3.000000000000000236e-02 1.636670000000000069e-01 2.162774999999999892e+01 6.887305000000000632e+01 1.972795000000000073e+03
3.099999999999999978e-02 1.636610000000000009e-01 2.126064999999999827e+01 6.847565000000000168e+01 1.972750000000000000e+03
3.200000000000000067e-02 1.636549999999999949e-01 2.089475000000000193e+01 6.816630000000000678e+01 1.972694999999999936e+03
3.300000000000000155e-02 1.636480000000000157e-01 2.050390000000000157e+01 6.789470000000000027e+01 1.972644999999999982e+03
3.400000000000000244e-02 1.636385000000000201e-01 2.005359999999999943e+01 6.756114999999999782e+01 1.972570000000000164e+03
3.500000000000000333e-02 1.636250000000000204e-01 1.951565000000000083e+01 6.706055000000000632e+01 1.972460000000000036e+03
3.600000000000000422e-02 1.636035000000000128e-01 1.888109999999999999e+01 6.632594999999999175e+01 1.972289999999999964e+03
3.700000000000000511e-02 1.635745000000000116e-01 1.816680000000000206e+01 6.535954999999999870e+01 1.972065000000000055e+03
3.799999999999999906e-02 1.635389999999999899e-01 1.741560000000000130e+01 6.424180000000001201e+01 1.971780000000000200e+03
3.899999999999999994e-02 1.635010000000000074e-01 1.668809999999999860e+01 6.311889999999999645e+01 1.971470000000000027e+03
4.000000000000000083e-02 1.634654999999999858e-01 1.605004999999999882e+01 6.216984999999999673e+01 1.971175000000000182e+03
4.100000000000000172e-02 1.634375000000000133e-01 1.555819999999999936e+01 6.156470000000000198e+01 1.970944999999999936e+03
4.200000000000000261e-02 1.634220000000000117e-01 1.524825000000000053e+01 6.142530000000000001e+01 1.970804999999999836e+03
4.300000000000000350e-02 1.634220000000000117e-01 1.512814999999999976e+01 6.179775000000000063e+01 1.970789999999999964e+03
4.400000000000000439e-02 1.634375000000000133e-01 1.517764999999999986e+01 6.264365000000000094e+01 1.970900000000000091e+03
4.499999999999999833e-02 1.634674999999999878e-01 1.535319999999999929e+01 6.384924999999999784e+01 1.971134999999999991e+03
4.599999999999999922e-02 1.635070000000000134e-01 1.559689999999999976e+01 6.524844999999999118e+01 1.971450000000000045e+03
4.700000000000000011e-02 1.635515000000000163e-01 1.584604999999999997e+01 6.665364999999999895e+01 1.971809999999999945e+03
4.800000000000000100e-02 1.635955000000000048e-01 1.604299999999999926e+01 6.788589999999999236e+01 1.972164999999999964e+03
4.900000000000000189e-02 1.636330000000000007e-01 1.614164999999999850e+01 6.880010000000000048e+01 1.972480000000000018e+03
5.000000000000000278e-02 1.636610000000000009e-01 1.611129999999999995e+01 6.929990000000000805e+01 1.972714999999999918e+03
5.100000000000000366e-02 1.636750000000000149e-01 1.593735000000000035e+01 6.934284999999999854e+01 1.972840000000000146e+03
5.200000000000000455e-02 1.636755000000000015e-01 1.561930000000000085e+01 6.893540000000000134e+01 1.972849999999999909e+03
5.300000000000000544e-02 1.636604999999999865e-01 1.516699999999999982e+01 6.812145000000001005e+01 1.972735000000000127e+03
5.399999999999999939e-02 1.636325000000000141e-01 1.459649999999999892e+01 6.696770000000000778e+01 1.972514999999999873e+03
5.500000000000000028e-02 1.635935000000000028e-01 1.392660000000000053e+01 6.554935000000000400e+01 1.972200000000000045e+03
5.600000000000000117e-02 1.635449999999999959e-01 1.317590000000000039e+01 6.393885000000000218e+01 1.971805000000000064e+03
5.700000000000000205e-02 1.634884999999999811e-01 1.236180500000000038e+01 6.219934999999999548e+01 1.971345000000000027e+03
5.800000000000000294e-02 1.634265000000000023e-01 1.150051500000000004e+01 6.038275000000000148e+01 1.970845000000000027e+03
5.900000000000000383e-02 1.633610000000000062e-01 1.060780499999999904e+01 5.853190000000000026e+01 1.970305000000000064e+03
6.000000000000000472e-02 1.632939999999999947e-01 9.700499999999999901e+00 5.668515000000000015e+01 1.969750000000000000e+03
6.099999999999999867e-02 1.632254999999999956e-01 8.797830000000001149e+00 5.488110000000000355e+01 1.969190000000000055e+03
6.199999999999999956e-02 1.631589999999999985e-01 7.921934999999999505e+00 5.316329999999999956e+01 1.968639999999999873e+03
6.300000000000000044e-02 1.630949999999999900e-01 7.098369999999999180e+00 5.158275000000000432e+01 1.968110000000000127e+03
6.400000000000000133e-02 1.630365000000000009e-01 6.355325000000000557e+00 5.019794999999999874e+01 1.967625000000000000e+03
6.500000000000000222e-02 1.629845000000000044e-01 5.722445000000000448e+00 4.907280000000000086e+01 1.967190000000000055e+03
6.600000000000000311e-02 1.629430000000000045e-01 5.229160000000000252e+00 4.827304999999999779e+01 1.966845000000000027e+03
6.700000000000000400e-02 1.629129999999999745e-01 4.902770000000000294e+00 4.786119999999999663e+01 1.966585000000000036e+03
6.800000000000000488e-02 1.628975000000000006e-01 4.766610000000000014e+00 4.789144999999999897e+01 1.966444999999999936e+03
6.900000000000000577e-02 1.628979999999999873e-01 4.838530000000000442e+00 4.840505000000000280e+01 1.966434999999999945e+03
7.000000000000000666e-02 1.629160000000000053e-01 5.129775000000000418e+00 4.942725000000000080e+01 1.966565000000000055e+03
7.100000000000000755e-02 1.629525000000000001e-01 5.644425000000000026e+00 5.096524999999999750e+01 1.966849999999999909e+03
7.200000000000000844e-02 1.630074999999999996e-01 6.379355000000000331e+00 5.300789999999999935e+01 1.967284999999999854e+03
7.300000000000000933e-02 1.630810000000000037e-01 7.324674999999999159e+00 5.552729999999999677e+01 1.967865000000000009e+03
7.399999999999999634e-02 1.631719999999999837e-01 8.464549999999999130e+00 5.848059999999999548e+01 1.968599999999999909e+03
7.499999999999999722e-02 1.632784999999999931e-01 9.778285000000000338e+00 6.181389999999999674e+01 1.969464999999999918e+03
7.599999999999999811e-02 1.633994999999999753e-01 1.124169000000000018e+01 6.546549999999999159e+01 1.970449999999999818e+03
7.699999999999999900e-02 1.635329999999999839e-01 1.282835999999999999e+01 6.937014999999999532e+01 1.971539999999999964e+03
7.799999999999999989e-02 1.636765000000000025e-01 1.451120000000000054e+01 7.346269999999999811e+01 1.972715000000000146e+03
7.900000000000000078e-02 1.638270000000000004e-01 1.626360000000000028e+01 7.768179999999999552e+01 1.973960000000000036e+03
8.000000000000000167e-02 1.639835000000000043e-01 1.806070000000000064e+01 8.197254999999999825e+01 1.975255000000000109e+03
8.100000000000000255e-02 1.641440000000000121e-01 1.988015000000000043e+01 8.628900000000000148e+01 1.976579999999999927e+03
8.200000000000000344e-02 1.643064999999999942e-01 2.170284999999999798e+01 9.059524999999999295e+01 1.977930000000000064e+03
8.300000000000000433e-02 1.644694999999999907e-01 2.351314999999999955e+01 9.486574999999999136e+01 1.979289999999999964e+03
8.400000000000000522e-02 1.646324999999999872e-01 2.529879999999999995e+01 9.908495000000000630e+01 1.980650000000000091e+03
8.500000000000000611e-02 1.647945000000000104e-01 2.705079999999999885e+01 1.032450499999999920e+02 1.982005000000000109e+03
8.600000000000000699e-02 1.649555000000000049e-01 2.876275000000000048e+01 1.073460499999999911e+02 1.983359999999999900e+03
8.700000000000000788e-02 1.651144999999999974e-01 3.043025000000000091e+01 1.113905000000000030e+02 1.984695000000000164e+03
8.800000000000000877e-02 1.652724999999999889e-01 3.205024999999999835e+01 1.153834999999999980e+02 1.986025000000000091e+03
8.899999999999999578e-02 1.654289999999999927e-01 3.362024999999999864e+01 1.193305000000000007e+02 1.987345000000000027e+03
8.999999999999999667e-02 1.655840000000000090e-01 3.513805000000000689e+01 1.232330000000000041e+02 1.988660000000000082e+03
9.099999999999999756e-02 1.657374999999999821e-01 3.660119999999999862e+01 1.270914999999999964e+02 1.989960000000000036e+03
9.199999999999999845e-02 1.658895000000000231e-01 3.800695000000000334e+01 1.309014999999999986e+02 1.991244999999999891e+03
9.299999999999999933e-02 1.660399999999999932e-01 3.935195000000000221e+01 1.346555000000000177e+02 1.992519999999999982e+03
9.400000000000000022e-02 1.661880000000000024e-01 4.063259999999999650e+01 1.383435000000000059e+02 1.993780000000000200e+03
9.500000000000000111e-02 1.663335000000000230e-01 4.184470000000000312e+01 1.419524999999999864e+02 1.995014999999999873e+03
9.600000000000000200e-02 1.664760000000000129e-01 4.298414999999999964e+01 1.454675000000000011e+02 1.996235000000000127e+03
9.700000000000000289e-02 1.666150000000000131e-01 4.404654999999999632e+01 1.488734999999999786e+02 1.997420000000000073e+03
9.800000000000000377e-02 1.667500000000000093e-01 4.502754999999999797e+01 1.521554999999999893e+02 1.998579999999999927e+03
9.900000000000000466e-02 1.668804999999999872e-01 4.592300000000000182e+01 1.552975000000000136e+02 1.999694999999999936e+03
1.000000000000000056e-01 1.670055000000000012e-01 4.672879999999999967e+01 1.582849999999999966e+02 2.000764999999999873e+03
1.010000000000000064e-01 1.671249999999999958e-01 4.744100000000000250e+01 1.611045000000000016e+02 2.001784999999999854e+03
1.020000000000000073e-01 1.672379999999999978e-01 4.805590000000000117e+01 1.637415000000000020e+02 2.002759999999999991e+03
1.030000000000000082e-01 1.673439999999999928e-01 4.857004999999999484e+01 1.661845000000000141e+02 2.003675000000000182e+03
1.040000000000000091e-01 1.674424999999999941e-01 4.898049999999999926e+01 1.684209999999999923e+02 2.004525000000000091e+03
1.050000000000000100e-01 1.675329999999999875e-01 4.928484999999999872e+01 1.704424999999999955e+02 2.005309999999999945e+03
1.059999999999999970e-01 1.676159999999999872e-01 4.948144999999999527e+01 1.722394999999999925e+02 2.006030000000000200e+03
1.069999999999999979e-01 1.676905000000000201e-01 4.956974999999999909e+01 1.738079999999999927e+02 2.006680000000000064e+03
1.079999999999999988e-01 1.677560000000000162e-01 4.955049999999999955e+01 1.751440000000000055e+02 2.007250000000000000e+03
1.089999999999999997e-01 1.678125000000000033e-01 4.942560000000000286e+01 1.762500000000000000e+02 2.007744999999999891e+03
1.100000000000000006e-01 1.678609999999999824e-01 4.919870000000000232e+01 1.771299999999999955e+02 2.008170000000000073e+03
1.110000000000000014e-01 1.678999999999999937e-01 4.887505000000000166e+01 1.777930000000000064e+02 2.008519999999999982e+03
1.120000000000000023e-01 1.679319999999999979e-01 4.846119999999999806e+01 1.782514999999999930e+02 2.008795000000000073e+03
1.130000000000000032e-01 1.679550000000000209e-01 4.796514999999999418e+01 1.785210000000000150e+02 2.009009999999999991e+03
1.140000000000000041e-01 1.679709999999999814e-01 4.739615000000000578e+01 1.786214999999999975e+02 2.009154999999999973e+03
1.150000000000000050e-01 1.679805000000000048e-01 4.676420000000000243e+01 1.785724999999999909e+02 2.009250000000000000e+03
1.160000000000000059e-01 1.679839999999999944e-01 4.607975000000000421e+01 1.783979999999999961e+02 2.009289999999999964e+03
1.170000000000000068e-01 1.679829999999999934e-01 4.535354999999999848e+01 1.781189999999999998e+02 2.009280000000000200e+03
1.180000000000000077e-01 1.679775000000000018e-01 4.459604999999999819e+01 1.777590000000000146e+02 2.009244999999999891e+03
1.190000000000000085e-01 1.679685000000000206e-01 4.381730000000000302e+01 1.773365000000000009e+02 2.009164999999999964e+03
1.200000000000000094e-01 1.679559999999999942e-01 4.302649999999999864e+01 1.768710000000000093e+02 2.009065000000000055e+03
1.209999999999999964e-01 1.679419999999999802e-01 4.223194999999999766e+01 1.763795000000000073e+02 2.008949999999999818e+03
1.219999999999999973e-01 1.679265000000000063e-01 4.144060000000000343e+01 1.758734999999999786e+02 2.008820000000000164e+03
1.229999999999999982e-01 1.679100000000000037e-01 4.065829999999999700e+01 1.753640000000000043e+02 2.008679999999999836e+03
1.239999999999999991e-01 1.678925000000000001e-01 3.988925000000000409e+01 1.748575000000000159e+02 2.008530000000000200e+03
1.250000000000000000e-01 1.678749999999999964e-01 3.913644999999999641e+01 1.743569999999999993e+02 2.008380000000000109e+03
1.260000000000000009e-01 1.678574999999999928e-01 3.840144999999999698e+01 1.738644999999999925e+02 2.008224999999999909e+03
1.270000000000000018e-01 1.678395000000000026e-01 3.768439999999999657e+01 1.733759999999999764e+02 2.008070000000000164e+03
1.280000000000000027e-01 1.678209999999999980e-01 3.698414999999999964e+01 1.728879999999999768e+02 2.007914999999999964e+03
1.290000000000000036e-01 1.678029999999999800e-01 3.629869999999999663e+01 1.723940000000000055e+02 2.007755000000000109e+03
1.300000000000000044e-01 1.677839999999999887e-01 3.562484999999999502e+01 1.718845000000000027e+02 2.007594999999999800e+03
1.310000000000000053e-01 1.677645000000000108e-01 3.495895000000000152e+01 1.713499999999999943e+02 2.007420000000000073e+03
1.320000000000000062e-01 1.677434999999999898e-01 3.429680000000000462e+01 1.707814999999999941e+02 2.007240000000000009e+03
1.330000000000000071e-01 1.677210000000000090e-01 3.363394999999999868e+01 1.701674999999999898e+02 2.007050000000000182e+03
1.340000000000000080e-01 1.676969999999999850e-01 3.296605000000000274e+01 1.694985000000000070e+02 2.006845000000000027e+03
1.350000000000000089e-01 1.676710000000000145e-01 3.228885000000000360e+01 1.687659999999999911e+02 2.006619999999999891e+03
1.360000000000000098e-01 1.676424999999999998e-01 3.159895000000000209e+01 1.679625000000000057e+02 2.006375000000000000e+03
1.370000000000000107e-01 1.676114999999999966e-01 3.089329999999999998e+01 1.670835000000000150e+02 2.006110000000000127e+03
1.380000000000000115e-01 1.675774999999999904e-01 3.017005000000000337e+01 1.661245000000000118e+02 2.005820000000000164e+03
1.390000000000000124e-01 1.675404999999999811e-01 2.942825000000000202e+01 1.650875000000000057e+02 2.005505000000000109e+03
1.400000000000000133e-01 1.675004999999999966e-01 2.866809999999999903e+01 1.639739999999999895e+02 2.005170000000000073e+03
1.410000000000000142e-01 1.674585000000000101e-01 2.789104999999999990e+01 1.627894999999999754e+02 2.004805000000000064e+03
1.420000000000000151e-01 1.674134999999999929e-01 2.709984999999999999e+01 1.615425000000000182e+02 2.004420000000000073e+03
1.430000000000000160e-01 1.673655000000000004e-01 2.629814999999999969e+01 1.602445000000000164e+02 2.004019999999999982e+03
1.440000000000000169e-01 1.673164999999999791e-01 2.549080000000000013e+01 1.589085000000000036e+02 2.003599999999999909e+03
1.450000000000000178e-01 1.672655000000000114e-01 2.468339999999999890e+01 1.575484999999999900e+02 2.003164999999999964e+03
1.459999999999999909e-01 1.672144999999999881e-01 2.388224999999999909e+01 1.561825000000000045e+02 2.002730000000000018e+03
1.469999999999999918e-01 1.671620000000000050e-01 2.309390000000000143e+01 1.548260000000000218e+02 2.002289999999999964e+03
1.479999999999999927e-01 1.671104999999999952e-01 2.232505000000000095e+01 1.534959999999999809e+02 2.001845000000000027e+03
1.489999999999999936e-01 1.670599999999999863e-01 2.158234999999999815e+01 1.522079999999999984e+02 2.001414999999999964e+03
1.499999999999999944e-01 1.670105000000000062e-01 2.087180000000000035e+01 1.509784999999999968e+02 2.000994999999999891e+03
1.509999999999999953e-01 1.669630000000000003e-01 2.019894999999999996e+01 1.498179999999999836e+02 2.000585000000000036e+03
1.519999999999999962e-01 1.669180000000000108e-01 1.956815000000000282e+01 1.487375000000000114e+02 2.000200000000000045e+03
1.529999999999999971e-01 1.668755000000000099e-01 1.898304999999999865e+01 1.477450000000000045e+02 1.999839999999999918e+03
1.539999999999999980e-01 1.668370000000000131e-01 1.844610000000000127e+01 1.468455000000000155e+02 1.999500000000000000e+03
1.549999999999999989e-01 1.668005000000000182e-01 1.795854999999999890e+01 1.460399999999999920e+02 1.999190000000000055e+03
1.559999999999999998e-01 1.667684999999999862e-01 1.752060000000000173e+01 1.453284999999999911e+02 1.998909999999999854e+03
1.570000000000000007e-01 1.667394999999999849e-01 1.713129999999999953e+01 1.447074999999999818e+02 1.998660000000000082e+03
1.580000000000000016e-01 1.667135000000000145e-01 1.678889999999999816e+01 1.441719999999999970e+02 1.998429999999999836e+03
1.590000000000000024e-01 1.666905000000000192e-01 1.649089999999999989e+01 1.437155000000000200e+02 1.998239999999999782e+03
