# t [s], A [cm^2], U [cm/s], P [cPa], c [cm/s]
1.000000000000000021e-03 1.571144999999999903e-01 1.630172000000000010e-01 8.695699999999999363e+01 1.758309999999999945e+03
2.000000000000000042e-03 1.570954999999999990e-01 1.398531500000000038e+00 8.466509999999999536e+01 1.758150000000000091e+03
3.000000000000000062e-03 1.570094999999999963e-01 2.963633499999999810e+00 8.163524999999999920e+01 1.757480000000000018e+03
4.000000000000000083e-03 1.568749999999999867e-01 4.714218499999999423e+00 7.808084999999999809e+01 1.756440000000000055e+03
5.000000000000000104e-03 1.567135000000000056e-01 6.609590999999999994e+00 7.453629999999999711e+01 1.755215000000000146e+03
6.000000000000000125e-03 1.565440000000000165e-01 8.586524999999999963e+00 7.137640000000000384e+01 1.753940000000000055e+03
7.000000000000000146e-03 1.563779999999999892e-01 1.053146500000000074e+01 6.869405000000000427e+01 1.752704999999999927e+03
8.000000000000000167e-03 1.562204999999999844e-01 1.232205000000000084e+01 6.636950000000000216e+01 1.751539999999999964e+03
9.000000000000001055e-03 1.560719999999999885e-01 1.389599500000000099e+01 6.427119999999999322e+01 1.750465000000000146e+03
1.000000000000000194e-02 1.559359999999999913e-01 1.525945000000000107e+01 6.238415000000000532e+01 1.749494999999999891e+03
1.099999999999999936e-02 1.558160000000000101e-01 1.643659999999999854e+01 6.075115000000000265e+01 1.748644999999999982e+03
1.200000000000000025e-02 1.557115000000000027e-01 1.744149999999999778e+01 5.938639999999999475e+01 1.747910000000000082e+03
1.300000000000000114e-02 1.556230000000000113e-01 1.828280000000000172e+01 5.826995000000000147e+01 1.747295000000000073e+03
1.400000000000000203e-02 1.555489999999999928e-01 1.896835000000000093e+01 5.736780000000000257e+01 1.746784999999999854e+03
1.499999999999999944e-02 1.554875000000000007e-01 1.950240000000000151e+01 5.663280000000000314e+01 1.746369999999999891e+03
1.600000000000000033e-02 1.554365000000000052e-01 1.989045000000000130e+01 5.600974999999999682e+01 1.746030000000000200e+03
1.700000000000000122e-02 1.553934999999999900e-01 2.015445000000000064e+01 5.546920000000000073e+01 1.745750000000000000e+03
1.800000000000000211e-02 1.553585000000000105e-01 2.034445000000000192e+01 5.504825000000000301e+01 1.745525000000000091e+03
1.900000000000000300e-02 1.553350000000000009e-01 2.053304999999999936e+01 5.485779999999999745e+01 1.745375000000000000e+03
2.000000000000000042e-02 1.553260000000000196e-01 2.079254999999999853e+01 5.504169999999999874e+01 1.745324999999999818e+03
2.100000000000000130e-02 1.553355000000000152e-01 2.116854999999999976e+01 5.570900000000000318e+01 1.745400000000000091e+03
2.200000000000000219e-02 1.553660000000000041e-01 2.166295000000000215e+01 5.687514999999999787e+01 1.745619999999999891e+03
2.299999999999999961e-02 1.554150000000000253e-01 2.223335000000000150e+01 5.843979999999999819e+01 1.745970000000000027e+03
2.400000000000000050e-02 1.554774999999999907e-01 2.280675000000000097e+01 6.020720000000000027e+01 1.746414999999999964e+03
2.500000000000000139e-02 1.555469999999999908e-01 2.330164999999999864e+01 6.193625000000000114e+01 1.746909999999999854e+03
2.600000000000000228e-02 1.556140000000000023e-01 2.364945000000000164e+01 6.340144999999999698e+01 1.747400000000000091e+03
2.700000000000000316e-02 1.556715000000000182e-01 2.381015000000000015e+01 6.444400000000000261e+01 1.747819999999999936e+03
2.800000000000000058e-02 1.557149999999999923e-01 2.377844999999999942e+01 6.500129999999998631e+01 1.748150000000000091e+03
2.900000000000000147e-02 1.557430000000000203e-01 2.358050000000000068e+01 6.510829999999999984e+01 1.748360000000000127e+03
3.000000000000000236e-02 1.557560000000000056e-01 2.326245000000000118e+01 6.487439999999999429e+01 1.748469999999999800e+03
3.099999999999999978e-02 1.557580000000000076e-01 2.287575000000000003e+01 6.444480000000000075e+01 1.748500000000000000e+03
3.200000000000000067e-02 1.557530000000000026e-01 2.246379999999999910e+01 6.395855000000000246e+01 1.748469999999999800e+03
3.300000000000000155e-02 1.557439999999999936e-01 2.205270000000000152e+01 6.351529999999999632e+01 1.748414999999999964e+03
3.400000000000000244e-02 1.557350000000000123e-01 2.164829999999999899e+01 6.315784999999999627e+01 1.748349999999999909e+03
3.500000000000000333e-02 1.557260000000000033e-01 2.123930000000000007e+01 6.287295000000000300e+01 1.748289999999999964e+03
3.600000000000000422e-02 1.557169999999999943e-01 2.080444999999999922e+01 6.260629999999999740e+01 1.748224999999999909e+03
3.700000000000000511e-02 1.557054999999999967e-01 2.032205000000000084e+01 6.228725000000000023e+01 1.748144999999999982e+03
3.799999999999999906e-02 1.556905000000000094e-01 1.977830000000000155e+01 6.185514999999999475e+01 1.748045000000000073e+03
3.899999999999999994e-02 1.556704999999999894e-01 1.917410000000000281e+01 6.128079999999999927e+01 1.747910000000000082e+03
4.000000000000000083e-02 1.556454999999999922e-01 1.852724999999999866e+01 6.057974999999999710e+01 1.747735000000000127e+03
4.100000000000000172e-02 1.556164999999999909e-01 1.787109999999999843e+01 5.981309999999999860e+01 1.747535000000000082e+03
4.200000000000000261e-02 1.555860000000000021e-01 1.724905000000000044e+01 5.907715000000000316e+01 1.747324999999999818e+03
4.300000000000000350e-02 1.555580000000000018e-01 1.670640000000000214e+01 5.848425000000000296e+01 1.747130000000000109e+03
4.400000000000000439e-02 1.555364999999999942e-01 1.628249999999999886e+01 5.813994999999999891e+01 1.746970000000000027e+03
4.499999999999999833e-02 1.555249999999999966e-01 1.600270000000000081e+01 5.812089999999999890e+01 1.746880000000000109e+03
4.599999999999999922e-02 1.555250000000000243e-01 1.587455000000000105e+01 5.845955000000000013e+01 1.746875000000000000e+03
4.700000000000000011e-02 1.555389999999999828e-01 1.588630000000000031e+01 5.913739999999999952e+01 1.746964999999999918e+03
4.800000000000000100e-02 1.555650000000000088e-01 1.600919999999999987e+01 6.008764999999999645e+01 1.747134999999999991e+03
4.900000000000000189e-02 1.556009999999999893e-01 1.620195000000000007e+01 6.120624999999999716e+01 1.747380000000000109e+03
5.000000000000000278e-02 1.556434999999999902e-01 1.641685000000000016e+01 6.236780000000000257e+01 1.747675000000000182e+03
5.100000000000000366e-02 1.556874999999999787e-01 1.660589999999999833e+01 6.344335000000000235e+01 1.747984999999999900e+03
5.200000000000000455e-02 1.557284999999999919e-01 1.672619999999999862e+01 6.431640000000000157e+01 1.748269999999999982e+03
5.300000000000000544e-02 1.557620000000000116e-01 1.674394999999999811e+01 6.489594999999999914e+01 1.748509999999999991e+03
5.399999999999999939e-02 1.557850000000000068e-01 1.663640000000000185e+01 6.512315000000000964e+01 1.748679999999999836e+03
5.500000000000000028e-02 1.557950000000000168e-01 1.639240000000000208e+01 6.497384999999999877e+01 1.748755000000000109e+03
5.600000000000000117e-02 1.557914999999999994e-01 1.601129999999999853e+01 6.445515000000000327e+01 1.748740000000000009e+03
5.700000000000000205e-02 1.557724999999999804e-01 1.550089999999999968e+01 6.359979999999999478e+01 1.748610000000000127e+03
5.800000000000000294e-02 1.557410000000000183e-01 1.487500000000000000e+01 6.245770000000000266e+01 1.748394999999999982e+03
5.900000000000000383e-02 1.556965000000000154e-01 1.415150000000000041e+01 6.108820000000000050e+01 1.748085000000000036e+03
6.000000000000000472e-02 1.556425000000000169e-01 1.334984999999999999e+01 5.955315000000000225e+01 1.747704999999999927e+03
6.099999999999999867e-02 1.555805000000000105e-01 1.249057499999999976e+01 5.791219999999999857e+01 1.747275000000000091e+03
6.199999999999999956e-02 1.555124999999999980e-01 1.159404999999999930e+01 5.622030000000000172e+01 1.746795000000000073e+03
6.300000000000000044e-02 1.554409999999999958e-01 1.068093000000000004e+01 5.452720000000000056e+01 1.746289999999999964e+03
6.400000000000000133e-02 1.553680000000000061e-01 9.772220000000000795e+00 5.287865000000000038e+01 1.745775000000000091e+03
6.500000000000000222e-02 1.552959999999999896e-01 8.889730000000000132e+00 5.131804999999999950e+01 1.745259999999999991e+03
6.600000000000000311e-02 1.552270000000000039e-01 8.056359999999999744e+00 4.988840000000000430e+01 1.744769999999999982e+03
6.700000000000000400e-02 1.551620000000000221e-01 7.296030000000000015e+00 4.863389999999999702e+01 1.744309999999999945e+03
6.800000000000000488e-02 1.551040000000000196e-01 6.633704999999999963e+00 4.760004999999999598e+01 1.743900000000000091e+03
6.900000000000000577e-02 1.550555000000000128e-01 6.094520000000000159e+00 4.683355000000000246e+01 1.743545000000000073e+03
7.000000000000000666e-02 1.550179999999999891e-01 5.703030000000000044e+00 4.638080000000000069e+01 1.743269999999999982e+03
7.100000000000000755e-02 1.549935000000000063e-01 5.482094999999999274e+00 4.628549999999999898e+01 1.743085000000000036e+03
7.200000000000000844e-02 1.549840000000000106e-01 5.451795000000000613e+00 4.658655000000000257e+01 1.743009999999999991e+03
7.300000000000000933e-02 1.549915000000000043e-01 5.628289999999999793e+00 4.731510000000000105e+01 1.743055000000000064e+03
7.399999999999999634e-02 1.550179999999999891e-01 6.022980000000000445e+00 4.849269999999999925e+01 1.743224999999999909e+03
7.499999999999999722e-02 1.550635000000000208e-01 6.641809999999999548e+00 5.012915000000000276e+01 1.743534999999999854e+03
7.599999999999999811e-02 1.551290000000000169e-01 7.484970000000000567e+00 5.222189999999999799e+01 1.743985000000000127e+03
7.699999999999999900e-02 1.552139999999999909e-01 8.546815000000000495e+00 5.475600000000000023e+01 1.744574999999999818e+03
7.799999999999999989e-02 1.553194999999999992e-01 9.816189999999998861e+00 5.770449999999999591e+01 1.745304999999999836e+03
7.900000000000000078e-02 1.554435000000000122e-01 1.127693499999999993e+01 6.103005000000000280e+01 1.746170000000000073e+03
8.000000000000000167e-02 1.555840000000000001e-01 1.290869000000000000e+01 6.468665000000000020e+01 1.747160000000000082e+03
8.100000000000000255e-02 1.557405000000000039e-01 1.468765000000000143e+01 6.862184999999999491e+01 1.748264999999999873e+03
8.200000000000000344e-02 1.559105000000000074e-01 1.658765000000000001e+01 7.277944999999999709e+01 1.749465000000000146e+03
8.300000000000000433e-02 1.560914999999999941e-01 1.858115000000000094e+01 7.710169999999999391e+01 1.750744999999999891e+03
8.400000000000000522e-02 1.562814999999999899e-01 2.064025000000000176e+01 8.153159999999999741e+01 1.752099999999999909e+03
8.500000000000000611e-02 1.564785000000000204e-01 2.273770000000000024e+01 8.601539999999999964e+01 1.753494999999999891e+03
8.600000000000000699e-02 1.566784999999999983e-01 2.484765000000000157e+01 9.050424999999999898e+01 1.754930000000000064e+03
8.700000000000000788e-02 1.568815000000000071e-01 2.694660000000000011e+01 9.495564999999999145e+01 1.756384999999999991e+03
8.800000000000000877e-02 1.570840000000000014e-01 2.901384999999999792e+01 9.933504999999999541e+01 1.757840000000000146e+03
8.899999999999999578e-02 1.572855000000000225e-01 3.103190000000000026e+01 1.036161500000000046e+02 1.759295000000000073e+03
8.999999999999999667e-02 1.574840000000000129e-01 3.298685000000000400e+01 1.077803499999999985e+02 1.760730000000000018e+03
9.099999999999999756e-02 1.576784999999999992e-01 3.486814999999999998e+01 1.118174999999999955e+02 1.762144999999999982e+03
9.199999999999999845e-02 1.578689999999999816e-01 3.666875000000000284e+01 1.157249999999999943e+02 1.763525000000000091e+03
9.299999999999999933e-02 1.580550000000000010e-01 3.838439999999999941e+01 1.195045000000000073e+02 1.764880000000000109e+03
9.400000000000000022e-02 1.582355000000000012e-01 4.001354999999999507e+01 1.231649999999999920e+02 1.766199999999999818e+03
9.500000000000000111e-02 1.584119999999999973e-01 4.155639999999999645e+01 1.267144999999999868e+02 1.767490000000000009e+03
9.600000000000000200e-02 1.585840000000000027e-01 4.301474999999999937e+01 1.301659999999999968e+02 1.768750000000000000e+03
9.700000000000000289e-02 1.587514999999999898e-01 4.439109999999999445e+01 1.335300000000000011e+02 1.769980000000000018e+03
9.800000000000000377e-02 1.589154999999999873e-01 4.568840000000000146e+01 1.368159999999999741e+02 1.771179999999999836e+03
9.900000000000000466e-02 1.590754999999999808e-01 4.690940000000000509e+01 1.400320000000000107e+02 1.772360000000000127e+03
1.000000000000000056e-01 1.592324999999999990e-01 4.805644999999999811e+01 1.431820000000000164e+02 1.773519999999999982e+03
1.010000000000000064e-01 1.593870000000000009e-01 4.913105000000000189e+01 1.462674999999999841e+02 1.774654999999999973e+03
1.020000000000000073e-01 1.595374999999999988e-01 5.013410000000000366e+01 1.492855000000000132e+02 1.775764999999999873e+03
1.030000000000000082e-01 1.596850000000000214e-01 5.106544999999999845e+01 1.522309999999999945e+02 1.776855000000000018e+03
1.040000000000000091e-01 1.598289999999999988e-01 5.192404999999999404e+01 1.550955000000000155e+02 1.777925000000000182e+03
1.050000000000000100e-01 1.599690000000000001e-01 5.270824999999999960e+01 1.578684999999999832e+02 1.778960000000000036e+03
1.059999999999999970e-01 1.601049999999999973e-01 5.341550000000000153e+01 1.605380000000000109e+02 1.779970000000000027e+03
1.069999999999999979e-01 1.602365000000000039e-01 5.404290000000000305e+01 1.630904999999999916e+02 1.780944999999999936e+03
1.079999999999999988e-01 1.603624999999999912e-01 5.458719999999999573e+01 1.655130000000000052e+02 1.781875000000000000e+03
1.089999999999999997e-01 1.604820000000000135e-01 5.504495000000000005e+01 1.677909999999999968e+02 1.782769999999999982e+03
1.100000000000000006e-01 1.605955000000000021e-01 5.541290000000000049e+01 1.699130000000000109e+02 1.783614999999999782e+03
1.110000000000000014e-01 1.607020000000000115e-01 5.568789999999999907e+01 1.718654999999999973e+02 1.784409999999999854e+03
1.120000000000000023e-01 1.608009999999999995e-01 5.586730000000000018e+01 1.736394999999999982e+02 1.785144999999999982e+03
1.130000000000000032e-01 1.608915000000000206e-01 5.594904999999999973e+01 1.752255000000000109e+02 1.785829999999999927e+03
1.140000000000000041e-01 1.609740000000000060e-01 5.593175000000000097e+01 1.766175000000000068e+02 1.786445000000000164e+03
1.150000000000000050e-01 1.610475000000000101e-01 5.581504999999999939e+01 1.778109999999999786e+02 1.787000000000000000e+03
1.160000000000000059e-01 1.611124999999999918e-01 5.559950000000000614e+01 1.788054999999999950e+02 1.787490000000000009e+03
1.170000000000000068e-01 1.611675000000000191e-01 5.528694999999999737e+01 1.795999999999999943e+02 1.787909999999999854e+03
1.180000000000000077e-01 1.612135000000000096e-01 5.488025000000000375e+01 1.802004999999999768e+02 1.788259999999999991e+03
1.190000000000000085e-01 1.612510000000000054e-01 5.438349999999999795e+01 1.806120000000000232e+02 1.788545000000000073e+03
1.200000000000000094e-01 1.612800000000000067e-01 5.380209999999999582e+01 1.808439999999999941e+02 1.788764999999999873e+03
1.209999999999999964e-01 1.612999999999999989e-01 5.314249999999999829e+01 1.809085000000000036e+02 1.788924999999999955e+03
1.219999999999999973e-01 1.613120000000000109e-01 5.241214999999999691e+01 1.808190000000000168e+02 1.789025000000000091e+03
1.229999999999999982e-01 1.613169999999999882e-01 5.161939999999999884e+01 1.805910000000000082e+02 1.789070000000000164e+03
1.239999999999999991e-01 1.613149999999999862e-01 5.077329999999999899e+01 1.802420000000000186e+02 1.789065000000000055e+03
1.250000000000000000e-01 1.613069999999999782e-01 4.988325000000000387e+01 1.797900000000000205e+02 1.789009999999999991e+03
1.260000000000000009e-01 1.612939999999999929e-01 4.895889999999999986e+01 1.792524999999999977e+02 1.788914999999999964e+03
1.270000000000000018e-01 1.612760000000000027e-01 4.800969999999999516e+01 1.786480000000000246e+02 1.788789999999999964e+03
1.280000000000000027e-01 1.612544999999999951e-01 4.704509999999999792e+01 1.779934999999999832e+02 1.788639999999999873e+03
1.290000000000000036e-01 1.612299999999999844e-01 4.607365000000000066e+01 1.773054999999999950e+02 1.788460000000000036e+03
1.300000000000000044e-01 1.612029999999999852e-01 4.510340000000000060e+01 1.765970000000000084e+02 1.788264999999999873e+03
1.310000000000000053e-01 1.611750000000000127e-01 4.414135000000000275e+01 1.758815000000000168e+02 1.788054999999999836e+03
1.320000000000000062e-01 1.611454999999999971e-01 4.319344999999999857e+01 1.751680000000000064e+02 1.787839999999999918e+03
1.330000000000000071e-01 1.611154999999999948e-01 4.226465000000000316e+01 1.744650000000000034e+02 1.787615000000000009e+03
1.340000000000000080e-01 1.610854999999999926e-01 4.135845000000000482e+01 1.737775000000000034e+02 1.787390000000000100e+03
1.350000000000000089e-01 1.610550000000000037e-01 4.047724999999999795e+01 1.731075000000000159e+02 1.787164999999999964e+03
1.360000000000000098e-01 1.610250000000000015e-01 3.962215000000000487e+01 1.724565000000000055e+02 1.786940000000000055e+03
1.370000000000000107e-01 1.609955000000000136e-01 3.879314999999999714e+01 1.718215000000000146e+02 1.786720000000000027e+03
1.380000000000000115e-01 1.609665000000000123e-01 3.798914999999999509e+01 1.711995000000000005e+02 1.786505000000000109e+03
1.390000000000000124e-01 1.609375000000000111e-01 3.720794999999999675e+01 1.705844999999999914e+02 1.786289999999999964e+03
1.400000000000000133e-01 1.609079999999999955e-01 3.644664999999999822e+01 1.699695000000000107e+02 1.786070000000000164e+03
1.410000000000000142e-01 1.608795000000000086e-01 3.570159999999999911e+01 1.693460000000000036e+02 1.785855000000000018e+03
1.420000000000000151e-01 1.608494999999999786e-01 3.496859999999999502e+01 1.687065000000000055e+02 1.785630000000000109e+03
1.430000000000000160e-01 1.608195000000000041e-01 3.424320000000000164e+01 1.680405000000000086e+02 1.785400000000000091e+03
1.440000000000000169e-01 1.607879999999999865e-01 3.352055000000000007e+01 1.673394999999999868e+02 1.785170000000000073e+03
1.450000000000000178e-01 1.607545000000000224e-01 3.279619999999999891e+01 1.665939999999999941e+02 1.784924999999999955e+03
1.459999999999999909e-01 1.607195000000000151e-01 3.206564999999999799e+01 1.657965000000000089e+02 1.784664999999999964e+03
1.469999999999999918e-01 1.606825000000000059e-01 3.132484999999999786e+01 1.649395000000000095e+02 1.784380000000000109e+03
1.479999999999999927e-01 1.606425000000000214e-01 3.057034999999999769e+01 1.640185000000000173e+02 1.784090000000000146e+03
1.489999999999999936e-01 1.605995000000000061e-01 2.979934999999999690e+01 1.630280000000000200e+02 1.783775000000000091e+03
1.499999999999999944e-01 1.605540000000000023e-01 2.900989999999999824e+01 1.619660000000000082e+02 1.783434999999999945e+03
1.509999999999999953e-01 1.605050000000000088e-01 2.820100000000000051e+01 1.608324999999999818e+02 1.783075000000000045e+03
1.519999999999999962e-01 1.604534999999999989e-01 2.737254999999999683e+01 1.596295000000000073e+02 1.782694999999999936e+03
1.529999999999999971e-01 1.603984999999999994e-01 2.652554999999999907e+01 1.583605000000000018e+02 1.782289999999999964e+03
1.539999999999999980e-01 1.603404999999999969e-01 2.566189999999999927e+01 1.570319999999999823e+02 1.781869999999999891e+03
1.549999999999999989e-01 1.602800000000000058e-01 2.478454999999999941e+01 1.556510000000000105e+02 1.781420000000000073e+03
1.559999999999999998e-01 1.602164999999999839e-01 2.389720000000000155e+01 1.542280000000000086e+02 1.780960000000000036e+03
1.570000000000000007e-01 1.601520000000000166e-01 2.300455000000000183e+01 1.527725000000000080e+02 1.780485000000000127e+03
1.580000000000000016e-01 1.600854999999999917e-01 2.211155000000000115e+01 1.512984999999999900e+02 1.779994999999999891e+03
1.590000000000000024e-01 1.600179999999999936e-01 2.122400000000000020e+01 1.498174999999999955e+02 1.779494999999999891e+03
