# t [s], A [cm^2], U [cm/s], P [cPa], c [cm/s]
1.000000000000000021e-03 2.131190000000000029e-01 3.061510499999999801e-01 1.006579499999999996e+02 2.197140000000000327e+03
2.000000000000000042e-03 2.130589999999999984e-01 1.847091500000000108e+00 9.715604999999999336e+01 2.196690000000000055e+03
3.000000000000000062e-03 2.129015000000000213e-01 3.763728499999999588e+00 9.223250000000000171e+01 2.195550000000000182e+03
4.000000000000000083e-03 2.126910000000000189e-01 5.929373000000000005e+00 8.692654999999999177e+01 2.194050000000000182e+03
5.000000000000000104e-03 2.124710000000000210e-01 8.251805000000000945e+00 8.226449999999999818e+01 2.192494999999999891e+03
6.000000000000000125e-03 2.122625000000000206e-01 1.050732999999999961e+01 7.850459999999999638e+01 2.191045000000000073e+03
7.000000000000000146e-03 2.120699999999999807e-01 1.245403499999999930e+01 7.529535000000001332e+01 2.189730000000000018e+03
8.000000000000000167e-03 2.118970000000000020e-01 1.403737500000000082e+01 7.244169999999999732e+01 2.188569999999999709e+03
9.000000000000001055e-03 2.117490000000000205e-01 1.531380000000000052e+01 7.006250000000000000e+01 2.187605000000000018e+03
1.000000000000000194e-02 2.116299999999999848e-01 1.631810000000000116e+01 6.821939999999999316e+01 2.186829999999999927e+03
1.099999999999999936e-02 2.115370000000000028e-01 1.707134999999999891e+01 6.686459999999999582e+01 2.186234999999999673e+03
1.200000000000000025e-02 2.114675000000000027e-01 1.758725000000000094e+01 6.589965000000000828e+01 2.185795000000000073e+03
1.300000000000000114e-02 2.114150000000000196e-01 1.786609999999999943e+01 6.516195000000000448e+01 2.185470000000000255e+03
1.400000000000000203e-02 2.113730000000000053e-01 1.794579999999999842e+01 6.453900000000000148e+01 2.185224999999999909e+03
1.499999999999999944e-02 2.113444999999999907e-01 1.795485000000000042e+01 6.417510000000000048e+01 2.185065000000000055e+03
1.600000000000000033e-02 2.113395000000000135e-01 1.808285000000000053e+01 6.448644999999999072e+01 2.185050000000000182e+03
1.700000000000000122e-02 2.113720000000000043e-01 1.847644999999999982e+01 6.589830000000000609e+01 2.185269999999999982e+03
1.800000000000000211e-02 2.114465000000000094e-01 1.914885000000000304e+01 6.851539999999999964e+01 2.185760000000000218e+03
1.900000000000000300e-02 2.115564999999999807e-01 1.996584999999999965e+01 7.197554999999999836e+01 2.186484999999999673e+03
2.000000000000000042e-02 2.116830000000000100e-01 2.070850000000000080e+01 7.556629999999999825e+01 2.187329999999999927e+03
2.100000000000000130e-02 2.118025000000000047e-01 2.116835000000000022e+01 7.851094999999999402e+01 2.188135000000000218e+03
2.200000000000000219e-02 2.118935000000000124e-01 2.122644999999999982e+01 8.026330000000000098e+01 2.188769999999999982e+03
2.299999999999999961e-02 2.119449999999999945e-01 2.088615000000000066e+01 8.068045000000000755e+01 2.189144999999999982e+03
2.400000000000000050e-02 2.119584999999999941e-01 2.025195000000000078e+01 8.001675000000000182e+01 2.189265000000000327e+03
2.500000000000000139e-02 2.119435000000000069e-01 1.947319999999999851e+01 7.876550000000000296e+01 2.189184999999999945e+03
2.600000000000000228e-02 2.119145000000000056e-01 1.867994999999999806e+01 7.743584999999998786e+01 2.189000000000000000e+03
2.700000000000000316e-02 2.118835000000000024e-01 1.793905000000000172e+01 7.636324999999999363e+01 2.188795000000000073e+03
2.800000000000000058e-02 2.118569999999999898e-01 1.724324999999999974e+01 7.562315000000000964e+01 2.188619999999999891e+03
2.900000000000000147e-02 2.118339999999999945e-01 1.653215000000000146e+01 7.506065000000000964e+01 2.188460000000000036e+03
3.000000000000000236e-02 2.118094999999999839e-01 1.573044999999999938e+01 7.440460000000000207e+01 2.188295000000000073e+03
3.099999999999999978e-02 2.117755000000000054e-01 1.478979999999999961e+01 7.341339999999999577e+01 2.188079999999999927e+03
3.200000000000000067e-02 2.117290000000000005e-01 1.371739999999999959e+01 7.199750000000000227e+01 2.187779999999999745e+03
3.300000000000000155e-02 2.116704999999999837e-01 1.258425000000000082e+01 7.027835000000000321e+01 2.187399999999999636e+03
3.400000000000000244e-02 2.116075000000000039e-01 1.150908000000000087e+01 6.856534999999999513e+01 2.186984999999999673e+03
3.500000000000000333e-02 2.115525000000000044e-01 1.062456999999999852e+01 6.726165000000000305e+01 2.186614999999999782e+03
3.600000000000000422e-02 2.115180000000000116e-01 1.003820499999999960e+01 6.673460000000000036e+01 2.186369999999999891e+03
3.700000000000000511e-02 2.115124999999999922e-01 9.801330000000000098e+00 6.719845000000000823e+01 2.186314999999999600e+03
3.799999999999999906e-02 2.115410000000000068e-01 9.895544999999998481e+00 6.864730000000000132e+01 2.186480000000000018e+03
3.899999999999999994e-02 2.115994999999999959e-01 1.023839500000000058e+01 7.085349999999999682e+01 2.186849999999999909e+03
4.000000000000000083e-02 2.116794999999999927e-01 1.070373000000000019e+01 7.342539999999999623e+01 2.187364999999999782e+03
4.100000000000000172e-02 2.117664999999999964e-01 1.114982499999999987e+01 7.589894999999999925e+01 2.187940000000000055e+03
4.200000000000000261e-02 2.118455000000000199e-01 1.144599999999999973e+01 7.783514999999999873e+01 2.188465000000000146e+03
4.300000000000000350e-02 2.119040000000000090e-01 1.149295000000000044e+01 7.889849999999999852e+01 2.188859999999999673e+03
4.400000000000000439e-02 2.119300000000000073e-01 1.123300000000000054e+01 7.890170000000000528e+01 2.189050000000000182e+03
4.499999999999999833e-02 2.119199999999999973e-01 1.065045999999999893e+01 7.781309999999999150e+01 2.189000000000000000e+03
4.599999999999999922e-02 2.118729999999999780e-01 9.764569999999999084e+00 7.573189999999999600e+01 2.188699999999999818e+03
4.700000000000000011e-02 2.117915000000000214e-01 8.618114999999999526e+00 7.284450000000001069e+01 2.188175000000000182e+03
4.800000000000000100e-02 2.116824999999999957e-01 7.265634999999999621e+00 6.937559999999999150e+01 2.187454999999999927e+03
4.900000000000000189e-02 2.115524999999999767e-01 5.764319999999999666e+00 6.554749999999999943e+01 2.186599999999999909e+03
5.000000000000000278e-02 2.114084999999999992e-01 4.168801000000000201e+00 6.155480000000000018e+01 2.185644999999999982e+03
5.100000000000000366e-02 2.112570000000000003e-01 2.529650000000000176e+00 5.755525000000000091e+01 2.184640000000000327e+03
5.200000000000000455e-02 2.111040000000000139e-01 8.946300000000000363e-01 5.367425000000000068e+01 2.183619999999999891e+03
5.300000000000000544e-02 2.109544999999999892e-01 -6.889599999999997948e-01 5.001685000000000514e+01 2.182619999999999891e+03
5.399999999999999939e-02 2.108125000000000138e-01 -2.172320999999999724e+00 4.668059999999999832e+01 2.181670000000000073e+03
5.500000000000000028e-02 2.106824999999999948e-01 -3.504513000000000211e+00 4.376484999999999559e+01 2.180800000000000182e+03
5.600000000000000117e-02 2.105690000000000062e-01 -4.633639999999999759e+00 4.137375000000000114e+01 2.180029999999999745e+03
5.700000000000000205e-02 2.104759999999999964e-01 -5.509585000000000399e+00 3.961230000000000473e+01 2.179394999999999982e+03
5.800000000000000294e-02 2.104084999999999983e-01 -6.087839999999999918e+00 3.857750000000000057e+01 2.178925000000000182e+03
5.900000000000000383e-02 2.103685000000000138e-01 -6.333510000000000417e+00 3.834690000000000509e+01 2.178645000000000437e+03
6.000000000000000472e-02 2.103599999999999914e-01 -6.224709999999999965e+00 3.896774999999999523e+01 2.178565000000000055e+03
6.099999999999999867e-02 2.103845000000000021e-01 -5.754839999999999733e+00 4.044915000000000305e+01 2.178699999999999818e+03
6.199999999999999956e-02 2.104409999999999892e-01 -4.933295000000000208e+00 4.275910000000000366e+01 2.179054999999999836e+03
6.300000000000000044e-02 2.105299999999999949e-01 -3.784774999999999778e+00 4.582559999999999434e+01 2.179619999999999891e+03
6.400000000000000133e-02 2.106470000000000009e-01 -2.347293500000000144e+00 4.954240000000000066e+01 2.180375000000000000e+03
6.500000000000000222e-02 2.107884999999999898e-01 -6.693599999999997330e-01 5.377799999999999869e+01 2.181295000000000073e+03
6.600000000000000311e-02 2.109499999999999986e-01 1.193364999999999787e+00 5.838555000000000206e+01 2.182355000000000018e+03
6.700000000000000400e-02 2.111260000000000081e-01 3.181624499999999856e+00 6.321374999999999744e+01 2.183519999999999982e+03
6.800000000000000488e-02 2.113110000000000266e-01 5.236119999999999663e+00 6.811684999999999945e+01 2.184744999999999891e+03
6.900000000000000577e-02 2.115000000000000213e-01 7.300790000000000113e+00 7.296399999999999864e+01 2.186005000000000109e+03
7.000000000000000666e-02 2.116875000000000007e-01 9.325874999999999915e+00 7.764660000000000650e+01 2.187260000000000218e+03
7.100000000000000755e-02 2.118700000000000028e-01 1.127008000000000010e+01 8.208384999999999820e+01 2.188485000000000127e+03
7.200000000000000844e-02 2.120449999999999835e-01 1.310245500000000085e+01 8.622585000000000832e+01 2.189659999999999854e+03
7.300000000000000933e-02 2.122100000000000097e-01 1.480284999999999940e+01 9.005410000000000537e+01 2.190779999999999745e+03
7.399999999999999634e-02 2.123639999999999972e-01 1.636185000000000045e+01 9.357869999999999777e+01 2.191829999999999927e+03
7.499999999999999722e-02 2.125090000000000034e-01 1.777980000000000160e+01 9.683424999999999727e+01 2.192815000000000055e+03
7.599999999999999811e-02 2.126434999999999853e-01 1.906470000000000198e+01 9.987164999999998827e+01 2.193739999999999782e+03
7.699999999999999900e-02 2.127715000000000023e-01 2.023019999999999996e+01 1.027519499999999937e+02 2.194614999999999782e+03
7.799999999999999989e-02 2.128944999999999865e-01 2.129299999999999926e+01 1.055384999999999991e+02 2.195454999999999927e+03
7.900000000000000078e-02 2.130134999999999945e-01 2.227074999999999960e+01 1.082880000000000109e+02 2.196274999999999636e+03
8.000000000000000167e-02 2.131319999999999881e-01 2.317960000000000065e+01 1.110459999999999923e+02 2.197079999999999927e+03
8.100000000000000255e-02 2.132505000000000095e-01 2.403310000000000102e+01 1.138449999999999989e+02 2.197894999999999982e+03
8.200000000000000344e-02 2.133700000000000041e-01 2.484084999999999965e+01 1.166999999999999886e+02 2.198710000000000036e+03
8.300000000000000433e-02 2.134909999999999863e-01 2.560799999999999699e+01 1.196080000000000041e+02 2.199539999999999964e+03
8.400000000000000522e-02 2.136135000000000117e-01 2.633534999999999826e+01 1.225534999999999997e+02 2.200375000000000000e+03
8.500000000000000611e-02 2.137364999999999959e-01 2.701919999999999789e+01 1.255070000000000050e+02 2.201220000000000255e+03
8.600000000000000699e-02 2.138595000000000079e-01 2.765245000000000175e+01 1.284284999999999854e+02 2.202060000000000400e+03
8.700000000000000788e-02 2.139805000000000179e-01 2.822489999999999810e+01 1.312735000000000127e+02 2.202885000000000218e+03
8.800000000000000877e-02 2.140980000000000105e-01 2.872439999999999927e+01 1.339929999999999950e+02 2.203690000000000055e+03
8.899999999999999578e-02 2.142100000000000115e-01 2.913759999999999906e+01 1.365380000000000109e+02 2.204465000000000146e+03
8.999999999999999667e-02 2.143150000000000055e-01 2.945105000000000217e+01 1.388620000000000232e+02 2.205179999999999836e+03
9.099999999999999756e-02 2.144110000000000182e-01 2.965180000000000149e+01 1.409219999999999970e+02 2.205845000000000255e+03
9.199999999999999845e-02 2.144959999999999922e-01 2.972874999999999801e+01 1.426839999999999975e+02 2.206434999999999945e+03
9.299999999999999933e-02 2.145699999999999830e-01 2.967304999999999993e+01 1.441214999999999975e+02 2.206944999999999709e+03
9.400000000000000022e-02 2.146310000000000162e-01 2.947899999999999920e+01 1.452150000000000034e+02 2.207375000000000000e+03
9.500000000000000111e-02 2.146784999999999943e-01 2.914460000000000051e+01 1.459599999999999795e+02 2.207704999999999927e+03
9.600000000000000200e-02 2.147125000000000006e-01 2.867174999999999940e+01 1.463600000000000136e+02 2.207949999999999818e+03
9.700000000000000289e-02 2.147330000000000072e-01 2.806649999999999778e+01 1.464290000000000020e+02 2.208099999999999909e+03
9.800000000000000377e-02 2.147399999999999864e-01 2.733910000000000196e+01 1.461949999999999932e+02 2.208159999999999854e+03
9.900000000000000466e-02 2.147354999999999958e-01 2.650314999999999799e+01 1.456910000000000025e+02 2.208144999999999982e+03
1.000000000000000056e-01 2.147209999999999952e-01 2.557545000000000002e+01 1.449585000000000150e+02 2.208050000000000182e+03
1.010000000000000064e-01 2.146959999999999980e-01 2.457509999999999906e+01 1.440439999999999827e+02 2.207894999999999982e+03
1.020000000000000073e-01 2.146649999999999947e-01 2.352239999999999753e+01 1.429954999999999927e+02 2.207684999999999945e+03
1.030000000000000082e-01 2.146279999999999855e-01 2.243829999999999814e+01 1.418625000000000114e+02 2.207440000000000055e+03
1.040000000000000091e-01 2.145870000000000000e-01 2.134320000000000306e+01 1.406899999999999977e+02 2.207164999999999964e+03
1.050000000000000100e-01 2.145444999999999991e-01 2.025629999999999953e+01 1.395200000000000102e+02 2.206880000000000109e+03
1.059999999999999970e-01 2.145015000000000116e-01 1.919469999999999743e+01 1.383879999999999768e+02 2.206590000000000146e+03
1.069999999999999979e-01 2.144594999999999974e-01 1.817279999999999873e+01 1.373224999999999909e+02 2.206300000000000182e+03
1.079999999999999988e-01 2.144189999999999985e-01 1.720200000000000173e+01 1.363430000000000177e+02 2.206019999999999982e+03
1.089999999999999997e-01 2.143820000000000170e-01 1.628999999999999915e+01 1.354605000000000246e+02 2.205764999999999873e+03
1.100000000000000006e-01 2.143474999999999964e-01 1.544105000000000061e+01 1.346775000000000091e+02 2.205524999999999636e+03
1.110000000000000014e-01 2.143160000000000065e-01 1.465569999999999951e+01 1.339884999999999877e+02 2.205309999999999945e+03
1.120000000000000023e-01 2.142884999999999929e-01 1.393104999999999905e+01 1.333790000000000191e+02 2.205114999999999782e+03
1.130000000000000032e-01 2.142629999999999812e-01 1.326115000000000066e+01 1.328290000000000077e+02 2.204934999999999945e+03
1.140000000000000041e-01 2.142390000000000128e-01 1.263744999999999941e+01 1.323120000000000118e+02 2.204769999999999982e+03
1.150000000000000050e-01 2.142164999999999764e-01 1.204950000000000010e+01 1.318000000000000114e+02 2.204609999999999673e+03
1.160000000000000059e-01 2.141939999999999955e-01 1.148564999999999969e+01 1.312620000000000005e+02 2.204454999999999927e+03
1.170000000000000068e-01 2.141695000000000126e-01 1.093376499999999929e+01 1.306674999999999898e+02 2.204284999999999854e+03
1.180000000000000077e-01 2.141430000000000000e-01 1.038217500000000015e+01 1.299900000000000091e+02 2.204100000000000364e+03
1.190000000000000085e-01 2.141135000000000121e-01 9.820264999999999134e+00 1.292044999999999959e+02 2.203895000000000437e+03
1.200000000000000094e-01 2.140795000000000059e-01 9.239225000000001131e+00 1.282950000000000159e+02 2.203664999999999964e+03
1.209999999999999964e-01 2.140409999999999813e-01 8.632805000000001172e+00 1.272500000000000000e+02 2.203400000000000091e+03
1.219999999999999973e-01 2.139975000000000072e-01 7.997370000000000090e+00 1.260665000000000049e+02 2.203105000000000018e+03
1.229999999999999982e-01 2.139484999999999859e-01 7.332580000000000098e+00 1.247514999999999930e+02 2.202774999999999636e+03
1.239999999999999991e-01 2.138944999999999874e-01 6.641180000000000305e+00 1.233179999999999978e+02 2.202409999999999854e+03
1.250000000000000000e-01 2.138364999999999849e-01 5.928989999999999760e+00 1.217880000000000109e+02 2.202014999999999873e+03
1.260000000000000009e-01 2.137749999999999928e-01 5.204534999999999911e+00 1.201894999999999953e+02 2.201600000000000364e+03
1.270000000000000018e-01 2.137104999999999977e-01 4.478580000000000005e+00 1.185554999999999950e+02 2.201159999999999854e+03
1.280000000000000027e-01 2.136454999999999882e-01 3.763485000000000191e+00 1.169214999999999947e+02 2.200720000000000255e+03
1.290000000000000036e-01 2.135799999999999921e-01 3.072490000000000165e+00 1.153250000000000028e+02 2.200275000000000091e+03
1.300000000000000044e-01 2.135164999999999980e-01 2.418944000000000205e+00 1.138025000000000091e+02 2.199845000000000255e+03
1.310000000000000053e-01 2.134560000000000068e-01 1.815558999999999923e+00 1.123864999999999981e+02 2.199430000000000291e+03
1.320000000000000062e-01 2.133990000000000054e-01 1.273724649999999903e+00 1.111055000000000064e+02 2.199039999999999964e+03
1.330000000000000071e-01 2.133475000000000232e-01 8.029629999999999823e-01 1.099830000000000041e+02 2.198689999999999600e+03
1.340000000000000080e-01 2.133019999999999916e-01 4.104419999999999735e-01 1.090335000000000036e+02 2.198375000000000000e+03
1.350000000000000089e-01 2.132629999999999804e-01 1.007449999999999735e-01 1.082665000000000077e+02 2.198104999999999563e+03
1.360000000000000098e-01 2.132310000000000039e-01 -1.242904999999999704e-01 1.076835000000000093e+02 2.197880000000000109e+03
1.370000000000000107e-01 2.132060000000000066e-01 -2.655140000000000278e-01 1.072794999999999987e+02 2.197704999999999927e+03
1.380000000000000115e-01 2.131875000000000020e-01 -3.263035000000000241e-01 1.070420000000000016e+02 2.197574999999999818e+03
1.390000000000000124e-01 2.131760000000000044e-01 -3.122910499999999590e-01 1.069559999999999889e+02 2.197484999999999673e+03
1.400000000000000133e-01 2.131699999999999984e-01 -2.310035000000000005e-01 1.070010000000000048e+02 2.197439999999999600e+03
1.410000000000000142e-01 2.131689999999999974e-01 -9.144995000000000207e-02 1.071539999999999964e+02 2.197425000000000182e+03
1.420000000000000151e-01 2.131720000000000004e-01 9.631514500000000478e-02 1.073910000000000053e+02 2.197444999999999709e+03
1.430000000000000160e-01 2.131790000000000074e-01 3.216299999999999715e-01 1.076875000000000000e+02 2.197480000000000018e+03
1.440000000000000169e-01 2.131879999999999886e-01 5.736529999999999685e-01 1.080190000000000055e+02 2.197539999999999964e+03
1.450000000000000178e-01 2.131985000000000130e-01 8.417544999999999611e-01 1.083640000000000043e+02 2.197609999999999673e+03
1.459999999999999909e-01 2.132100000000000106e-01 1.115864499999999815e+00 1.087014999999999958e+02 2.197685000000000400e+03
1.469999999999999918e-01 2.132209999999999939e-01 1.386785000000000156e+00 1.090140000000000100e+02 2.197755000000000109e+03
1.479999999999999927e-01 2.132315000000000182e-01 1.646435000000000093e+00 1.092870000000000061e+02 2.197829999999999927e+03
1.489999999999999936e-01 2.132415000000000005e-01 1.888024999999999842e+00 1.095090000000000003e+02 2.197889999999999873e+03
1.499999999999999944e-01 2.132489999999999941e-01 2.106199999999999850e+00 1.096730000000000018e+02 2.197945000000000164e+03
1.509999999999999953e-01 2.132545000000000135e-01 2.297120000000000051e+00 1.097744999999999891e+02 2.197985000000000127e+03
1.519999999999999962e-01 2.132580000000000031e-01 2.458404999999999951e+00 1.098120000000000118e+02 2.198010000000000218e+03
1.529999999999999971e-01 2.132594999999999907e-01 2.589129999999999932e+00 1.097874999999999943e+02 2.198019999999999982e+03
1.539999999999999980e-01 2.132580000000000031e-01 2.689659999999999940e+00 1.097055000000000007e+02 2.198015000000000327e+03
1.549999999999999989e-01 2.132545000000000135e-01 2.761490000000000222e+00 1.095715000000000003e+02 2.197994999999999891e+03
1.559999999999999998e-01 2.132494999999999807e-01 2.807014999999999816e+00 1.093949999999999960e+02 2.197960000000000036e+03
1.570000000000000007e-01 2.132435000000000025e-01 2.829315000000000246e+00 1.091835000000000093e+02 2.197920000000000073e+03
1.580000000000000016e-01 2.132350000000000079e-01 2.831830000000000069e+00 1.089449999999999932e+02 2.197869999999999891e+03
1.590000000000000024e-01 2.132264999999999855e-01 2.818140000000000089e+00 1.086899999999999977e+02 2.197810000000000400e+03
