# t [s], A [cm^2], U [cm/s], P [cPa], c [cm/s]
1.000000000000000021e-03 7.685589999999999922e-01 5.782249999999995727e-03 9.540370000000000061e+01 1.700000000000000000e+03
2.000000000000000042e-03 7.685454999999999925e-01 -3.156665000000000339e-03 9.537225000000000819e+01 1.699994999999999891e+03
3.000000000000000062e-03 7.686094999999999455e-01 9.518814999999999915e-02 9.548294999999998822e+01 1.700025000000000091e+03
4.000000000000000083e-03 7.686649999999999316e-01 1.937286750000000168e-01 9.560890000000000555e+01 1.700050000000000182e+03
5.000000000000000104e-03 7.686284999999999368e-01 1.638246639000000004e-01 9.553709999999999525e+01 1.700034999999999854e+03
6.000000000000000125e-03 7.685489999999999267e-01 6.394050000000001122e-02 9.529859999999999332e+01 1.699985000000000127e+03
7.000000000000000146e-03 7.684824999999999573e-01 -2.453800000000000425e-02 9.501005000000000678e+01 1.699924999999999955e+03
8.000000000000000167e-03 7.683759999999999479e-01 -1.891300000000000203e-01 9.457980000000000587e+01 1.699824999999999818e+03
9.000000000000001055e-03 7.681974999999999776e-01 -4.835000000000000409e-01 9.391349999999999909e+01 1.699684999999999945e+03
1.000000000000000194e-02 7.679405000000000259e-01 -9.138749999999998819e-01 9.296330000000000382e+01 1.699474999999999909e+03
1.099999999999999936e-02 7.675810000000000688e-01 -1.508515000000000050e+00 9.165000000000000568e+01 1.699184999999999945e+03
1.200000000000000025e-02 7.671135000000000037e-01 -2.259705000000000297e+00 8.993254999999999200e+01 1.698805000000000064e+03
1.300000000000000114e-02 7.665914999999999813e-01 -3.060045000000000126e+00 8.791264999999999930e+01 1.698345000000000027e+03
1.400000000000000203e-02 7.661014999999999908e-01 -3.740075500000000552e+00 8.581614999999999327e+01 1.697845000000000027e+03
1.499999999999999944e-02 7.657095000000000429e-01 -4.159590599999999583e+00 8.387545000000000073e+01 1.697365000000000009e+03
1.600000000000000033e-02 7.654285000000000672e-01 -4.266326499999999911e+00 8.222534999999999172e+01 1.696929999999999836e+03
1.700000000000000122e-02 7.652259999999999618e-01 -4.097139999999999560e+00 8.086945000000000050e+01 1.696549999999999955e+03
1.800000000000000211e-02 7.650455000000000449e-01 -3.742764999999999898e+00 7.970839999999999748e+01 1.696200000000000045e+03
1.900000000000000300e-02 7.648344999999999727e-01 -3.302785000000000082e+00 7.859880000000001132e+01 1.695865000000000009e+03
2.000000000000000042e-02 7.645625000000000338e-01 -2.848556499999999936e+00 7.741519999999999868e+01 1.695519999999999982e+03
2.100000000000000130e-02 7.642269999999999897e-01 -2.404180499999999832e+00 7.609364999999999668e+01 1.695144999999999982e+03
2.200000000000000219e-02 7.638510000000000577e-01 -1.949885000000000090e+00 7.464439999999999031e+01 1.694744999999999891e+03
2.299999999999999961e-02 7.634665000000000479e-01 -1.444040000000000212e+00 7.313134999999999764e+01 1.694320000000000164e+03
2.400000000000000050e-02 7.631014999999999882e-01 -8.521499999999999631e-01 7.163204999999999245e+01 1.693905000000000200e+03
2.500000000000000139e-02 7.627630000000000798e-01 -1.699250000000001037e-01 7.019714999999999350e+01 1.693500000000000000e+03
2.600000000000000228e-02 7.624394999999999367e-01 5.672499999999998099e-01 6.882429999999999382e+01 1.693099999999999909e+03
2.700000000000000316e-02 7.621014999999999873e-01 1.289189999999999836e+00 6.745324999999999704e+01 1.692710000000000036e+03
2.800000000000000058e-02 7.617099999999999982e-01 1.906585000000000196e+00 6.597995000000000232e+01 1.692295000000000073e+03
2.900000000000000147e-02 7.612305000000000321e-01 2.332634999999999792e+00 6.428494999999999493e+01 1.691839999999999918e+03
3.000000000000000236e-02 7.606409999999999005e-01 2.504874999999999741e+00 6.226859999999999928e+01 1.691315000000000055e+03
3.099999999999999978e-02 7.599409999999999776e-01 2.401270000000000238e+00 5.988255000000000194e+01 1.690710000000000036e+03
3.200000000000000067e-02 7.591520000000000490e-01 2.045475000000000598e+00 5.714815000000000111e+01 1.690034999999999854e+03
3.300000000000000155e-02 7.583139999999999326e-01 1.499705000000000066e+00 5.415619999999999834e+01 1.689295000000000073e+03
3.400000000000000244e-02 7.574745000000000505e-01 8.488150000000000972e-01 5.104925000000000068e+01 1.688525000000000091e+03
3.500000000000000333e-02 7.566809999999999370e-01 1.814749999999998309e-01 4.799410000000000309e+01 1.687755000000000109e+03
3.600000000000000422e-02 7.559724999999999362e-01 -4.249700000000000699e-01 4.515370000000000061e+01 1.687019999999999982e+03
3.700000000000000511e-02 7.553760000000000474e-01 -9.135300000000001752e-01 4.266580000000000439e+01 1.686364999999999782e+03
3.799999999999999906e-02 7.549069999999999947e-01 -1.249719999999999942e+00 4.063025000000000375e+01 1.685805000000000064e+03
3.899999999999999994e-02 7.545705000000000329e-01 -1.418560000000000043e+00 3.910634999999999906e+01 1.685360000000000127e+03
4.000000000000000083e-02 7.543630000000000058e-01 -1.418370000000000131e+00 3.811745000000000516e+01 1.685045000000000073e+03
4.100000000000000172e-02 7.542805000000000204e-01 -1.253708499999999892e+00 3.766035000000000110e+01 1.684860000000000127e+03
4.200000000000000261e-02 7.543159999999999865e-01 -9.293029999999999902e-01 3.771645000000000181e+01 1.684804999999999836e+03
4.300000000000000350e-02 7.544644999999999824e-01 -4.463500000000001355e-01 3.826149999999999807e+01 1.684875000000000000e+03
4.400000000000000439e-02 7.547230000000000327e-01 1.981250000000001066e-01 3.927169999999999561e+01 1.685070000000000164e+03
4.499999999999999833e-02 7.550900000000000389e-01 1.009229999999999849e+00 4.072570000000000334e+01 1.685375000000000000e+03
4.599999999999999922e-02 7.555605000000000793e-01 1.990525000000000100e+00 4.260255000000000081e+01 1.685795000000000073e+03
4.700000000000000011e-02 7.561305000000000387e-01 3.140190000000000481e+00 4.487734999999999985e+01 1.686320000000000164e+03
4.800000000000000100e-02 7.567904999999999216e-01 4.448240000000000194e+00 4.751754999999999995e+01 1.686940000000000055e+03
4.900000000000000189e-02 7.575279999999999792e-01 5.895405000000000229e+00 5.047955000000000325e+01 1.687644999999999982e+03
5.000000000000000278e-02 7.583265000000000144e-01 7.454094999999999693e+00 5.370900000000000318e+01 1.688424999999999955e+03
5.100000000000000366e-02 7.591689999999999827e-01 9.090417500000000928e+00 5.714199999999999591e+01 1.689269999999999982e+03
5.200000000000000455e-02 7.600365000000000038e-01 1.076770999999999923e+01 6.070949999999999136e+01 1.690154999999999973e+03
5.300000000000000544e-02 7.609110000000000040e-01 1.244949000000000083e+01 6.434215000000000373e+01 1.691074999999999818e+03
5.399999999999999939e-02 7.617780000000000662e-01 1.410289999999999999e+01 6.797530000000000427e+01 1.692000000000000000e+03
5.500000000000000028e-02 7.626260000000000261e-01 1.570055500000000137e+01 7.155355000000000132e+01 1.692925000000000182e+03
5.600000000000000117e-02 7.634460000000000690e-01 1.722190000000000154e+01 7.503389999999998849e+01 1.693835000000000036e+03
5.700000000000000205e-02 7.642335000000000100e-01 1.865350000000000108e+01 7.838734999999999786e+01 1.694720000000000027e+03
5.800000000000000294e-02 7.649884999999999602e-01 1.998855000000000004e+01 8.159855000000000302e+01 1.695579999999999927e+03
5.900000000000000383e-02 7.657114999999999894e-01 2.122554999999999836e+01 8.466509999999999536e+01 1.696409999999999854e+03
6.000000000000000472e-02 7.664060000000000317e-01 2.236765000000000114e+01 8.759489999999999554e+01 1.697204999999999927e+03
6.099999999999999867e-02 7.670775000000000787e-01 2.342085000000000150e+01 9.040364999999999895e+01 1.697974999999999909e+03
6.199999999999999956e-02 7.677304999999999824e-01 2.439290000000000092e+01 9.311199999999999477e+01 1.698715000000000146e+03
6.300000000000000044e-02 7.683710000000000262e-01 2.529244999999999877e+01 9.574295000000000755e+01 1.699440000000000055e+03
6.400000000000000133e-02 7.690034999999999510e-01 2.612774999999999892e+01 9.831880000000001019e+01 1.700150000000000091e+03
6.500000000000000222e-02 7.696315000000000239e-01 2.690594999999999715e+01 1.008585999999999956e+02 1.700845000000000027e+03
6.600000000000000311e-02 7.702584999999999571e-01 2.763244999999999862e+01 1.033766999999999996e+02 1.701534999999999854e+03
6.700000000000000400e-02 7.708844999999999725e-01 2.831020000000000181e+01 1.058810000000000002e+02 1.702219999999999800e+03
6.800000000000000488e-02 7.715080000000000826e-01 2.893975000000000009e+01 1.083730000000000047e+02 1.702905000000000200e+03
6.900000000000000577e-02 7.721270000000000078e-01 2.951895000000000024e+01 1.108449999999999989e+02 1.703575000000000045e+03
7.000000000000000666e-02 7.727374999999999661e-01 3.004359999999999786e+01 1.132835000000000036e+02 1.704244999999999891e+03
7.100000000000000755e-02 7.733330000000000481e-01 3.050800000000000267e+01 1.156715000000000089e+02 1.704894999999999982e+03
7.200000000000000844e-02 7.739084999999999992e-01 3.090529999999999688e+01 1.179849999999999994e+02 1.705529999999999973e+03
7.300000000000000933e-02 7.744584999999999386e-01 3.122875000000000156e+01 1.202009999999999934e+02 1.706144999999999982e+03
7.399999999999999634e-02 7.749749999999999694e-01 3.147175000000000011e+01 1.222944999999999993e+02 1.706735000000000127e+03
7.499999999999999722e-02 7.754554999999999643e-01 3.162884999999999991e+01 1.242425000000000068e+02 1.707279999999999973e+03
7.599999999999999811e-02 7.758940000000000836e-01 3.169589999999999819e+01 1.260254999999999939e+02 1.707789999999999964e+03
7.699999999999999900e-02 7.762864999999999904e-01 3.167029999999999745e+01 1.276264999999999930e+02 1.708250000000000000e+03
7.799999999999999989e-02 7.766330000000000178e-01 3.155110000000000170e+01 1.290345000000000084e+02 1.708659999999999854e+03
7.900000000000000078e-02 7.769295000000000506e-01 3.133930000000000149e+01 1.302415000000000020e+02 1.709025000000000091e+03
8.000000000000000167e-02 7.771780000000000355e-01 3.103730000000000189e+01 1.312459999999999809e+02 1.709335000000000036e+03
8.100000000000000255e-02 7.773780000000000134e-01 3.064950000000000330e+01 1.320500000000000114e+02 1.709590000000000146e+03
8.200000000000000344e-02 7.775324999999999598e-01 3.018185000000000073e+01 1.326594999999999800e+02 1.709795000000000073e+03
8.300000000000000433e-02 7.776429999999999731e-01 2.964179999999999993e+01 1.330860000000000127e+02 1.709950000000000045e+03
8.400000000000000522e-02 7.777144999999999753e-01 2.903849999999999909e+01 1.333435000000000059e+02 1.710059999999999945e+03
8.500000000000000611e-02 7.777505000000000113e-01 2.838230000000000075e+01 1.334505000000000052e+02 1.710125000000000000e+03
8.600000000000000699e-02 7.777564999999999618e-01 2.768440000000000012e+01 1.334270000000000209e+02 1.710154999999999973e+03
8.700000000000000788e-02 7.777380000000000404e-01 2.695685000000000286e+01 1.332944999999999993e+02 1.710150000000000091e+03
8.800000000000000877e-02 7.777005000000000168e-01 2.621175000000000210e+01 1.330769999999999982e+02 1.710119999999999891e+03
8.899999999999999578e-02 7.776494999999999935e-01 2.546090000000000231e+01 1.327980000000000018e+02 1.710070000000000164e+03
8.999999999999999667e-02 7.775900000000000034e-01 2.471535000000000082e+01 1.324780000000000086e+02 1.710005000000000109e+03
9.099999999999999756e-02 7.775265000000000093e-01 2.398479999999999990e+01 1.321394999999999982e+02 1.709925000000000182e+03
9.199999999999999845e-02 7.774630000000000152e-01 2.327720000000000056e+01 1.317980000000000018e+02 1.709845000000000027e+03
9.299999999999999933e-02 7.774024999999999963e-01 2.259844999999999970e+01 1.314689999999999941e+02 1.709765000000000100e+03
9.400000000000000022e-02 7.773464999999999403e-01 2.195224999999999937e+01 1.311610000000000014e+02 1.709684999999999945e+03
9.500000000000000111e-02 7.772955000000000281e-01 2.133995000000000175e+01 1.308804999999999836e+02 1.709610000000000127e+03
9.600000000000000200e-02 7.772495000000000376e-01 2.076084999999999781e+01 1.306285000000000025e+02 1.709539999999999964e+03
9.700000000000000289e-02 7.772080000000000100e-01 2.021209999999999951e+01 1.304025000000000034e+02 1.709474999999999909e+03
9.800000000000000377e-02 7.771684999999999288e-01 1.968935000000000102e+01 1.301964999999999861e+02 1.709409999999999854e+03
9.900000000000000466e-02 7.771289999999999587e-01 1.918704999999999927e+01 1.300020000000000095e+02 1.709355000000000018e+03
1.000000000000000056e-01 7.770865000000000133e-01 1.869865000000000066e+01 1.298089999999999975e+02 1.709295000000000073e+03
1.010000000000000064e-01 7.770390000000000352e-01 1.821710000000000207e+01 1.296055000000000064e+02 1.709240000000000009e+03
1.020000000000000073e-01 7.769829999999999792e-01 1.773554999999999993e+01 1.293804999999999836e+02 1.709174999999999955e+03
1.030000000000000082e-01 7.769159999999999400e-01 1.724735000000000085e+01 1.291220000000000141e+02 1.709105000000000018e+03
1.040000000000000091e-01 7.768369999999999997e-01 1.674649999999999750e+01 1.288199999999999932e+02 1.709025000000000091e+03
1.050000000000000100e-01 7.767435000000000311e-01 1.622814999999999941e+01 1.284679999999999893e+02 1.708930000000000064e+03
1.059999999999999970e-01 7.766355000000000341e-01 1.568875000000000064e+01 1.280595000000000141e+02 1.708824999999999818e+03
1.069999999999999979e-01 7.765115000000000212e-01 1.512625000000000064e+01 1.275925000000000011e+02 1.708710000000000036e+03
1.079999999999999988e-01 7.763740000000000085e-01 1.454014999999999880e+01 1.270674999999999955e+02 1.708575000000000045e+03
1.089999999999999997e-01 7.762229999999999963e-01 1.393175000000000097e+01 1.264884999999999877e+02 1.708430000000000064e+03
1.100000000000000006e-01 7.760614999999999597e-01 1.330400999999999812e+01 1.258625000000000114e+02 1.708275000000000091e+03
1.110000000000000014e-01 7.758924999999999850e-01 1.266145500000000013e+01 1.251999999999999886e+02 1.708105000000000018e+03
1.120000000000000023e-01 7.757190000000000474e-01 1.200991999999999926e+01 1.245134999999999934e+02 1.707924999999999955e+03
1.130000000000000032e-01 7.755445000000000810e-01 1.135642499999999977e+01 1.238170000000000073e+02 1.707744999999999891e+03
1.140000000000000041e-01 7.753740000000000077e-01 1.070860500000000037e+01 1.231274999999999977e+02 1.707570000000000164e+03
1.150000000000000050e-01 7.752114999999999423e-01 1.007460000000000022e+01 1.224600000000000080e+02 1.707389999999999873e+03
1.160000000000000059e-01 7.750600000000000822e-01 9.462419999999999831e+00 1.218315000000000055e+02 1.707224999999999909e+03
1.170000000000000068e-01 7.749245000000000161e-01 8.879840000000001510e+00 1.212580000000000098e+02 1.707075000000000045e+03
1.180000000000000077e-01 7.748070000000000235e-01 8.333774999999999267e+00 1.207524999999999977e+02 1.706930000000000064e+03
1.190000000000000085e-01 7.747105000000000796e-01 7.830135000000000289e+00 1.203269999999999982e+02 1.706809999999999945e+03
1.200000000000000094e-01 7.746370000000000200e-01 7.373545000000000016e+00 1.199894999999999925e+02 1.706710000000000036e+03
1.209999999999999964e-01 7.745870000000000255e-01 6.967095000000000482e+00 1.197460000000000093e+02 1.706634999999999991e+03
1.219999999999999973e-01 7.745604999999999851e-01 6.612280000000000157e+00 1.195985000000000014e+02 1.706574999999999818e+03
1.229999999999999982e-01 7.745569999999999400e-01 6.309025000000000105e+00 1.195450000000000017e+02 1.706550000000000182e+03
1.239999999999999991e-01 7.745744999999999436e-01 6.055695000000000050e+00 1.195819999999999936e+02 1.706539999999999964e+03
1.250000000000000000e-01 7.746115000000000084e-01 5.849325000000000330e+00 1.197009999999999934e+02 1.706555000000000064e+03
1.260000000000000009e-01 7.746649999999999370e-01 5.685764999999999958e+00 1.198940000000000055e+02 1.706589999999999918e+03
1.270000000000000018e-01 7.747330000000000050e-01 5.560000000000000497e+00 1.201479999999999961e+02 1.706639999999999873e+03
1.280000000000000027e-01 7.748109999999999165e-01 5.466380000000000017e+00 1.204509999999999934e+02 1.706704999999999927e+03
1.290000000000000036e-01 7.748960000000000292e-01 5.398925000000000196e+00 1.207890000000000015e+02 1.706784999999999854e+03
1.300000000000000044e-01 7.749850000000000350e-01 5.351589999999999847e+00 1.211500000000000057e+02 1.706875000000000000e+03
1.310000000000000053e-01 7.750759999999999872e-01 5.318500000000000227e+00 1.215210000000000008e+02 1.706960000000000036e+03
1.320000000000000062e-01 7.751649999999999929e-01 5.294119999999999493e+00 1.218900000000000006e+02 1.707055000000000064e+03
1.330000000000000071e-01 7.752510000000000234e-01 5.273455000000000226e+00 1.222479999999999905e+02 1.707139999999999873e+03
1.340000000000000080e-01 7.753304999999999225e-01 5.252105000000000246e+00 1.225854999999999961e+02 1.707230000000000018e+03
1.350000000000000089e-01 7.754039999999999822e-01 5.226379999999999804e+00 1.228969999999999914e+02 1.707309999999999945e+03
1.360000000000000098e-01 7.754689999999999639e-01 5.193319999999999936e+00 1.231760000000000019e+02 1.707384999999999991e+03
1.370000000000000107e-01 7.755255000000000898e-01 5.150705000000000311e+00 1.234199999999999875e+02 1.707454999999999927e+03
1.380000000000000115e-01 7.755735000000000268e-01 5.097030000000000172e+00 1.236280000000000001e+02 1.707509999999999991e+03
1.390000000000000124e-01 7.756129999999999969e-01 5.031489999999999796e+00 1.237984999999999900e+02 1.707559999999999945e+03
1.400000000000000133e-01 7.756440000000000001e-01 4.953924999999999912e+00 1.239335000000000093e+02 1.707599999999999909e+03
1.410000000000000142e-01 7.756674999999999542e-01 4.864734999999999587e+00 1.240339999999999918e+02 1.707630000000000109e+03
1.420000000000000151e-01 7.756834999999999702e-01 4.764825000000000088e+00 1.241034999999999968e+02 1.707654999999999973e+03
1.430000000000000160e-01 7.756939999999999946e-01 4.655509999999999593e+00 1.241460000000000008e+02 1.707675000000000182e+03
1.440000000000000169e-01 7.756989999999999164e-01 4.538375000000000270e+00 1.241649999999999920e+02 1.707684999999999945e+03
1.450000000000000178e-01 7.757005000000000150e-01 4.415225000000000399e+00 1.241634999999999991e+02 1.707695000000000164e+03
1.459999999999999909e-01 7.756985000000000685e-01 4.287919999999999732e+00 1.241475000000000080e+02 1.707690000000000055e+03
1.469999999999999918e-01 7.756935000000000358e-01 4.158294999999999852e+00 1.241184999999999974e+02 1.707690000000000055e+03
1.479999999999999927e-01 7.756870000000000154e-01 4.028055000000000163e+00 1.240805000000000007e+02 1.707680000000000064e+03
1.489999999999999936e-01 7.756794999999999662e-01 3.898684999999999956e+00 1.240364999999999895e+02 1.707675000000000182e+03
1.499999999999999944e-01 7.756715000000000693e-01 3.771379999999999733e+00 1.239879999999999995e+02 1.707664999999999964e+03
1.509999999999999953e-01 7.756624999999999215e-01 3.646999999999999797e+00 1.239360000000000070e+02 1.707654999999999973e+03
1.519999999999999962e-01 7.756525000000000780e-01 3.526080000000000325e+00 1.238799999999999955e+02 1.707639999999999873e+03
1.529999999999999971e-01 7.756415000000000948e-01 3.408809999999999896e+00 1.238209999999999980e+02 1.707625000000000000e+03
1.539999999999999980e-01 7.756290000000000129e-01 3.295090000000000074e+00 1.237565000000000026e+02 1.707614999999999782e+03
1.549999999999999989e-01 7.756149999999999434e-01 3.184585000000000221e+00 1.236850000000000023e+02 1.707594999999999800e+03
1.559999999999999998e-01 7.755980000000000096e-01 3.076799999999999979e+00 1.236055000000000064e+02 1.707569999999999936e+03
1.570000000000000007e-01 7.755784999999999485e-01 2.971165000000000056e+00 1.235149999999999864e+02 1.707549999999999955e+03
1.580000000000000016e-01 7.755549999999999944e-01 2.867115000000000080e+00 1.234120000000000061e+02 1.707525000000000091e+03
1.590000000000000024e-01 7.755279999999999951e-01 2.764174999999999827e+00 1.232944999999999993e+02 1.707494999999999891e+03
