# t [s], A [cm^2], U [cm/s], P [cPa], c [cm/s]
1.000000000000000021e-03 1.636699999999999822e-01 5.308939999999999770e-01 1.013641499999999951e+02 1.724779999999999973e+03
2.000000000000000042e-03 1.636305000000000121e-01 2.410859000000000307e+00 9.776474999999999227e+01 1.724445000000000164e+03
3.000000000000000062e-03 1.634970000000000034e-01 4.611636500000000360e+00 9.328464999999999918e+01 1.723360000000000127e+03
4.000000000000000083e-03 1.633040000000000047e-01 7.003825499999999593e+00 8.864305000000000234e+01 1.721804999999999836e+03
5.000000000000000104e-03 1.630854999999999944e-01 9.519949999999999690e+00 8.458259999999999934e+01 1.720065000000000055e+03
6.000000000000000125e-03 1.628660000000000108e-01 1.201180500000000073e+01 8.131884999999999764e+01 1.718329999999999927e+03
7.000000000000000146e-03 1.626559999999999950e-01 1.430708999999999875e+01 7.865009999999999479e+01 1.716684999999999945e+03
8.000000000000000167e-03 1.624585000000000057e-01 1.631690000000000040e+01 7.633209999999999695e+01 1.715164999999999964e+03
9.000000000000001055e-03 1.622780000000000056e-01 1.805154999999999887e+01 7.430725000000001046e+01 1.713789999999999964e+03
1.000000000000000194e-02 1.621179999999999843e-01 1.954384999999999906e+01 7.260734999999999673e+01 1.712585000000000036e+03
1.099999999999999936e-02 1.619794999999999985e-01 2.080685000000000073e+01 7.121260000000000900e+01 1.711554999999999836e+03
1.200000000000000025e-02 1.618610000000000049e-01 2.184939999999999927e+01 7.006409999999999627e+01 1.710680000000000064e+03
1.300000000000000114e-02 1.617605000000000015e-01 2.268699999999999761e+01 6.911294999999999789e+01 1.709950000000000045e+03
1.400000000000000203e-02 1.616770000000000151e-01 2.333555000000000135e+01 6.831775000000000375e+01 1.709345000000000027e+03
1.499999999999999944e-02 1.616064999999999863e-01 2.381579999999999941e+01 6.764300000000000068e+01 1.708845000000000027e+03
1.600000000000000033e-02 1.615479999999999972e-01 2.417119999999999891e+01 6.709940000000000282e+01 1.708434999999999945e+03
1.700000000000000122e-02 1.615020000000000067e-01 2.447759999999999891e+01 6.678624999999999545e+01 1.708125000000000000e+03
1.800000000000000211e-02 1.614740000000000064e-01 2.482719999999999771e+01 6.687520000000000664e+01 1.707940000000000055e+03
1.900000000000000300e-02 1.614680000000000004e-01 2.529344999999999999e+01 6.752925000000000466e+01 1.707920000000000073e+03
2.000000000000000042e-02 1.614899999999999947e-01 2.589874999999999972e+01 6.880644999999999811e+01 1.708090000000000146e+03
2.100000000000000130e-02 1.615375000000000005e-01 2.660244999999999749e+01 7.060405000000000086e+01 1.708449999999999818e+03
2.200000000000000219e-02 1.616064999999999863e-01 2.731380000000000052e+01 7.267070000000001073e+01 1.708974999999999909e+03
2.299999999999999961e-02 1.616865000000000108e-01 2.792094999999999771e+01 7.467529999999999291e+01 1.709585000000000036e+03
2.400000000000000050e-02 1.617675000000000085e-01 2.832420000000000115e+01 7.630035000000000878e+01 1.710199999999999818e+03
2.500000000000000139e-02 1.618364999999999942e-01 2.846189999999999998e+01 7.732434999999999548e+01 1.710735000000000127e+03
2.600000000000000228e-02 1.618874999999999897e-01 2.832220000000000226e+01 7.766910000000000025e+01 1.711130000000000109e+03
2.700000000000000316e-02 1.619160000000000044e-01 2.793965000000000032e+01 7.740125000000000455e+01 1.711365000000000009e+03
2.800000000000000058e-02 1.619234999999999980e-01 2.737975000000000136e+01 7.669474999999999909e+01 1.711445000000000164e+03
2.900000000000000147e-02 1.619145000000000167e-01 2.671809999999999974e+01 7.576990000000000691e+01 1.711394999999999982e+03
3.000000000000000236e-02 1.618944999999999967e-01 2.602080000000000126e+01 7.483110000000000639e+01 1.711259999999999991e+03
3.099999999999999978e-02 1.618709999999999871e-01 2.533204999999999885e+01 7.402055000000000007e+01 1.711099999999999909e+03
3.200000000000000067e-02 1.618479999999999919e-01 2.466995000000000005e+01 7.339865000000000350e+01 1.710930000000000064e+03
3.300000000000000155e-02 1.618275000000000130e-01 2.403059999999999974e+01 7.295000000000000284e+01 1.710784999999999854e+03
3.400000000000000244e-02 1.618094999999999950e-01 2.339760000000000062e+01 7.260900000000000887e+01 1.710654999999999973e+03
3.500000000000000333e-02 1.617939999999999934e-01 2.275274999999999892e+01 7.229390000000000782e+01 1.710539999999999964e+03
3.600000000000000422e-02 1.617779999999999774e-01 2.208610000000000184e+01 7.193895000000000550e+01 1.710424999999999955e+03
3.700000000000000511e-02 1.617604999999999738e-01 2.140205000000000268e+01 7.151769999999999072e+01 1.710295000000000073e+03
3.799999999999999906e-02 1.617409999999999959e-01 2.072059999999999746e+01 7.105214999999999748e+01 1.710154999999999973e+03
3.899999999999999994e-02 1.617210000000000036e-01 2.007475000000000165e+01 7.060810000000000741e+01 1.710005000000000109e+03
4.000000000000000083e-02 1.617024999999999990e-01 1.950375000000000014e+01 7.027840000000000487e+01 1.709875000000000000e+03
4.100000000000000172e-02 1.616889999999999994e-01 1.904439999999999955e+01 7.015905000000000769e+01 1.709769999999999982e+03
4.200000000000000261e-02 1.616839999999999944e-01 1.872290000000000276e+01 7.032484999999999786e+01 1.709730000000000018e+03
4.300000000000000350e-02 1.616900000000000004e-01 1.854849999999999710e+01 7.080914999999998827e+01 1.709769999999999982e+03
4.400000000000000439e-02 1.617080000000000184e-01 1.851010000000000133e+01 7.159299999999998931e+01 1.709900000000000091e+03
4.499999999999999833e-02 1.617379999999999929e-01 1.857704999999999984e+01 7.260434999999999661e+01 1.710110000000000127e+03
4.599999999999999922e-02 1.617775000000000185e-01 1.870299999999999940e+01 7.372790000000000532e+01 1.710400000000000091e+03
4.700000000000000011e-02 1.618215000000000070e-01 1.883180000000000121e+01 7.482124999999999204e+01 1.710720000000000027e+03
4.800000000000000100e-02 1.618660000000000099e-01 1.890445000000000064e+01 7.573535000000001105e+01 1.711045000000000073e+03
4.900000000000000189e-02 1.619050000000000211e-01 1.886645000000000039e+01 7.633375000000000909e+01 1.711329999999999927e+03
5.000000000000000278e-02 1.619325000000000070e-01 1.867264999999999731e+01 7.650844999999999629e+01 1.711539999999999964e+03
5.100000000000000366e-02 1.619444999999999912e-01 1.829160000000000252e+01 7.619024999999999181e+01 1.711630000000000109e+03
5.200000000000000455e-02 1.619369999999999976e-01 1.770684999999999931e+01 7.535264999999999702e+01 1.711574999999999818e+03
5.300000000000000544e-02 1.619085000000000107e-01 1.691680000000000206e+01 7.401014999999999588e+01 1.711369999999999891e+03
5.399999999999999939e-02 1.618585000000000163e-01 1.593330000000000091e+01 7.221170000000000755e+01 1.711009999999999991e+03
5.500000000000000028e-02 1.617889999999999884e-01 1.477935000000000088e+01 7.003239999999999554e+01 1.710490000000000009e+03
5.600000000000000117e-02 1.617010000000000114e-01 1.348595000000000077e+01 6.756385000000000218e+01 1.709839999999999918e+03
5.700000000000000205e-02 1.615979999999999916e-01 1.209006499999999917e+01 6.490564999999999429e+01 1.709085000000000036e+03
5.800000000000000294e-02 1.614839999999999887e-01 1.063171999999999962e+01 6.215865000000000151e+01 1.708235000000000127e+03
5.900000000000000383e-02 1.613625000000000198e-01 9.152884999999999494e+00 5.942029999999999745e+01 1.707335000000000036e+03
6.000000000000000472e-02 1.612379999999999924e-01 7.695915000000000283e+00 5.678180000000000405e+01 1.706410000000000082e+03
6.099999999999999867e-02 1.611139999999999795e-01 6.302495000000000402e+00 5.432755000000000223e+01 1.705494999999999891e+03
6.199999999999999956e-02 1.609955000000000136e-01 5.013279999999999959e+00 5.213445000000000107e+01 1.704610000000000127e+03
6.300000000000000044e-02 1.608850000000000002e-01 3.866937000000000069e+00 5.027235000000000298e+01 1.703785000000000082e+03
6.400000000000000133e-02 1.607874999999999999e-01 2.899542499999999912e+00 4.880384999999999707e+01 1.703055000000000064e+03
6.500000000000000222e-02 1.607055000000000011e-01 2.143709750000000192e+00 4.778374999999999773e+01 1.702434999999999945e+03
6.600000000000000311e-02 1.606414999999999926e-01 1.627603549999999899e+00 4.725785000000000480e+01 1.701960000000000036e+03
6.700000000000000400e-02 1.605989999999999918e-01 1.373906000000000072e+00 4.726135000000000019e+01 1.701630000000000109e+03
6.800000000000000488e-02 1.605794999999999861e-01 1.398814999999999920e+00 4.781714999999999804e+01 1.701469999999999800e+03
6.900000000000000577e-02 1.605845000000000189e-01 1.711189999999999767e+00 4.893399999999999750e+01 1.701494999999999891e+03
7.000000000000000666e-02 1.606154999999999944e-01 2.311964999999999826e+00 5.060504999999999853e+01 1.701710000000000036e+03
7.100000000000000755e-02 1.606719999999999815e-01 3.193945000000000256e+00 5.280774999999999864e+01 1.702110000000000127e+03
7.200000000000000844e-02 1.607545000000000224e-01 4.342010000000000147e+00 5.550400000000000489e+01 1.702700000000000045e+03
7.300000000000000933e-02 1.608610000000000040e-01 5.733749999999999680e+00 5.864180000000000348e+01 1.703474999999999909e+03
7.399999999999999634e-02 1.609895000000000076e-01 7.340514999999999901e+00 6.215755000000000052e+01 1.704414999999999964e+03
7.499999999999999722e-02 1.611380000000000035e-01 9.128690000000000637e+00 6.597939999999999827e+01 1.705509999999999991e+03
7.599999999999999811e-02 1.613040000000000029e-01 1.106125499999999917e+01 7.003034999999999854e+01 1.706730000000000018e+03
7.699999999999999900e-02 1.614835000000000020e-01 1.309941499999999870e+01 7.423259999999999081e+01 1.708059999999999945e+03
7.799999999999999989e-02 1.616739999999999844e-01 1.520414999999999850e+01 7.851040000000000418e+01 1.709470000000000027e+03
7.900000000000000078e-02 1.618720000000000159e-01 1.733759999999999835e+01 8.279359999999999786e+01 1.710945000000000164e+03
8.000000000000000167e-02 1.620735000000000092e-01 1.946430000000000149e+01 8.701984999999999104e+01 1.712444999999999936e+03
8.100000000000000255e-02 1.622754999999999892e-01 2.155250000000000199e+01 9.113665000000000305e+01 1.713970000000000027e+03
8.200000000000000344e-02 1.624764999999999959e-01 2.357469999999999999e+01 9.510235000000000127e+01 1.715474999999999909e+03
8.300000000000000433e-02 1.626735000000000264e-01 2.550829999999999842e+01 9.888684999999999548e+01 1.716965000000000146e+03
8.400000000000000522e-02 1.628654999999999964e-01 2.733619999999999806e+01 1.024724999999999966e+02 1.718414999999999964e+03
8.500000000000000611e-02 1.630495000000000139e-01 2.904675000000000296e+01 1.058519500000000022e+02 1.719815000000000055e+03
8.600000000000000699e-02 1.632264999999999966e-01 3.063365000000000293e+01 1.090285000000000082e+02 1.721159999999999854e+03
8.700000000000000788e-02 1.633950000000000125e-01 3.209590000000000032e+01 1.120150000000000006e+02 1.722449999999999818e+03
8.800000000000000877e-02 1.635560000000000069e-01 3.343715000000000259e+01 1.148334999999999866e+02 1.723680000000000064e+03
8.899999999999999578e-02 1.637095000000000078e-01 3.466509999999999536e+01 1.175084999999999980e+02 1.724860000000000127e+03
8.999999999999999667e-02 1.638560000000000016e-01 3.579059999999999775e+01 1.200734999999999957e+02 1.725985000000000127e+03
9.099999999999999756e-02 1.639970000000000039e-01 3.682699999999999818e+01 1.225600000000000023e+02 1.727075000000000045e+03
9.199999999999999845e-02 1.641340000000000021e-01 3.778865000000000407e+01 1.250014999999999930e+02 1.728134999999999991e+03
9.299999999999999933e-02 1.642684999999999840e-01 3.869050000000000011e+01 1.274279999999999973e+02 1.729170000000000073e+03
9.400000000000000022e-02 1.644005000000000050e-01 3.954664999999999964e+01 1.298670000000000186e+02 1.730195000000000164e+03
9.500000000000000111e-02 1.645329999999999848e-01 4.036970000000000169e+01 1.323400000000000034e+02 1.731215000000000146e+03
9.600000000000000200e-02 1.646655000000000202e-01 4.116980000000000217e+01 1.348605000000000018e+02 1.732240000000000009e+03
9.700000000000000289e-02 1.647985000000000144e-01 4.195449999999999591e+01 1.374359999999999786e+02 1.733275000000000091e+03
9.800000000000000377e-02 1.649339999999999973e-01 4.272790000000000532e+01 1.400649999999999977e+02 1.734319999999999936e+03
9.900000000000000466e-02 1.650709999999999955e-01 4.349060000000000059e+01 1.427384999999999877e+02 1.735380000000000109e+03
1.000000000000000056e-01 1.652099999999999957e-01 4.424025000000000318e+01 1.454404999999999859e+02 1.736454999999999927e+03
1.010000000000000064e-01 1.653495000000000104e-01 4.497095000000000198e+01 1.481485000000000127e+02 1.737534999999999854e+03
1.020000000000000073e-01 1.654895000000000116e-01 4.567440000000000566e+01 1.508344999999999914e+02 1.738619999999999891e+03
1.030000000000000082e-01 1.656285000000000118e-01 4.634000000000000341e+01 1.534685000000000059e+02 1.739695000000000164e+03
1.040000000000000091e-01 1.657655000000000101e-01 4.695579999999999643e+01 1.560174999999999841e+02 1.740759999999999991e+03
1.050000000000000100e-01 1.658989999999999909e-01 4.750874999999999915e+01 1.584474999999999909e+02 1.741795000000000073e+03
1.059999999999999970e-01 1.660270000000000079e-01 4.798574999999999591e+01 1.607264999999999873e+02 1.742799999999999955e+03
1.069999999999999979e-01 1.661495000000000055e-01 4.837420000000000186e+01 1.628260000000000218e+02 1.743750000000000000e+03
1.079999999999999988e-01 1.662639999999999951e-01 4.866254999999999598e+01 1.647185000000000059e+02 1.744644999999999982e+03
1.089999999999999997e-01 1.663695000000000035e-01 4.884069999999999823e+01 1.663829999999999814e+02 1.745465000000000146e+03
1.100000000000000006e-01 1.664650000000000019e-01 4.890075000000000216e+01 1.678040000000000020e+02 1.746220000000000027e+03
1.110000000000000014e-01 1.665490000000000026e-01 4.883695000000000164e+01 1.689689999999999941e+02 1.746880000000000109e+03
1.120000000000000023e-01 1.666214999999999780e-01 4.864610000000000412e+01 1.698739999999999952e+02 1.747454999999999927e+03
1.130000000000000032e-01 1.666825000000000112e-01 4.832765000000000555e+01 1.705190000000000055e+02 1.747934999999999945e+03
1.140000000000000041e-01 1.667305000000000037e-01 4.788380000000000081e+01 1.709100000000000250e+02 1.748319999999999936e+03
1.150000000000000050e-01 1.667669999999999986e-01 4.731924999999999670e+01 1.710585000000000093e+02 1.748615000000000009e+03
1.160000000000000059e-01 1.667914999999999814e-01 4.664130000000000109e+01 1.709800000000000182e+02 1.748815000000000055e+03
1.170000000000000068e-01 1.668040000000000078e-01 4.585920000000000130e+01 1.706940000000000168e+02 1.748924999999999955e+03
1.180000000000000077e-01 1.668064999999999964e-01 4.498440000000000083e+01 1.702230000000000132e+02 1.748950000000000045e+03
1.190000000000000085e-01 1.667985000000000162e-01 4.402974999999999994e+01 1.695935000000000059e+02 1.748900000000000091e+03
1.200000000000000094e-01 1.667825000000000002e-01 4.300910000000000366e+01 1.688315000000000055e+02 1.748784999999999854e+03
1.209999999999999964e-01 1.667585000000000039e-01 4.193730000000000047e+01 1.679644999999999868e+02 1.748610000000000127e+03
1.219999999999999973e-01 1.667285000000000017e-01 4.082920000000000016e+01 1.670210000000000150e+02 1.748380000000000109e+03
1.229999999999999982e-01 1.666929999999999801e-01 3.969969999999999999e+01 1.660279999999999916e+02 1.748109999999999900e+03
1.239999999999999991e-01 1.666535000000000100e-01 3.856279999999999575e+01 1.650090000000000146e+02 1.747809999999999945e+03
1.250000000000000000e-01 1.666110000000000091e-01 3.743179999999999552e+01 1.639875000000000114e+02 1.747484999999999900e+03
1.260000000000000009e-01 1.665675000000000072e-01 3.631844999999999857e+01 1.629830000000000041e+02 1.747144999999999982e+03
1.270000000000000018e-01 1.665229999999999766e-01 3.523295000000000243e+01 1.620109999999999957e+02 1.746800000000000182e+03
1.280000000000000027e-01 1.664785000000000015e-01 3.418354999999999677e+01 1.610850000000000080e+02 1.746454999999999927e+03
1.290000000000000036e-01 1.664349999999999996e-01 3.317669999999999675e+01 1.602115000000000009e+02 1.746115000000000009e+03
1.300000000000000044e-01 1.663924999999999987e-01 3.221644999999999470e+01 1.593965000000000032e+02 1.745780000000000200e+03
1.310000000000000053e-01 1.663519999999999999e-01 3.130505000000000138e+01 1.586390000000000100e+02 1.745464999999999918e+03
1.320000000000000062e-01 1.663135000000000030e-01 3.044260000000000232e+01 1.579360000000000070e+02 1.745159999999999854e+03
1.330000000000000071e-01 1.662770000000000081e-01 2.962740000000000151e+01 1.572814999999999941e+02 1.744869999999999891e+03
1.340000000000000080e-01 1.662425000000000153e-01 2.885604999999999976e+01 1.566655000000000086e+02 1.744599999999999909e+03
1.350000000000000089e-01 1.662089999999999956e-01 2.812375000000000114e+01 1.560774999999999864e+02 1.744335000000000036e+03
1.360000000000000098e-01 1.661769999999999914e-01 2.742454999999999998e+01 1.555034999999999741e+02 1.744085000000000036e+03
1.370000000000000107e-01 1.661455000000000015e-01 2.675169999999999959e+01 1.549300000000000068e+02 1.743835000000000036e+03
1.380000000000000115e-01 1.661144999999999983e-01 2.609805000000000064e+01 1.543420000000000130e+02 1.743590000000000146e+03
1.390000000000000124e-01 1.660834999999999950e-01 2.545599999999999952e+01 1.537250000000000227e+02 1.743345000000000027e+03
1.400000000000000133e-01 1.660510000000000042e-01 2.481830000000000069e+01 1.530670000000000073e+02 1.743085000000000036e+03
1.410000000000000142e-01 1.660165000000000113e-01 2.417804999999999893e+01 1.523555000000000064e+02 1.742815000000000055e+03
1.420000000000000151e-01 1.659805000000000030e-01 2.352909999999999968e+01 1.515799999999999841e+02 1.742534999999999854e+03
1.430000000000000160e-01 1.659410000000000052e-01 2.286609999999999943e+01 1.507330000000000041e+02 1.742230000000000018e+03
1.440000000000000169e-01 1.658995000000000053e-01 2.218489999999999895e+01 1.498095000000000141e+02 1.741905000000000200e+03
1.450000000000000178e-01 1.658545000000000158e-01 2.148260000000000147e+01 1.488064999999999998e+02 1.741549999999999955e+03
1.459999999999999909e-01 1.658060000000000089e-01 2.075784999999999769e+01 1.477255000000000109e+02 1.741180000000000064e+03
1.469999999999999918e-01 1.657534999999999981e-01 2.001044999999999874e+01 1.465685000000000002e+02 1.740775000000000091e+03
1.479999999999999927e-01 1.656980000000000119e-01 1.924194999999999922e+01 1.453425000000000011e+02 1.740340000000000146e+03
1.489999999999999936e-01 1.656385000000000218e-01 1.845509999999999806e+01 1.440559999999999832e+02 1.739884999999999991e+03
1.499999999999999944e-01 1.655765000000000153e-01 1.765405000000000157e+01 1.427199999999999989e+02 1.739404999999999973e+03
1.509999999999999953e-01 1.655115000000000058e-01 1.684410000000000096e+01 1.413480000000000132e+02 1.738904999999999973e+03
1.519999999999999962e-01 1.654450000000000087e-01 1.603160000000000096e+01 1.399540000000000077e+02 1.738389999999999873e+03
1.529999999999999971e-01 1.653769999999999962e-01 1.522360000000000113e+01 1.385554999999999950e+02 1.737869999999999891e+03
1.539999999999999980e-01 1.653080000000000105e-01 1.442764999999999986e+01 1.371680000000000064e+02 1.737335000000000036e+03
1.549999999999999989e-01 1.652389999999999970e-01 1.365165000000000006e+01 1.358079999999999927e+02 1.736799999999999955e+03
1.559999999999999998e-01 1.651704999999999979e-01 1.290344999999999942e+01 1.344925000000000068e+02 1.736279999999999973e+03
1.570000000000000007e-01 1.651040000000000008e-01 1.219052999999999898e+01 1.332364999999999782e+02 1.735759999999999991e+03
1.580000000000000016e-01 1.650395000000000056e-01 1.151996000000000109e+01 1.320534999999999854e+02 1.735259999999999991e+03
1.590000000000000024e-01 1.649774999999999991e-01 1.089802500000000052e+01 1.309555000000000007e+02 1.734785000000000082e+03
