# t [s], A [cm^2], U [cm/s], P [cPa], c [cm/s]
1.000000000000000021e-03 5.428840000000000332e-01 5.281400000000005535e-03 9.977915000000000134e+01 1.597744999999999891e+03
2.000000000000000042e-03 5.428745000000000376e-01 -1.924351799999999982e-03 9.975034999999999741e+01 1.597739999999999782e+03
3.000000000000000062e-03 5.429239999999999622e-01 9.898565000000000835e-02 9.985575000000000045e+01 1.597769999999999982e+03
4.000000000000000083e-03 5.429665000000000186e-01 1.973359000000000085e-01 9.997429999999999950e+01 1.597795000000000073e+03
5.000000000000000104e-03 5.429395000000000193e-01 1.661846999999999908e-01 9.990494999999999948e+01 1.597785000000000082e+03
6.000000000000000125e-03 5.428764999999999841e-01 5.671400000000004216e-02 9.966415000000000646e+01 1.597724999999999909e+03
7.000000000000000146e-03 5.428204999999999281e-01 -4.762750000000004480e-02 9.935909999999999798e+01 1.597644999999999982e+03
8.000000000000000167e-03 5.427330000000000210e-01 -2.301300000000000567e-01 9.890825000000000955e+01 1.597534999999999854e+03
9.000000000000001055e-03 5.425884999999999181e-01 -5.448850000000000637e-01 9.821930000000000405e+01 1.597359999999999900e+03
1.000000000000000194e-02 5.423894999999999689e-01 -9.846750000000000780e-01 9.725970000000000937e+01 1.597119999999999891e+03
1.099999999999999936e-02 5.421179999999999888e-01 -1.569209999999999994e+00 9.596639999999999304e+01 1.596784999999999854e+03
1.200000000000000025e-02 5.417610000000000481e-01 -2.309074999999999989e+00 9.427955000000000041e+01 1.596345000000000027e+03
1.300000000000000114e-02 5.413434999999999775e-01 -3.125625000000000320e+00 9.225140000000000384e+01 1.595799999999999955e+03
1.400000000000000203e-02 5.409300000000000219e-01 -3.854279999999999706e+00 9.007675000000000409e+01 1.595194999999999936e+03
1.499999999999999944e-02 5.405815000000000481e-01 -4.327472499999999833e+00 8.800329999999999586e+01 1.594595000000000027e+03
1.600000000000000033e-02 5.403274999999999606e-01 -4.452666999999999931e+00 8.621690000000000964e+01 1.594050000000000182e+03
1.700000000000000122e-02 5.401549999999999407e-01 -4.237186999999999593e+00 8.477690000000001191e+01 1.593565000000000055e+03
1.800000000000000211e-02 5.400245000000000184e-01 -3.766630000000000145e+00 8.361670000000000869e+01 1.593150000000000091e+03
1.900000000000000300e-02 5.398855000000000182e-01 -3.161208500000000310e+00 8.258825000000000216e+01 1.592765000000000100e+03
2.000000000000000042e-02 5.397009999999999863e-01 -2.529786969999999968e+00 8.152629999999999200e+01 1.592380000000000109e+03
2.100000000000000130e-02 5.394520000000000426e-01 -1.935554999999999914e+00 8.030895000000001005e+01 1.591960000000000036e+03
2.200000000000000219e-02 5.391475000000000017e-01 -1.383874999999999966e+00 7.889390000000000214e+01 1.591494999999999891e+03
2.299999999999999961e-02 5.388120000000000687e-01 -8.354450000000002152e-01 7.731915000000000759e+01 1.590985000000000127e+03
2.400000000000000050e-02 5.384735000000000493e-01 -2.364699999999997360e-01 7.567090000000000316e+01 1.590454999999999927e+03
2.500000000000000139e-02 5.381534999999999513e-01 4.493500000000003602e-01 7.403745000000000687e+01 1.589924999999999955e+03
2.600000000000000228e-02 5.378555000000000419e-01 1.219789999999999930e+00 7.246985000000000809e+01 1.589400000000000091e+03
2.700000000000000316e-02 5.375670000000000170e-01 2.028774999999999995e+00 7.095980000000000132e+01 1.588889999999999873e+03
2.800000000000000058e-02 5.372624999999999762e-01 2.795244999999999980e+00 6.943930000000000291e+01 1.588380000000000109e+03
2.900000000000000147e-02 5.369104999999999572e-01 3.421644999999999825e+00 6.779784999999999684e+01 1.587845000000000027e+03
3.000000000000000236e-02 5.364845000000000308e-01 3.817050000000000054e+00 6.591264999999999930e+01 1.587250000000000000e+03
3.099999999999999978e-02 5.359669999999999712e-01 3.919559999999999711e+00 6.368354999999999677e+01 1.586575000000000045e+03
3.200000000000000067e-02 5.353594999999999882e-01 3.712150000000000283e+00 6.106480000000000530e+01 1.585799999999999955e+03
3.300000000000000155e-02 5.346794999999999742e-01 3.227060000000000262e+00 5.808265000000000100e+01 1.584930000000000064e+03
3.400000000000000244e-02 5.339599999999999902e-01 2.538285000000000124e+00 5.483539999999999992e+01 1.583994999999999891e+03
3.500000000000000333e-02 5.332409999999999650e-01 1.744399999999999729e+00 5.147605000000000075e+01 1.583009999999999991e+03
3.600000000000000422e-02 5.325625000000000497e-01 9.492799999999999017e-01 4.818540000000000134e+01 1.582034999999999854e+03
3.700000000000000511e-02 5.319599999999999884e-01 2.456599999999999895e-01 4.514359999999999928e+01 1.581114999999999782e+03
3.799999999999999906e-02 5.314585000000000559e-01 -2.955000000000000959e-01 4.250719999999999743e+01 1.580289999999999964e+03
3.899999999999999994e-02 5.310734999999999761e-01 -6.286950000000000038e-01 4.039379999999999882e+01 1.579594999999999800e+03
4.000000000000000083e-02 5.308110000000000328e-01 -7.322399999999997799e-01 3.887650000000000006e+01 1.579055000000000064e+03
4.100000000000000172e-02 5.306710000000000038e-01 -6.028850000000001153e-01 3.798550000000000182e+01 1.578694999999999936e+03
4.200000000000000261e-02 5.306469999999999798e-01 -2.487174999999999248e-01 3.771634999999999849e+01 1.578514999999999873e+03
4.300000000000000350e-02 5.307315000000000227e-01 3.178169999999999606e-01 3.804054999999999609e+01 1.578505000000000109e+03
4.400000000000000439e-02 5.309170000000000833e-01 1.085005000000000219e+00 3.891734999999999900e+01 1.578664999999999964e+03
4.499999999999999833e-02 5.311954999999999316e-01 2.044285000000000352e+00 4.030219999999999914e+01 1.578985000000000127e+03
4.599999999999999922e-02 5.315615000000000201e-01 3.189759999999999707e+00 4.215184999999999604e+01 1.579449999999999818e+03
4.700000000000000011e-02 5.320084999999999953e-01 4.515520000000000422e+00 4.442520000000000380e+01 1.580049999999999955e+03
4.800000000000000100e-02 5.325299999999999478e-01 6.012245000000000061e+00 4.708070000000000022e+01 1.580769999999999982e+03
4.900000000000000189e-02 5.331175000000000219e-01 7.664076500000000181e+00 5.007359999999999900e+01 1.581599999999999909e+03
5.000000000000000278e-02 5.337589999999999835e-01 9.447400000000000020e+00 5.335255000000000081e+01 1.582525000000000091e+03
5.100000000000000366e-02 5.344430000000000014e-01 1.133072499999999927e+01 5.685869999999999891e+01 1.583534999999999854e+03
5.200000000000000455e-02 5.351539999999999075e-01 1.327684499999999979e+01 6.052665000000000362e+01 1.584599999999999909e+03
5.300000000000000544e-02 5.358780000000000765e-01 1.524574499999999944e+01 6.428764999999999930e+01 1.585710000000000036e+03
5.399999999999999939e-02 5.366014999999999535e-01 1.719790499999999867e+01 6.807339999999999236e+01 1.586835000000000036e+03
5.500000000000000028e-02 5.373124999999999707e-01 1.909750000000000014e+01 7.182115000000000293e+01 1.587970000000000027e+03
5.600000000000000117e-02 5.380015000000000214e-01 2.091495000000000104e+01 7.547780000000000200e+01 1.589095000000000027e+03
5.700000000000000205e-02 5.386630000000000029e-01 2.262819999999999965e+01 7.900290000000001100e+01 1.590190000000000055e+03
5.800000000000000294e-02 5.392939999999999401e-01 2.422344999999999970e+01 8.237054999999999438e+01 1.591244999999999891e+03
5.900000000000000383e-02 5.398929999999999563e-01 2.569440000000000168e+01 8.556940000000000168e+01 1.592264999999999873e+03
6.000000000000000472e-02 5.404634999999999856e-01 2.704149999999999920e+01 8.860130000000000905e+01 1.593244999999999891e+03
6.099999999999999867e-02 5.410085000000000033e-01 2.827029999999999887e+01 9.147935000000001082e+01 1.594179999999999836e+03
6.199999999999999956e-02 5.415324999999999722e-01 2.939044999999999774e+01 9.422565000000000168e+01 1.595074999999999818e+03
6.300000000000000044e-02 5.420415000000000649e-01 3.041399999999999793e+01 9.686725000000001273e+01 1.595940000000000055e+03
6.400000000000000133e-02 5.425424999999999276e-01 3.135464999999999947e+01 9.943489999999999895e+01 1.596785000000000082e+03
6.500000000000000222e-02 5.430390000000000494e-01 3.222650000000000148e+01 1.019596999999999980e+02 1.597615000000000009e+03
6.600000000000000311e-02 5.435380000000000766e-01 3.304334999999999667e+01 1.044711499999999944e+02 1.598434999999999945e+03
6.700000000000000400e-02 5.440424999999999844e-01 3.381759999999999877e+01 1.069950000000000045e+02 1.599250000000000000e+03
6.800000000000000488e-02 5.445564999999999989e-01 3.455965000000000487e+01 1.095504999999999995e+02 1.600079999999999927e+03
6.900000000000000577e-02 5.450810000000000377e-01 3.527655000000000030e+01 1.121500000000000057e+02 1.600914999999999964e+03
7.000000000000000666e-02 5.456159999999999899e-01 3.597214999999999918e+01 1.147980000000000018e+02 1.601764999999999873e+03
7.100000000000000755e-02 5.461599999999999788e-01 3.664600000000000080e+01 1.174885000000000019e+02 1.602625000000000000e+03
7.200000000000000844e-02 5.467079999999999718e-01 3.729395000000000238e+01 1.202085000000000008e+02 1.603494999999999891e+03
7.300000000000000933e-02 5.472559999999999647e-01 3.790820000000000078e+01 1.229344999999999999e+02 1.604365000000000009e+03
7.399999999999999634e-02 5.477980000000000071e-01 3.847800000000000153e+01 1.256370000000000005e+02 1.605230000000000018e+03
7.499999999999999722e-02 5.483255000000000212e-01 3.899075000000000557e+01 1.282829999999999870e+02 1.606085000000000036e+03
7.599999999999999811e-02 5.488314999999999166e-01 3.943290000000000362e+01 1.308360000000000127e+02 1.606914999999999964e+03
7.699999999999999900e-02 5.493099999999999650e-01 3.979129999999999967e+01 1.332584999999999980e+02 1.607699999999999818e+03
7.799999999999999989e-02 5.497545000000000348e-01 4.005379999999999541e+01 1.355175000000000125e+02 1.608449999999999818e+03
7.900000000000000078e-02 5.501584999999999948e-01 4.021025000000000205e+01 1.375825000000000102e+02 1.609144999999999982e+03
8.000000000000000167e-02 5.505195000000000505e-01 4.025315000000000509e+01 1.394290000000000020e+02 1.609775000000000091e+03
8.100000000000000255e-02 5.508334999999999759e-01 4.017784999999999940e+01 1.410395000000000039e+02 1.610335000000000036e+03
8.200000000000000344e-02 5.510999999999999233e-01 3.998310000000000031e+01 1.424045000000000130e+02 1.610820000000000164e+03
8.300000000000000433e-02 5.513185000000000446e-01 3.967074999999999818e+01 1.435199999999999818e+02 1.611235000000000127e+03
8.400000000000000522e-02 5.514909999999999535e-01 3.924580000000000268e+01 1.443924999999999841e+02 1.611574999999999818e+03
8.500000000000000611e-02 5.516190000000000815e-01 3.871609999999999729e+01 1.450324999999999989e+02 1.611835000000000036e+03
8.600000000000000699e-02 5.517075000000000173e-01 3.809210000000000207e+01 1.454575000000000102e+02 1.612030000000000200e+03
8.700000000000000788e-02 5.517600000000000282e-01 3.738635000000000019e+01 1.456899999999999977e+02 1.612164999999999964e+03
8.800000000000000877e-02 5.517819999999999947e-01 3.661299999999999955e+01 1.457554999999999836e+02 1.612240000000000009e+03
8.899999999999999578e-02 5.517790000000000195e-01 3.578730000000000189e+01 1.456820000000000164e+02 1.612264999999999873e+03
8.999999999999999667e-02 5.517569999999999419e-01 3.492510000000000048e+01 1.455004999999999882e+02 1.612259999999999991e+03
9.099999999999999756e-02 5.517214999999999758e-01 3.404200000000000159e+01 1.452389999999999759e+02 1.612214999999999918e+03
9.199999999999999845e-02 5.516765000000000141e-01 3.315309999999999491e+01 1.449275000000000091e+02 1.612144999999999982e+03
9.299999999999999933e-02 5.516284999999999661e-01 3.227215000000000344e+01 1.445905000000000200e+02 1.612065000000000055e+03
9.400000000000000022e-02 5.515805000000000291e-01 3.141114999999999924e+01 1.442515000000000214e+02 1.611980000000000018e+03
9.500000000000000111e-02 5.515360000000000262e-01 3.057995000000000374e+01 1.439290000000000020e+02 1.611894999999999982e+03
9.600000000000000200e-02 5.514965000000000561e-01 2.978575000000000017e+01 1.436365000000000123e+02 1.611805000000000064e+03
9.700000000000000289e-02 5.514645000000000241e-01 2.903330000000000055e+01 1.433834999999999980e+02 1.611724999999999909e+03
9.800000000000000377e-02 5.514394999999999714e-01 2.832430000000000092e+01 1.431725000000000136e+02 1.611659999999999854e+03
9.900000000000000466e-02 5.514210000000000500e-01 2.765800000000000125e+01 1.430024999999999977e+02 1.611599999999999909e+03
1.000000000000000056e-01 5.514075000000000504e-01 2.703134999999999977e+01 1.428685000000000116e+02 1.611549999999999955e+03
1.010000000000000064e-01 5.513969999999999150e-01 2.643905000000000172e+01 1.427599999999999909e+02 1.611509999999999991e+03
1.020000000000000073e-01 5.513870000000000715e-01 2.587420000000000186e+01 1.426639999999999873e+02 1.611470000000000027e+03
1.030000000000000082e-01 5.513734999999999609e-01 2.532870000000000132e+01 1.425649999999999977e+02 1.611430000000000064e+03
1.040000000000000091e-01 5.513540000000000108e-01 2.479379999999999740e+01 1.424474999999999909e+02 1.611389999999999873e+03
1.050000000000000100e-01 5.513255000000000239e-01 2.426035000000000252e+01 1.422940000000000111e+02 1.611340000000000146e+03
1.059999999999999970e-01 5.512844999999999551e-01 2.371974999999999767e+01 1.420885000000000105e+02 1.611269999999999982e+03
1.069999999999999979e-01 5.512295000000000389e-01 2.316385000000000005e+01 1.418165000000000191e+02 1.611190000000000055e+03
1.079999999999999988e-01 5.511570000000000080e-01 2.258579999999999899e+01 1.414660000000000082e+02 1.611085000000000036e+03
1.089999999999999997e-01 5.510665000000000147e-01 2.198029999999999973e+01 1.410275000000000034e+02 1.610954999999999927e+03
1.100000000000000006e-01 5.509569999999999190e-01 2.134365000000000023e+01 1.404950000000000045e+02 1.610800000000000182e+03
1.110000000000000014e-01 5.508279999999999843e-01 2.067435000000000045e+01 1.398665000000000020e+02 1.610615000000000009e+03
1.120000000000000023e-01 5.506815000000000460e-01 1.997299999999999898e+01 1.391449999999999818e+02 1.610404999999999973e+03
1.130000000000000032e-01 5.505174999999999930e-01 1.924235000000000184e+01 1.383360000000000127e+02 1.610164999999999964e+03
1.140000000000000041e-01 5.503400000000000514e-01 1.848704999999999998e+01 1.374495000000000005e+02 1.609905000000000200e+03
1.150000000000000050e-01 5.501515000000000155e-01 1.771395000000000053e+01 1.364995000000000118e+02 1.609619999999999891e+03
1.160000000000000059e-01 5.499549999999999716e-01 1.693130000000000024e+01 1.355035000000000025e+02 1.609325000000000045e+03
1.170000000000000068e-01 5.497544999999999238e-01 1.614849999999999852e+01 1.344784999999999968e+02 1.609009999999999991e+03
1.180000000000000077e-01 5.495539999999999869e-01 1.537594999999999956e+01 1.334465000000000146e+02 1.608694999999999936e+03
1.190000000000000085e-01 5.493580000000000130e-01 1.462427999999999884e+01 1.324279999999999973e+02 1.608380000000000109e+03
1.200000000000000094e-01 5.491699999999999360e-01 1.390408500000000025e+01 1.314440000000000168e+02 1.608070000000000164e+03
1.209999999999999964e-01 5.489945000000000519e-01 1.322534500000000079e+01 1.305134999999999934e+02 1.607769999999999982e+03
1.219999999999999973e-01 5.488340000000000440e-01 1.259694500000000161e+01 1.296539999999999964e+02 1.607494999999999891e+03
1.229999999999999982e-01 5.486910000000000398e-01 1.202650500000000022e+01 1.288810000000000002e+02 1.607240000000000009e+03
1.239999999999999991e-01 5.485674999999999857e-01 1.151978499999999883e+01 1.282050000000000125e+02 1.607014999999999873e+03
1.250000000000000000e-01 5.484645000000000215e-01 1.108082499999999904e+01 1.276345000000000027e+02 1.606809999999999945e+03
1.260000000000000009e-01 5.483829999999999538e-01 1.071144499999999944e+01 1.271725000000000136e+02 1.606644999999999982e+03
1.270000000000000018e-01 5.483219999999999761e-01 1.041152499999999925e+01 1.268195000000000050e+02 1.606509999999999991e+03
1.280000000000000027e-01 5.482804999999999485e-01 1.017907500000000098e+01 1.265709999999999980e+02 1.606405000000000200e+03
1.290000000000000036e-01 5.482574999999999532e-01 1.001020499999999913e+01 1.264205000000000041e+02 1.606329999999999927e+03
1.300000000000000044e-01 5.482500000000000151e-01 9.899580000000000268e+00 1.263575000000000017e+02 1.606285000000000082e+03
1.310000000000000053e-01 5.482559999999999656e-01 9.840669999999999362e+00 1.263700000000000045e+02 1.606259999999999991e+03
1.320000000000000062e-01 5.482724999999999405e-01 9.826119999999999521e+00 1.264440000000000026e+02 1.606259999999999991e+03
1.330000000000000071e-01 5.482964999999999645e-01 9.847954999999998904e+00 1.265655000000000001e+02 1.606275000000000091e+03
1.340000000000000080e-01 5.483255000000000212e-01 9.898105000000001041e+00 1.267194999999999965e+02 1.606305000000000064e+03
1.350000000000000089e-01 5.483569999999999833e-01 9.968540000000000845e+00 1.268919999999999959e+02 1.606345000000000027e+03
1.360000000000000098e-01 5.483884999999999454e-01 1.005166499999999985e+01 1.270705000000000098e+02 1.606384999999999991e+03
1.370000000000000107e-01 5.484180000000000721e-01 1.014058999999999955e+01 1.272429999999999950e+02 1.606430000000000064e+03
1.380000000000000115e-01 5.484434999999999727e-01 1.022915000000000063e+01 1.274009999999999962e+02 1.606470000000000027e+03
1.390000000000000124e-01 5.484645000000000215e-01 1.031213500000000138e+01 1.275360000000000014e+02 1.606509999999999991e+03
1.400000000000000133e-01 5.484799999999999676e-01 1.038538499999999942e+01 1.276424999999999983e+02 1.606539999999999964e+03
1.410000000000000142e-01 5.484890000000000043e-01 1.044567999999999941e+01 1.277180000000000035e+02 1.606559999999999945e+03
1.420000000000000151e-01 5.484919999999999796e-01 1.049094499999999996e+01 1.277605000000000075e+02 1.606579999999999927e+03
1.430000000000000160e-01 5.484890000000000043e-01 1.052008999999999972e+01 1.277715000000000032e+02 1.606585000000000036e+03
1.440000000000000169e-01 5.484805000000000375e-01 1.053289499999999990e+01 1.277519999999999953e+02 1.606585000000000036e+03
1.450000000000000178e-01 5.484674999999999967e-01 1.053007500000000007e+01 1.277065000000000055e+02 1.606570000000000164e+03
1.459999999999999909e-01 5.484510000000000218e-01 1.051303000000000054e+01 1.276384999999999934e+02 1.606555000000000064e+03
1.469999999999999918e-01 5.484320000000000306e-01 1.048366000000000042e+01 1.275545000000000044e+02 1.606534999999999854e+03
1.479999999999999927e-01 5.484109999999999818e-01 1.044447500000000062e+01 1.274594999999999914e+02 1.606509999999999991e+03
1.489999999999999936e-01 5.483905000000000030e-01 1.039813000000000009e+01 1.273594999999999970e+02 1.606485000000000127e+03
1.499999999999999944e-01 5.483704999999999830e-01 1.034750499999999995e+01 1.272609999999999957e+02 1.606454999999999927e+03
1.509999999999999953e-01 5.483525000000000205e-01 1.029550499999999857e+01 1.271684999999999945e+02 1.606430000000000064e+03
1.519999999999999962e-01 5.483370000000000744e-01 1.024476500000000101e+01 1.270875000000000057e+02 1.606404999999999973e+03
1.529999999999999971e-01 5.483255000000000212e-01 1.019771500000000053e+01 1.270225000000000080e+02 1.606384999999999991e+03
1.539999999999999980e-01 5.483180000000000831e-01 1.015641000000000105e+01 1.269755000000000109e+02 1.606369999999999891e+03
1.549999999999999989e-01 5.483139999999999681e-01 1.012228499999999976e+01 1.269489999999999981e+02 1.606359999999999900e+03
1.559999999999999998e-01 5.483149999999999968e-01 1.009636000000000067e+01 1.269429999999999978e+02 1.606355000000000018e+03
1.570000000000000007e-01 5.483195000000000707e-01 1.007898499999999942e+01 1.269585000000000008e+02 1.606360000000000127e+03
1.580000000000000016e-01 5.483284999999999965e-01 1.007005499999999998e+01 1.269929999999999950e+02 1.606365000000000009e+03
1.590000000000000024e-01 5.483394999999999797e-01 1.006889500000000126e+01 1.270439999999999969e+02 1.606380000000000109e+03
