# t [s], A [cm^2], U [cm/s], P [cPa], c [cm/s]
1.000000000000000021e-03 1.931114999999999915e-01 4.436160999999999577e-01 9.676990000000000691e+01 2.061550000000000182e+03
2.000000000000000042e-03 1.930469999999999964e-01 2.160274999999999945e+00 9.297679999999999723e+01 2.061050000000000182e+03
3.000000000000000062e-03 1.928850000000000009e-01 4.226919500000000163e+00 8.787884999999999991e+01 2.059855000000000018e+03
4.000000000000000083e-03 1.926724999999999965e-01 6.536654500000000034e+00 8.265430000000000632e+01 2.058305000000000291e+03
5.000000000000000104e-03 1.924529999999999852e-01 8.982874999999999943e+00 7.826560000000000628e+01 2.056715000000000146e+03
6.000000000000000125e-03 1.922449999999999992e-01 1.131450500000000048e+01 7.478544999999999732e+01 2.055225000000000364e+03
7.000000000000000146e-03 1.920529999999999737e-01 1.330728000000000044e+01 7.177504999999999313e+01 2.053885000000000218e+03
8.000000000000000167e-03 1.918799999999999950e-01 1.494490000000000052e+01 6.908079999999999643e+01 2.052689999999999600e+03
9.000000000000001055e-03 1.917325000000000002e-01 1.629299999999999926e+01 6.683619999999999095e+01 2.051684999999999945e+03
1.000000000000000194e-02 1.916105000000000169e-01 1.737804999999999822e+01 6.506515000000000271e+01 2.050864999999999782e+03
1.099999999999999936e-02 1.915129999999999888e-01 1.821929999999999694e+01 6.370005000000000450e+01 2.050220000000000255e+03
1.200000000000000025e-02 1.914365000000000094e-01 1.883664999999999878e+01 6.266389999999999816e+01 2.049724999999999909e+03
1.300000000000000114e-02 1.913765000000000049e-01 1.923695000000000022e+01 6.183299999999999841e+01 2.049340000000000146e+03
1.400000000000000203e-02 1.913274999999999837e-01 1.945955000000000013e+01 6.112390000000000612e+01 2.049034999999999854e+03
1.499999999999999944e-02 1.912924999999999764e-01 1.963139999999999930e+01 6.068975000000000364e+01 2.048819999999999709e+03
1.600000000000000033e-02 1.912805000000000200e-01 1.993965000000000032e+01 6.094044999999999845e+01 2.048755000000000109e+03
1.700000000000000122e-02 1.913044999999999884e-01 2.052700000000000102e+01 6.228564999999999685e+01 2.048924999999999727e+03
1.800000000000000211e-02 1.913710000000000133e-01 2.139719999999999800e+01 6.480665000000000475e+01 2.049380000000000109e+03
1.900000000000000300e-02 1.914730000000000043e-01 2.239869999999999806e+01 6.810875000000000057e+01 2.050070000000000164e+03
2.000000000000000042e-02 1.915915000000000257e-01 2.328855000000000075e+01 7.144020000000000437e+01 2.050880000000000109e+03
2.100000000000000130e-02 1.917014999999999969e-01 2.383404999999999774e+01 7.398705000000001064e+01 2.051639999999999873e+03
2.200000000000000219e-02 1.917794999999999916e-01 2.390044999999999931e+01 7.518259999999999366e+01 2.052204999999999927e+03
2.299999999999999961e-02 1.918140000000000123e-01 2.349125000000000085e+01 7.489605000000000246e+01 2.052469999999999800e+03
2.400000000000000050e-02 1.918044999999999889e-01 2.272975000000000279e+01 7.343319999999999936e+01 2.052434999999999945e+03
2.500000000000000139e-02 1.917635000000000034e-01 2.179800000000000182e+01 7.137014999999999532e+01 2.052175000000000182e+03
2.600000000000000228e-02 1.917065000000000019e-01 2.086339999999999861e+01 6.930819999999999936e+01 2.051795000000000073e+03
2.700000000000000316e-02 1.916499999999999870e-01 2.002479999999999905e+01 6.766165000000000873e+01 2.051409999999999854e+03
2.800000000000000058e-02 1.916019999999999945e-01 1.929574999999999818e+01 6.655450000000000443e+01 2.051085000000000036e+03
2.900000000000000147e-02 1.915654999999999997e-01 1.862209999999999965e+01 6.584444999999999482e+01 2.050824999999999818e+03
3.000000000000000236e-02 1.915344999999999964e-01 1.792215000000000202e+01 6.523914999999999509e+01 2.050614999999999782e+03
3.099999999999999978e-02 1.915014999999999912e-01 1.713064999999999927e+01 6.444785000000000252e+01 2.050390000000000327e+03
3.200000000000000067e-02 1.914605000000000057e-01 1.623215000000000074e+01 6.331260000000000332e+01 2.050114999999999782e+03
3.300000000000000155e-02 1.914099999999999968e-01 1.527445000000000164e+01 6.187890000000000157e+01 2.049780000000000200e+03
3.400000000000000244e-02 1.913539999999999963e-01 1.435849999999999937e+01 6.038864999999999839e+01 2.049394999999999982e+03
3.500000000000000333e-02 1.913019999999999998e-01 1.360930000000000106e+01 5.920215000000000316e+01 2.049039999999999964e+03
3.600000000000000422e-02 1.912659999999999916e-01 1.313729999999999976e+01 5.867790000000000106e+01 2.048784999999999854e+03
3.700000000000000511e-02 1.912554999999999950e-01 1.300479999999999947e+01 5.905355000000000132e+01 2.048699999999999818e+03
3.799999999999999906e-02 1.912770000000000026e-01 1.320625000000000071e+01 6.036615000000000464e+01 2.048824999999999818e+03
3.899999999999999994e-02 1.913285000000000124e-01 1.366740000000000066e+01 6.243280000000000030e+01 2.049159999999999854e+03
4.000000000000000083e-02 1.914020000000000166e-01 1.426180000000000092e+01 6.489114999999999611e+01 2.049644999999999982e+03
4.100000000000000172e-02 1.914854999999999752e-01 1.483685000000000009e+01 6.728110000000000923e+01 2.050204999999999927e+03
4.200000000000000261e-02 1.915629999999999833e-01 1.524269999999999925e+01 6.914039999999999964e+01 2.050735000000000127e+03
4.300000000000000350e-02 1.916204999999999992e-01 1.535670000000000002e+01 7.009024999999999750e+01 2.051130000000000109e+03
4.400000000000000439e-02 1.916455000000000242e-01 1.509815000000000040e+01 6.989215000000000089e+01 2.051309999999999945e+03
4.499999999999999833e-02 1.916295000000000082e-01 1.443480000000000096e+01 6.846854999999999336e+01 2.051220000000000255e+03
4.599999999999999922e-02 1.915715000000000057e-01 1.337829999999999941e+01 6.589144999999999186e+01 2.050835000000000036e+03
4.700000000000000011e-02 1.914724999999999899e-01 1.197541999999999973e+01 6.234620000000000317e+01 2.050179999999999836e+03
4.800000000000000100e-02 1.913389999999999813e-01 1.029556499999999986e+01 5.808445000000000391e+01 2.049284999999999854e+03
4.900000000000000189e-02 1.911784999999999735e-01 8.419405000000001138e+00 5.337980000000000302e+01 2.048195000000000164e+03
5.000000000000000278e-02 1.910005000000000175e-01 6.430069999999999730e+00 4.849345000000000283e+01 2.046990000000000009e+03
5.100000000000000366e-02 1.908135000000000248e-01 4.408378499999999534e+00 4.365534999999999854e+01 2.045720000000000027e+03
5.200000000000000455e-02 1.906255000000000033e-01 2.430514999999999759e+00 3.905920000000000414e+01 2.044434999999999945e+03
5.300000000000000544e-02 1.904450000000000032e-01 5.683149999999999036e-01 3.486695000000000277e+01 2.043204999999999927e+03
5.399999999999999939e-02 1.902774999999999883e-01 -1.110180000000000167e+00 3.121780000000000044e+01 2.042054999999999836e+03
5.500000000000000028e-02 1.901305000000000078e-01 -2.540480500000000141e+00 2.823595000000000255e+01 2.041039999999999964e+03
5.600000000000000117e-02 1.900080000000000102e-01 -3.662684999999999746e+00 2.603470000000000084e+01 2.040195000000000164e+03
5.700000000000000205e-02 1.899154999999999871e-01 -4.423754999999999882e+00 2.471464999999999890e+01 2.039545000000000073e+03
5.800000000000000294e-02 1.898575000000000124e-01 -4.780760000000000787e+00 2.435764999999999958e+01 2.039130000000000109e+03
5.900000000000000383e-02 1.898365000000000191e-01 -4.704410000000000203e+00 2.501774999999999949e+01 2.038960000000000036e+03
6.000000000000000472e-02 1.898559999999999970e-01 -4.182064999999999699e+00 2.671249999999999858e+01 2.039065000000000055e+03
6.099999999999999867e-02 1.899155000000000149e-01 -3.219495000000000218e+00 2.941664999999999708e+01 2.039450000000000045e+03
6.199999999999999956e-02 1.900149999999999895e-01 -1.841040000000000232e+00 3.306060000000000088e+01 2.040095000000000027e+03
6.300000000000000044e-02 1.901509999999999867e-01 -8.805500000000021643e-02 3.753364999999999441e+01 2.041000000000000000e+03
6.400000000000000133e-02 1.903205000000000036e-01 1.984050000000000091e+00 4.269194999999999851e+01 2.042134999999999764e+03
6.500000000000000222e-02 1.905179999999999929e-01 4.309721500000000205e+00 4.836930000000000263e+01 2.043460000000000036e+03
6.600000000000000311e-02 1.907369999999999899e-01 6.817445000000000199e+00 5.438925000000000409e+01 2.044940000000000055e+03
6.700000000000000400e-02 1.909715000000000162e-01 9.433970000000000411e+00 6.057665000000000077e+01 2.046529999999999745e+03
6.800000000000000488e-02 1.912145000000000095e-01 1.208785499999999935e+01 6.676749999999999829e+01 2.048190000000000055e+03
6.900000000000000577e-02 1.914599999999999913e-01 1.471279499999999985e+01 7.281704999999999472e+01 2.049875000000000000e+03
7.000000000000000666e-02 1.917024999999999979e-01 1.725019999999999953e+01 7.860499999999998977e+01 2.051534999999999854e+03
7.100000000000000755e-02 1.919375000000000109e-01 1.965155000000000030e+01 8.403995000000000459e+01 2.053159999999999854e+03
7.200000000000000844e-02 1.921605000000000119e-01 2.187984999999999758e+01 8.906180000000000518e+01 2.054704999999999927e+03
7.300000000000000933e-02 1.923694999999999988e-01 2.391089999999999804e+01 9.364250000000001251e+01 2.056159999999999854e+03
7.399999999999999634e-02 1.925634999999999986e-01 2.573395000000000010e+01 9.778610000000000468e+01 2.057515000000000327e+03
7.499999999999999722e-02 1.927419999999999967e-01 2.735114999999999696e+01 1.015264999999999986e+02 2.058765000000000327e+03
7.599999999999999811e-02 1.929055000000000075e-01 2.877629999999999910e+01 1.049222000000000037e+02 2.059920000000000073e+03
7.699999999999999900e-02 1.930570000000000064e-01 3.003330000000000055e+01 1.080525000000000091e+02 2.060984999999999673e+03
7.799999999999999989e-02 1.931990000000000096e-01 3.115295000000000059e+01 1.110084999999999980e+02 2.061980000000000018e+03
7.900000000000000078e-02 1.933340000000000058e-01 3.217020000000000124e+01 1.138850000000000051e+02 2.062940000000000055e+03
8.000000000000000167e-02 1.934660000000000268e-01 3.312115000000000009e+01 1.167725000000000080e+02 2.063869999999999891e+03
8.100000000000000255e-02 1.935975000000000057e-01 3.403945000000000221e+01 1.197494999999999976e+02 2.064795000000000073e+03
8.200000000000000344e-02 1.937319999999999875e-01 3.495380000000000109e+01 1.228774999999999977e+02 2.065739999999999782e+03
8.300000000000000433e-02 1.938709999999999878e-01 3.588604999999999734e+01 1.261940000000000026e+02 2.066715000000000146e+03
8.400000000000000522e-02 1.940169999999999950e-01 3.684955000000000069e+01 1.297125000000000057e+02 2.067739999999999782e+03
8.500000000000000611e-02 1.941694999999999949e-01 3.784855000000000302e+01 1.334220000000000255e+02 2.068809999999999945e+03
8.600000000000000699e-02 1.943285000000000151e-01 3.887839999999999918e+01 1.372884999999999991e+02 2.069920000000000073e+03
8.700000000000000788e-02 1.944925000000000126e-01 3.992619999999999436e+01 1.412560000000000002e+02 2.071069999999999709e+03
8.800000000000000877e-02 1.946594999999999853e-01 4.097240000000000038e+01 1.452579999999999814e+02 2.072239999999999782e+03
8.899999999999999578e-02 1.948274999999999868e-01 4.199195000000000277e+01 1.492129999999999939e+02 2.073414999999999964e+03
8.999999999999999667e-02 1.949934999999999863e-01 4.295690000000000452e+01 1.530389999999999873e+02 2.074579999999999927e+03
9.099999999999999756e-02 1.951535000000000075e-01 4.383769999999999811e+01 1.566539999999999964e+02 2.075710000000000036e+03
9.199999999999999845e-02 1.953054999999999930e-01 4.460580000000000211e+01 1.599805000000000064e+02 2.076784999999999854e+03
9.299999999999999933e-02 1.954464999999999952e-01 4.523484999999999445e+01 1.629529999999999745e+02 2.077779999999999745e+03
9.400000000000000022e-02 1.955735000000000112e-01 4.570255000000000223e+01 1.655180000000000007e+02 2.078675000000000182e+03
9.500000000000000111e-02 1.956844999999999835e-01 4.599174999999999613e+01 1.676365000000000123e+02 2.079470000000000255e+03
9.600000000000000200e-02 1.957784999999999942e-01 4.609134999999999849e+01 1.692880000000000109e+02 2.080140000000000327e+03
9.700000000000000289e-02 1.958535000000000137e-01 4.599670000000000414e+01 1.704675000000000011e+02 2.080679999999999836e+03
9.800000000000000377e-02 1.959104999999999874e-01 4.570990000000000464e+01 1.711864999999999952e+02 2.081099999999999909e+03
9.900000000000000466e-02 1.959489999999999843e-01 4.523949999999999960e+01 1.714720000000000084e+02 2.081385000000000218e+03
1.000000000000000056e-01 1.959704999999999919e-01 4.459989999999999810e+01 1.713634999999999877e+02 2.081545000000000073e+03
1.010000000000000064e-01 1.959759999999999835e-01 4.381069999999999709e+01 1.709120000000000061e+02 2.081599999999999909e+03
1.020000000000000073e-01 1.959670000000000023e-01 4.289539999999999509e+01 1.701765000000000043e+02 2.081555000000000291e+03
1.030000000000000082e-01 1.959469999999999823e-01 4.188060000000000116e+01 1.692185000000000059e+02 2.081420000000000073e+03
1.040000000000000091e-01 1.959164999999999934e-01 4.079429999999999978e+01 1.681045000000000016e+02 2.081220000000000255e+03
1.050000000000000100e-01 1.958794999999999842e-01 3.966485000000000127e+01 1.668969999999999914e+02 2.080965000000000146e+03
1.059999999999999970e-01 1.958374999999999977e-01 3.851985000000000525e+01 1.656570000000000107e+02 2.080670000000000073e+03
1.069999999999999979e-01 1.957935000000000092e-01 3.738490000000000180e+01 1.644375000000000000e+02 2.080369999999999891e+03
1.079999999999999988e-01 1.957484999999999919e-01 3.628239999999999554e+01 1.632844999999999800e+02 2.080054999999999836e+03
1.089999999999999997e-01 1.957059999999999911e-01 3.523109999999999786e+01 1.622340000000000089e+02 2.079750000000000000e+03
1.100000000000000006e-01 1.956654999999999922e-01 3.424549999999999983e+01 1.613110000000000070e+02 2.079470000000000255e+03
1.110000000000000014e-01 1.956295000000000117e-01 3.333500000000000085e+01 1.605305000000000177e+02 2.079210000000000036e+03
1.120000000000000023e-01 1.955979999999999941e-01 3.250419999999999732e+01 1.598944999999999936e+02 2.078985000000000127e+03
1.130000000000000032e-01 1.955715000000000092e-01 3.175274999999999892e+01 1.593949999999999818e+02 2.078795000000000073e+03
1.140000000000000041e-01 1.955500000000000016e-01 3.107574999999999932e+01 1.590140000000000100e+02 2.078635000000000218e+03
1.150000000000000050e-01 1.955319999999999836e-01 3.046410000000000196e+01 1.587245000000000061e+02 2.078505000000000109e+03
1.160000000000000059e-01 1.955175000000000107e-01 2.990534999999999854e+01 1.584934999999999832e+02 2.078399999999999636e+03
1.170000000000000068e-01 1.955049999999999844e-01 2.938439999999999941e+01 1.582824999999999989e+02 2.078305000000000291e+03
1.180000000000000077e-01 1.954934999999999867e-01 2.888455000000000084e+01 1.580509999999999877e+02 2.078215000000000146e+03
1.190000000000000085e-01 1.954805000000000015e-01 2.838860000000000028e+01 1.577579999999999814e+02 2.078125000000000000e+03
1.200000000000000094e-01 1.954649999999999999e-01 2.787950000000000017e+01 1.573659999999999854e+02 2.078010000000000218e+03
1.209999999999999964e-01 1.954465000000000230e-01 2.734169999999999945e+01 1.568399999999999750e+02 2.077880000000000109e+03
1.219999999999999973e-01 1.954230000000000134e-01 2.676189999999999714e+01 1.561544999999999845e+02 2.077710000000000036e+03
1.229999999999999982e-01 1.953925000000000245e-01 2.612980000000000302e+01 1.552884999999999991e+02 2.077500000000000000e+03
1.239999999999999991e-01 1.953560000000000019e-01 2.543860000000000099e+01 1.542334999999999923e+02 2.077244999999999891e+03
1.250000000000000000e-01 1.953119999999999856e-01 2.468574999999999875e+01 1.529890000000000043e+02 2.076934999999999945e+03
1.260000000000000009e-01 1.952609999999999901e-01 2.387255000000000038e+01 1.515649999999999977e+02 2.076579999999999927e+03
1.270000000000000018e-01 1.952025000000000010e-01 2.300464999999999804e+01 1.499819999999999993e+02 2.076175000000000182e+03
1.280000000000000027e-01 1.951384999999999925e-01 2.209145000000000181e+01 1.482685000000000173e+02 2.075730000000000018e+03
1.290000000000000036e-01 1.950689999999999924e-01 2.114545000000000030e+01 1.464594999999999914e+02 2.075244999999999891e+03
1.300000000000000044e-01 1.949964999999999893e-01 2.018215000000000003e+01 1.445964999999999918e+02 2.074735000000000127e+03
1.310000000000000053e-01 1.949210000000000109e-01 1.921849999999999881e+01 1.427235000000000014e+02 2.074204999999999927e+03
1.320000000000000062e-01 1.948449999999999904e-01 1.827255000000000251e+01 1.408855000000000075e+02 2.073680000000000291e+03
1.330000000000000071e-01 1.947705000000000131e-01 1.736214999999999975e+01 1.391259999999999764e+02 2.073154999999999745e+03
1.340000000000000080e-01 1.946984999999999966e-01 1.650444999999999851e+01 1.374859999999999900e+02 2.072649999999999636e+03
1.350000000000000089e-01 1.946304999999999841e-01 1.571470000000000056e+01 1.359995000000000118e+02 2.072175000000000182e+03
1.360000000000000098e-01 1.945695000000000063e-01 1.500570000000000093e+01 1.346945000000000050e+02 2.071734999999999673e+03
1.370000000000000107e-01 1.945139999999999925e-01 1.438755000000000095e+01 1.335919999999999845e+02 2.071345000000000255e+03
1.380000000000000115e-01 1.944664999999999866e-01 1.386660000000000004e+01 1.327030000000000030e+02 2.071010000000000218e+03
1.390000000000000124e-01 1.944275000000000031e-01 1.344604999999999961e+01 1.320310000000000059e+02 2.070724999999999909e+03
1.400000000000000133e-01 1.943960000000000132e-01 1.312545000000000073e+01 1.315715000000000146e+02 2.070505000000000109e+03
1.410000000000000142e-01 1.943735000000000046e-01 1.290109999999999957e+01 1.313114999999999952e+02 2.070340000000000146e+03
1.420000000000000151e-01 1.943590000000000040e-01 1.276609999999999978e+01 1.312325000000000159e+02 2.070225000000000364e+03
1.430000000000000160e-01 1.943509999999999960e-01 1.271140000000000114e+01 1.313095000000000141e+02 2.070164999999999964e+03
1.440000000000000169e-01 1.943495000000000084e-01 1.272555000000000014e+01 1.315154999999999745e+02 2.070144999999999982e+03
1.450000000000000178e-01 1.943539999999999990e-01 1.279599999999999937e+01 1.318199999999999932e+02 2.070170000000000073e+03
1.459999999999999909e-01 1.943619999999999792e-01 1.290919999999999845e+01 1.321920000000000073e+02 2.070220000000000255e+03
1.469999999999999918e-01 1.943725000000000036e-01 1.305134999999999934e+01 1.326009999999999991e+02 2.070289999999999964e+03
1.479999999999999927e-01 1.943865000000000176e-01 1.320925000000000082e+01 1.330185000000000173e+02 2.070380000000000109e+03
1.489999999999999936e-01 1.944000000000000172e-01 1.337024999999999864e+01 1.334184999999999945e+02 2.070475000000000364e+03
1.499999999999999944e-01 1.944134999999999891e-01 1.352309999999999945e+01 1.337785000000000082e+02 2.070569999999999709e+03
1.509999999999999953e-01 1.944259999999999877e-01 1.365804999999999936e+01 1.340810000000000173e+02 2.070654999999999745e+03
1.519999999999999962e-01 1.944370000000000265e-01 1.376719999999999899e+01 1.343114999999999952e+02 2.070734999999999673e+03
1.529999999999999971e-01 1.944454999999999933e-01 1.384469999999999956e+01 1.344610000000000127e+02 2.070789999999999964e+03
1.539999999999999980e-01 1.944509999999999850e-01 1.388664999999999949e+01 1.345260000000000105e+02 2.070829999999999927e+03
1.549999999999999989e-01 1.944535000000000013e-01 1.389134999999999920e+01 1.345054999999999836e+02 2.070849999999999909e+03
1.559999999999999998e-01 1.944535000000000013e-01 1.385890000000000022e+01 1.344039999999999964e+02 2.070849999999999909e+03
1.570000000000000007e-01 1.944494999999999973e-01 1.379119999999999990e+01 1.342295000000000016e+02 2.070829999999999927e+03
1.580000000000000016e-01 1.944434999999999913e-01 1.369170000000000087e+01 1.339915000000000020e+02 2.070784999999999854e+03
1.590000000000000024e-01 1.944345000000000101e-01 1.356514999999999915e+01 1.337034999999999911e+02 2.070724999999999909e+03
