# t [s], A [cm^2], U [cm/s], P [cPa], c [cm/s]
1.000000000000000021e-03 7.270179999999999421e-01 4.365000000000000824e-03 1.018460000000000036e+02 1.637525000000000091e+03
2.000000000000000042e-03 7.270110000000000738e-01 6.891349999999999212e-03 1.018215000000000003e+02 1.637519999999999982e+03
3.000000000000000062e-03 7.270950000000000468e-01 1.427440999999999849e-01 1.019695000000000107e+02 1.637555000000000064e+03
4.000000000000000083e-03 7.271330000000000293e-01 2.214579999999999882e-01 1.020619999999999976e+02 1.637579999999999927e+03
5.000000000000000104e-03 7.270659999999999901e-01 1.411484999999999823e-01 1.018995000000000033e+02 1.637545000000000073e+03
6.000000000000000125e-03 7.269760000000000666e-01 1.445599999999996887e-02 1.015775000000000006e+02 1.637474999999999909e+03
7.000000000000000146e-03 7.268749999999999378e-01 -1.428049999999999597e-01 1.011394999999999982e+02 1.637380000000000109e+03
8.000000000000000167e-03 7.266924999999999635e-01 -4.460600000000000120e-01 1.004386999999999972e+02 1.637235000000000127e+03
9.000000000000001055e-03 7.264174999999999383e-01 -9.127450000000000285e-01 9.939994999999998981e+01 1.637014999999999873e+03
1.000000000000000194e-02 7.260404999999999776e-01 -1.542409999999999837e+00 9.797305000000000064e+01 1.636700000000000045e+03
1.099999999999999936e-02 7.255350000000000410e-01 -2.358229999999999826e+00 9.607529999999999859e+01 1.636279999999999973e+03
1.200000000000000025e-02 7.249140000000000583e-01 -3.308579999999999632e+00 9.371654999999999802e+01 1.635744999999999891e+03
1.300000000000000114e-02 7.242640000000000189e-01 -4.219454999999999956e+00 9.109389999999999077e+01 1.635134999999999991e+03
1.400000000000000203e-02 7.236930000000000307e-01 -4.873632500000000256e+00 8.852609999999999957e+01 1.634509999999999991e+03
1.499999999999999944e-02 7.232665000000000344e-01 -5.124497999999999998e+00 8.629555000000000575e+01 1.633934999999999945e+03
1.600000000000000033e-02 7.229844999999999189e-01 -4.950994999999999813e+00 8.453199999999999648e+01 1.633445000000000164e+03
1.700000000000000122e-02 7.227909999999999613e-01 -4.443520000000000358e+00 8.318715000000000259e+01 1.633029999999999973e+03
1.800000000000000211e-02 7.226080000000000281e-01 -3.750999999999999890e+00 8.208294999999999675e+01 1.632670000000000073e+03
1.900000000000000300e-02 7.223690000000000389e-01 -3.018342500000000150e+00 8.099734999999999729e+01 1.632319999999999936e+03
2.000000000000000042e-02 7.220379999999999576e-01 -2.335952499999999876e+00 7.975360000000000582e+01 1.631944999999999936e+03
2.100000000000000130e-02 7.216229999999999034e-01 -1.719304999999999861e+00 7.827764999999999418e+01 1.631525000000000091e+03
2.200000000000000219e-02 7.211589999999999945e-01 -1.125534999999999730e+00 7.660290000000000532e+01 1.631065000000000055e+03
2.299999999999999961e-02 7.206879999999999953e-01 -4.949799999999999756e-01 7.482535000000000025e+01 1.630575000000000045e+03
2.400000000000000050e-02 7.202364999999999462e-01 2.061999999999999389e-01 7.304019999999999868e+01 1.630085000000000036e+03
2.500000000000000139e-02 7.198029999999999706e-01 9.606349999999999056e-01 7.128825000000000500e+01 1.629589999999999918e+03
2.600000000000000228e-02 7.193605000000000693e-01 1.697364999999999791e+00 6.953220000000000312e+01 1.629095000000000027e+03
2.700000000000000316e-02 7.188645000000000174e-01 2.308460000000000178e+00 6.766274999999998840e+01 1.628579999999999927e+03
2.800000000000000058e-02 7.182660000000000711e-01 2.677179999999999893e+00 6.552989999999999782e+01 1.628009999999999991e+03
2.900000000000000147e-02 7.175294999999999312e-01 2.709334999999999827e+00 6.298870000000000147e+01 1.627355000000000018e+03
3.000000000000000236e-02 7.166434999999999889e-01 2.359835000000000349e+00 5.994700000000000273e+01 1.626590000000000146e+03
3.099999999999999978e-02 7.156240000000000379e-01 1.646430000000000504e+00 5.640085000000000548e+01 1.625719999999999800e+03
3.200000000000000067e-02 7.145159999999999290e-01 6.465000000000005187e-01 5.244630000000000081e+01 1.624750000000000000e+03
3.300000000000000155e-02 7.133819999999999606e-01 -5.205500000000000682e-01 4.826559999999999917e+01 1.623724999999999909e+03
3.400000000000000244e-02 7.122910000000000075e-01 -1.718710000000000626e+00 4.409440000000000026e+01 1.622684999999999945e+03
3.500000000000000333e-02 7.113050000000000761e-01 -2.819389999999999841e+00 4.018175000000000097e+01 1.621679999999999836e+03
3.600000000000000422e-02 7.104740000000000499e-01 -3.718390000000000306e+00 3.675395000000000323e+01 1.620780000000000200e+03
3.700000000000000511e-02 7.098305000000000309e-01 -4.344110000000000582e+00 3.398879999999999768e+01 1.620019999999999982e+03
3.799999999999999906e-02 7.093914999999999527e-01 -4.657623000000000069e+00 3.200294999999999845e+01 1.619424999999999955e+03
3.899999999999999994e-02 7.091594999999999427e-01 -4.646700000000000053e+00 3.085125000000000028e+01 1.619035000000000082e+03
4.000000000000000083e-02 7.091274999999999107e-01 -4.317299999999999471e+00 3.053614999999999924e+01 1.618835000000000036e+03
4.100000000000000172e-02 7.092819999999999681e-01 -3.684664999999999857e+00 3.102165000000000106e+01 1.618844999999999800e+03
4.200000000000000261e-02 7.096099999999999630e-01 -2.766670000000000407e+00 3.224920000000000186e+01 1.619039999999999964e+03
4.300000000000000350e-02 7.100945000000000729e-01 -1.580684999999999896e+00 3.414974999999999739e+01 1.619414999999999964e+03
4.400000000000000439e-02 7.107215000000000060e-01 -1.439349999999999241e-01 3.665095000000000169e+01 1.619950000000000045e+03
4.499999999999999833e-02 7.114750000000000796e-01 1.523674999999999446e+00 3.967950000000000443e+01 1.620625000000000000e+03
4.599999999999999922e-02 7.123375000000000679e-01 3.396069999999999922e+00 4.315914999999999679e+01 1.621430000000000064e+03
4.700000000000000011e-02 7.132884999999999920e-01 5.438575000000000159e+00 4.700789999999999935e+01 1.622340000000000146e+03
4.800000000000000100e-02 7.143045000000000089e-01 7.607355000000000089e+00 5.113685000000000258e+01 1.623329999999999927e+03
4.900000000000000189e-02 7.153599999999999959e-01 9.851080999999998866e+00 5.545020000000000238e+01 1.624384999999999991e+03
5.000000000000000278e-02 7.164295000000000524e-01 1.211482499999999973e+01 5.984914999999999452e+01 1.625480000000000018e+03
5.100000000000000366e-02 7.174880000000000146e-01 1.434386999999999901e+01 6.423699999999999477e+01 1.626590000000000146e+03
5.200000000000000455e-02 7.185155000000000847e-01 1.648859500000000011e+01 6.852530000000000143e+01 1.627695000000000164e+03
5.300000000000000544e-02 7.194944999999999258e-01 1.850789999999999935e+01 7.264025000000000887e+01 1.628764999999999873e+03
5.399999999999999939e-02 7.204144999999999577e-01 2.037149999999999750e+01 7.652689999999999770e+01 1.629795000000000073e+03
5.500000000000000028e-02 7.212709999999999955e-01 2.206080000000000041e+01 8.015174999999999272e+01 1.630775000000000091e+03
5.600000000000000117e-02 7.220634999999999692e-01 2.356850000000000023e+01 8.350319999999999254e+01 1.631695000000000164e+03
5.700000000000000205e-02 7.227969999999999118e-01 2.489735000000000298e+01 8.658965000000000600e+01 1.632549999999999955e+03
5.800000000000000294e-02 7.234795000000000531e-01 2.605819999999999936e+01 8.943645000000000778e+01 1.633355000000000018e+03
5.900000000000000383e-02 7.241204999999999448e-01 2.706810000000000116e+01 9.208199999999999363e+01 1.634099999999999909e+03
6.000000000000000472e-02 7.247330000000000716e-01 2.794839999999999947e+01 9.457314999999999827e+01 1.634815000000000055e+03
6.099999999999999867e-02 7.253290000000000015e-01 2.872315000000000040e+01 9.696240000000000236e+01 1.635500000000000000e+03
6.199999999999999956e-02 7.259214999999999973e-01 2.941765000000000185e+01 9.930189999999998918e+01 1.636160000000000082e+03
6.300000000000000044e-02 7.265209999999999724e-01 3.005675000000000097e+01 1.016425000000000125e+02 1.636820000000000164e+03
6.400000000000000133e-02 7.271385000000000209e-01 3.066380000000000194e+01 1.040285000000000082e+02 1.637480000000000018e+03
6.500000000000000222e-02 7.277810000000000112e-01 3.125874999999999915e+01 1.064964999999999975e+02 1.638164999999999964e+03
6.600000000000000311e-02 7.284539999999999349e-01 3.185699999999999932e+01 1.090709999999999980e+02 1.638860000000000127e+03
6.700000000000000400e-02 7.291579999999999728e-01 3.246804999999999808e+01 1.117644999999999982e+02 1.639590000000000146e+03
6.800000000000000488e-02 7.298914999999999154e-01 3.309489999999999554e+01 1.145724999999999909e+02 1.640339999999999918e+03
6.900000000000000577e-02 7.306479999999999642e-01 3.373369999999999891e+01 1.174800000000000040e+02 1.641119999999999891e+03
7.000000000000000666e-02 7.314184999999999715e-01 3.437434999999999974e+01 1.204544999999999959e+02 1.641914999999999964e+03
7.100000000000000755e-02 7.321910000000000363e-01 3.500130000000000052e+01 1.234544999999999959e+02 1.642714999999999918e+03
7.200000000000000844e-02 7.329525000000000068e-01 3.559525000000000006e+01 1.264284999999999997e+02 1.643515000000000100e+03
7.300000000000000933e-02 7.336890000000000356e-01 3.613465000000000060e+01 1.293215000000000146e+02 1.644299999999999955e+03
7.399999999999999634e-02 7.343865000000000531e-01 3.659749999999999659e+01 1.320769999999999982e+02 1.645055000000000064e+03
7.499999999999999722e-02 7.350315000000000598e-01 3.696305000000000263e+01 1.346415000000000077e+02 1.645764999999999873e+03
7.599999999999999811e-02 7.356139999999999901e-01 3.721309999999999718e+01 1.369664999999999964e+02 1.646420000000000073e+03
7.699999999999999900e-02 7.361250000000000293e-01 3.733320000000000505e+01 1.390140000000000100e+02 1.647009999999999991e+03
7.799999999999999989e-02 7.365585000000000049e-01 3.731354999999999933e+01 1.407555000000000121e+02 1.647525000000000091e+03
7.900000000000000078e-02 7.369114999999999416e-01 3.714900000000000091e+01 1.421754999999999995e+02 1.647954999999999927e+03
8.000000000000000167e-02 7.371844999999999093e-01 3.684000000000000341e+01 1.432685000000000173e+02 1.648309999999999945e+03
8.100000000000000255e-02 7.373795000000000766e-01 3.639170000000000016e+01 1.440420000000000016e+02 1.648579999999999927e+03
8.200000000000000344e-02 7.375024999999999498e-01 3.581400000000000006e+01 1.445159999999999911e+02 1.648769999999999982e+03
8.300000000000000433e-02 7.375605000000000633e-01 3.512095000000000056e+01 1.447164999999999964e+02 1.648880000000000109e+03
8.400000000000000522e-02 7.375624999999998987e-01 3.432994999999999663e+01 1.446800000000000068e+02 1.648934999999999945e+03
8.500000000000000611e-02 7.375190000000000357e-01 3.346105000000000018e+01 1.444465000000000146e+02 1.648924999999999955e+03
8.600000000000000699e-02 7.374399999999999844e-01 3.253575000000000017e+01 1.440614999999999952e+02 1.648875000000000000e+03
8.700000000000000788e-02 7.373380000000000489e-01 3.157629999999999981e+01 1.435699999999999932e+02 1.648784999999999854e+03
8.800000000000000877e-02 7.372225000000000028e-01 3.060449999999999804e+01 1.430159999999999911e+02 1.648670000000000073e+03
8.899999999999999578e-02 7.371039999999999814e-01 2.964085000000000036e+01 1.424429999999999836e+02 1.648550000000000182e+03
8.999999999999999667e-02 7.369909999999999517e-01 2.870354999999999990e+01 1.418865000000000123e+02 1.648420000000000073e+03
9.099999999999999756e-02 7.368905000000000038e-01 2.780789999999999651e+01 1.413785000000000025e+02 1.648295000000000073e+03
9.199999999999999845e-02 7.368075000000000596e-01 2.696555000000000035e+01 1.409424999999999955e+02 1.648184999999999945e+03
9.299999999999999933e-02 7.367449999999999832e-01 2.618440000000000012e+01 1.405939999999999941e+02 1.648085000000000036e+03
9.400000000000000022e-02 7.367049999999999432e-01 2.546795000000000186e+01 1.403410000000000082e+02 1.648009999999999991e+03
9.500000000000000111e-02 7.366854999999999931e-01 2.481615000000000038e+01 1.401820000000000164e+02 1.647954999999999927e+03
9.600000000000000200e-02 7.366850000000000342e-01 2.422469999999999857e+01 1.401105000000000018e+02 1.647924999999999955e+03
9.700000000000000289e-02 7.366989999999999927e-01 2.368645000000000067e+01 1.401105000000000018e+02 1.647909999999999854e+03
9.800000000000000377e-02 7.367224999999999469e-01 2.319120000000000203e+01 1.401620000000000061e+02 1.647909999999999854e+03
9.900000000000000466e-02 7.367485000000000284e-01 2.272684999999999889e+01 1.402425000000000068e+02 1.647914999999999964e+03
1.000000000000000056e-01 7.367719999999999825e-01 2.228014999999999901e+01 1.403249999999999886e+02 1.647925000000000182e+03
1.010000000000000064e-01 7.367854999999999821e-01 2.183709999999999951e+01 1.403824999999999932e+02 1.647934999999999945e+03
1.020000000000000073e-01 7.367835000000000356e-01 2.138425000000000153e+01 1.403890000000000100e+02 1.647930000000000064e+03
1.030000000000000082e-01 7.367599999999999705e-01 2.090905000000000058e+01 1.403205000000000098e+02 1.647914999999999964e+03
1.040000000000000091e-01 7.367105000000000459e-01 2.040084999999999837e+01 1.401569999999999823e+02 1.647875000000000000e+03
1.050000000000000100e-01 7.366319999999999535e-01 1.985119999999999862e+01 1.398829999999999814e+02 1.647809999999999945e+03
1.059999999999999970e-01 7.365230000000000388e-01 1.925459999999999994e+01 1.394884999999999877e+02 1.647715000000000146e+03
1.069999999999999979e-01 7.363824999999999399e-01 1.860865000000000080e+01 1.389705000000000155e+02 1.647595000000000027e+03
1.079999999999999988e-01 7.362130000000000063e-01 1.791404999999999959e+01 1.383319999999999936e+02 1.647440000000000055e+03
1.089999999999999997e-01 7.360169999999999213e-01 1.717504999999999882e+01 1.375815000000000055e+02 1.647259999999999991e+03
1.100000000000000006e-01 7.357985000000000220e-01 1.639880000000000138e+01 1.367344999999999970e+02 1.647049999999999955e+03
1.110000000000000014e-01 7.355635000000000367e-01 1.559499999999999886e+01 1.358120000000000118e+02 1.646820000000000164e+03
1.120000000000000023e-01 7.353180000000000271e-01 1.477587499999999920e+01 1.348385000000000105e+02 1.646579999999999927e+03
1.130000000000000032e-01 7.350695000000000423e-01 1.395502000000000109e+01 1.338414999999999964e+02 1.646325000000000045e+03
1.140000000000000041e-01 7.348254999999999093e-01 1.314701499999999967e+01 1.328499999999999943e+02 1.646070000000000164e+03
1.150000000000000050e-01 7.345930000000000515e-01 1.236668999999999841e+01 1.318940000000000055e+02 1.645820000000000164e+03
1.160000000000000059e-01 7.343785000000000451e-01 1.162826000000000093e+01 1.310004999999999882e+02 1.645579999999999927e+03
1.170000000000000068e-01 7.341874999999999929e-01 1.094468999999999959e+01 1.301965000000000146e+02 1.645360000000000127e+03
1.180000000000000077e-01 7.340264999999999151e-01 1.032710499999999954e+01 1.295020000000000095e+02 1.645164999999999964e+03
1.190000000000000085e-01 7.338979999999999393e-01 9.784164999999999779e+00 1.289350000000000023e+02 1.645000000000000000e+03
1.200000000000000094e-01 7.338035000000000529e-01 9.321964999999998724e+00 1.285054999999999836e+02 1.644869999999999891e+03
1.209999999999999964e-01 7.337449999999999806e-01 8.943400000000000460e+00 1.282180000000000177e+02 1.644769999999999982e+03
1.219999999999999973e-01 7.337210000000000676e-01 8.648495000000000488e+00 1.280734999999999957e+02 1.644710000000000036e+03
1.229999999999999982e-01 7.337295000000000345e-01 8.434514999999999318e+00 1.280639999999999930e+02 1.644679999999999836e+03
1.239999999999999991e-01 7.337664999999999882e-01 8.295919999999998851e+00 1.281784999999999854e+02 1.644680000000000064e+03
1.250000000000000000e-01 7.338294999999999124e-01 8.225044999999999717e+00 1.284010000000000105e+02 1.644715000000000146e+03
1.260000000000000009e-01 7.339115000000000499e-01 8.212445000000000661e+00 1.287119999999999891e+02 1.644775000000000091e+03
1.270000000000000018e-01 7.340079999999999938e-01 8.247429999999999595e+00 1.290904999999999916e+02 1.644849999999999909e+03
1.280000000000000027e-01 7.341135000000000854e-01 8.318599999999999994e+00 1.295144999999999982e+02 1.644945000000000164e+03
1.290000000000000036e-01 7.342230000000000700e-01 8.414320000000000022e+00 1.299610000000000127e+02 1.645045000000000073e+03
1.300000000000000044e-01 7.343304999999999971e-01 8.523289999999999367e+00 1.304089999999999918e+02 1.645150000000000091e+03
1.310000000000000053e-01 7.344325000000000436e-01 8.634904999999999831e+00 1.308400000000000034e+02 1.645255000000000109e+03
1.320000000000000062e-01 7.345254999999999423e-01 8.739630000000000010e+00 1.312375000000000114e+02 1.645355000000000018e+03
1.330000000000000071e-01 7.346044999999999936e-01 8.829304999999999737e+00 1.315865000000000009e+02 1.645444999999999936e+03
1.340000000000000080e-01 7.346694999999999753e-01 8.897315000000000751e+00 1.318785000000000025e+02 1.645525000000000091e+03
1.350000000000000089e-01 7.347185000000000521e-01 8.938729999999999620e+00 1.321059999999999945e+02 1.645585000000000036e+03
1.360000000000000098e-01 7.347505000000000841e-01 8.950319999999999609e+00 1.322655000000000030e+02 1.645639999999999873e+03
1.370000000000000107e-01 7.347675000000000178e-01 8.930564999999999642e+00 1.323580000000000041e+02 1.645670000000000073e+03
1.380000000000000115e-01 7.347679999999999767e-01 8.879545000000000243e+00 1.323859999999999957e+02 1.645684999999999945e+03
1.390000000000000124e-01 7.347555000000000058e-01 8.798745000000000260e+00 1.323539999999999850e+02 1.645690000000000055e+03
1.400000000000000133e-01 7.347310000000000230e-01 8.690889999999999560e+00 1.322719999999999914e+02 1.645674999999999955e+03
1.410000000000000142e-01 7.346975000000000033e-01 8.559799999999999187e+00 1.321465000000000032e+02 1.645660000000000082e+03
1.420000000000000151e-01 7.346569999999998934e-01 8.410019999999999385e+00 1.319879999999999995e+02 1.645625000000000000e+03
1.430000000000000160e-01 7.346125000000000016e-01 8.246649999999998926e+00 1.318075000000000045e+02 1.645585000000000036e+03
1.440000000000000169e-01 7.345660000000000522e-01 8.074975000000000236e+00 1.316150000000000091e+02 1.645539999999999964e+03
1.450000000000000178e-01 7.345200000000000617e-01 7.900310000000000166e+00 1.314209999999999923e+02 1.645494999999999891e+03
1.459999999999999909e-01 7.344770000000000465e-01 7.727669999999999817e+00 1.312334999999999923e+02 1.645454999999999927e+03
1.469999999999999918e-01 7.344379999999999242e-01 7.561605000000000132e+00 1.310600000000000023e+02 1.645404999999999973e+03
1.479999999999999927e-01 7.344045000000000156e-01 7.405979999999999563e+00 1.309069999999999823e+02 1.645369999999999891e+03
1.489999999999999936e-01 7.343774999999999054e-01 7.263835000000000264e+00 1.307780000000000200e+02 1.645335000000000036e+03
1.499999999999999944e-01 7.343570000000000375e-01 7.137335000000000207e+00 1.306754999999999995e+02 1.645304999999999836e+03
1.509999999999999953e-01 7.343439999999999968e-01 7.027680000000000149e+00 1.306000000000000227e+02 1.645284999999999854e+03
1.519999999999999962e-01 7.343364999999999476e-01 6.935154999999999959e+00 1.305504999999999995e+02 1.645269999999999982e+03
1.529999999999999971e-01 7.343340000000000423e-01 6.859194999999999709e+00 1.305230000000000246e+02 1.645255000000000109e+03
1.539999999999999980e-01 7.343355000000000299e-01 6.798490000000000144e+00 1.305149999999999864e+02 1.645250000000000000e+03
1.549999999999999989e-01 7.343405000000000626e-01 6.751125000000000043e+00 1.305194999999999936e+02 1.645250000000000000e+03
1.559999999999999998e-01 7.343455000000000954e-01 6.714739999999999931e+00 1.305319999999999823e+02 1.645250000000000000e+03
1.570000000000000007e-01 7.343505000000000171e-01 6.686704999999999899e+00 1.305464999999999804e+02 1.645244999999999891e+03
1.580000000000000016e-01 7.343539999999999512e-01 6.664310000000000400e+00 1.305564999999999998e+02 1.645250000000000000e+03
1.590000000000000024e-01 7.343545000000000211e-01 6.644880000000000564e+00 1.305570000000000164e+02 1.645244999999999891e+03
