# t [s], A [cm^2], U [cm/s], P [cPa], c [cm/s]
1.000000000000000021e-03 5.066595000000000404e-01 3.254700000000006199e-03 1.083534999999999968e+02 1.415965000000000146e+03
2.000000000000000042e-03 5.066524999999999501e-01 9.505345000000000114e-04 1.083379999999999939e+02 1.415964999999999918e+03
3.000000000000000062e-03 5.066859999999999697e-01 6.263095000000000467e-02 1.083934999999999889e+02 1.415980000000000018e+03
4.000000000000000083e-03 5.067325000000000301e-01 1.471140499999999962e-01 1.084929999999999950e+02 1.416014999999999873e+03
5.000000000000000104e-03 5.067369999999999930e-01 1.568049999999999999e-01 1.085074999999999932e+02 1.416025000000000091e+03
6.000000000000000125e-03 5.067034999999999734e-01 9.506099999999999273e-02 1.084045000000000130e+02 1.416000000000000000e+03
7.000000000000000146e-03 5.066640000000000033e-01 1.921750000000005398e-02 1.082300000000000040e+02 1.415960000000000036e+03
8.000000000000000167e-03 5.066184999999999716e-01 -7.212899999999999867e-02 1.079919999999999902e+02 1.415900000000000091e+03
9.000000000000001055e-03 5.065420000000000478e-01 -2.307739999999999791e-01 1.076320000000000050e+02 1.415809999999999945e+03
1.000000000000000194e-02 5.064210000000000100e-01 -4.793450000000001321e-01 1.071030000000000086e+02 1.415674999999999955e+03
1.099999999999999936e-02 5.062520000000000353e-01 -8.194500000000001227e-01 1.063755000000000024e+02 1.415484999999999900e+03
1.200000000000000025e-02 5.060250000000000581e-01 -1.259054999999999813e+00 1.054120000000000061e+02 1.415224999999999909e+03
1.300000000000000114e-02 5.057334999999999470e-01 -1.796390000000000153e+00 1.041860000000000070e+02 1.414884999999999991e+03
1.400000000000000203e-02 5.053885000000000183e-01 -2.391074999999999839e+00 1.027133000000000038e+02 1.414470000000000027e+03
1.499999999999999944e-02 5.050209999999999422e-01 -2.961959999999999926e+00 1.010721000000000060e+02 1.413994999999999891e+03
1.600000000000000033e-02 5.046654999999999891e-01 -3.414180000000000437e+00 9.937635000000000218e+01 1.413485000000000127e+03
1.700000000000000122e-02 5.043499999999999650e-01 -3.672680000000000611e+00 9.774004999999999654e+01 1.412970000000000027e+03
1.800000000000000211e-02 5.040839999999999765e-01 -3.702668499999999696e+00 9.624155000000000371e+01 1.412474999999999909e+03
1.900000000000000300e-02 5.038614999999999622e-01 -3.512203500000000034e+00 9.490995000000000914e+01 1.412009999999999991e+03
2.000000000000000042e-02 5.036629999999999718e-01 -3.141709000000000085e+00 9.372575000000000500e+01 1.411569999999999936e+03
2.100000000000000130e-02 5.034674999999999567e-01 -2.647420499999999954e+00 9.263609999999999900e+01 1.411154999999999973e+03
2.200000000000000219e-02 5.032555000000000778e-01 -2.084394999999999776e+00 9.157554999999999268e+01 1.410744999999999891e+03
2.299999999999999961e-02 5.030139999999999612e-01 -1.493219999999999770e+00 9.048579999999999757e+01 1.410320000000000164e+03
2.400000000000000050e-02 5.027420000000000222e-01 -8.934549999999998882e-01 8.933074999999999477e+01 1.409889999999999873e+03
2.500000000000000139e-02 5.024444999999999606e-01 -2.849149999999998073e-01 8.810160000000000480e+01 1.409434999999999945e+03
2.600000000000000228e-02 5.021314999999999529e-01 3.444099999999998829e-01 8.681274999999999409e+01 1.408970000000000027e+03
2.700000000000000316e-02 5.018134999999999124e-01 1.007604999999999862e+00 8.549025000000000318e+01 1.408485000000000127e+03
2.800000000000000058e-02 5.014965000000000117e-01 1.708969999999999878e+00 8.415899999999999181e+01 1.408000000000000000e+03
2.900000000000000147e-02 5.011820000000000164e-01 2.438099999999999934e+00 8.283119999999999550e+01 1.407509999999999991e+03
3.000000000000000236e-02 5.008624999999999883e-01 3.168845000000000134e+00 8.150069999999999482e+01 1.407025000000000091e+03
3.099999999999999978e-02 5.005285000000000428e-01 3.862605000000000288e+00 8.014244999999999663e+01 1.406525000000000091e+03
3.200000000000000067e-02 5.001674999999999871e-01 4.474814999999999543e+00 7.871790000000000020e+01 1.406010000000000218e+03
3.300000000000000155e-02 4.997669999999999613e-01 4.962790000000000035e+00 7.718295000000000528e+01 1.405470000000000027e+03
3.400000000000000244e-02 4.993190000000000128e-01 5.293495000000000061e+00 7.549899999999999523e+01 1.404884999999999991e+03
3.500000000000000333e-02 4.988225000000000575e-01 5.449749999999999872e+00 7.364239999999999498e+01 1.404259999999999991e+03
3.600000000000000422e-02 4.982805000000000151e-01 5.433405000000000484e+00 7.161220000000000141e+01 1.403595000000000027e+03
3.700000000000000511e-02 4.977055000000000229e-01 5.265114999999999768e+00 6.943325000000000102e+01 1.402880000000000109e+03
3.799999999999999906e-02 4.971140000000000003e-01 4.981209999999999027e+00 6.715559999999999263e+01 1.402139999999999873e+03
3.899999999999999994e-02 4.965270000000000516e-01 4.627995000000000303e+00 6.484844999999999970e+01 1.401384999999999991e+03
4.000000000000000083e-02 4.959649999999999892e-01 4.255469999999999864e+00 6.259310000000000684e+01 1.400640000000000100e+03
4.100000000000000172e-02 4.954474999999999851e-01 3.911784999999999624e+00 6.047384999999999877e+01 1.399934999999999945e+03
4.200000000000000261e-02 4.949919999999999876e-01 3.638655000000000417e+00 5.857045000000000101e+01 1.399280000000000200e+03
4.300000000000000350e-02 4.946119999999999406e-01 3.469225000000000669e+00 5.695165000000000077e+01 1.398704999999999927e+03
4.400000000000000439e-02 4.943159999999999776e-01 3.427089999999999748e+00 5.567145000000000010e+01 1.398224999999999909e+03
4.499999999999999833e-02 4.941099999999999937e-01 3.527231000000000005e+00 5.476770000000000493e+01 1.397855000000000018e+03
4.599999999999999922e-02 4.939959999999999907e-01 3.777594000000000118e+00 5.426239999999999952e+01 1.397610000000000127e+03
4.700000000000000011e-02 4.939744999999999830e-01 4.181174999999999642e+00 5.416389999999999816e+01 1.397485000000000127e+03
4.800000000000000100e-02 4.940444999999999975e-01 4.737894999999999968e+00 5.446965000000000146e+01 1.397490000000000009e+03
4.900000000000000189e-02 4.942024999999999890e-01 5.446060000000000123e+00 5.516899999999999693e+01 1.397619999999999891e+03
5.000000000000000278e-02 4.944450000000000234e-01 6.303024999999999878e+00 5.624600000000000222e+01 1.397880000000000109e+03
5.100000000000000366e-02 4.947690000000000143e-01 7.305245000000000211e+00 5.768075000000000330e+01 1.398255000000000109e+03
5.200000000000000455e-02 4.951694999999999847e-01 8.447680000000000078e+00 5.945054999999999978e+01 1.398744999999999891e+03
5.300000000000000544e-02 4.956409999999999982e-01 9.723200000000000287e+00 6.152989999999999782e+01 1.399340000000000146e+03
5.399999999999999939e-02 4.961769999999999792e-01 1.112146500000000060e+01 6.389045000000000130e+01 1.400035000000000082e+03
5.500000000000000028e-02 4.967699999999999894e-01 1.262891500000000100e+01 6.650055000000000405e+01 1.400819999999999936e+03
5.600000000000000117e-02 4.974119999999999653e-01 1.422834500000000091e+01 6.932525000000001114e+01 1.401690000000000055e+03
5.700000000000000205e-02 4.980939999999999812e-01 1.589958500000000008e+01 7.232649999999999579e+01 1.402619999999999891e+03
5.800000000000000294e-02 4.988049999999999984e-01 1.762009499999999917e+01 7.546410000000000196e+01 1.403605000000000018e+03
5.900000000000000383e-02 4.995370000000000088e-01 1.936625000000000085e+01 7.869684999999999775e+01 1.404639999999999873e+03
6.000000000000000472e-02 5.002794999999999881e-01 2.111455000000000126e+01 8.198409999999999798e+01 1.405699999999999818e+03
6.099999999999999867e-02 5.010234999999999550e-01 2.284240000000000137e+01 8.528735000000000355e+01 1.406779999999999973e+03
6.199999999999999956e-02 5.017625000000000002e-01 2.452980000000000160e+01 8.857155000000000200e+01 1.407865000000000009e+03
6.300000000000000044e-02 5.024895000000000334e-01 2.615959999999999752e+01 9.180679999999999552e+01 1.408950000000000045e+03
6.400000000000000133e-02 5.031999999999999806e-01 2.771804999999999808e+01 9.496914999999999907e+01 1.410025000000000091e+03
6.500000000000000222e-02 5.038909999999999778e-01 2.919510000000000005e+01 9.804079999999999018e+01 1.411074999999999818e+03
6.600000000000000311e-02 5.045610000000000372e-01 3.058445000000000036e+01 1.010113499999999931e+02 1.412099999999999909e+03
6.700000000000000400e-02 5.052090000000000192e-01 3.188284999999999769e+01 1.038754500000000007e+02 1.413105000000000018e+03
6.800000000000000488e-02 5.058359999999999523e-01 3.309005000000000507e+01 1.066340999999999894e+02 1.414079999999999927e+03
6.900000000000000577e-02 5.064435000000000464e-01 3.420810000000000173e+01 1.092920000000000016e+02 1.415025000000000091e+03
7.000000000000000666e-02 5.070335000000000258e-01 3.524085000000000178e+01 1.118580000000000041e+02 1.415940000000000055e+03
7.100000000000000755e-02 5.076095000000000468e-01 3.619344999999999857e+01 1.143439999999999941e+02 1.416835000000000036e+03
7.200000000000000844e-02 5.081729999999999858e-01 3.707169999999999987e+01 1.167620000000000005e+02 1.417710000000000036e+03
7.300000000000000933e-02 5.087269999999999293e-01 3.788165000000000049e+01 1.191244999999999976e+02 1.418565000000000055e+03
7.399999999999999634e-02 5.092744999999999633e-01 3.862919999999999732e+01 1.214440000000000026e+02 1.419400000000000091e+03
7.499999999999999722e-02 5.098165000000000058e-01 3.931945000000000334e+01 1.237300000000000040e+02 1.420224999999999909e+03
7.599999999999999811e-02 5.103545000000000442e-01 3.995680000000000121e+01 1.259894999999999925e+02 1.421045000000000073e+03
7.699999999999999900e-02 5.108890000000000375e-01 4.054439999999999600e+01 1.282274999999999920e+02 1.421849999999999909e+03
7.799999999999999989e-02 5.114199999999999857e-01 4.108384999999999820e+01 1.304454999999999814e+02 1.422650000000000091e+03
7.900000000000000078e-02 5.119454999999999423e-01 4.157545000000000357e+01 1.326405000000000030e+02 1.423445000000000164e+03
8.000000000000000167e-02 5.124649999999999483e-01 4.201814999999999856e+01 1.348059999999999832e+02 1.424224999999999909e+03
8.100000000000000255e-02 5.129749999999999588e-01 4.240935000000000343e+01 1.369329999999999927e+02 1.425000000000000000e+03
8.200000000000000344e-02 5.134730000000000683e-01 4.274554999999999438e+01 1.390105000000000075e+02 1.425755000000000109e+03
8.300000000000000433e-02 5.139549999999999397e-01 4.302240000000000464e+01 1.410229999999999961e+02 1.426485000000000127e+03
8.400000000000000522e-02 5.144185000000000008e-01 4.323505000000000109e+01 1.429560000000000173e+02 1.427195000000000164e+03
8.500000000000000611e-02 5.148584999999999967e-01 4.337855000000000416e+01 1.447930000000000064e+02 1.427875000000000000e+03
8.600000000000000699e-02 5.152725000000000222e-01 4.344814999999999827e+01 1.465180000000000007e+02 1.428519999999999982e+03
8.700000000000000788e-02 5.156555000000000444e-01 4.343965000000000032e+01 1.481175000000000068e+02 1.429125000000000000e+03
8.800000000000000877e-02 5.160069999999999935e-01 4.334964999999999691e+01 1.495765000000000100e+02 1.429679999999999836e+03
8.899999999999999578e-02 5.163229999999999764e-01 4.317589999999999861e+01 1.508849999999999909e+02 1.430190000000000055e+03
8.999999999999999667e-02 5.166020000000000056e-01 4.291724999999999568e+01 1.520350000000000250e+02 1.430650000000000091e+03
9.099999999999999756e-02 5.168435000000000112e-01 4.257404999999999973e+01 1.530204999999999984e+02 1.431054999999999836e+03
9.199999999999999845e-02 5.170470000000000343e-01 4.214789999999999992e+01 1.538399999999999750e+02 1.431404999999999973e+03
9.299999999999999933e-02 5.172124999999999639e-01 4.164189999999999969e+01 1.544939999999999998e+02 1.431690000000000055e+03
9.400000000000000022e-02 5.173415000000000097e-01 4.106029999999999802e+01 1.549869999999999948e+02 1.431930000000000064e+03
9.500000000000000111e-02 5.174354999999999372e-01 4.040890000000000271e+01 1.553254999999999768e+02 1.432110000000000127e+03
9.600000000000000200e-02 5.174965000000000259e-01 3.969440000000000168e+01 1.555190000000000055e+02 1.432244999999999891e+03
9.700000000000000289e-02 5.175275000000000292e-01 3.892439999999999856e+01 1.555790000000000077e+02 1.432325000000000045e+03
9.800000000000000377e-02 5.175315000000000332e-01 3.810750000000000171e+01 1.555194999999999936e+02 1.432365000000000009e+03
9.900000000000000466e-02 5.175115000000000132e-01 3.725260000000000105e+01 1.553545000000000016e+02 1.432355000000000018e+03
1.000000000000000056e-01 5.174714999999999732e-01 3.636899999999999977e+01 1.551000000000000227e+02 1.432319999999999936e+03
1.010000000000000064e-01 5.174144999999999994e-01 3.546609999999999729e+01 1.547724999999999795e+02 1.432255000000000109e+03
1.020000000000000073e-01 5.173444999999999849e-01 3.455299999999999727e+01 1.543874999999999886e+02 1.432159999999999854e+03
1.030000000000000082e-01 5.172649999999999748e-01 3.363859999999999673e+01 1.539610000000000127e+02 1.432045000000000073e+03
1.040000000000000091e-01 5.171784999999999854e-01 3.273084999999999667e+01 1.535064999999999884e+02 1.431920000000000073e+03
1.050000000000000100e-01 5.170890000000000208e-01 3.183705000000000140e+01 1.530389999999999873e+02 1.431775000000000091e+03
1.059999999999999970e-01 5.169979999999999576e-01 3.096330000000000027e+01 1.525690000000000168e+02 1.431630000000000109e+03
1.069999999999999979e-01 5.169075000000000752e-01 3.011444999999999794e+01 1.521059999999999945e+02 1.431485000000000127e+03
1.079999999999999988e-01 5.168194999999999872e-01 2.929415000000000191e+01 1.516574999999999989e+02 1.431335000000000036e+03
1.089999999999999997e-01 5.167344999999999855e-01 2.850444999999999851e+01 1.512284999999999968e+02 1.431190000000000055e+03
1.100000000000000006e-01 5.166534999999999878e-01 2.774604999999999677e+01 1.508215000000000146e+02 1.431049999999999955e+03
1.110000000000000014e-01 5.165759999999999241e-01 2.701839999999999975e+01 1.504375000000000000e+02 1.430909999999999854e+03
1.120000000000000023e-01 5.165009999999999879e-01 2.631944999999999979e+01 1.500734999999999957e+02 1.430779999999999973e+03
1.130000000000000032e-01 5.164284999999999570e-01 2.564620000000000033e+01 1.497264999999999873e+02 1.430654999999999973e+03
1.140000000000000041e-01 5.163569999999999549e-01 2.499479999999999791e+01 1.493909999999999911e+02 1.430529999999999973e+03
1.150000000000000050e-01 5.162845000000000351e-01 2.436054999999999993e+01 1.490595000000000141e+02 1.430404999999999973e+03
1.160000000000000059e-01 5.162094999999999878e-01 2.373845000000000027e+01 1.487250000000000227e+02 1.430280000000000200e+03
1.170000000000000068e-01 5.161304999999999366e-01 2.312320000000000064e+01 1.483795000000000073e+02 1.430154999999999973e+03
1.180000000000000077e-01 5.160449999999999759e-01 2.250965000000000060e+01 1.480149999999999864e+02 1.430019999999999982e+03
1.190000000000000085e-01 5.159525000000000361e-01 2.189274999999999949e+01 1.476245000000000118e+02 1.429885000000000218e+03
1.200000000000000094e-01 5.158510000000000595e-01 2.126800000000000068e+01 1.472004999999999768e+02 1.429740000000000009e+03
1.209999999999999964e-01 5.157399999999999762e-01 2.063159999999999883e+01 1.467375000000000114e+02 1.429579999999999927e+03
1.219999999999999973e-01 5.156184999999999796e-01 1.998049999999999926e+01 1.462309999999999945e+02 1.429404999999999973e+03
1.229999999999999982e-01 5.154849999999999710e-01 1.931259999999999977e+01 1.456784999999999854e+02 1.429219999999999800e+03
1.239999999999999991e-01 5.153410000000000490e-01 1.862664999999999793e+01 1.450790000000000077e+02 1.429025000000000091e+03
1.250000000000000000e-01 5.151860000000000328e-01 1.792259999999999920e+01 1.444329999999999927e+02 1.428804999999999836e+03
1.260000000000000009e-01 5.150209999999999511e-01 1.720129999999999981e+01 1.437420000000000186e+02 1.428574999999999818e+03
1.270000000000000018e-01 5.148470000000000546e-01 1.646464999999999890e+01 1.430120000000000005e+02 1.428335000000000036e+03
1.280000000000000027e-01 5.146654999999999980e-01 1.571550000000000047e+01 1.422460000000000093e+02 1.428079999999999927e+03
1.290000000000000036e-01 5.144785000000000608e-01 1.495760999999999896e+01 1.414529999999999745e+02 1.427815000000000055e+03
1.300000000000000044e-01 5.142875000000000085e-01 1.419533500000000004e+01 1.406394999999999982e+02 1.427539999999999964e+03
1.310000000000000053e-01 5.140949999999999687e-01 1.343367000000000111e+01 1.398154999999999859e+02 1.427269999999999982e+03
1.320000000000000062e-01 5.139024999999999288e-01 1.267805500000000052e+01 1.389895000000000209e+02 1.426990000000000009e+03
1.330000000000000071e-01 5.137129999999999752e-01 1.193419500000000077e+01 1.381720000000000255e+02 1.426710000000000036e+03
1.340000000000000080e-01 5.135290000000000132e-01 1.120786999999999978e+01 1.373729999999999905e+02 1.426430000000000064e+03
1.350000000000000089e-01 5.133514999999999606e-01 1.050463000000000058e+01 1.366014999999999873e+02 1.426164999999999964e+03
1.360000000000000098e-01 5.131835000000000147e-01 9.829969999999999430e+00 1.358659999999999854e+02 1.425909999999999854e+03
1.370000000000000107e-01 5.130265000000000519e-01 9.188810000000000144e+00 1.351754999999999995e+02 1.425664999999999964e+03
1.380000000000000115e-01 5.128810000000000313e-01 8.585385000000000488e+00 1.345360000000000014e+02 1.425429999999999836e+03
1.390000000000000124e-01 5.127500000000000391e-01 8.023374999999999702e+00 1.339535000000000196e+02 1.425215000000000146e+03
1.400000000000000133e-01 5.126330000000000053e-01 7.505535000000000068e+00 1.334314999999999998e+02 1.425019999999999982e+03
1.410000000000000142e-01 5.125305000000000000e-01 7.033770000000000522e+00 1.329724999999999966e+02 1.424845000000000027e+03
1.420000000000000151e-01 5.124429999999999819e-01 6.609035000000000437e+00 1.325790000000000077e+02 1.424690000000000055e+03
1.430000000000000160e-01 5.123699999999999921e-01 6.231379999999999697e+00 1.322485000000000070e+02 1.424554999999999836e+03
1.440000000000000169e-01 5.123105000000000020e-01 5.899944999999999773e+00 1.319795000000000016e+02 1.424440000000000055e+03
1.450000000000000178e-01 5.122640000000000526e-01 5.613065000000000637e+00 1.317685000000000173e+02 1.424344999999999800e+03
1.459999999999999909e-01 5.122295000000000043e-01 5.368325000000000458e+00 1.316109999999999900e+02 1.424264999999999873e+03
1.469999999999999918e-01 5.122050000000000214e-01 5.162689999999999557e+00 1.315010000000000048e+02 1.424210000000000036e+03
1.479999999999999927e-01 5.121894999999999643e-01 4.992634999999999934e+00 1.314325000000000045e+02 1.424159999999999854e+03
1.489999999999999936e-01 5.121814999999999563e-01 4.854264999999999830e+00 1.313974999999999795e+02 1.424125000000000000e+03
1.499999999999999944e-01 5.121790000000000509e-01 4.743464999999999598e+00 1.313899999999999864e+02 1.424105000000000018e+03
1.509999999999999953e-01 5.121805000000000385e-01 4.656044999999999767e+00 1.314025000000000034e+02 1.424095000000000027e+03
1.519999999999999962e-01 5.121845000000000425e-01 4.587830000000000297e+00 1.314275000000000091e+02 1.424085000000000036e+03
1.529999999999999971e-01 5.121890000000000054e-01 4.534805000000000419e+00 1.314590000000000032e+02 1.424085000000000036e+03
1.539999999999999980e-01 5.121940000000000381e-01 4.493184999999999540e+00 1.314915000000000020e+02 1.424079999999999927e+03
1.549999999999999989e-01 5.121974999999999723e-01 4.459500000000000242e+00 1.315190000000000055e+02 1.424079999999999927e+03
1.559999999999999998e-01 5.121985000000000010e-01 4.430674999999999919e+00 1.315384999999999991e+02 1.424079999999999927e+03
1.570000000000000007e-01 5.121964999999999435e-01 4.404014999999999347e+00 1.315450000000000159e+02 1.424075000000000045e+03
1.580000000000000016e-01 5.121919999999999806e-01 4.377254999999999896e+00 1.315370000000000061e+02 1.424070000000000164e+03
1.590000000000000024e-01 5.121830000000000549e-01 4.348589999999999733e+00 1.315120000000000005e+02 1.424055000000000064e+03
