# t [s], A [cm^2], U [cm/s], P [cPa], c [cm/s]
1.000000000000000021e-03 5.494725000000000303e-01 4.909450000000002701e-03 1.037574999999999932e+02 1.573750000000000000e+03
2.000000000000000042e-03 5.494634999999999936e-01 -2.241698500000000038e-03 1.037349999999999994e+02 1.573740000000000009e+03
3.000000000000000062e-03 5.494959999999999845e-01 5.818104999999999805e-02 1.037980000000000018e+02 1.573759999999999991e+03
4.000000000000000083e-03 5.495425000000000448e-01 1.497700000000000142e-01 1.039145000000000039e+02 1.573789999999999964e+03
5.000000000000000104e-03 5.495430000000000037e-01 1.641745000000000010e-01 1.039284999999999997e+02 1.573799999999999955e+03
6.000000000000000125e-03 5.495014999999999761e-01 9.584099999999999564e-02 1.037964999999999947e+02 1.573769999999999982e+03
7.000000000000000146e-03 5.494594999999999896e-01 2.379350000000002296e-02 1.036029999999999944e+02 1.573724999999999909e+03
8.000000000000000167e-03 5.494145000000000278e-01 -6.045299999999997898e-02 1.033534999999999968e+02 1.573664999999999964e+03
9.000000000000001055e-03 5.493369999999999642e-01 -2.202389999999999626e-01 1.029745000000000061e+02 1.573575000000000045e+03
1.000000000000000194e-02 5.492164999999999964e-01 -4.765599999999999836e-01 1.024155000000000086e+02 1.573440000000000055e+03
1.099999999999999936e-02 5.490459999999999230e-01 -8.391300000000000425e-01 1.016370500000000021e+02 1.573255000000000109e+03
1.200000000000000025e-02 5.488119999999999665e-01 -1.325470000000000148e+00 1.005836000000000041e+02 1.572994999999999891e+03
1.300000000000000114e-02 5.485134999999999872e-01 -1.921089999999999964e+00 9.923515000000000441e+01 1.572659999999999854e+03
1.400000000000000203e-02 5.481785000000000130e-01 -2.551434999999999675e+00 9.765370000000000061e+01 1.572259999999999991e+03
1.499999999999999944e-02 5.478499999999999481e-01 -3.105360000000000120e+00 9.596965000000000146e+01 1.571815000000000055e+03
1.600000000000000033e-02 5.475630000000000219e-01 -3.484334000000000042e+00 9.432599999999999341e+01 1.571360000000000127e+03
1.700000000000000122e-02 5.473299999999999832e-01 -3.637558499999999917e+00 9.282259999999999422e+01 1.570924999999999955e+03
1.800000000000000211e-02 5.471430000000000460e-01 -3.568636050000000282e+00 9.149154999999998950e+01 1.570519999999999982e+03
1.900000000000000300e-02 5.469779999999999642e-01 -3.321139000000000063e+00 9.030259999999999820e+01 1.570139999999999873e+03
2.000000000000000042e-02 5.468094999999999484e-01 -2.955641749999999845e+00 8.918735000000000923e+01 1.569769999999999982e+03
2.100000000000000130e-02 5.466170000000000195e-01 -2.527787500000000076e+00 8.806874999999999432e+01 1.569400000000000091e+03
2.200000000000000219e-02 5.463895000000000834e-01 -2.072950000000000070e+00 8.688774999999999693e+01 1.569014999999999873e+03
2.299999999999999961e-02 5.461300000000000043e-01 -1.600539999999999852e+00 8.561945000000000050e+01 1.568605000000000018e+03
2.400000000000000050e-02 5.458494999999999875e-01 -1.098545000000000105e+00 8.427475000000001160e+01 1.568175000000000182e+03
2.500000000000000139e-02 5.455630000000000202e-01 -5.455200000000002269e-01 8.288949999999999818e+01 1.567740000000000009e+03
2.600000000000000228e-02 5.452825000000000033e-01 7.501999999999986457e-02 8.150544999999999618e+01 1.567300000000000182e+03
2.700000000000000316e-02 5.450120000000000520e-01 7.632750000000001478e-01 8.015194999999999936e+01 1.566860000000000127e+03
2.800000000000000058e-02 5.447474999999999401e-01 1.497980000000000089e+00 7.883299999999999841e+01 1.566424999999999955e+03
2.900000000000000147e-02 5.444775000000000587e-01 2.238064999999999749e+00 7.752384999999999593e+01 1.566000000000000000e+03
3.000000000000000236e-02 5.441859999999999475e-01 2.929754999999999665e+00 7.617504999999999882e+01 1.565559999999999945e+03
3.099999999999999978e-02 5.438564999999999650e-01 3.516964999999999897e+00 7.472485000000000355e+01 1.565099999999999909e+03
3.200000000000000067e-02 5.434769999999999879e-01 3.952560000000000073e+00 7.311379999999999768e+01 1.564605000000000018e+03
3.300000000000000155e-02 5.430414999999999548e-01 4.207829999999999515e+00 7.130115000000000691e+01 1.564065000000000055e+03
3.400000000000000244e-02 5.425554999999999684e-01 4.278354999999999464e+00 6.927660000000000196e+01 1.563474999999999909e+03
3.500000000000000333e-02 5.420309999999999295e-01 4.183835000000000193e+00 6.706569999999999254e+01 1.562840000000000146e+03
3.600000000000000422e-02 5.414875000000000105e-01 3.963439999999999408e+00 6.472729999999999961e+01 1.562170000000000073e+03
3.700000000000000511e-02 5.409485000000000543e-01 3.667405000000000026e+00 6.234484999999999388e+01 1.561485000000000127e+03
3.799999999999999906e-02 5.404355000000000686e-01 3.348149999999999959e+00 6.001309999999999434e+01 1.560809999999999945e+03
3.899999999999999994e-02 5.399684999999999624e-01 3.052660000000000373e+00 5.782630000000000337e+01 1.560164999999999964e+03
4.000000000000000083e-02 5.395609999999999573e-01 2.817915000000000170e+00 5.586705000000000609e+01 1.559569999999999936e+03
4.100000000000000172e-02 5.392230000000000079e-01 2.669344999999999857e+00 5.420074999999999932e+01 1.559054999999999836e+03
4.200000000000000261e-02 5.389599999999999946e-01 2.621855000000000047e+00 5.287270000000000181e+01 1.558625000000000000e+03
4.300000000000000350e-02 5.387724999999999875e-01 2.682400000000000340e+00 5.190930000000000177e+01 1.558289999999999964e+03
4.400000000000000439e-02 5.386610000000000564e-01 2.853378000000000192e+00 5.132169999999999987e+01 1.558059999999999945e+03
4.499999999999999833e-02 5.386235000000000328e-01 3.135745000000000005e+00 5.111010000000000275e+01 1.557934999999999945e+03
4.599999999999999922e-02 5.386589999999999989e-01 3.531295000000000073e+00 5.126874999999999716e+01 1.557914999999999964e+03
4.700000000000000011e-02 5.387664999999999260e-01 4.043610000000000149e+00 5.178909999999999769e+01 1.558000000000000000e+03
4.800000000000000100e-02 5.389454999999999663e-01 4.677744999999999820e+00 5.266209999999999525e+01 1.558190000000000055e+03
4.900000000000000189e-02 5.391949999999999799e-01 5.438810000000000144e+00 5.387815000000000509e+01 1.558485000000000127e+03
5.000000000000000278e-02 5.395140000000000491e-01 6.330080000000000595e+00 5.542595000000000027e+01 1.558869999999999891e+03
5.100000000000000366e-02 5.398979999999999890e-01 7.351195000000000590e+00 5.729070000000000107e+01 1.559349999999999909e+03
5.200000000000000455e-02 5.403439999999999355e-01 8.496689999999999188e+00 5.945250000000000057e+01 1.559925000000000182e+03
5.300000000000000544e-02 5.408450000000000202e-01 9.755570000000000519e+00 6.188469999999999516e+01 1.560579999999999927e+03
5.399999999999999939e-02 5.413924999999999432e-01 1.111156499999999880e+01 6.455410000000000537e+01 1.561315000000000055e+03
5.500000000000000028e-02 5.419780000000000708e-01 1.254432000000000080e+01 6.742159999999999798e+01 1.562110000000000127e+03
5.600000000000000117e-02 5.425915000000000044e-01 1.403062999999999860e+01 7.044384999999999764e+01 1.562954999999999927e+03
5.700000000000000205e-02 5.432234999999999703e-01 1.554648500000000055e+01 7.357580000000000098e+01 1.563845000000000027e+03
5.800000000000000294e-02 5.438650000000000428e-01 1.706852999999999909e+01 7.677304999999999779e+01 1.564759999999999991e+03
5.900000000000000383e-02 5.445079999999999920e-01 1.857569999999999766e+01 7.999440000000001305e+01 1.565690000000000055e+03
6.000000000000000472e-02 5.451455000000000606e-01 2.005010000000000048e+01 8.320420000000000016e+01 1.566630000000000109e+03
6.099999999999999867e-02 5.457735000000000225e-01 2.147749999999999915e+01 8.637330000000000041e+01 1.567570000000000164e+03
6.199999999999999956e-02 5.463884999999999437e-01 2.284774999999999778e+01 8.948005000000000564e+01 1.568500000000000000e+03
6.300000000000000044e-02 5.469884999999999886e-01 2.415419999999999945e+01 9.251089999999999236e+01 1.569414999999999964e+03
6.400000000000000133e-02 5.475740000000000052e-01 2.539325000000000188e+01 9.545850000000000080e+01 1.570309999999999945e+03
6.500000000000000222e-02 5.481445000000000345e-01 2.656390000000000029e+01 9.832144999999999868e+01 1.571190000000000055e+03
6.600000000000000311e-02 5.487020000000000231e-01 2.766694999999999993e+01 1.011033500000000060e+02 1.572049999999999955e+03
6.700000000000000400e-02 5.492474999999999996e-01 2.870439999999999969e+01 1.038106500000000096e+02 1.572884999999999991e+03
6.800000000000000488e-02 5.497824999999999518e-01 2.967869999999999919e+01 1.064523000000000081e+02 1.573710000000000036e+03
6.900000000000000577e-02 5.503095000000000070e-01 3.059230000000000160e+01 1.090370000000000061e+02 1.574515000000000100e+03
7.000000000000000666e-02 5.508284999999999432e-01 3.144735000000000014e+01 1.115715000000000003e+02 1.575305000000000064e+03
7.100000000000000755e-02 5.513409999999999700e-01 3.224519999999999698e+01 1.140625000000000000e+02 1.576085000000000036e+03
7.200000000000000844e-02 5.518469999999999764e-01 3.298619999999999663e+01 1.165125000000000028e+02 1.576845000000000027e+03
7.300000000000000933e-02 5.523454999999999337e-01 3.366969999999999885e+01 1.189219999999999970e+02 1.577605000000000018e+03
7.399999999999999634e-02 5.528349999999999653e-01 3.429385000000000616e+01 1.212860000000000014e+02 1.578344999999999800e+03
7.499999999999999722e-02 5.533144999999999314e-01 3.485599999999999454e+01 1.235990000000000038e+02 1.579075000000000045e+03
7.599999999999999811e-02 5.537809999999999677e-01 3.535269999999999868e+01 1.258509999999999991e+02 1.579784999999999854e+03
7.699999999999999900e-02 5.542325000000000168e-01 3.578024999999999523e+01 1.280300000000000011e+02 1.580474999999999909e+03
7.799999999999999989e-02 5.546649999999999636e-01 3.613474999999999682e+01 1.301239999999999952e+02 1.581144999999999982e+03
7.900000000000000078e-02 5.550775000000000015e-01 3.641270000000000095e+01 1.321179999999999950e+02 1.581779999999999973e+03
8.000000000000000167e-02 5.554660000000000153e-01 3.661105000000000587e+01 1.339995000000000118e+02 1.582384999999999991e+03
8.100000000000000255e-02 5.558279999999999887e-01 3.672759999999999536e+01 1.357560000000000002e+02 1.582960000000000036e+03
8.200000000000000344e-02 5.561635000000000328e-01 3.676085000000000491e+01 1.373785000000000025e+02 1.583494999999999891e+03
8.300000000000000433e-02 5.564689999999999914e-01 3.671049999999999613e+01 1.388559999999999945e+02 1.583990000000000009e+03
8.400000000000000522e-02 5.567440000000000166e-01 3.657719999999999771e+01 1.401840000000000259e+02 1.584440000000000055e+03
8.500000000000000611e-02 5.569884999999999975e-01 3.636249999999999716e+01 1.413580000000000041e+02 1.584840000000000146e+03
8.600000000000000699e-02 5.572015000000000162e-01 3.606900000000000261e+01 1.423770000000000095e+02 1.585200000000000045e+03
8.700000000000000788e-02 5.573844999999999494e-01 3.570024999999999693e+01 1.432420000000000186e+02 1.585509999999999991e+03
8.800000000000000877e-02 5.575369999999999493e-01 3.526055000000000206e+01 1.439555000000000007e+02 1.585775000000000091e+03
8.899999999999999578e-02 5.576605000000000034e-01 3.475524999999999665e+01 1.445244999999999891e+02 1.585994999999999891e+03
8.999999999999999667e-02 5.577570000000000583e-01 3.419044999999999845e+01 1.449544999999999959e+02 1.586170000000000073e+03
9.099999999999999756e-02 5.578290000000000193e-01 3.357300000000000040e+01 1.452560000000000002e+02 1.586309999999999945e+03
9.199999999999999845e-02 5.578769999999999563e-01 3.291044999999999732e+01 1.454399999999999977e+02 1.586404999999999973e+03
9.299999999999999933e-02 5.579045000000000254e-01 3.221085000000000065e+01 1.455185000000000173e+02 1.586465000000000146e+03
9.400000000000000022e-02 5.579140000000000210e-01 3.148250000000000171e+01 1.455049999999999955e+02 1.586500000000000000e+03
9.500000000000000111e-02 5.579084999999999184e-01 3.073414999999999964e+01 1.454134999999999991e+02 1.586505000000000109e+03
9.600000000000000200e-02 5.578910000000000258e-01 2.997409999999999997e+01 1.452580000000000098e+02 1.586490000000000009e+03
9.700000000000000289e-02 5.578635000000000677e-01 2.921039999999999992e+01 1.450525000000000091e+02 1.586450000000000045e+03
9.800000000000000377e-02 5.578294999999999781e-01 2.845044999999999646e+01 1.448100000000000023e+02 1.586394999999999982e+03
9.900000000000000466e-02 5.577900000000000080e-01 2.770070000000000121e+01 1.445430000000000064e+02 1.586329999999999927e+03
1.000000000000000056e-01 5.577480000000000215e-01 2.696635000000000204e+01 1.442624999999999886e+02 1.586265000000000100e+03
1.010000000000000064e-01 5.577045000000000474e-01 2.625159999999999982e+01 1.439749999999999943e+02 1.586184999999999945e+03
1.020000000000000073e-01 5.576600000000000446e-01 2.555874999999999986e+01 1.436879999999999882e+02 1.586105000000000018e+03
1.030000000000000082e-01 5.576155000000000417e-01 2.488920000000000243e+01 1.434044999999999845e+02 1.586019999999999982e+03
1.040000000000000091e-01 5.575704999999999689e-01 2.424264999999999759e+01 1.431265000000000214e+02 1.585934999999999945e+03
1.050000000000000100e-01 5.575255000000000072e-01 2.361769999999999925e+01 1.428524999999999920e+02 1.585855000000000018e+03
1.059999999999999970e-01 5.574790000000000578e-01 2.301189999999999714e+01 1.425799999999999841e+02 1.585769999999999982e+03
1.069999999999999979e-01 5.574299999999999811e-01 2.242200000000000060e+01 1.423054999999999950e+02 1.585679999999999836e+03
1.079999999999999988e-01 5.573775000000000812e-01 2.184409999999999741e+01 1.420219999999999914e+02 1.585594999999999800e+03
1.089999999999999997e-01 5.573204999999999965e-01 2.127410000000000068e+01 1.417250000000000227e+02 1.585500000000000000e+03
1.100000000000000006e-01 5.572580000000000311e-01 2.070755000000000123e+01 1.414074999999999989e+02 1.585400000000000091e+03
1.110000000000000014e-01 5.571880000000000166e-01 2.014045000000000130e+01 1.410635000000000048e+02 1.585300000000000182e+03
1.120000000000000023e-01 5.571104999999999530e-01 1.956884999999999764e+01 1.406875000000000000e+02 1.585179999999999836e+03
1.130000000000000032e-01 5.570235000000000047e-01 1.898944999999999794e+01 1.402754999999999939e+02 1.585059999999999945e+03
1.140000000000000041e-01 5.569284999999999375e-01 1.839959999999999951e+01 1.398229999999999791e+02 1.584924999999999955e+03
1.150000000000000050e-01 5.568235000000000268e-01 1.779739999999999966e+01 1.393285000000000196e+02 1.584779999999999973e+03
1.160000000000000059e-01 5.567100000000000382e-01 1.718185000000000073e+01 1.387930000000000064e+02 1.584619999999999891e+03
1.170000000000000068e-01 5.565875000000000128e-01 1.655290000000000106e+01 1.382164999999999964e+02 1.584454999999999927e+03
1.180000000000000077e-01 5.564580000000000082e-01 1.591130000000000067e+01 1.376030000000000086e+02 1.584269999999999982e+03
1.190000000000000085e-01 5.563215000000000243e-01 1.525905000000000022e+01 1.369565000000000055e+02 1.584085000000000036e+03
1.200000000000000094e-01 5.561800000000000077e-01 1.459874999999999901e+01 1.362839999999999918e+02 1.583884999999999991e+03
1.209999999999999964e-01 5.560355000000000159e-01 1.393387500000000045e+01 1.355930000000000177e+02 1.583680000000000064e+03
1.219999999999999973e-01 5.558904999999999541e-01 1.326869499999999924e+01 1.348919999999999959e+02 1.583474999999999909e+03
1.229999999999999982e-01 5.557455000000000034e-01 1.260777500000000018e+01 1.341910000000000025e+02 1.583259999999999991e+03
1.239999999999999991e-01 5.556035000000000279e-01 1.195628499999999939e+01 1.334995000000000118e+02 1.583054999999999836e+03
1.250000000000000000e-01 5.554670000000000440e-01 1.131947500000000062e+01 1.328280000000000030e+02 1.582849999999999909e+03
1.260000000000000009e-01 5.553375000000000394e-01 1.070248499999999936e+01 1.321864999999999952e+02 1.582654999999999973e+03
1.270000000000000018e-01 5.552169999999999606e-01 1.011036000000000001e+01 1.315850000000000080e+02 1.582469999999999800e+03
1.280000000000000027e-01 5.551070000000000171e-01 9.547729999999999606e+00 1.310314999999999941e+02 1.582289999999999964e+03
1.290000000000000036e-01 5.550089999999999746e-01 9.018650000000000944e+00 1.305339999999999918e+02 1.582134999999999991e+03
1.300000000000000044e-01 5.549245000000000427e-01 8.526464999999999961e+00 1.300974999999999966e+02 1.581994999999999891e+03
1.310000000000000053e-01 5.548534999999999995e-01 8.073629999999999640e+00 1.297265000000000157e+02 1.581864999999999782e+03
1.320000000000000062e-01 5.547969999999999846e-01 7.661865000000000592e+00 1.294244999999999948e+02 1.581760000000000218e+03
1.330000000000000071e-01 5.547539999999999694e-01 7.291850000000000165e+00 1.291915000000000191e+02 1.581675000000000182e+03
1.340000000000000080e-01 5.547250000000000236e-01 6.963379999999999903e+00 1.290260000000000105e+02 1.581610000000000127e+03
1.350000000000000089e-01 5.547090000000000076e-01 6.675409999999999400e+00 1.289254999999999995e+02 1.581565000000000055e+03
1.360000000000000098e-01 5.547050000000000036e-01 6.426095000000000113e+00 1.288859999999999957e+02 1.581530000000000200e+03
1.370000000000000107e-01 5.547115000000000240e-01 6.212950000000000195e+00 1.289020000000000152e+02 1.581519999999999982e+03
1.380000000000000115e-01 5.547275000000000400e-01 6.032954999999999401e+00 1.289664999999999964e+02 1.581519999999999982e+03
1.390000000000000124e-01 5.547509999999999941e-01 5.882735000000000269e+00 1.290724999999999909e+02 1.581539999999999964e+03
1.400000000000000133e-01 5.547809999999999686e-01 5.758670000000000400e+00 1.292135000000000105e+02 1.581569999999999936e+03
1.410000000000000142e-01 5.548159999999999759e-01 5.657080000000000553e+00 1.293799999999999955e+02 1.581605000000000018e+03
1.420000000000000151e-01 5.548534999999999995e-01 5.574320000000000164e+00 1.295665000000000191e+02 1.581650000000000091e+03
1.430000000000000160e-01 5.548939999999999984e-01 5.506925000000000736e+00 1.297659999999999911e+02 1.581699999999999818e+03
1.440000000000000169e-01 5.549355000000000260e-01 5.451649999999999885e+00 1.299720000000000084e+02 1.581755000000000109e+03
1.450000000000000178e-01 5.549760000000000248e-01 5.405554999999999666e+00 1.301784999999999854e+02 1.581809999999999945e+03
1.459999999999999909e-01 5.550165000000000237e-01 5.366060000000000052e+00 1.303824999999999932e+02 1.581865000000000009e+03
1.469999999999999918e-01 5.550550000000000761e-01 5.330920000000000769e+00 1.305790000000000077e+02 1.581920000000000073e+03
1.479999999999999927e-01 5.550920000000000298e-01 5.298249999999999460e+00 1.307665000000000077e+02 1.581980000000000018e+03
1.489999999999999936e-01 5.551264999999999672e-01 5.266535000000000188e+00 1.309420000000000073e+02 1.582025000000000091e+03
1.499999999999999944e-01 5.551584999999999992e-01 5.234555000000000291e+00 1.311059999999999945e+02 1.582075000000000045e+03
1.509999999999999953e-01 5.551885000000000847e-01 5.201394999999999769e+00 1.312560000000000002e+02 1.582119999999999891e+03
1.519999999999999962e-01 5.552154999999999729e-01 5.166404999999999248e+00 1.313935000000000173e+02 1.582164999999999964e+03
1.529999999999999971e-01 5.552405000000000257e-01 5.129165000000000418e+00 1.315180000000000007e+02 1.582204999999999927e+03
1.539999999999999980e-01 5.552630000000000621e-01 5.089455000000000062e+00 1.316304999999999836e+02 1.582240000000000009e+03
1.549999999999999989e-01 5.552835000000000409e-01 5.047204999999999941e+00 1.317309999999999945e+02 1.582275000000000091e+03
1.559999999999999998e-01 5.553019999999999623e-01 5.002480000000000260e+00 1.318215000000000146e+02 1.582300000000000182e+03
1.570000000000000007e-01 5.553194999999999659e-01 4.955429999999999779e+00 1.319025000000000034e+02 1.582329999999999927e+03
1.580000000000000016e-01 5.553345000000000642e-01 4.906269999999999243e+00 1.319749999999999943e+02 1.582349999999999909e+03
1.590000000000000024e-01 5.553485000000000227e-01 4.855245000000000033e+00 1.320389999999999873e+02 1.582375000000000000e+03
