# t [s], A [cm^2], U [cm/s], P [cPa], c [cm/s]
1.000000000000000021e-03 1.459564999999999890e-01 2.158490000000000131e-01 9.935365000000000180e+01 1.981349999999999909e+03
2.000000000000000042e-03 1.459310000000000052e-01 1.605843499999999979e+00 9.650839999999999463e+01 1.981059999999999945e+03
3.000000000000000062e-03 1.458419999999999994e-01 3.356355999999999895e+00 9.262899999999999068e+01 1.980110000000000127e+03
4.000000000000000083e-03 1.457094999999999918e-01 5.322645300000000468e+00 8.818555000000000632e+01 1.978730000000000018e+03
5.000000000000000104e-03 1.455579999999999929e-01 7.450054999999999872e+00 8.391679999999999495e+01 1.977154999999999973e+03
6.000000000000000125e-03 1.454044999999999921e-01 9.631919999999999149e+00 8.023924999999999841e+01 1.975574999999999818e+03
7.000000000000000146e-03 1.452569999999999972e-01 1.170164000000000115e+01 7.713909999999999911e+01 1.974085000000000036e+03
8.000000000000000167e-03 1.451184999999999836e-01 1.352838999999999992e+01 7.440190000000001191e+01 1.972704999999999927e+03
9.000000000000001055e-03 1.449909999999999810e-01 1.508944500000000133e+01 7.194254999999999711e+01 1.971454999999999927e+03
1.000000000000000194e-02 1.448784999999999934e-01 1.641525000000000034e+01 6.981874999999999432e+01 1.970365000000000009e+03
1.099999999999999936e-02 1.447824999999999807e-01 1.752810000000000201e+01 6.806924999999999670e+01 1.969444999999999936e+03
1.200000000000000025e-02 1.447025000000000117e-01 1.844020000000000081e+01 6.667334999999999923e+01 1.968684999999999945e+03
1.300000000000000114e-02 1.446375000000000022e-01 1.915944999999999965e+01 6.557779999999999632e+01 1.968075000000000045e+03
1.400000000000000203e-02 1.445845000000000047e-01 1.968735000000000213e+01 6.469859999999999900e+01 1.967590000000000146e+03
1.499999999999999944e-02 1.445405000000000162e-01 2.003229999999999933e+01 6.394629999999999370e+01 1.967194999999999936e+03
1.600000000000000033e-02 1.445045000000000079e-01 2.023780000000000001e+01 6.330280000000000484e+01 1.966875000000000000e+03
1.700000000000000122e-02 1.444774999999999809e-01 2.039179999999999993e+01 6.288335000000000008e+01 1.966639999999999873e+03
1.800000000000000211e-02 1.444644999999999957e-01 2.060240000000000293e+01 6.290664999999999907e+01 1.966529999999999973e+03
1.900000000000000300e-02 1.444695000000000007e-01 2.095179999999999865e+01 6.358099999999999596e+01 1.966595000000000027e+03
2.000000000000000042e-02 1.444964999999999999e-01 2.146090000000000231e+01 6.498075000000000045e+01 1.966855000000000018e+03
2.100000000000000130e-02 1.445430000000000048e-01 2.208064999999999856e+01 6.698429999999999040e+01 1.967309999999999945e+03
2.200000000000000219e-02 1.446040000000000103e-01 2.271294999999999931e+01 6.930025000000000546e+01 1.967905000000000200e+03
2.299999999999999961e-02 1.446709999999999940e-01 2.324634999999999962e+01 7.155850000000000932e+01 1.968559999999999945e+03
2.400000000000000050e-02 1.447350000000000025e-01 2.359199999999999875e+01 7.342244999999999777e+01 1.969190000000000055e+03
2.500000000000000139e-02 1.447880000000000000e-01 2.370620000000000260e+01 7.467804999999999893e+01 1.969724999999999909e+03
2.600000000000000228e-02 1.448254999999999959e-01 2.359655000000000058e+01 7.527504999999999313e+01 1.970115000000000009e+03
2.700000000000000316e-02 1.448475000000000179e-01 2.331040000000000134e+01 7.531295000000000073e+01 1.970355000000000018e+03
2.800000000000000058e-02 1.448570000000000135e-01 2.291389999999999816e+01 7.498465000000000202e+01 1.970460000000000036e+03
2.900000000000000147e-02 1.448575000000000002e-01 2.246849999999999881e+01 7.450204999999999700e+01 1.970485000000000127e+03
3.000000000000000236e-02 1.448535000000000239e-01 2.201370000000000005e+01 7.402959999999998786e+01 1.970449999999999818e+03
3.099999999999999978e-02 1.448480000000000045e-01 2.155980000000000274e+01 7.364435000000000286e+01 1.970400000000000091e+03
3.200000000000000067e-02 1.448419999999999985e-01 2.109134999999999849e+01 7.333150000000000546e+01 1.970345000000000027e+03
3.300000000000000155e-02 1.448349999999999915e-01 2.057869999999999777e+01 7.300955000000000439e+01 1.970279999999999973e+03
3.400000000000000244e-02 1.448250000000000093e-01 1.999295000000000044e+01 7.257359999999999900e+01 1.970180000000000064e+03
3.500000000000000333e-02 1.448095000000000077e-01 1.931960000000000122e+01 7.194214999999999804e+01 1.970039999999999964e+03
3.600000000000000422e-02 1.447880000000000000e-01 1.856799999999999784e+01 7.109425000000000239e+01 1.969839999999999918e+03
3.700000000000000511e-02 1.447610000000000008e-01 1.777304999999999779e+01 7.008625000000000682e+01 1.969585000000000036e+03
3.799999999999999906e-02 1.447304999999999842e-01 1.698995000000000033e+01 6.904505000000000337e+01 1.969299999999999955e+03
3.899999999999999994e-02 1.447014999999999829e-01 1.628275000000000006e+01 6.814045000000000130e+01 1.969014999999999873e+03
4.000000000000000083e-02 1.446780000000000010e-01 1.571010000000000062e+01 6.754465000000000430e+01 1.968784999999999854e+03
4.100000000000000172e-02 1.446635000000000004e-01 1.531294999999999895e+01 6.739069999999999538e+01 1.968634999999999991e+03
4.200000000000000261e-02 1.446620000000000128e-01 1.510609999999999964e+01 6.774115000000000464e+01 1.968615000000000009e+03
4.300000000000000350e-02 1.446749999999999980e-01 1.507574999999999932e+01 6.857384999999999309e+01 1.968715000000000146e+03
4.400000000000000439e-02 1.446995000000000087e-01 1.518280000000000030e+01 6.978679999999999950e+01 1.968944999999999936e+03
4.499999999999999833e-02 1.447344999999999882e-01 1.537119999999999997e+01 7.121869999999999834e+01 1.969269999999999982e+03
4.599999999999999922e-02 1.447749999999999870e-01 1.557720000000000127e+01 7.267869999999999209e+01 1.969654999999999973e+03
4.700000000000000011e-02 1.448154999999999859e-01 1.573925000000000196e+01 7.397809999999999775e+01 1.970045000000000073e+03
4.800000000000000100e-02 1.448510000000000075e-01 1.580600000000000094e+01 7.495730000000000359e+01 1.970389999999999873e+03
4.900000000000000189e-02 1.448784999999999934e-01 1.574044999999999916e+01 7.550444999999999141e+01 1.970659999999999854e+03
5.000000000000000278e-02 1.448929999999999940e-01 1.552214999999999989e+01 7.556220000000000425e+01 1.970809999999999945e+03
5.100000000000000366e-02 1.448949999999999960e-01 1.514569999999999972e+01 7.512569999999999482e+01 1.970835000000000036e+03
5.200000000000000455e-02 1.448824999999999974e-01 1.461789999999999878e+01 7.423250000000000171e+01 1.970724999999999909e+03
5.300000000000000544e-02 1.448559999999999848e-01 1.395374999999999943e+01 7.294810000000001082e+01 1.970485000000000127e+03
5.399999999999999939e-02 1.448185000000000167e-01 1.317290000000000028e+01 7.135195000000000221e+01 1.970125000000000000e+03
5.500000000000000028e-02 1.447709999999999830e-01 1.229672499999999857e+01 6.952500000000000568e+01 1.969670000000000073e+03
5.600000000000000117e-02 1.447160000000000113e-01 1.134665000000000035e+01 6.754240000000000066e+01 1.969134999999999991e+03
5.700000000000000205e-02 1.446540000000000048e-01 1.034384000000000015e+01 6.546985000000000809e+01 1.968545000000000073e+03
5.800000000000000294e-02 1.445889999999999953e-01 9.309490000000000265e+00 6.336455000000000126e+01 1.967914999999999964e+03
5.900000000000000383e-02 1.445219999999999838e-01 8.265710000000000335e+00 6.127870000000000061e+01 1.967269999999999982e+03
6.000000000000000472e-02 1.444544999999999857e-01 7.236580000000000013e+00 5.926304999999999978e+01 1.966610000000000127e+03
6.099999999999999867e-02 1.443889999999999896e-01 6.248334999999999972e+00 5.737115000000000009e+01 1.965974999999999909e+03
6.199999999999999956e-02 1.443264999999999965e-01 5.329720000000000013e+00 5.566089999999999804e+01 1.965365000000000009e+03
6.300000000000000044e-02 1.442700000000000093e-01 4.511055000000000703e+00 5.419480000000000075e+01 1.964809999999999945e+03
6.400000000000000133e-02 1.442205000000000015e-01 3.823090000000000099e+00 5.303794999999999504e+01 1.964325000000000045e+03
6.500000000000000222e-02 1.441810000000000036e-01 3.295335000000000125e+00 5.225424999999999898e+01 1.963940000000000055e+03
6.600000000000000311e-02 1.441534999999999900e-01 2.954245000000000232e+00 5.190189999999999770e+01 1.963654999999999973e+03
6.700000000000000400e-02 1.441390000000000171e-01 2.821534999999999904e+00 5.202864999999999895e+01 1.963505000000000109e+03
6.800000000000000488e-02 1.441405000000000047e-01 2.912679999999999936e+00 5.266774999999999807e+01 1.963500000000000000e+03
6.900000000000000577e-02 1.441580000000000084e-01 3.235999999999999766e+00 5.383500000000000085e+01 1.963655000000000200e+03
7.000000000000000666e-02 1.441919999999999868e-01 3.792180000000000106e+00 5.552755000000000507e+01 1.963965000000000146e+03
7.100000000000000755e-02 1.442430000000000101e-01 4.574370000000000047e+00 5.772379999999999711e+01 1.964440000000000055e+03
7.200000000000000844e-02 1.443099999999999938e-01 5.568754999999999455e+00 6.038539999999999708e+01 1.965074999999999818e+03
7.300000000000000933e-02 1.443924999999999792e-01 6.755539999999999878e+00 6.345985000000000298e+01 1.965860000000000127e+03
7.399999999999999634e-02 1.444885000000000197e-01 8.110194999999999155e+00 6.688420000000000698e+01 1.966775000000000091e+03
7.499999999999999722e-02 1.445970000000000033e-01 9.604884999999999451e+00 7.058920000000000528e+01 1.967809999999999945e+03
7.599999999999999811e-02 1.447144999999999959e-01 1.121008999999999922e+01 7.450344999999998663e+01 1.968945000000000164e+03
7.699999999999999900e-02 1.448405000000000109e-01 1.289586500000000058e+01 7.855754999999999200e+01 1.970160000000000082e+03
7.799999999999999989e-02 1.449715000000000031e-01 1.463359999999999950e+01 8.268754999999998745e+01 1.971429999999999836e+03
7.900000000000000078e-02 1.451054999999999984e-01 1.639665000000000106e+01 8.683809999999999718e+01 1.972740000000000009e+03
8.000000000000000167e-02 1.452430000000000110e-01 1.816189999999999927e+01 9.096410000000000196e+01 1.974079999999999927e+03
8.100000000000000255e-02 1.453794999999999948e-01 1.990984999999999872e+01 9.503209999999999980e+01 1.975420000000000073e+03
8.200000000000000344e-02 1.455164999999999931e-01 2.162514999999999787e+01 9.902055000000000007e+01 1.976759999999999991e+03
8.300000000000000433e-02 1.456514999999999893e-01 2.329645000000000010e+01 1.029188000000000045e+02 1.978090000000000146e+03
8.400000000000000522e-02 1.457844999999999835e-01 2.491604999999999848e+01 1.067250499999999960e+02 1.979404999999999973e+03
8.500000000000000611e-02 1.459154999999999758e-01 2.647930000000000206e+01 1.104445000000000050e+02 1.980699999999999818e+03
8.600000000000000699e-02 1.460445000000000215e-01 2.798400000000000176e+01 1.140875000000000057e+02 1.981980000000000018e+03
8.700000000000000788e-02 1.461709999999999954e-01 2.942950000000000088e+01 1.176655000000000086e+02 1.983240000000000009e+03
8.800000000000000877e-02 1.462959999999999816e-01 3.081605000000000416e+01 1.211899999999999977e+02 1.984484999999999900e+03
8.899999999999999578e-02 1.464194999999999802e-01 3.214414999999999623e+01 1.246694999999999993e+02 1.985715000000000146e+03
8.999999999999999667e-02 1.465414999999999912e-01 3.341400000000000148e+01 1.281094999999999970e+02 1.986934999999999945e+03
9.099999999999999756e-02 1.466629999999999878e-01 3.462524999999999409e+01 1.315110000000000241e+02 1.988144999999999982e+03
9.199999999999999845e-02 1.467824999999999824e-01 3.577660000000000196e+01 1.348709999999999809e+02 1.989339999999999918e+03
9.299999999999999933e-02 1.469004999999999894e-01 3.686599999999999966e+01 1.381804999999999950e+02 1.990519999999999982e+03
9.400000000000000022e-02 1.470164999999999944e-01 3.789045000000000130e+01 1.414279999999999973e+02 1.991690000000000055e+03
9.500000000000000111e-02 1.471310000000000118e-01 3.884609999999999985e+01 1.445994999999999777e+02 1.992840000000000146e+03
9.600000000000000200e-02 1.472430000000000128e-01 3.972865000000000180e+01 1.476770000000000209e+02 1.993960000000000036e+03
9.700000000000000289e-02 1.473514999999999964e-01 4.053324999999999534e+01 1.506419999999999959e+02 1.995054999999999836e+03
9.800000000000000377e-02 1.474564999999999904e-01 4.125485000000000468e+01 1.534770000000000039e+02 1.996115000000000009e+03
9.900000000000000466e-02 1.475569999999999937e-01 4.188810000000000144e+01 1.561624999999999943e+02 1.997130000000000109e+03
1.000000000000000056e-01 1.476524999999999921e-01 4.242804999999999893e+01 1.586800000000000068e+02 1.998099999999999909e+03
1.010000000000000064e-01 1.477424999999999988e-01 4.286979999999999791e+01 1.610124999999999886e+02 1.999014999999999873e+03
1.020000000000000073e-01 1.478264999999999996e-01 4.320889999999999986e+01 1.631454999999999984e+02 1.999869999999999891e+03
1.030000000000000082e-01 1.479044999999999943e-01 4.344185000000000230e+01 1.650654999999999859e+02 2.000659999999999854e+03
1.040000000000000091e-01 1.479749999999999954e-01 4.356569999999999965e+01 1.667609999999999957e+02 2.001375000000000000e+03
1.050000000000000100e-01 1.480380000000000029e-01 4.357894999999999897e+01 1.682250000000000227e+02 2.002025000000000091e+03
1.059999999999999970e-01 1.480934999999999890e-01 4.348134999999999906e+01 1.694519999999999982e+02 2.002594999999999800e+03
1.069999999999999979e-01 1.481409999999999949e-01 4.327420000000000044e+01 1.704429999999999836e+02 2.003079999999999927e+03
1.079999999999999988e-01 1.481804999999999928e-01 4.296044999999999447e+01 1.712015000000000100e+02 2.003494999999999891e+03
1.089999999999999997e-01 1.482129999999999836e-01 4.254489999999999839e+01 1.717350000000000136e+02 2.003829999999999927e+03
1.100000000000000006e-01 1.482370000000000076e-01 4.203395000000000437e+01 1.720564999999999998e+02 2.004085000000000036e+03
1.110000000000000014e-01 1.482539999999999969e-01 4.143569999999999709e+01 1.721810000000000116e+02 2.004269999999999982e+03
1.120000000000000023e-01 1.482650000000000079e-01 4.075945000000000107e+01 1.721285000000000025e+02 2.004389999999999873e+03
1.130000000000000032e-01 1.482689999999999841e-01 4.001569999999999538e+01 1.719214999999999804e+02 2.004440000000000055e+03
1.140000000000000041e-01 1.482680000000000109e-01 3.921569999999999823e+01 1.715829999999999984e+02 2.004440000000000055e+03
1.150000000000000050e-01 1.482625000000000193e-01 3.837109999999999843e+01 1.711370000000000005e+02 2.004389999999999873e+03
1.160000000000000059e-01 1.482525000000000093e-01 3.749334999999999951e+01 1.706069999999999993e+02 2.004299999999999955e+03
1.170000000000000068e-01 1.482395000000000240e-01 3.659375000000000000e+01 1.700169999999999959e+02 2.004170000000000073e+03
1.180000000000000077e-01 1.482235000000000080e-01 3.568259999999999366e+01 1.693854999999999791e+02 2.004014999999999873e+03
1.190000000000000085e-01 1.482060000000000044e-01 3.476949999999999363e+01 1.687330000000000041e+02 2.003839999999999918e+03
1.200000000000000094e-01 1.481874999999999998e-01 3.386240000000000094e+01 1.680724999999999909e+02 2.003655000000000200e+03
1.209999999999999964e-01 1.481675000000000075e-01 3.296829999999999927e+01 1.674159999999999968e+02 2.003465000000000146e+03
1.219999999999999973e-01 1.481480000000000019e-01 3.209219999999999828e+01 1.667715000000000032e+02 2.003264999999999873e+03
1.229999999999999982e-01 1.481274999999999953e-01 3.123769999999999669e+01 1.661424999999999841e+02 2.003054999999999836e+03
1.239999999999999991e-01 1.481080000000000174e-01 3.040695000000000192e+01 1.655300000000000011e+02 2.002855000000000018e+03
1.250000000000000000e-01 1.480879999999999974e-01 2.960030000000000072e+01 1.649325000000000045e+02 2.002650000000000091e+03
1.260000000000000009e-01 1.480684999999999918e-01 2.881690000000000040e+01 1.643435000000000059e+02 2.002449999999999818e+03
1.270000000000000018e-01 1.480484999999999995e-01 2.805470000000000041e+01 1.637554999999999836e+02 2.002250000000000000e+03
1.280000000000000027e-01 1.480279999999999929e-01 2.731060000000000088e+01 1.631605000000000132e+02 2.002045000000000073e+03
1.290000000000000036e-01 1.480080000000000007e-01 2.658064999999999856e+01 1.625469999999999970e+02 2.001840000000000146e+03
1.300000000000000044e-01 1.479864999999999930e-01 2.586039999999999850e+01 1.619039999999999964e+02 2.001619999999999891e+03
1.310000000000000053e-01 1.479644999999999988e-01 2.514529999999999887e+01 1.612214999999999918e+02 2.001394999999999982e+03
1.320000000000000062e-01 1.479405000000000026e-01 2.443055000000000021e+01 1.604879999999999995e+02 2.001160000000000082e+03
1.330000000000000071e-01 1.479154999999999776e-01 2.371175000000000210e+01 1.596935000000000002e+02 2.000900000000000091e+03
1.340000000000000080e-01 1.478880000000000194e-01 2.298505000000000109e+01 1.588315000000000055e+02 2.000625000000000000e+03
1.350000000000000089e-01 1.478585000000000038e-01 2.224719999999999942e+01 1.578965000000000032e+02 2.000329999999999927e+03
1.360000000000000098e-01 1.478269999999999862e-01 2.149600000000000222e+01 1.568845000000000027e+02 2.000009999999999991e+03
1.370000000000000107e-01 1.477930000000000077e-01 2.073029999999999973e+01 1.557964999999999804e+02 1.999664999999999964e+03
1.380000000000000115e-01 1.477559999999999985e-01 1.994999999999999929e+01 1.546334999999999980e+02 1.999295000000000073e+03
1.390000000000000124e-01 1.477165000000000006e-01 1.915630000000000166e+01 1.534025000000000034e+02 1.998904999999999973e+03
1.400000000000000133e-01 1.476755000000000151e-01 1.835174999999999912e+01 1.521105000000000018e+02 1.998490000000000009e+03
1.410000000000000142e-01 1.476319999999999855e-01 1.753974999999999795e+01 1.507690000000000055e+02 1.998055000000000064e+03
1.420000000000000151e-01 1.475869999999999960e-01 1.672509999999999764e+01 1.493910000000000196e+02 1.997605000000000018e+03
1.430000000000000160e-01 1.475405000000000189e-01 1.591319999999999979e+01 1.479919999999999902e+02 1.997144999999999982e+03
1.440000000000000169e-01 1.474940000000000140e-01 1.511025000000000063e+01 1.465879999999999939e+02 1.996670000000000073e+03
1.450000000000000178e-01 1.474465000000000081e-01 1.432294999999999874e+01 1.451959999999999980e+02 1.996194999999999936e+03
1.459999999999999909e-01 1.473994999999999889e-01 1.355785000000000196e+01 1.438324999999999818e+02 1.995719999999999800e+03
1.469999999999999918e-01 1.473530000000000117e-01 1.282169999999999987e+01 1.425144999999999982e+02 1.995255000000000109e+03
1.479999999999999927e-01 1.473079999999999945e-01 1.212074000000000140e+01 1.412564999999999884e+02 1.994805000000000064e+03
1.489999999999999936e-01 1.472644999999999926e-01 1.146060999999999908e+01 1.400720000000000027e+02 1.994369999999999891e+03
1.499999999999999944e-01 1.472240000000000215e-01 1.084607499999999902e+01 1.389714999999999918e+02 1.993954999999999927e+03
1.509999999999999953e-01 1.471854999999999969e-01 1.028096500000000013e+01 1.379629999999999939e+02 1.993570000000000164e+03
1.519999999999999962e-01 1.471494999999999886e-01 9.768055000000000376e+00 1.370519999999999925e+02 1.993210000000000036e+03
1.529999999999999971e-01 1.471169999999999978e-01 9.308909999999999130e+00 1.362415000000000020e+02 1.992875000000000000e+03
1.539999999999999980e-01 1.470874999999999821e-01 8.903990000000000293e+00 1.355305000000000177e+02 1.992574999999999818e+03
1.549999999999999989e-01 1.470615000000000117e-01 8.552669999999999106e+00 1.349184999999999945e+02 1.992309999999999945e+03
1.559999999999999998e-01 1.470380000000000020e-01 8.253384999999999749e+00 1.343994999999999891e+02 1.992075000000000045e+03
1.570000000000000007e-01 1.470179999999999820e-01 8.003679999999999239e+00 1.339669999999999845e+02 1.991869999999999891e+03
1.580000000000000016e-01 1.470009999999999928e-01 7.800364999999999327e+00 1.336139999999999759e+02 1.991690000000000055e+03
1.590000000000000024e-01 1.469865000000000199e-01 7.639720000000000510e+00 1.333319999999999936e+02 1.991539999999999964e+03
