# t [s], A [cm^2], U [cm/s], P [cPa], c [cm/s]
1.000000000000000021e-03 1.713660000000000183e-01 3.660707500000000003e-01 9.135775000000001000e+01 2.028569999999999936e+03
2.000000000000000042e-03 1.713210000000000011e-01 1.888675499999999952e+00 8.805615000000000236e+01 2.028134999999999991e+03
3.000000000000000062e-03 1.711980000000000168e-01 3.731882999999999839e+00 8.361655000000000371e+01 2.026985000000000127e+03
4.000000000000000083e-03 1.710304999999999742e-01 5.789841499999999641e+00 7.893444999999999823e+01 2.025445000000000164e+03
5.000000000000000104e-03 1.708520000000000039e-01 7.989179999999999282e+00 7.486599999999999966e+01 2.023815000000000055e+03
6.000000000000000125e-03 1.706799999999999984e-01 1.014301000000000030e+01 7.160669999999998936e+01 2.022265000000000100e+03
7.000000000000000146e-03 1.705194999999999905e-01 1.204423000000000066e+01 6.883969999999999345e+01 2.020835000000000036e+03
8.000000000000000167e-03 1.703715000000000090e-01 1.363367000000000040e+01 6.634465000000000146e+01 2.019549999999999955e+03
9.000000000000001055e-03 1.702420000000000044e-01 1.495929999999999893e+01 6.419460000000000832e+01 2.018440000000000055e+03
1.000000000000000194e-02 1.701320000000000054e-01 1.605295000000000272e+01 6.245340000000000202e+01 2.017509999999999991e+03
1.099999999999999936e-02 1.700424999999999853e-01 1.692715000000000103e+01 6.108115000000000805e+01 2.016755000000000109e+03
1.200000000000000025e-02 1.699704999999999966e-01 1.759485000000000099e+01 6.001094999999999402e+01 2.016154999999999973e+03
1.300000000000000114e-02 1.699120000000000075e-01 1.806020000000000181e+01 5.914600000000000080e+01 2.015684999999999945e+03
1.400000000000000203e-02 1.698645000000000016e-01 1.833684999999999832e+01 5.838259999999999650e+01 2.015305000000000064e+03
1.499999999999999944e-02 1.698250000000000037e-01 1.849549999999999983e+01 5.774544999999999817e+01 2.014994999999999891e+03
1.600000000000000033e-02 1.697985000000000189e-01 1.867504999999999882e+01 5.748170000000000357e+01 2.014795000000000073e+03
1.700000000000000122e-02 1.697950000000000015e-01 1.902540000000000120e+01 5.796150000000000091e+01 2.014775000000000091e+03
1.800000000000000211e-02 1.698215000000000141e-01 1.962470000000000070e+01 5.943744999999999834e+01 2.015009999999999991e+03
1.900000000000000300e-02 1.698804999999999898e-01 2.043099999999999739e+01 6.184409999999999741e+01 2.015509999999999991e+03
2.000000000000000042e-02 1.699644999999999906e-01 2.129595000000000127e+01 6.476699999999999591e+01 2.016230000000000018e+03
2.100000000000000130e-02 1.700579999999999870e-01 2.202519999999999811e+01 6.758480000000000132e+01 2.017034999999999854e+03
2.200000000000000219e-02 1.701429999999999887e-01 2.245234999999999914e+01 6.969515000000001237e+01 2.017779999999999973e+03
2.299999999999999961e-02 1.702049999999999952e-01 2.249364999999999881e+01 7.071864999999999668e+01 2.018335000000000036e+03
2.400000000000000050e-02 1.702359999999999984e-01 2.216580000000000084e+01 7.060114999999998986e+01 2.018634999999999991e+03
2.500000000000000139e-02 1.702365000000000128e-01 2.156625000000000014e+01 6.958929999999999438e+01 2.018664999999999964e+03
2.600000000000000228e-02 1.702144999999999908e-01 2.082784999999999798e+01 6.810409999999998831e+01 2.018494999999999891e+03
2.700000000000000316e-02 1.701799999999999979e-01 2.006960000000000122e+01 6.657464999999999122e+01 2.018214999999999918e+03
2.800000000000000058e-02 1.701435000000000031e-01 1.936199999999999832e+01 6.529845000000000255e+01 2.017905000000000200e+03
2.900000000000000147e-02 1.701110000000000122e-01 1.871625000000000227e+01 6.437409999999999854e+01 2.017625000000000000e+03
3.000000000000000236e-02 1.700834999999999986e-01 1.809615000000000151e+01 6.371495000000000175e+01 2.017390000000000100e+03
3.099999999999999978e-02 1.700595000000000023e-01 1.744490000000000052e+01 6.312434999999999974e+01 2.017180000000000064e+03
3.200000000000000067e-02 1.700329999999999897e-01 1.671505000000000152e+01 6.239594999999999914e+01 2.016960000000000036e+03
3.300000000000000155e-02 1.700010000000000132e-01 1.589260000000000161e+01 6.140540000000000020e+01 2.016690000000000055e+03
3.400000000000000244e-02 1.699610000000000010e-01 1.500844999999999985e+01 6.016550000000000153e+01 2.016355000000000018e+03
3.500000000000000333e-02 1.699169999999999847e-01 1.413390000000000057e+01 5.883190000000000452e+01 2.015980000000000018e+03
3.600000000000000422e-02 1.698725000000000096e-01 1.336325000000000074e+01 5.765975000000000250e+01 2.015599999999999909e+03
3.700000000000000511e-02 1.698375000000000024e-01 1.278790000000000049e+01 5.692735000000000412e+01 2.015289999999999964e+03
3.799999999999999906e-02 1.698179999999999967e-01 1.247160000000000046e+01 5.685280000000000200e+01 2.015115000000000009e+03
3.899999999999999994e-02 1.698199999999999987e-01 1.243294999999999995e+01 5.752880000000000393e+01 2.015115000000000009e+03
4.000000000000000083e-02 1.698449999999999960e-01 1.263990000000000080e+01 5.889280000000000115e+01 2.015309999999999945e+03
4.100000000000000172e-02 1.698894999999999988e-01 1.301650000000000063e+01 6.073839999999999861e+01 2.015679999999999836e+03
4.200000000000000261e-02 1.699475000000000013e-01 1.345824999999999960e+01 6.275894999999999868e+01 2.016159999999999854e+03
4.300000000000000350e-02 1.700094999999999801e-01 1.385130000000000017e+01 6.460954999999999870e+01 2.016679999999999836e+03
4.400000000000000439e-02 1.700645000000000073e-01 1.409169999999999945e+01 6.597055000000000291e+01 2.017150000000000091e+03
4.499999999999999833e-02 1.701039999999999774e-01 1.409890000000000043e+01 6.659749999999999659e+01 2.017500000000000000e+03
4.599999999999999922e-02 1.701194999999999791e-01 1.382420000000000115e+01 6.635155000000000314e+01 2.017644999999999982e+03
4.700000000000000011e-02 1.701084999999999958e-01 1.325210000000000043e+01 6.520484999999999332e+01 2.017559999999999945e+03
4.800000000000000100e-02 1.700685000000000113e-01 1.239614999999999867e+01 6.322729999999999961e+01 2.017230000000000018e+03
4.900000000000000189e-02 1.700014999999999998e-01 1.129170500000000033e+01 6.055940000000000367e+01 2.016670000000000073e+03
5.000000000000000278e-02 1.699114999999999931e-01 9.988315000000000055e+00 5.738094999999999857e+01 2.015914999999999964e+03
5.100000000000000366e-02 1.698040000000000105e-01 8.542004999999999626e+00 5.388280000000000314e+01 2.014994999999999891e+03
5.200000000000000455e-02 1.696834999999999871e-01 7.010489999999999888e+00 5.024609999999999843e+01 2.013974999999999909e+03
5.300000000000000544e-02 1.695570000000000133e-01 5.450435000000000585e+00 4.663174999999999670e+01 2.012889999999999873e+03
5.399999999999999939e-02 1.694289999999999963e-01 3.916365499999999944e+00 4.317855000000000132e+01 2.011800000000000182e+03
5.500000000000000028e-02 1.693050000000000110e-01 2.461180000000000145e+00 4.000634999999999764e+01 2.010735000000000127e+03
5.600000000000000117e-02 1.691889999999999783e-01 1.136524999999999785e+00 3.722245000000000203e+01 2.009740000000000009e+03
5.700000000000000205e-02 1.690854999999999997e-01 -7.064999999999876934e-03 3.492664999999999509e+01 2.008845000000000027e+03
5.800000000000000294e-02 1.689984999999999959e-01 -9.209900000000000864e-01 3.321320000000000050e+01 2.008089999999999918e+03
5.900000000000000383e-02 1.689319999999999988e-01 -1.560224750000000160e+00 3.217029999999999745e+01 2.007505000000000109e+03
6.000000000000000472e-02 1.688890000000000113e-01 -1.885760000000000103e+00 3.187485000000000213e+01 2.007119999999999891e+03
6.099999999999999867e-02 1.688724999999999810e-01 -1.867240000000000011e+00 3.238669999999999760e+01 2.006960000000000036e+03
6.199999999999999956e-02 1.688844999999999930e-01 -1.485413499999999942e+00 3.374170000000000158e+01 2.007039999999999964e+03
6.300000000000000044e-02 1.689275000000000082e-01 -7.339444999999999997e-01 3.594599999999999795e+01 2.007380000000000109e+03
6.400000000000000133e-02 1.690004999999999979e-01 3.797649999999999082e-01 3.897375000000000256e+01 2.007980000000000018e+03
6.500000000000000222e-02 1.691034999999999899e-01 1.834864999999999746e+00 4.276675000000000182e+01 2.008835000000000036e+03
6.600000000000000311e-02 1.692339999999999955e-01 3.598329000000000111e+00 4.723789999999999623e+01 2.009934999999999945e+03
6.700000000000000400e-02 1.693899999999999850e-01 5.627089999999999925e+00 5.227720000000000056e+01 2.011244999999999891e+03
6.800000000000000488e-02 1.695674999999999821e-01 7.870630000000000237e+00 5.775875000000000625e+01 2.012744999999999891e+03
6.900000000000000577e-02 1.697619999999999962e-01 1.027388999999999974e+01 6.354905000000000115e+01 2.014404999999999973e+03
7.000000000000000666e-02 1.699694999999999956e-01 1.278014500000000098e+01 6.951474999999999227e+01 2.016179999999999836e+03
7.100000000000000755e-02 1.701850000000000029e-01 1.533370000000000033e+01 7.552994999999999948e+01 2.018034999999999854e+03
7.200000000000000844e-02 1.704050000000000009e-01 1.788244999999999862e+01 8.148195000000001187e+01 2.019930000000000064e+03
7.300000000000000933e-02 1.706245000000000123e-01 2.037995000000000090e+01 8.727649999999999864e+01 2.021825000000000045e+03
7.399999999999999634e-02 1.708405000000000062e-01 2.278730000000000189e+01 9.284064999999999657e+01 2.023704999999999927e+03
7.499999999999999722e-02 1.710499999999999798e-01 2.507424999999999926e+01 9.812630000000000052e+01 2.025529999999999973e+03
7.599999999999999811e-02 1.712520000000000153e-01 2.722005000000000052e+01 1.031087500000000006e+02 2.027299999999999955e+03
7.699999999999999900e-02 1.714444999999999997e-01 2.921359999999999957e+01 1.077865999999999929e+02 2.028984999999999900e+03
7.799999999999999989e-02 1.716274999999999884e-01 3.105254999999999654e+01 1.121800000000000068e+02 2.030599999999999909e+03
7.900000000000000078e-02 1.718014999999999959e-01 3.274259999999999593e+01 1.163255000000000052e+02 2.032134999999999991e+03
8.000000000000000167e-02 1.719670000000000087e-01 3.429574999999999818e+01 1.202710000000000008e+02 2.033605000000000018e+03
8.100000000000000255e-02 1.721265000000000156e-01 3.572830000000000439e+01 1.240709999999999980e+02 2.035014999999999873e+03
8.200000000000000344e-02 1.722805000000000031e-01 3.705884999999999962e+01 1.277800000000000011e+02 2.036384999999999991e+03
8.300000000000000433e-02 1.724310000000000009e-01 3.830624999999999858e+01 1.314490000000000123e+02 2.037719999999999800e+03
8.400000000000000522e-02 1.725794999999999968e-01 3.948790000000000333e+01 1.351169999999999902e+02 2.039045000000000073e+03
8.500000000000000611e-02 1.727279999999999927e-01 4.061775000000000091e+01 1.388135000000000048e+02 2.040365000000000009e+03
8.600000000000000699e-02 1.728764999999999885e-01 4.170605000000000473e+01 1.425500000000000114e+02 2.041684999999999945e+03
8.700000000000000788e-02 1.730254999999999987e-01 4.275790000000000646e+01 1.463274999999999864e+02 2.043009999999999764e+03
8.800000000000000877e-02 1.731749999999999956e-01 4.377355000000000018e+01 1.501274999999999977e+02 2.044344999999999800e+03
8.899999999999999578e-02 1.733250000000000068e-01 4.474840000000000373e+01 1.539225000000000136e+02 2.045674999999999955e+03
8.999999999999999667e-02 1.734739999999999893e-01 4.567355000000000587e+01 1.576740000000000066e+02 2.047005000000000109e+03
9.099999999999999756e-02 1.736209999999999976e-01 4.653694999999999737e+01 1.613335000000000150e+02 2.048320000000000164e+03
9.199999999999999845e-02 1.737644999999999884e-01 4.732385000000000019e+01 1.648530000000000086e+02 2.049599999999999909e+03
9.299999999999999933e-02 1.739020000000000010e-01 4.801834999999999809e+01 1.681795000000000186e+02 2.050835000000000036e+03
9.400000000000000022e-02 1.740329999999999933e-01 4.860434999999999661e+01 1.712655000000000030e+02 2.052005000000000109e+03
9.500000000000000111e-02 1.741555000000000186e-01 4.906645000000000323e+01 1.740645000000000095e+02 2.053105000000000018e+03
9.600000000000000200e-02 1.742664999999999909e-01 4.939119999999999777e+01 1.765395000000000039e+02 2.054109999999999673e+03
9.700000000000000289e-02 1.743669999999999942e-01 4.956759999999999877e+01 1.786610000000000014e+02 2.055014999999999873e+03
9.800000000000000377e-02 1.744539999999999980e-01 4.958780000000000143e+01 1.804100000000000250e+02 2.055804999999999836e+03
9.900000000000000466e-02 1.745275000000000021e-01 4.944800000000000040e+01 1.817750000000000057e+02 2.056480000000000018e+03
1.000000000000000056e-01 1.745875000000000066e-01 4.914815000000000111e+01 1.827590000000000146e+02 2.057025000000000091e+03
1.010000000000000064e-01 1.746334999999999971e-01 4.869244999999999379e+01 1.833725000000000023e+02 2.057449999999999818e+03
1.020000000000000073e-01 1.746659999999999879e-01 4.808915000000000362e+01 1.836355000000000075e+02 2.057755000000000109e+03
1.030000000000000082e-01 1.746850000000000069e-01 4.735035000000000593e+01 1.835790000000000077e+02 2.057940000000000055e+03
1.040000000000000091e-01 1.746920000000000139e-01 4.649125000000000085e+01 1.832395000000000209e+02 2.058014999999999873e+03
1.050000000000000100e-01 1.746884999999999966e-01 4.552985000000000326e+01 1.826585000000000036e+02 2.058000000000000000e+03
1.059999999999999970e-01 1.746754999999999836e-01 4.448600000000000421e+01 1.818824999999999932e+02 2.057894999999999982e+03
1.069999999999999979e-01 1.746544999999999903e-01 4.338080000000000069e+01 1.809590000000000032e+02 2.057715000000000146e+03
1.079999999999999988e-01 1.746280000000000054e-01 4.223539999999999850e+01 1.799345000000000141e+02 2.057485000000000127e+03
1.089999999999999997e-01 1.745960000000000012e-01 4.107054999999999723e+01 1.788539999999999850e+02 2.057210000000000036e+03
1.100000000000000006e-01 1.745615000000000083e-01 3.990554999999999808e+01 1.777579999999999814e+02 2.056904999999999745e+03
1.110000000000000014e-01 1.745255000000000001e-01 3.875780000000000314e+01 1.766820000000000164e+02 2.056585000000000036e+03
1.120000000000000023e-01 1.744890000000000052e-01 3.764185000000000514e+01 1.756535000000000082e+02 2.056260000000000218e+03
1.130000000000000032e-01 1.744539999999999980e-01 3.656960000000000122e+01 1.746949999999999932e+02 2.055940000000000055e+03
1.140000000000000041e-01 1.744195000000000051e-01 3.554919999999999902e+01 1.738190000000000168e+02 2.055634999999999764e+03
1.150000000000000050e-01 1.743879999999999875e-01 3.458559999999999945e+01 1.730300000000000011e+02 2.055349999999999909e+03
1.160000000000000059e-01 1.743584999999999996e-01 3.368019999999999925e+01 1.723269999999999982e+02 2.055085000000000036e+03
1.170000000000000068e-01 1.743315000000000003e-01 3.283109999999999928e+01 1.716995000000000005e+02 2.054835000000000036e+03
1.180000000000000077e-01 1.743069999999999897e-01 3.203355000000000530e+01 1.711324999999999932e+02 2.054614999999999782e+03
1.190000000000000085e-01 1.742839999999999945e-01 3.128005000000000280e+01 1.706039999999999850e+02 2.054404999999999745e+03
1.200000000000000094e-01 1.742624999999999869e-01 3.056119999999999948e+01 1.700899999999999750e+02 2.054199999999999818e+03
1.209999999999999964e-01 1.742405000000000204e-01 2.986610000000000298e+01 1.695640000000000214e+02 2.054010000000000218e+03
1.219999999999999973e-01 1.742190000000000127e-01 2.918314999999999770e+01 1.689985000000000070e+02 2.053804999999999836e+03
1.229999999999999982e-01 1.741955000000000031e-01 2.850049999999999883e+01 1.683665000000000020e+02 2.053590000000000146e+03
1.239999999999999991e-01 1.741695000000000049e-01 2.780699999999999861e+01 1.676425000000000125e+02 2.053364999999999782e+03
1.250000000000000000e-01 1.741409999999999902e-01 2.709250000000000114e+01 1.668069999999999879e+02 2.053105000000000018e+03
1.260000000000000009e-01 1.741079999999999850e-01 2.634860000000000113e+01 1.658435000000000059e+02 2.052809999999999945e+03
1.270000000000000018e-01 1.740710000000000035e-01 2.556900000000000261e+01 1.647415000000000020e+02 2.052474999999999909e+03
1.280000000000000027e-01 1.740289999999999893e-01 2.475000000000000000e+01 1.634959999999999809e+02 2.052105000000000018e+03
1.290000000000000036e-01 1.739819999999999978e-01 2.389039999999999964e+01 1.621109999999999900e+02 2.051684999999999945e+03
1.300000000000000044e-01 1.739304999999999879e-01 2.299200000000000088e+01 1.605954999999999870e+02 2.051224999999999909e+03
1.310000000000000053e-01 1.738735000000000142e-01 2.205919999999999703e+01 1.589639999999999986e+02 2.050725000000000364e+03
1.320000000000000062e-01 1.738129999999999953e-01 2.109884999999999877e+01 1.572384999999999877e+02 2.050190000000000055e+03
1.330000000000000071e-01 1.737489999999999868e-01 2.012004999999999910e+01 1.554440000000000168e+02 2.049619999999999891e+03
1.340000000000000080e-01 1.736824999999999897e-01 1.913360000000000127e+01 1.536100000000000136e+02 2.049025000000000091e+03
1.350000000000000089e-01 1.736139999999999906e-01 1.815145000000000053e+01 1.517665000000000077e+02 2.048425000000000182e+03
1.360000000000000098e-01 1.735450000000000048e-01 1.718605000000000160e+01 1.499465000000000146e+02 2.047809999999999945e+03
1.370000000000000107e-01 1.734764999999999779e-01 1.625009999999999977e+01 1.481790000000000020e+02 2.047210000000000036e+03
1.380000000000000115e-01 1.734100000000000086e-01 1.535539999999999949e+01 1.464935000000000116e+02 2.046610000000000127e+03
1.390000000000000124e-01 1.733460000000000001e-01 1.451290000000000013e+01 1.449145000000000039e+02 2.046045000000000073e+03
1.400000000000000133e-01 1.732849999999999946e-01 1.373170000000000002e+01 1.434615000000000009e+02 2.045500000000000000e+03
1.410000000000000142e-01 1.732289999999999941e-01 1.301909999999999989e+01 1.421499999999999773e+02 2.045000000000000000e+03
1.420000000000000151e-01 1.731774999999999842e-01 1.238025000000000020e+01 1.409894999999999925e+02 2.044539999999999964e+03
1.430000000000000160e-01 1.731309999999999794e-01 1.181775999999999982e+01 1.399834999999999923e+02 2.044119999999999891e+03
1.440000000000000169e-01 1.730900000000000216e-01 1.133222500000000110e+01 1.391299999999999955e+02 2.043750000000000000e+03
1.450000000000000178e-01 1.730545000000000000e-01 1.092186500000000038e+01 1.384230000000000018e+02 2.043429999999999836e+03
1.459999999999999909e-01 1.730240000000000111e-01 1.058280000000000065e+01 1.378505000000000109e+02 2.043150000000000091e+03
1.469999999999999918e-01 1.729984999999999995e-01 1.030969500000000139e+01 1.373985000000000127e+02 2.042920000000000073e+03
1.479999999999999927e-01 1.729775000000000063e-01 1.009562500000000007e+01 1.370500000000000114e+02 2.042724999999999909e+03
1.489999999999999936e-01 1.729605000000000170e-01 9.932700000000000529e+00 1.367860000000000014e+02 2.042565000000000055e+03
1.499999999999999944e-01 1.729465000000000030e-01 9.812450000000000117e+00 1.365869999999999891e+02 2.042440000000000055e+03
1.509999999999999953e-01 1.729350000000000054e-01 9.725975000000000037e+00 1.364339999999999975e+02 2.042329999999999927e+03
1.519999999999999962e-01 1.729259999999999964e-01 9.664690000000000225e+00 1.363079999999999927e+02 2.042250000000000000e+03
1.529999999999999971e-01 1.729180000000000161e-01 9.620079999999999742e+00 1.361935000000000002e+02 2.042170000000000073e+03
1.539999999999999980e-01 1.729110000000000091e-01 9.584365000000000023e+00 1.360740000000000123e+02 2.042105000000000018e+03
1.549999999999999989e-01 1.729040000000000021e-01 9.550679999999999836e+00 1.359379999999999882e+02 2.042039999999999964e+03
1.559999999999999998e-01 1.728965000000000085e-01 9.512869999999999493e+00 1.357744999999999891e+02 2.041969999999999800e+03
1.570000000000000007e-01 1.728885000000000005e-01 9.466029999999999944e+00 1.355754999999999768e+02 2.041904999999999973e+03
1.580000000000000016e-01 1.728795000000000193e-01 9.406259999999999621e+00 1.353360000000000127e+02 2.041825000000000045e+03
1.590000000000000024e-01 1.728695000000000093e-01 9.330795000000000172e+00 1.350534999999999854e+02 2.041735000000000127e+03
