# t [s], A [cm^2], U [cm/s], P [cPa], c [cm/s]
1.000000000000000021e-03 5.573000000000000176e-01 3.436000000000001553e-03 9.682300000000000750e+01 1.411619999999999891e+03
2.000000000000000042e-03 5.572915000000000507e-01 -1.307171000000000201e-03 9.680600000000001160e+01 1.411615000000000009e+03
3.000000000000000062e-03 5.573224999999999429e-01 5.071830000000000088e-02 9.685050000000001091e+01 1.411625000000000000e+03
4.000000000000000083e-03 5.573749999999999538e-01 1.404963499999999921e-01 9.695095000000000596e+01 1.411659999999999854e+03
5.000000000000000104e-03 5.573850000000000193e-01 1.656014499999999834e-01 9.697939999999999827e+01 1.411670000000000073e+03
6.000000000000000125e-03 5.573464999999999669e-01 1.091395000000000143e-01 9.688524999999999920e+01 1.411650000000000091e+03
7.000000000000000146e-03 5.572979999999999601e-01 3.189399999999997792e-02 9.671729999999999450e+01 1.411610000000000127e+03
8.000000000000000167e-03 5.572504999999999820e-01 -4.913499999999998424e-02 9.650305000000000177e+01 1.411555000000000064e+03
9.000000000000001055e-03 5.571745000000000170e-01 -1.875434999999999741e-01 9.619015000000000271e+01 1.411474999999999909e+03
1.000000000000000194e-02 5.570534999999999792e-01 -4.131349999999999190e-01 9.572964999999999236e+01 1.411360000000000127e+03
1.099999999999999936e-02 5.568859999999999921e-01 -7.261150000000000659e-01 9.509649999999999181e+01 1.411200000000000045e+03
1.200000000000000025e-02 5.566615000000000313e-01 -1.134355000000000002e+00 9.425790000000000646e+01 1.410980000000000018e+03
1.300000000000000114e-02 5.563690000000000024e-01 -1.645495000000000152e+00 9.317834999999999468e+01 1.410695000000000164e+03
1.400000000000000203e-02 5.560150000000000370e-01 -2.233240000000000336e+00 9.185859999999999559e+01 1.410335000000000036e+03
1.499999999999999944e-02 5.556294999999999984e-01 -2.824844999999999828e+00 9.036025000000000773e+01 1.409920000000000073e+03
1.600000000000000033e-02 5.552534999999999554e-01 -3.323504999999999932e+00 8.879210000000000491e+01 1.409470000000000027e+03
1.700000000000000122e-02 5.549215000000000675e-01 -3.644852999999999899e+00 8.727015000000000100e+01 1.409014999999999873e+03
1.800000000000000211e-02 5.546489999999999476e-01 -3.743110999999999855e+00 8.588044999999999618e+01 1.408579999999999927e+03
1.900000000000000300e-02 5.544299999999999784e-01 -3.617936449999999748e+00 8.465840000000000032e+01 1.408174999999999955e+03
2.000000000000000042e-02 5.542439999999999589e-01 -3.305821450499999870e+00 8.358869999999998868e+01 1.407795000000000073e+03
2.100000000000000130e-02 5.540644999999999598e-01 -2.863631499999999885e+00 8.261854999999999905e+01 1.407440000000000055e+03
2.200000000000000219e-02 5.538669999999999982e-01 -2.350426999999999822e+00 8.167869999999999209e+01 1.407094999999999800e+03
2.299999999999999961e-02 5.536339999999999595e-01 -1.812120000000000175e+00 8.070494999999999663e+01 1.406740000000000009e+03
2.400000000000000050e-02 5.533609999999999918e-01 -1.272310000000000274e+00 7.965540000000000020e+01 1.406364999999999782e+03
2.500000000000000139e-02 5.530549999999999633e-01 -7.313950000000000173e-01 7.851865000000000805e+01 1.405970000000000027e+03
2.600000000000000228e-02 5.527284999999999560e-01 -1.735350000000002169e-01 7.731114999999999782e+01 1.405555000000000064e+03
2.700000000000000316e-02 5.523964999999999570e-01 4.217249999999999055e-01 7.606600000000000250e+01 1.405130000000000109e+03
2.800000000000000058e-02 5.520705000000000195e-01 1.067674999999999930e+00 7.481790000000000873e+01 1.404699999999999818e+03
2.900000000000000147e-02 5.517545000000000366e-01 1.762175000000000047e+00 7.359004999999999086e+01 1.404269999999999982e+03
3.000000000000000236e-02 5.514434999999999754e-01 2.484634999999999927e+00 7.238515000000001010e+01 1.403849999999999909e+03
3.099999999999999978e-02 5.511260000000000048e-01 3.198145000000000238e+00 7.118354999999999677e+01 1.403424999999999955e+03
3.200000000000000067e-02 5.507859999999999978e-01 3.855514999999999581e+00 6.994660000000000366e+01 1.402994999999999891e+03
3.300000000000000155e-02 5.504080000000000084e-01 4.407709999999999795e+00 6.862534999999999741e+01 1.402539999999999964e+03
3.400000000000000244e-02 5.499780000000000779e-01 4.812920000000000087e+00 6.717150000000000887e+01 1.402065000000000055e+03
3.500000000000000333e-02 5.494900000000000340e-01 5.044340000000000046e+00 6.554939999999999145e+01 1.401539999999999964e+03
3.600000000000000422e-02 5.489469999999999628e-01 5.095660000000000522e+00 6.374550000000000693e+01 1.400969999999999800e+03
3.700000000000000511e-02 5.483590000000000408e-01 4.982075000000000031e+00 6.177434999999999832e+01 1.400360000000000127e+03
3.799999999999999906e-02 5.477454999999999963e-01 4.737944999999999851e+00 5.967875000000000085e+01 1.399715000000000146e+03
3.899999999999999994e-02 5.471289999999999765e-01 4.410779999999999923e+00 5.752524999999999977e+01 1.399045000000000073e+03
4.000000000000000083e-02 5.465355000000000629e-01 4.054254999999999498e+00 5.539574999999999960e+01 1.398384999999999991e+03
4.100000000000000172e-02 5.459884999999999877e-01 3.721044999999999714e+00 5.337829999999999586e+01 1.397750000000000000e+03
4.200000000000000261e-02 5.455090000000000217e-01 3.457465000000000011e+00 5.155734999999999957e+01 1.397160000000000082e+03
4.300000000000000350e-02 5.451120000000000410e-01 3.300329999999999764e+00 5.000679999999999836e+01 1.396634999999999991e+03
4.400000000000000439e-02 5.448085000000000289e-01 3.275570000000000093e+00 4.878540000000000276e+01 1.396204999999999927e+03
4.499999999999999833e-02 5.446054999999999646e-01 3.399108000000000018e+00 4.793435000000000201e+01 1.395884999999999991e+03
4.599999999999999922e-02 5.445045000000000579e-01 3.678714999999999957e+00 4.747805000000000319e+01 1.395670000000000073e+03
4.700000000000000011e-02 5.445059999999999345e-01 4.116514999999999702e+00 4.742605000000000359e+01 1.395574999999999818e+03
4.800000000000000100e-02 5.446075000000000221e-01 4.711489999999999512e+00 4.777660000000000196e+01 1.395605000000000018e+03
4.900000000000000189e-02 5.448049999999999837e-01 5.461500000000000021e+00 4.851999999999999602e+01 1.395755000000000109e+03
5.000000000000000278e-02 5.450969999999999427e-01 6.364395000000000024e+00 4.964175000000000182e+01 1.396019999999999982e+03
5.100000000000000366e-02 5.454784999999999773e-01 7.418269999999999698e+00 5.112484999999999502e+01 1.396404999999999973e+03
5.200000000000000455e-02 5.459469999999999601e-01 8.620865000000000222e+00 5.295074999999999932e+01 1.396900000000000091e+03
5.300000000000000544e-02 5.464975000000000804e-01 9.968420000000000059e+00 5.509919999999999618e+01 1.397500000000000000e+03
5.399999999999999939e-02 5.471245000000000136e-01 1.145438499999999848e+01 5.754780000000000229e+01 1.398199999999999818e+03
5.500000000000000028e-02 5.478210000000000024e-01 1.306864500000000007e+01 6.027094999999999914e+01 1.398990000000000009e+03
5.600000000000000117e-02 5.485805000000000264e-01 1.479673000000000016e+01 6.323919999999999675e+01 1.399865000000000009e+03
5.700000000000000205e-02 5.493924999999999503e-01 1.662003999999999948e+01 6.641884999999999195e+01 1.400809999999999945e+03
5.800000000000000294e-02 5.502464999999999717e-01 1.851655999999999835e+01 6.977259999999999707e+01 1.401825000000000045e+03
5.900000000000000383e-02 5.511314999999999964e-01 2.046180000000000021e+01 7.326019999999999754e+01 1.402884999999999991e+03
6.000000000000000472e-02 5.520369999999999999e-01 2.243029999999999902e+01 7.684024999999999750e+01 1.403990000000000009e+03
6.099999999999999867e-02 5.529519999999999991e-01 2.439690000000000225e+01 8.047159999999999513e+01 1.405119999999999891e+03
6.199999999999999956e-02 5.538669999999999982e-01 2.633800000000000097e+01 8.411554999999999893e+01 1.406269999999999982e+03
6.300000000000000044e-02 5.547739999999999894e-01 2.823290000000000077e+01 8.773760000000000048e+01 1.407420000000000073e+03
6.400000000000000133e-02 5.556664999999999521e-01 3.006405000000000172e+01 9.130799999999999272e+01 1.408565000000000055e+03
6.500000000000000222e-02 5.565390000000000059e-01 3.181770000000000209e+01 9.480324999999999136e+01 1.409699999999999818e+03
6.600000000000000311e-02 5.573885000000000645e-01 3.348414999999999964e+01 9.820660000000000878e+01 1.410820000000000164e+03
6.700000000000000400e-02 5.582150000000000167e-01 3.505695000000000050e+01 1.015080999999999989e+02 1.411910000000000082e+03
6.800000000000000488e-02 5.590159999999999574e-01 3.653324999999999534e+01 1.047027500000000089e+02 1.412980000000000018e+03
6.900000000000000577e-02 5.597944999999999727e-01 3.791270000000000095e+01 1.077918999999999983e+02 1.414014999999999873e+03
7.000000000000000666e-02 5.605510000000000215e-01 3.919729999999999848e+01 1.107800000000000011e+02 1.415025000000000091e+03
7.100000000000000755e-02 5.612884999999999680e-01 4.039079999999999870e+01 1.136769999999999925e+02 1.416009999999999991e+03
7.200000000000000844e-02 5.620100000000000096e-01 4.149784999999999968e+01 1.164925000000000068e+02 1.416974999999999909e+03
7.300000000000000933e-02 5.627170000000000227e-01 4.252425000000000210e+01 1.192390000000000043e+02 1.417909999999999854e+03
7.399999999999999634e-02 5.634139999999999704e-01 4.347570000000000334e+01 1.219275000000000091e+02 1.418829999999999927e+03
7.499999999999999722e-02 5.641019999999999923e-01 4.435770000000000124e+01 1.245699999999999932e+02 1.419740000000000009e+03
7.599999999999999811e-02 5.647834999999999939e-01 4.517534999999999457e+01 1.271750000000000114e+02 1.420630000000000109e+03
7.699999999999999900e-02 5.654589999999999339e-01 4.593260000000000076e+01 1.297489999999999952e+02 1.421514999999999873e+03
7.799999999999999989e-02 5.661295000000000632e-01 4.663219999999999743e+01 1.322955000000000041e+02 1.422385000000000218e+03
7.900000000000000078e-02 5.667940000000000200e-01 4.727554999999999552e+01 1.348154999999999859e+02 1.423250000000000000e+03
8.000000000000000167e-02 5.674514999999999976e-01 4.786245000000000260e+01 1.373045000000000186e+02 1.424105000000000018e+03
8.100000000000000255e-02 5.680989999999999096e-01 4.839130000000000109e+01 1.397560000000000002e+02 1.424945000000000164e+03
8.200000000000000344e-02 5.687340000000000728e-01 4.885920000000000130e+01 1.421594999999999800e+02 1.425775000000000091e+03
8.300000000000000433e-02 5.693519999999999692e-01 4.926225000000000165e+01 1.445020000000000095e+02 1.426579999999999927e+03
8.400000000000000522e-02 5.699499999999999567e-01 4.959590000000000032e+01 1.467694999999999936e+02 1.427369999999999891e+03
8.500000000000000611e-02 5.705234999999999612e-01 4.985519999999999641e+01 1.489465000000000146e+02 1.428125000000000000e+03
8.600000000000000699e-02 5.710684999999999789e-01 5.003549999999999898e+01 1.510160000000000196e+02 1.428855000000000018e+03
8.700000000000000788e-02 5.715810000000000057e-01 5.013250000000000028e+01 1.529635000000000105e+02 1.429545000000000073e+03
8.800000000000000877e-02 5.720579999999999554e-01 5.014260000000000161e+01 1.547755000000000223e+02 1.430190000000000055e+03
8.899999999999999578e-02 5.724964999999999637e-01 5.006329999999999814e+01 1.564390000000000214e+02 1.430789999999999964e+03
8.999999999999999667e-02 5.728940000000000143e-01 4.989334999999999809e+01 1.579454999999999814e+02 1.431345000000000027e+03
9.099999999999999756e-02 5.732494999999999674e-01 4.963264999999999816e+01 1.592875000000000227e+02 1.431845000000000027e+03
9.199999999999999845e-02 5.735624999999999751e-01 4.928270000000000550e+01 1.604625000000000057e+02 1.432284999999999854e+03
9.299999999999999933e-02 5.738330000000000375e-01 4.884624999999999773e+01 1.614695000000000107e+02 1.432679999999999836e+03
9.400000000000000022e-02 5.740624999999999201e-01 4.832730000000000103e+01 1.623100000000000023e+02 1.433019999999999982e+03
9.500000000000000111e-02 5.742510000000000669e-01 4.773134999999999906e+01 1.629915000000000020e+02 1.433304999999999836e+03
9.600000000000000200e-02 5.744020000000000792e-01 4.706475000000000364e+01 1.635199999999999818e+02 1.433539999999999964e+03
9.700000000000000289e-02 5.745169999999999444e-01 4.633489999999999753e+01 1.639074999999999989e+02 1.433724999999999909e+03
9.800000000000000377e-02 5.745999999999999996e-01 4.555020000000000380e+01 1.641650000000000205e+02 1.433860000000000127e+03
9.900000000000000466e-02 5.746539999999999981e-01 4.471949999999999648e+01 1.643054999999999950e+02 1.433960000000000036e+03
1.000000000000000056e-01 5.746829999999999439e-01 4.385204999999999842e+01 1.643450000000000273e+02 1.434019999999999982e+03
1.010000000000000064e-01 5.746910000000000629e-01 4.295730000000000359e+01 1.642994999999999948e+02 1.434049999999999955e+03
1.020000000000000073e-01 5.746815000000000673e-01 4.204475000000000051e+01 1.641820000000000164e+02 1.434045000000000073e+03
1.030000000000000082e-01 5.746575000000000433e-01 4.112355000000000160e+01 1.640104999999999791e+02 1.434030000000000200e+03
1.040000000000000091e-01 5.746240000000000236e-01 4.020239999999999725e+01 1.637980000000000018e+02 1.433985000000000127e+03
1.050000000000000100e-01 5.745835000000000248e-01 3.928909999999999769e+01 1.635585000000000093e+02 1.433929999999999836e+03
1.059999999999999970e-01 5.745390000000000219e-01 3.839065000000000083e+01 1.633045000000000186e+02 1.433865000000000009e+03
1.069999999999999979e-01 5.744930000000000314e-01 3.751279999999999859e+01 1.630459999999999923e+02 1.433795000000000073e+03
1.079999999999999988e-01 5.744470000000000409e-01 3.666009999999999991e+01 1.627925000000000182e+02 1.433724999999999909e+03
1.089999999999999997e-01 5.744029999999999969e-01 3.583570000000000277e+01 1.625484999999999900e+02 1.433644999999999982e+03
1.100000000000000006e-01 5.743614999999999693e-01 3.504129999999999967e+01 1.623199999999999932e+02 1.433569999999999936e+03
1.110000000000000014e-01 5.743230000000000279e-01 3.427710000000000434e+01 1.621075000000000159e+02 1.433505000000000109e+03
1.120000000000000023e-01 5.742864999999999220e-01 3.354209999999999781e+01 1.619105000000000132e+02 1.433434999999999945e+03
1.130000000000000032e-01 5.742519999999999847e-01 3.283395000000000152e+01 1.617264999999999873e+02 1.433375000000000000e+03
1.140000000000000041e-01 5.742174999999999363e-01 3.214934999999999832e+01 1.615515000000000043e+02 1.433309999999999945e+03
1.150000000000000050e-01 5.741810000000000525e-01 3.148409999999999798e+01 1.613785000000000025e+02 1.433244999999999891e+03
1.160000000000000059e-01 5.741420000000000412e-01 3.083324999999999960e+01 1.612019999999999982e+02 1.433184999999999945e+03
1.170000000000000068e-01 5.740979999999999972e-01 3.019165000000000276e+01 1.610120000000000005e+02 1.433115000000000009e+03
1.180000000000000077e-01 5.740460000000000562e-01 2.955380000000000251e+01 1.608029999999999973e+02 1.433045000000000073e+03
1.190000000000000085e-01 5.739859999999999962e-01 2.891434999999999889e+01 1.605645000000000095e+02 1.432965000000000146e+03
1.200000000000000094e-01 5.739149999999999530e-01 2.826834999999999809e+01 1.602905000000000086e+02 1.432875000000000000e+03
1.209999999999999964e-01 5.738309999999999800e-01 2.761125000000000185e+01 1.599739999999999895e+02 1.432769999999999982e+03
1.219999999999999973e-01 5.737339999999999662e-01 2.693910000000000338e+01 1.596084999999999923e+02 1.432654999999999973e+03
1.229999999999999982e-01 5.736225000000000351e-01 2.624889999999999901e+01 1.591904999999999859e+02 1.432525000000000091e+03
1.239999999999999991e-01 5.734960000000000058e-01 2.553869999999999862e+01 1.587164999999999964e+02 1.432375000000000000e+03
1.250000000000000000e-01 5.733544999999999892e-01 2.480720000000000169e+01 1.581859999999999786e+02 1.432210000000000036e+03
1.260000000000000009e-01 5.731990000000000141e-01 2.405460000000000065e+01 1.575994999999999777e+02 1.432025000000000091e+03
1.270000000000000018e-01 5.730299999999999283e-01 2.328190000000000026e+01 1.569594999999999914e+02 1.431825000000000045e+03
1.280000000000000027e-01 5.728484999999999827e-01 2.249114999999999753e+01 1.562694999999999936e+02 1.431610000000000127e+03
1.290000000000000036e-01 5.726565000000000127e-01 2.168554999999999922e+01 1.555364999999999895e+02 1.431380000000000109e+03
1.300000000000000044e-01 5.724559999999999649e-01 2.086894999999999811e+01 1.547660000000000196e+02 1.431139999999999873e+03
1.310000000000000053e-01 5.722495000000000775e-01 2.004605000000000103e+01 1.539675000000000011e+02 1.430889999999999873e+03
1.320000000000000062e-01 5.720385000000000053e-01 1.922220000000000084e+01 1.531494999999999891e+02 1.430625000000000000e+03
1.330000000000000071e-01 5.718265000000000153e-01 1.840315000000000012e+01 1.523224999999999909e+02 1.430360000000000127e+03
1.340000000000000080e-01 5.716155000000000541e-01 1.759479999999999933e+01 1.514954999999999927e+02 1.430095000000000027e+03
1.350000000000000089e-01 5.714084999999999859e-01 1.680310000000000059e+01 1.506790000000000020e+02 1.429825000000000045e+03
1.360000000000000098e-01 5.712080000000000490e-01 1.603405000000000058e+01 1.498824999999999932e+02 1.429565000000000055e+03
1.370000000000000107e-01 5.710155000000000092e-01 1.529315000000000069e+01 1.491154999999999973e+02 1.429309999999999945e+03
1.380000000000000115e-01 5.708334999999999937e-01 1.458546499999999924e+01 1.483855000000000075e+02 1.429065000000000055e+03
1.390000000000000124e-01 5.706634999999999902e-01 1.391548999999999836e+01 1.477009999999999934e+02 1.428835000000000036e+03
1.400000000000000133e-01 5.705069999999999864e-01 1.328694000000000131e+01 1.470660000000000025e+02 1.428610000000000127e+03
1.410000000000000142e-01 5.703650000000000109e-01 1.270260500000000015e+01 1.464859999999999900e+02 1.428409999999999854e+03
1.420000000000000151e-01 5.702374999999999527e-01 1.216458500000000065e+01 1.459629999999999939e+02 1.428224999999999909e+03
1.430000000000000160e-01 5.701245000000000340e-01 1.167387499999999889e+01 1.454985000000000070e+02 1.428049999999999955e+03
1.440000000000000169e-01 5.700259999999999216e-01 1.123054499999999933e+01 1.450919999999999845e+02 1.427900000000000091e+03
1.450000000000000178e-01 5.699420000000000597e-01 1.083382999999999896e+01 1.447420000000000186e+02 1.427769999999999982e+03
1.459999999999999909e-01 5.698704999999999465e-01 1.048221000000000025e+01 1.444449999999999932e+02 1.427650000000000091e+03
1.469999999999999918e-01 5.698109999999999564e-01 1.017326500000000067e+01 1.441965000000000146e+02 1.427549999999999955e+03
1.479999999999999927e-01 5.697619999999999907e-01 9.904049999999999798e+00 1.439920000000000186e+02 1.427460000000000036e+03
1.489999999999999936e-01 5.697220000000000617e-01 9.671120000000000161e+00 1.438249999999999886e+02 1.427384999999999991e+03
1.499999999999999944e-01 5.696885000000000421e-01 9.470625000000000071e+00 1.436884999999999764e+02 1.427329999999999927e+03
1.509999999999999953e-01 5.696605000000000141e-01 9.298405000000000697e+00 1.435769999999999982e+02 1.427269999999999982e+03
1.519999999999999962e-01 5.696364999999999901e-01 9.150394999999999612e+00 1.434830000000000041e+02 1.427230000000000018e+03
1.529999999999999971e-01 5.696134999999999948e-01 9.022289999999999921e+00 1.434004999999999939e+02 1.427184999999999945e+03
1.539999999999999980e-01 5.695919999999999872e-01 8.910045000000000215e+00 1.433230000000000075e+02 1.427144999999999982e+03
1.549999999999999989e-01 5.695694999999999508e-01 8.809749999999999304e+00 1.432445000000000164e+02 1.427115000000000009e+03
1.559999999999999998e-01 5.695449999999999680e-01 8.717980000000000729e+00 1.431605000000000132e+02 1.427075000000000045e+03
1.570000000000000007e-01 5.695175000000000098e-01 8.631360000000000809e+00 1.430679999999999836e+02 1.427039999999999964e+03
1.580000000000000016e-01 5.694865000000000066e-01 8.547209999999999752e+00 1.429615000000000009e+02 1.426994999999999891e+03
1.590000000000000024e-01 5.694519999999999582e-01 8.463129999999999598e+00 1.428405000000000200e+02 1.426954999999999927e+03
