# t [s], A [cm^2], U [cm/s], P [cPa], c [cm/s]
1.000000000000000021e-03 7.900234999999999896e-01 6.706000000000003625e-03 1.081765000000000043e+02 1.727679999999999836e+03
2.000000000000000042e-03 7.900120000000000475e-01 2.072009999999999998e-03 1.081444999999999936e+02 1.727674999999999955e+03
3.000000000000000062e-03 7.900955000000000616e-01 1.315344999999999986e-01 1.082965000000000089e+02 1.727704999999999927e+03
4.000000000000000083e-03 7.901394999999999946e-01 2.191435499999999925e-01 1.084044999999999987e+02 1.727730000000000018e+03
5.000000000000000104e-03 7.900679999999999925e-01 1.424304999999999599e-01 1.082365000000000066e+02 1.727695000000000164e+03
6.000000000000000125e-03 7.899754999999999416e-01 2.388350000000000195e-02 1.079115000000000038e+02 1.727634999999999991e+03
7.000000000000000146e-03 7.898804999999999854e-01 -1.111149999999999638e-01 1.074939999999999998e+02 1.727550000000000182e+03
8.000000000000000167e-03 7.897049999999999903e-01 -3.890550000000000397e-01 1.068215000000000003e+02 1.727414999999999964e+03
9.000000000000001055e-03 7.894390000000000018e-01 -8.283550000000000635e-01 1.058174999999999955e+02 1.727214999999999918e+03
1.000000000000000194e-02 7.890684999999999505e-01 -1.437100000000000044e+00 1.044184999999999945e+02 1.726940000000000055e+03
1.099999999999999936e-02 7.885609999999999564e-01 -2.243509999999999671e+00 1.025258499999999913e+02 1.726554999999999836e+03
1.200000000000000025e-02 7.879450000000000065e-01 -3.178455000000000474e+00 1.001659999999999968e+02 1.726059999999999945e+03
1.300000000000000114e-02 7.873200000000000198e-01 -4.044439999999999813e+00 9.757890000000000441e+01 1.725510000000000218e+03
1.400000000000000203e-02 7.867969999999999686e-01 -4.623387999999999387e+00 9.510159999999999059e+01 1.724954999999999927e+03
1.499999999999999944e-02 7.864249999999999297e-01 -4.794283999999999324e+00 9.298805000000000121e+01 1.724454999999999927e+03
1.600000000000000033e-02 7.861785000000000023e-01 -4.570529999999999760e+00 9.130649999999999977e+01 1.724019999999999982e+03
1.700000000000000122e-02 7.859849999999999337e-01 -4.065739999999999910e+00 8.994855000000001155e+01 1.723639999999999873e+03
1.800000000000000211e-02 7.857635000000000591e-01 -3.429104999999999848e+00 8.870580000000001064e+01 1.723289999999999964e+03
1.900000000000000300e-02 7.854579999999999895e-01 -2.781920749999999831e+00 8.737014999999999532e+01 1.722924999999999955e+03
2.000000000000000042e-02 7.850555000000000172e-01 -2.176645000000000163e+00 8.581810000000000116e+01 1.722519999999999982e+03
2.100000000000000130e-02 7.845845000000000180e-01 -1.592894999999999728e+00 8.404619999999999891e+01 1.722075000000000045e+03
2.200000000000000219e-02 7.840940000000000687e-01 -9.692249999999997812e-01 8.214580000000000837e+01 1.721605000000000018e+03
2.299999999999999961e-02 7.836244999999999461e-01 -2.509149999999999991e-01 8.023754999999999882e+01 1.721125000000000000e+03
2.400000000000000050e-02 7.831904999999999006e-01 5.714649999999998897e-01 7.840250000000000341e+01 1.720655000000000200e+03
2.500000000000000139e-02 7.827739999999999698e-01 1.446809999999999929e+00 7.663824999999999932e+01 1.720195000000000164e+03
2.600000000000000228e-02 7.823294999999999000e-01 2.272194999999999965e+00 7.485159999999999059e+01 1.719735000000000127e+03
2.700000000000000316e-02 7.818015000000000381e-01 2.919054999999999289e+00 7.288339999999999463e+01 1.719239999999999782e+03
2.800000000000000058e-02 7.811415000000000441e-01 3.267760000000000442e+00 7.055740000000000123e+01 1.718675000000000182e+03
2.900000000000000147e-02 7.803234999999999477e-01 3.241389999999999993e+00 6.773685000000000400e+01 1.718025000000000091e+03
3.000000000000000236e-02 7.793535000000000323e-01 2.828290000000000415e+00 6.437395000000000778e+01 1.717265000000000100e+03
3.099999999999999978e-02 7.782719999999999638e-01 2.085720000000000240e+00 6.053305000000000291e+01 1.716400000000000091e+03
3.200000000000000067e-02 7.771429999999999172e-01 1.123084999999999667e+00 5.638195000000000334e+01 1.715469999999999800e+03
3.300000000000000155e-02 7.760394999999999932e-01 7.430000000000003268e-02 5.215574999999999761e+01 1.714509999999999991e+03
3.400000000000000244e-02 7.750274999999999803e-01 -9.314749999999998309e-01 4.811039999999999850e+01 1.713575000000000045e+03
3.500000000000000333e-02 7.741565000000000252e-01 -1.790094999999999992e+00 4.447915000000000418e+01 1.712715000000000146e+03
3.600000000000000422e-02 7.734594999999999665e-01 -2.432350000000000012e+00 4.144294999999999618e+01 1.711964999999999918e+03
3.700000000000000511e-02 7.729490000000001082e-01 -2.823580000000000645e+00 3.911674999999999613e+01 1.711360000000000127e+03
3.799999999999999906e-02 7.726239999999999775e-01 -2.956202499999999844e+00 3.755060000000000286e+01 1.710924999999999955e+03
3.899999999999999994e-02 7.724754999999999816e-01 -2.839084999999999859e+00 3.674184999999999945e+01 1.710650000000000091e+03
4.000000000000000083e-02 7.724895000000000511e-01 -2.486829999999999874e+00 3.665324999999999989e+01 1.710539999999999964e+03
4.100000000000000172e-02 7.726534999999999931e-01 -1.911941000000000113e+00 3.723094999999999999e+01 1.710585000000000036e+03
4.200000000000000261e-02 7.729574999999999640e-01 -1.121580000000000021e+00 3.841839999999999833e+01 1.710779999999999973e+03
4.300000000000000350e-02 7.733920000000000794e-01 -1.189899999999997071e-01 4.016275000000000261e+01 1.711110000000000127e+03
4.400000000000000439e-02 7.739484999999999282e-01 1.091830000000000300e+00 4.241434999999999889e+01 1.711570000000000164e+03
4.499999999999999833e-02 7.746155000000000124e-01 2.500580000000000247e+00 4.512174999999999869e+01 1.712134999999999991e+03
4.599999999999999922e-02 7.753784999999999705e-01 4.086475000000000080e+00 4.822560000000000002e+01 1.712795000000000073e+03
4.700000000000000011e-02 7.762175000000000047e-01 5.816675000000000040e+00 5.165460000000000207e+01 1.713545000000000073e+03
4.800000000000000100e-02 7.771090000000000497e-01 7.647846999999999618e+00 5.532474999999999454e+01 1.714360000000000127e+03
4.900000000000000189e-02 7.780279999999999418e-01 9.529594999999998706e+00 5.914274999999999949e+01 1.715215000000000146e+03
5.000000000000000278e-02 7.789494999999999614e-01 1.140984500000000068e+01 6.301214999999999833e+01 1.716099999999999909e+03
5.100000000000000366e-02 7.798505000000000020e-01 1.323963499999999982e+01 6.684074999999999989e+01 1.716994999999999891e+03
5.200000000000000455e-02 7.807134999999999492e-01 1.497744499999999945e+01 7.054829999999999757e+01 1.717865000000000009e+03
5.300000000000000544e-02 7.815274999999999306e-01 1.659205000000000041e+01 7.407229999999999848e+01 1.718710000000000036e+03
5.399999999999999939e-02 7.822845000000000493e-01 1.806325000000000003e+01 7.737135000000000673e+01 1.719509999999999991e+03
5.500000000000000028e-02 7.829839999999999023e-01 1.938200000000000145e+01 8.042605000000000359e+01 1.720269999999999982e+03
5.600000000000000117e-02 7.836294999999999789e-01 2.054860000000000042e+01 8.323754999999999882e+01 1.720974999999999909e+03
5.700000000000000205e-02 7.842270000000000074e-01 2.157119999999999749e+01 8.582445000000001301e+01 1.721630000000000109e+03
5.800000000000000294e-02 7.847870000000000124e-01 2.246329999999999671e+01 8.821859999999999502e+01 1.722244999999999891e+03
5.900000000000000383e-02 7.853185000000000304e-01 2.324249999999999972e+01 9.046115000000000350e+01 1.722819999999999936e+03
6.000000000000000472e-02 7.858340000000000325e-01 2.392849999999999966e+01 9.259784999999999400e+01 1.723369999999999891e+03
6.099999999999999867e-02 7.863435000000000841e-01 2.454149999999999920e+01 9.467539999999999623e+01 1.723905000000000200e+03
6.199999999999999956e-02 7.868559999999999999e-01 2.510099999999999909e+01 9.673734999999999218e+01 1.724429999999999836e+03
6.300000000000000044e-02 7.873805000000000387e-01 2.562424999999999997e+01 9.882104999999999961e+01 1.724954999999999927e+03
6.400000000000000133e-02 7.879209999999999825e-01 2.612485000000000213e+01 1.009532999999999987e+02 1.725485000000000127e+03
6.500000000000000222e-02 7.884799999999999587e-01 2.661144999999999783e+01 1.031509999999999962e+02 1.726034999999999854e+03
6.600000000000000311e-02 7.890565000000000495e-01 2.708755000000000024e+01 1.054149999999999920e+02 1.726589999999999918e+03
6.700000000000000400e-02 7.896460000000000701e-01 2.755095000000000027e+01 1.077349999999999994e+02 1.727155000000000200e+03
6.800000000000000488e-02 7.902405000000000124e-01 2.799459999999999837e+01 1.100870000000000033e+02 1.727735000000000127e+03
6.900000000000000577e-02 7.908310000000000617e-01 2.840719999999999956e+01 1.124379999999999882e+02 1.728309999999999945e+03
7.000000000000000666e-02 7.914065000000000127e-01 2.877510000000000190e+01 1.147450000000000045e+02 1.728875000000000000e+03
7.100000000000000755e-02 7.919570000000000221e-01 2.908305000000000007e+01 1.169650000000000034e+02 1.729434999999999945e+03
7.200000000000000844e-02 7.924694999999999379e-01 2.931629999999999825e+01 1.190519999999999925e+02 1.729954999999999927e+03
7.300000000000000933e-02 7.929375000000000728e-01 2.946134999999999948e+01 1.209654999999999916e+02 1.730440000000000055e+03
7.399999999999999634e-02 7.933499999999999996e-01 2.950735000000000241e+01 1.226690000000000111e+02 1.730880000000000109e+03
7.499999999999999722e-02 7.937034999999998952e-01 2.944624999999999915e+01 1.241340000000000003e+02 1.731269999999999982e+03
7.599999999999999811e-02 7.939939999999999776e-01 2.927365000000000350e+01 1.253430000000000035e+02 1.731595000000000027e+03
7.699999999999999900e-02 7.942194999999999672e-01 2.898894999999999911e+01 1.262849999999999966e+02 1.731865000000000009e+03
7.799999999999999989e-02 7.943810000000000038e-01 2.859490000000000265e+01 1.269615000000000009e+02 1.732070000000000164e+03
7.900000000000000078e-02 7.944824999999999804e-01 2.809830000000000183e+01 1.273815000000000026e+02 1.732219999999999800e+03
8.000000000000000167e-02 7.945275000000000531e-01 2.750880000000000081e+01 1.275625000000000000e+02 1.732305000000000064e+03
8.100000000000000255e-02 7.945235000000000491e-01 2.683924999999999983e+01 1.275300000000000011e+02 1.732335000000000036e+03
8.200000000000000344e-02 7.944780000000000175e-01 2.610439999999999827e+01 1.273129999999999882e+02 1.732325000000000045e+03
8.300000000000000433e-02 7.943990000000000773e-01 2.532110000000000127e+01 1.269470000000000027e+02 1.732269999999999982e+03
8.400000000000000522e-02 7.942960000000000020e-01 2.450674999999999670e+01 1.264680000000000035e+02 1.732184999999999945e+03
8.500000000000000611e-02 7.941770000000000218e-01 2.367905000000000015e+01 1.259140000000000015e+02 1.732075000000000045e+03
8.600000000000000699e-02 7.940510000000000623e-01 2.285484999999999900e+01 1.253194999999999908e+02 1.731954999999999927e+03
8.700000000000000788e-02 7.939249999999999918e-01 2.204945000000000022e+01 1.247185000000000059e+02 1.731820000000000164e+03
8.800000000000000877e-02 7.938054999999999417e-01 2.127570000000000050e+01 1.241394999999999982e+02 1.731690000000000055e+03
8.899999999999999578e-02 7.936969999999999859e-01 2.054390000000000072e+01 1.236039999999999992e+02 1.731565000000000055e+03
8.999999999999999667e-02 7.936030000000000584e-01 1.986070000000000135e+01 1.231285000000000025e+02 1.731449999999999818e+03
9.099999999999999756e-02 7.935250000000000359e-01 1.922939999999999827e+01 1.227210000000000036e+02 1.731345000000000027e+03
9.199999999999999845e-02 7.934609999999999719e-01 1.864985000000000070e+01 1.223845000000000027e+02 1.731255000000000109e+03
9.299999999999999933e-02 7.934114999999999363e-01 1.811864999999999881e+01 1.221119999999999948e+02 1.731179999999999836e+03
9.400000000000000022e-02 7.933710000000000484e-01 1.762944999999999851e+01 1.218944999999999936e+02 1.731115000000000009e+03
9.500000000000000111e-02 7.933360000000000412e-01 1.717379999999999995e+01 1.217139999999999986e+02 1.731065000000000055e+03
9.600000000000000200e-02 7.933025000000000215e-01 1.674145000000000039e+01 1.215515000000000043e+02 1.731015000000000100e+03
9.700000000000000289e-02 7.932635000000000103e-01 1.632114999999999938e+01 1.213849999999999909e+02 1.730970000000000027e+03
9.800000000000000377e-02 7.932150000000000034e-01 1.590119999999999933e+01 1.211920000000000073e+02 1.730914999999999964e+03
9.900000000000000466e-02 7.931509999999999394e-01 1.547050000000000125e+01 1.209505000000000052e+02 1.730855000000000018e+03
1.000000000000000056e-01 7.930679999999999952e-01 1.501869999999999905e+01 1.206405000000000030e+02 1.730784999999999854e+03
1.010000000000000064e-01 7.929614999999999858e-01 1.453729999999999833e+01 1.202450000000000045e+02 1.730690000000000055e+03
1.020000000000000073e-01 7.928299999999999237e-01 1.401989999999999981e+01 1.197519999999999953e+02 1.730574999999999818e+03
1.030000000000000082e-01 7.926724999999998911e-01 1.346274000000000015e+01 1.191550000000000011e+02 1.730445000000000164e+03
1.040000000000000091e-01 7.924885000000000401e-01 1.286477999999999966e+01 1.184525000000000006e+02 1.730285000000000082e+03
1.050000000000000100e-01 7.922804999999999431e-01 1.222816500000000062e+01 1.176484999999999985e+02 1.730105000000000018e+03
1.059999999999999970e-01 7.920525000000000482e-01 1.155788499999999885e+01 1.167549999999999955e+02 1.729900000000000091e+03
1.069999999999999979e-01 7.918084999999999152e-01 1.086167499999999997e+01 1.157879999999999967e+02 1.729679999999999836e+03
1.079999999999999988e-01 7.915539999999999798e-01 1.014955499999999944e+01 1.147685000000000031e+02 1.729440000000000055e+03
1.089999999999999997e-01 7.912959999999999994e-01 9.433429999999999538e+00 1.137214999999999918e+02 1.729195000000000164e+03
1.100000000000000006e-01 7.910409999999999942e-01 8.726234999999999076e+00 1.126734999999999900e+02 1.728950000000000045e+03
1.110000000000000014e-01 7.907954999999999846e-01 8.041550000000000864e+00 1.116535000000000082e+02 1.728704999999999927e+03
1.120000000000000023e-01 7.905670000000000197e-01 7.392579999999999707e+00 1.106880000000000024e+02 1.728474999999999909e+03
1.130000000000000032e-01 7.903599999999999515e-01 6.791619999999999990e+00 1.098040000000000020e+02 1.728259999999999991e+03
1.140000000000000041e-01 7.901804999999999524e-01 6.249460000000000903e+00 1.090229999999999961e+02 1.728059999999999945e+03
1.150000000000000050e-01 7.900324999999999154e-01 5.774725000000000108e+00 1.083629999999999995e+02 1.727889999999999873e+03
1.160000000000000059e-01 7.899179999999998980e-01 5.373604999999999521e+00 1.078370000000000033e+02 1.727744999999999891e+03
1.170000000000000068e-01 7.898374999999999702e-01 5.049580000000000624e+00 1.074519999999999982e+02 1.727634999999999991e+03
1.180000000000000077e-01 7.897914999999999797e-01 4.803309999999999746e+00 1.072085000000000008e+02 1.727559999999999945e+03
1.190000000000000085e-01 7.897780000000000911e-01 4.632774999999999643e+00 1.071030000000000086e+02 1.727505000000000109e+03
1.200000000000000094e-01 7.897939999999999960e-01 4.533464999999999634e+00 1.071250000000000000e+02 1.727490000000000009e+03
1.209999999999999964e-01 7.898355000000000237e-01 4.498770000000000380e+00 1.072614999999999981e+02 1.727505000000000109e+03
1.219999999999999973e-01 7.898985000000000589e-01 4.520360000000000156e+00 1.074945000000000022e+02 1.727539999999999964e+03
1.229999999999999982e-01 7.899774999999999991e-01 4.588745000000000296e+00 1.078040000000000020e+02 1.727595000000000027e+03
1.239999999999999991e-01 7.900674999999999226e-01 4.693699999999999761e+00 1.081699999999999875e+02 1.727664999999999964e+03
1.250000000000000000e-01 7.901640000000000885e-01 4.824804999999999566e+00 1.085715000000000003e+02 1.727744999999999891e+03
1.260000000000000009e-01 7.902625000000000899e-01 4.971870000000000012e+00 1.089879999999999995e+02 1.727835000000000036e+03
1.270000000000000018e-01 7.903580000000000050e-01 5.125305000000000000e+00 1.094020000000000010e+02 1.727924999999999955e+03
1.280000000000000027e-01 7.904474999999999696e-01 5.276489999999999903e+00 1.097965000000000089e+02 1.728014999999999873e+03
1.290000000000000036e-01 7.905284999999999673e-01 5.417970000000000397e+00 1.101589999999999918e+02 1.728099999999999909e+03
1.300000000000000044e-01 7.905980000000000230e-01 5.543625000000000469e+00 1.104795000000000016e+02 1.728175000000000182e+03
1.310000000000000053e-01 7.906560000000000255e-01 5.648825000000000429e+00 1.107510000000000048e+02 1.728240000000000009e+03
1.320000000000000062e-01 7.907014999999999461e-01 5.730385000000000062e+00 1.109699999999999989e+02 1.728295000000000073e+03
1.330000000000000071e-01 7.907345000000000068e-01 5.786604999999999777e+00 1.111355000000000075e+02 1.728340000000000146e+03
1.340000000000000080e-01 7.907549999999999857e-01 5.817175000000000651e+00 1.112500000000000000e+02 1.728375000000000000e+03
1.350000000000000089e-01 7.907655000000000101e-01 5.823014999999999830e+00 1.113170000000000073e+02 1.728400000000000091e+03
1.360000000000000098e-01 7.907669999999999977e-01 5.806189999999999962e+00 1.113425000000000011e+02 1.728414999999999964e+03
1.370000000000000107e-01 7.907619999999999649e-01 5.769624999999999559e+00 1.113345000000000056e+02 1.728414999999999964e+03
1.380000000000000115e-01 7.907515000000000516e-01 5.716965000000000074e+00 1.113009999999999877e+02 1.728414999999999964e+03
1.390000000000000124e-01 7.907385000000000108e-01 5.652289999999999814e+00 1.112514999999999930e+02 1.728410000000000082e+03
1.400000000000000133e-01 7.907250000000000112e-01 5.579879999999999285e+00 1.111940000000000026e+02 1.728400000000000091e+03
1.410000000000000142e-01 7.907129999999999992e-01 5.503975000000000506e+00 1.111370000000000005e+02 1.728389999999999873e+03
1.420000000000000151e-01 7.907035000000000036e-01 5.428560000000000052e+00 1.110875000000000057e+02 1.728384999999999991e+03
1.430000000000000160e-01 7.906980000000000119e-01 5.357110000000000483e+00 1.110525000000000091e+02 1.728375000000000000e+03
1.440000000000000169e-01 7.906984999999999708e-01 5.292510000000000048e+00 1.110349999999999966e+02 1.728369999999999891e+03
1.450000000000000178e-01 7.907035000000000036e-01 5.236839999999999939e+00 1.110384999999999991e+02 1.728375000000000000e+03
1.459999999999999909e-01 7.907139999999999169e-01 5.191390000000000171e+00 1.110645000000000095e+02 1.728380000000000109e+03
1.469999999999999918e-01 7.907299999999999329e-01 5.156609999999999694e+00 1.111109999999999900e+02 1.728389999999999873e+03
1.479999999999999927e-01 7.907505000000000228e-01 5.132165000000000532e+00 1.111769999999999925e+02 1.728404999999999973e+03
1.489999999999999936e-01 7.907735000000000181e-01 5.117050000000000765e+00 1.112570000000000050e+02 1.728420000000000073e+03
1.499999999999999944e-01 7.907984999999999598e-01 5.109709999999999752e+00 1.113470000000000084e+02 1.728440000000000055e+03
1.509999999999999953e-01 7.908235000000000126e-01 5.108225000000000016e+00 1.114415000000000049e+02 1.728460000000000036e+03
1.519999999999999962e-01 7.908485000000000653e-01 5.110500000000000043e+00 1.115349999999999966e+02 1.728480000000000018e+03
1.529999999999999971e-01 7.908705000000000318e-01 5.114414999999999267e+00 1.116219999999999999e+02 1.728505000000000109e+03
1.539999999999999980e-01 7.908889999999999532e-01 5.118009999999999948e+00 1.116970000000000027e+02 1.728519999999999982e+03
1.549999999999999989e-01 7.909034999999999815e-01 5.119625000000000092e+00 1.117565000000000026e+02 1.728534999999999854e+03
1.559999999999999998e-01 7.909129999999999772e-01 5.117955000000000254e+00 1.117980000000000018e+02 1.728545000000000073e+03
1.570000000000000007e-01 7.909174999999999400e-01 5.112154999999999561e+00 1.118195000000000050e+02 1.728555000000000064e+03
1.580000000000000016e-01 7.909169999999999812e-01 5.101820000000000022e+00 1.118205000000000098e+02 1.728555000000000064e+03
1.590000000000000024e-01 7.909114999999999895e-01 5.087019999999999875e+00 1.118015000000000043e+02 1.728550000000000182e+03
