# t [s], A [cm^2], U [cm/s], P [cPa], c [cm/s]
1.000000000000000021e-03 1.324410000000000032e-01 3.724965000000000082e-01 8.549725000000000819e+01 2.031054999999999836e+03
2.000000000000000042e-03 1.324104999999999865e-01 1.795098000000000305e+00 8.231614999999999327e+01 2.030655000000000200e+03
3.000000000000000062e-03 1.323254999999999848e-01 3.502382000000000328e+00 7.814074999999999704e+01 2.029575000000000045e+03
4.000000000000000083e-03 1.322090000000000209e-01 5.404355999999999938e+00 7.380795000000000528e+01 2.028115000000000009e+03
5.000000000000000104e-03 1.320835000000000203e-01 7.435614999999999419e+00 7.008180000000000121e+01 2.026565000000000055e+03
6.000000000000000125e-03 1.319629999999999970e-01 9.426759999999999806e+00 6.710484999999999900e+01 2.025065000000000055e+03
7.000000000000000146e-03 1.318480000000000207e-01 1.119511499999999948e+01 6.456175000000000352e+01 2.023684999999999945e+03
8.000000000000000167e-03 1.317414999999999836e-01 1.269270500000000013e+01 6.224850000000000705e+01 2.022420000000000073e+03
9.000000000000001055e-03 1.316469999999999863e-01 1.396327000000000140e+01 6.023254999999999626e+01 2.021305000000000064e+03
1.000000000000000194e-02 1.315655000000000019e-01 1.503299999999999947e+01 5.856935000000000002e+01 2.020360000000000127e+03
1.099999999999999936e-02 1.314974999999999894e-01 1.590779999999999994e+01 5.721524999999999750e+01 2.019575000000000045e+03
1.200000000000000025e-02 1.314405000000000157e-01 1.659345000000000070e+01 5.609914999999999452e+01 2.018924999999999955e+03
1.300000000000000114e-02 1.313929999999999820e-01 1.709090000000000131e+01 5.512955000000000183e+01 2.018394999999999982e+03
1.400000000000000203e-02 1.313515000000000099e-01 1.741489999999999938e+01 5.422400000000000375e+01 2.017934999999999945e+03
1.499999999999999944e-02 1.313159999999999883e-01 1.763429999999999964e+01 5.342815000000000225e+01 2.017549999999999955e+03
1.600000000000000033e-02 1.312895000000000034e-01 1.787640000000000029e+01 5.298780000000000001e+01 2.017264999999999873e+03
1.700000000000000122e-02 1.312790000000000068e-01 1.827519999999999811e+01 5.324819999999999709e+01 2.017154999999999973e+03
1.800000000000000211e-02 1.312900000000000178e-01 1.889920000000000044e+01 5.443900000000000006e+01 2.017285000000000082e+03
1.900000000000000300e-02 1.313229999999999953e-01 1.971124999999999972e+01 5.649980000000000047e+01 2.017680000000000064e+03
2.000000000000000042e-02 1.313755000000000062e-01 2.058099999999999952e+01 5.905845000000000056e+01 2.018284999999999854e+03
2.100000000000000130e-02 1.314359999999999973e-01 2.133755000000000024e+01 6.155854999999999677e+01 2.018994999999999891e+03
2.200000000000000219e-02 1.314929999999999988e-01 2.183295000000000030e+01 6.345880000000000365e+01 2.019670000000000073e+03
2.299999999999999961e-02 1.315359999999999863e-01 2.198879999999999768e+01 6.440980000000000416e+01 2.020195000000000164e+03
2.400000000000000050e-02 1.315594999999999959e-01 2.181219999999999715e+01 6.434329999999999927e+01 2.020494999999999891e+03
2.500000000000000139e-02 1.315620000000000123e-01 2.137944999999999851e+01 6.345284999999999798e+01 2.020550000000000182e+03
2.600000000000000228e-02 1.315485000000000126e-01 2.079974999999999952e+01 6.208849999999999625e+01 2.020420000000000073e+03
2.700000000000000316e-02 1.315250000000000030e-01 2.017435000000000045e+01 6.061684999999999945e+01 2.020154999999999973e+03
2.800000000000000058e-02 1.314974999999999894e-01 1.956714999999999804e+01 5.930270000000000152e+01 2.019844999999999800e+03
2.900000000000000147e-02 1.314710000000000045e-01 1.899439999999999884e+01 5.824890000000000612e+01 2.019539999999999964e+03
3.000000000000000236e-02 1.314474999999999949e-01 1.843350000000000222e+01 5.740394999999999470e+01 2.019259999999999991e+03
3.099999999999999978e-02 1.314244999999999997e-01 1.784349999999999881e+01 5.662130000000000507e+01 2.018989999999999782e+03
3.200000000000000067e-02 1.313999999999999890e-01 1.718959999999999866e+01 5.574105000000000132e+01 2.018715000000000146e+03
3.300000000000000155e-02 1.313729999999999898e-01 1.646245000000000047e+01 5.466575000000000273e+01 2.018394999999999982e+03
3.400000000000000244e-02 1.313409999999999855e-01 1.568789999999999907e+01 5.340659999999999741e+01 2.018035000000000082e+03
3.500000000000000333e-02 1.313064999999999927e-01 1.492435000000000045e+01 5.209000000000000341e+01 2.017630000000000109e+03
3.600000000000000422e-02 1.312714999999999854e-01 1.424889999999999901e+01 5.092399999999999949e+01 2.017235000000000127e+03
3.700000000000000511e-02 1.312429999999999986e-01 1.373744999999999905e+01 5.013819999999999766e+01 2.016889999999999873e+03
3.799999999999999906e-02 1.312245000000000217e-01 1.344450000000000145e+01 4.991615000000000180e+01 2.016664999999999964e+03
3.899999999999999994e-02 1.312190000000000023e-01 1.338845000000000063e+01 5.034094999999999942e+01 2.016594999999999800e+03
4.000000000000000083e-02 1.312294999999999989e-01 1.354654999999999987e+01 5.136905000000000143e+01 2.016695000000000164e+03
4.100000000000000172e-02 1.312534999999999952e-01 1.385885000000000034e+01 5.283605000000000018e+01 2.016954999999999927e+03
4.200000000000000261e-02 1.312865000000000004e-01 1.424030000000000129e+01 5.449029999999999774e+01 2.017329999999999927e+03
4.300000000000000350e-02 1.313239999999999963e-01 1.459560000000000102e+01 5.604209999999999781e+01 2.017764999999999873e+03
4.400000000000000439e-02 1.313590000000000035e-01 1.483500000000000085e+01 5.721560000000000201e+01 2.018159999999999854e+03
4.499999999999999833e-02 1.313850000000000018e-01 1.488649999999999984e+01 5.779194999999999993e+01 2.018469999999999800e+03
4.599999999999999922e-02 1.313969999999999860e-01 1.470265000000000022e+01 5.763575000000000159e+01 2.018615000000000009e+03
4.700000000000000011e-02 1.313924999999999954e-01 1.426334999999999908e+01 5.670300000000000296e+01 2.018565000000000055e+03
4.800000000000000100e-02 1.313684999999999992e-01 1.357294999999999874e+01 5.503279999999999461e+01 2.018299999999999955e+03
4.900000000000000189e-02 1.313265000000000127e-01 1.265545000000000009e+01 5.272705000000000553e+01 2.017829999999999927e+03
5.000000000000000278e-02 1.312685000000000102e-01 1.154795000000000016e+01 4.992640000000000100e+01 2.017159999999999854e+03
5.100000000000000366e-02 1.311970000000000081e-01 1.029497500000000088e+01 4.678614999999999924e+01 2.016329999999999927e+03
5.200000000000000455e-02 1.311149999999999816e-01 8.943635000000000446e+00 4.345884999999999820e+01 2.015384999999999991e+03
5.300000000000000544e-02 1.310270000000000046e-01 7.541335000000000122e+00 4.008370000000000033e+01 2.014369999999999891e+03
5.399999999999999939e-02 1.309359999999999968e-01 6.134249999999999758e+00 3.678294999999999959e+01 2.013309999999999945e+03
5.500000000000000028e-02 1.308449999999999891e-01 4.767384999999999984e+00 3.366375000000000028e+01 2.012250000000000000e+03
5.600000000000000117e-02 1.307570000000000121e-01 3.484766999999999726e+00 3.082200000000000273e+01 2.011230000000000018e+03
5.700000000000000205e-02 1.306760000000000144e-01 2.329534500000000286e+00 2.834649999999999892e+01 2.010275000000000091e+03
5.800000000000000294e-02 1.306025000000000102e-01 1.343530000000000113e+00 2.632134999999999891e+01 2.009430000000000064e+03
5.900000000000000383e-02 1.305419999999999914e-01 5.661500000000000421e-01 2.482549999999999812e+01 2.008704999999999927e+03
6.000000000000000472e-02 1.304945000000000133e-01 3.262500000000001510e-02 2.393009999999999948e+01 2.008144999999999982e+03
6.099999999999999867e-02 1.304625000000000090e-01 -2.280164999999999553e-01 2.369375000000000142e+01 2.007759999999999991e+03
6.199999999999999956e-02 1.304494999999999960e-01 -1.949544099999999947e-01 2.415704999999999814e+01 2.007585000000000036e+03
6.300000000000000044e-02 1.304545000000000010e-01 1.427425000000000221e-01 2.533810000000000073e+01 2.007625000000000000e+03
6.400000000000000133e-02 1.304790000000000116e-01 7.851519999999999611e-01 2.722879999999999967e+01 2.007894999999999982e+03
6.500000000000000222e-02 1.305240000000000011e-01 1.721283000000000118e+00 2.979455000000000098e+01 2.008384999999999991e+03
6.600000000000000311e-02 1.305875000000000230e-01 2.929751500000000064e+00 3.297529999999999717e+01 2.009099999999999909e+03
6.700000000000000400e-02 1.306680000000000064e-01 4.380110000000000170e+00 3.668945000000000078e+01 2.010019999999999982e+03
6.800000000000000488e-02 1.307645000000000057e-01 6.034819999999999851e+00 4.083939999999999770e+01 2.011125000000000000e+03
6.900000000000000577e-02 1.308745000000000047e-01 7.851485000000000269e+00 4.531784999999999997e+01 2.012385000000000218e+03
7.000000000000000666e-02 1.309945000000000137e-01 9.785294999999999632e+00 5.001435000000000031e+01 2.013775000000000091e+03
7.100000000000000755e-02 1.311225000000000029e-01 1.179139499999999963e+01 5.482215000000000060e+01 2.015255000000000109e+03
7.200000000000000844e-02 1.312550000000000106e-01 1.382719499999999968e+01 5.964370000000000260e+01 2.016805000000000064e+03
7.300000000000000933e-02 1.313894999999999924e-01 1.585420000000000051e+01 6.439549999999999841e+01 2.018380000000000109e+03
7.399999999999999634e-02 1.315250000000000030e-01 1.783970000000000056e+01 6.901160000000000139e+01 2.019965000000000146e+03
7.499999999999999722e-02 1.316575000000000106e-01 1.975795000000000101e+01 7.344585000000000719e+01 2.021525000000000091e+03
7.599999999999999811e-02 1.317870000000000152e-01 2.159069999999999823e+01 7.767275000000000773e+01 2.023055000000000064e+03
7.699999999999999900e-02 1.319120000000000015e-01 2.332755000000000223e+01 8.168680000000000518e+01 2.024539999999999964e+03
7.799999999999999989e-02 1.320329999999999837e-01 2.496535000000000082e+01 8.550010000000000332e+01 2.025970000000000027e+03
7.900000000000000078e-02 1.321489999999999887e-01 2.650735000000000241e+01 8.913980000000000814e+01 2.027355000000000018e+03
8.000000000000000167e-02 1.322605000000000031e-01 2.796219999999999928e+01 9.264339999999999975e+01 2.028695000000000164e+03
8.100000000000000255e-02 1.323689999999999867e-01 2.934205000000000041e+01 9.605429999999999779e+01 2.029990000000000009e+03
8.200000000000000344e-02 1.324750000000000094e-01 3.066130000000000067e+01 9.941820000000001301e+01 2.031259999999999991e+03
8.300000000000000433e-02 1.325800000000000034e-01 3.193464999999999776e+01 1.027758000000000038e+02 2.032514999999999873e+03
8.400000000000000522e-02 1.326844999999999830e-01 3.317580000000000240e+01 1.061629999999999967e+02 2.033764999999999873e+03
8.500000000000000611e-02 1.327889999999999904e-01 3.439614999999999867e+01 1.096045000000000016e+02 2.035025000000000091e+03
8.600000000000000699e-02 1.328944999999999987e-01 3.560385000000000133e+01 1.131149999999999949e+02 2.036295000000000073e+03
8.700000000000000788e-02 1.330020000000000091e-01 3.680310000000000059e+01 1.166959999999999980e+02 2.037579999999999927e+03
8.800000000000000877e-02 1.331104999999999927e-01 3.799419999999999931e+01 1.203365000000000009e+02 2.038890000000000100e+03
8.899999999999999578e-02 1.332204999999999917e-01 3.917310000000000514e+01 1.240160000000000053e+02 2.040210000000000036e+03
8.999999999999999667e-02 1.333314999999999917e-01 4.033220000000000027e+01 1.277025000000000006e+02 2.041545000000000073e+03
9.099999999999999756e-02 1.334425000000000194e-01 4.146070000000000277e+01 1.313574999999999875e+02 2.042875000000000000e+03
9.199999999999999845e-02 1.335520000000000040e-01 4.254545000000000243e+01 1.349395000000000095e+02 2.044200000000000045e+03
9.299999999999999933e-02 1.336600000000000010e-01 4.357160000000000366e+01 1.384014999999999986e+02 2.045500000000000000e+03
9.400000000000000022e-02 1.337645000000000084e-01 4.452360000000000184e+01 1.416985000000000241e+02 2.046769999999999982e+03
9.500000000000000111e-02 1.338644999999999974e-01 4.538615000000000066e+01 1.447875000000000227e+02 2.047980000000000018e+03
9.600000000000000200e-02 1.339584999999999804e-01 4.614484999999999815e+01 1.476304999999999836e+02 2.049125000000000000e+03
9.700000000000000289e-02 1.340465000000000129e-01 4.678694999999999737e+01 1.501940000000000168e+02 2.050199999999999818e+03
9.800000000000000377e-02 1.341269999999999962e-01 4.730219999999999914e+01 1.524524999999999864e+02 2.051179999999999836e+03
9.900000000000000466e-02 1.341990000000000127e-01 4.768309999999999604e+01 1.543890000000000100e+02 2.052059999999999945e+03
1.000000000000000056e-01 1.342619999999999925e-01 4.792544999999999789e+01 1.559945000000000164e+02 2.052835000000000036e+03
1.010000000000000064e-01 1.343159999999999910e-01 4.802844999999999942e+01 1.572690000000000055e+02 2.053500000000000000e+03
1.020000000000000073e-01 1.343604999999999938e-01 4.799484999999999957e+01 1.582214999999999918e+02 2.054054999999999836e+03
1.030000000000000082e-01 1.343965000000000021e-01 4.783089999999999975e+01 1.588689999999999998e+02 2.054500000000000000e+03
1.040000000000000091e-01 1.344235000000000013e-01 4.754574999999999818e+01 1.592355000000000018e+02 2.054840000000000146e+03
1.050000000000000100e-01 1.344414999999999916e-01 4.715160000000000196e+01 1.593514999999999873e+02 2.055074999999999818e+03
1.059999999999999970e-01 1.344535000000000036e-01 4.666264999999999930e+01 1.592515000000000214e+02 2.055224999999999909e+03
1.069999999999999979e-01 1.344579999999999942e-01 4.609454999999999814e+01 1.589724999999999966e+02 2.055295000000000073e+03
1.079999999999999988e-01 1.344569999999999932e-01 4.546410000000000196e+01 1.585540000000000020e+02 2.055295000000000073e+03
1.089999999999999997e-01 1.344515000000000016e-01 4.478815000000000168e+01 1.580335000000000036e+02 2.055230000000000018e+03
1.100000000000000006e-01 1.344420000000000059e-01 4.408294999999999675e+01 1.574474999999999909e+02 2.055130000000000109e+03
1.110000000000000014e-01 1.344305000000000083e-01 4.336390000000000100e+01 1.568290000000000077e+02 2.054994999999999891e+03
1.120000000000000023e-01 1.344170000000000087e-01 4.264450000000000074e+01 1.562055000000000007e+02 2.054835000000000036e+03
1.130000000000000032e-01 1.344025000000000081e-01 4.193630000000000280e+01 1.555995000000000061e+02 2.054659999999999854e+03
1.140000000000000041e-01 1.343880000000000075e-01 4.124830000000000041e+01 1.550279999999999916e+02 2.054485000000000127e+03
1.150000000000000050e-01 1.343735000000000068e-01 4.058709999999999951e+01 1.545015000000000214e+02 2.054309999999999945e+03
1.160000000000000059e-01 1.343594999999999928e-01 3.995635000000000048e+01 1.540224999999999795e+02 2.054144999999999982e+03
1.170000000000000068e-01 1.343465000000000076e-01 3.935730000000000217e+01 1.535905000000000200e+02 2.053980000000000018e+03
1.180000000000000077e-01 1.343340000000000090e-01 3.878835000000000122e+01 1.531965000000000146e+02 2.053829999999999927e+03
1.190000000000000085e-01 1.343230000000000257e-01 3.824600000000000222e+01 1.528284999999999911e+02 2.053684999999999945e+03
1.200000000000000094e-01 1.343119999999999870e-01 3.772455000000000069e+01 1.524705000000000155e+02 2.053550000000000182e+03
1.209999999999999964e-01 1.343010000000000037e-01 3.721715000000000373e+01 1.521039999999999850e+02 2.053414999999999964e+03
1.219999999999999973e-01 1.342889999999999917e-01 3.671564999999999657e+01 1.517074999999999818e+02 2.053269999999999982e+03
1.229999999999999982e-01 1.342769999999999797e-01 3.621155000000000257e+01 1.512615000000000123e+02 2.053119999999999891e+03
1.239999999999999991e-01 1.342629999999999935e-01 3.569624999999999915e+01 1.507454999999999927e+02 2.052949999999999818e+03
1.250000000000000000e-01 1.342475000000000196e-01 3.516169999999999618e+01 1.501415000000000077e+02 2.052764999999999873e+03
1.260000000000000009e-01 1.342300000000000160e-01 3.460079999999999956e+01 1.494350000000000023e+02 2.052545000000000073e+03
1.270000000000000018e-01 1.342090000000000227e-01 3.400789999999999935e+01 1.486140000000000043e+02 2.052295000000000073e+03
1.280000000000000027e-01 1.341859999999999997e-01 3.337890000000000157e+01 1.476730000000000018e+02 2.052010000000000218e+03
1.290000000000000036e-01 1.341585000000000139e-01 3.271170000000000044e+01 1.466105000000000018e+02 2.051690000000000055e+03
1.300000000000000044e-01 1.341279999999999972e-01 3.200639999999999930e+01 1.454304999999999950e+02 2.051324999999999818e+03
1.310000000000000053e-01 1.340949999999999920e-01 3.126525000000000176e+01 1.441415000000000077e+02 2.050920000000000073e+03
1.320000000000000062e-01 1.340584999999999971e-01 3.049260000000000304e+01 1.427580000000000098e+02 2.050480000000000018e+03
1.330000000000000071e-01 1.340195000000000136e-01 2.969464999999999932e+01 1.412984999999999900e+02 2.050014999999999873e+03
1.340000000000000080e-01 1.339779999999999860e-01 2.887944999999999851e+01 1.397849999999999966e+02 2.049514999999999873e+03
1.350000000000000089e-01 1.339354999999999851e-01 2.805620000000000047e+01 1.382425000000000068e+02 2.048994999999999891e+03
1.360000000000000098e-01 1.338914999999999966e-01 2.723509999999999920e+01 1.366970000000000027e+02 2.048470000000000255e+03
1.370000000000000107e-01 1.338469999999999938e-01 2.642680000000000007e+01 1.351765000000000043e+02 2.047934999999999945e+03
1.380000000000000115e-01 1.338030000000000053e-01 2.564175000000000182e+01 1.337050000000000125e+02 2.047405000000000200e+03
1.390000000000000124e-01 1.337599999999999900e-01 2.489014999999999844e+01 1.323084999999999809e+02 2.046889999999999873e+03
1.400000000000000133e-01 1.337190000000000045e-01 2.418110000000000070e+01 1.310074999999999932e+02 2.046389999999999873e+03
1.410000000000000142e-01 1.336804999999999799e-01 2.352240000000000109e+01 1.298195000000000050e+02 2.045920000000000073e+03
1.420000000000000151e-01 1.336444999999999994e-01 2.292050000000000054e+01 1.287584999999999980e+02 2.045480000000000018e+03
1.430000000000000160e-01 1.336120000000000085e-01 2.237964999999999804e+01 1.278320000000000078e+02 2.045085000000000036e+03
1.440000000000000169e-01 1.335824999999999929e-01 2.190269999999999939e+01 1.270454999999999899e+02 2.044724999999999909e+03
1.450000000000000178e-01 1.335570000000000090e-01 2.149030000000000129e+01 1.263965000000000032e+02 2.044414999999999964e+03
1.459999999999999909e-01 1.335355000000000014e-01 2.114144999999999897e+01 1.258830000000000098e+02 2.044155000000000200e+03
1.469999999999999918e-01 1.335175000000000112e-01 2.085345000000000226e+01 1.254945000000000022e+02 2.043930000000000064e+03
1.479999999999999927e-01 1.335024999999999962e-01 2.062209999999999965e+01 1.252210000000000036e+02 2.043744999999999891e+03
1.489999999999999936e-01 1.334914999999999852e-01 2.044219999999999970e+01 1.250480000000000018e+02 2.043605000000000018e+03
1.499999999999999944e-01 1.334829999999999905e-01 2.030760000000000076e+01 1.249609999999999985e+02 2.043500000000000000e+03
1.509999999999999953e-01 1.334774999999999989e-01 2.021150000000000091e+01 1.249435000000000002e+02 2.043425000000000182e+03
1.519999999999999962e-01 1.334739999999999815e-01 2.014694999999999681e+01 1.249805000000000064e+02 2.043380000000000109e+03
1.529999999999999971e-01 1.334719999999999795e-01 2.010694999999999766e+01 1.250554999999999950e+02 2.043355000000000018e+03
1.539999999999999980e-01 1.334719999999999795e-01 2.008474999999999966e+01 1.251555000000000035e+02 2.043349999999999909e+03
1.549999999999999989e-01 1.334730000000000083e-01 2.007410000000000139e+01 1.252674999999999983e+02 2.043349999999999909e+03
1.559999999999999998e-01 1.334739999999999815e-01 2.006929999999999836e+01 1.253795000000000073e+02 2.043364999999999782e+03
1.570000000000000007e-01 1.334759999999999835e-01 2.006550000000000011e+01 1.254839999999999947e+02 2.043384999999999991e+03
1.580000000000000016e-01 1.334774999999999989e-01 2.005879999999999797e+01 1.255734999999999957e+02 2.043404999999999973e+03
1.590000000000000024e-01 1.334789999999999865e-01 2.004610000000000269e+01 1.256444999999999936e+02 2.043425000000000182e+03
