# t [s], A [cm^2], U [cm/s], P [cPa], c [cm/s]
1.000000000000000021e-03 4.986174999999999913e-01 2.866199999999999304e-03 9.020474999999999000e+01 1.613279999999999973e+03
2.000000000000000042e-03 4.986125000000000140e-01 4.095114999999999866e-03 9.018389999999999418e+01 1.613275000000000091e+03
3.000000000000000062e-03 4.986605000000000065e-01 1.147079500000000030e-01 9.030019999999998959e+01 1.613304999999999836e+03
4.000000000000000083e-03 4.986930000000000529e-01 1.980080999999999924e-01 9.040534999999999854e+01 1.613335000000000036e+03
5.000000000000000104e-03 4.986665000000000125e-01 1.545503500000000030e-01 9.032409999999998718e+01 1.613315000000000055e+03
6.000000000000000125e-03 4.986180000000000057e-01 5.330649999999997890e-02 9.009505000000000052e+01 1.613264999999999873e+03
7.000000000000000146e-03 4.985690000000000399e-01 -5.885899999999999466e-02 8.978264999999998963e+01 1.613190000000000055e+03
8.000000000000000167e-03 4.984855000000000258e-01 -2.603050000000000086e-01 8.929900000000000659e+01 1.613070000000000164e+03
9.000000000000001055e-03 4.983495000000000008e-01 -5.932999999999999385e-01 8.856010000000000559e+01 1.612889999999999873e+03
1.000000000000000194e-02 4.981565000000000021e-01 -1.063390000000000057e+00 8.751765000000000327e+01 1.612630000000000109e+03
1.099999999999999936e-02 4.978914999999999869e-01 -1.690115000000000034e+00 8.610724999999999341e+01 1.612275000000000091e+03
1.200000000000000025e-02 4.975524999999999531e-01 -2.459474999999999856e+00 8.430215000000001169e+01 1.611809999999999945e+03
1.300000000000000114e-02 4.971729999999999761e-01 -3.272995000000000321e+00 8.219489999999998986e+01 1.611255000000000109e+03
1.400000000000000203e-02 4.968055000000000110e-01 -3.975059999999999594e+00 7.999070000000000391e+01 1.610644999999999982e+03
1.499999999999999944e-02 4.964965000000000073e-01 -4.427788500000000127e+00 7.791785000000000139e+01 1.610054999999999836e+03
1.600000000000000033e-02 4.962634999999999685e-01 -4.566960500000000422e+00 7.613454999999999018e+01 1.609509999999999991e+03
1.700000000000000122e-02 4.960944999999999938e-01 -4.412329999999999863e+00 7.468430000000000746e+01 1.609029999999999973e+03
1.800000000000000211e-02 4.959584999999999688e-01 -4.043414999999999537e+00 7.350384999999999991e+01 1.608610000000000127e+03
1.900000000000000300e-02 4.958204999999999973e-01 -3.560979999999999812e+00 7.246580000000000155e+01 1.608224999999999909e+03
2.000000000000000042e-02 4.956534999999999691e-01 -3.050163999999999653e+00 7.143305000000000859e+01 1.607845000000000027e+03
2.100000000000000130e-02 4.954469999999999708e-01 -2.556545500000000359e+00 7.030625000000000568e+01 1.607454999999999927e+03
2.200000000000000219e-02 4.952070000000000083e-01 -2.081694999999999851e+00 6.904910000000000991e+01 1.607029999999999973e+03
2.299999999999999961e-02 4.949485000000000134e-01 -1.597659999999999858e+00 6.768299999999999272e+01 1.606585000000000036e+03
2.400000000000000050e-02 4.946869999999999878e-01 -1.071625000000000272e+00 6.625995000000000346e+01 1.606125000000000000e+03
2.500000000000000139e-02 4.944324999999999970e-01 -4.891050000000001230e-01 6.482765000000000555e+01 1.605655000000000200e+03
2.600000000000000228e-02 4.941820000000000102e-01 1.331050000000000288e-01 6.340134999999999366e+01 1.605180000000000064e+03
2.700000000000000316e-02 4.939225000000000421e-01 7.464249999999998941e-01 6.195165000000000077e+01 1.604704999999999927e+03
2.800000000000000058e-02 4.936344999999999761e-01 1.280670000000000197e+00 6.040845000000000198e+01 1.604200000000000045e+03
2.900000000000000147e-02 4.932965000000000266e-01 1.660560000000000258e+00 5.867889999999999873e+01 1.603650000000000091e+03
3.000000000000000236e-02 4.928924999999999557e-01 1.824054999999999538e+00 5.667345000000000255e+01 1.603035000000000082e+03
3.099999999999999978e-02 4.924169999999999936e-01 1.737680000000000113e+00 5.433230000000000359e+01 1.602339999999999918e+03
3.200000000000000067e-02 4.918744999999999923e-01 1.405149999999999899e+00 5.164619999999999322e+01 1.601554999999999836e+03
3.300000000000000155e-02 4.912840000000000540e-01 8.668950000000004152e-01 4.866510000000000247e+01 1.600695000000000164e+03
3.400000000000000244e-02 4.906710000000000238e-01 1.913999999999997925e-01 4.549334999999999951e+01 1.599779999999999973e+03
3.500000000000000333e-02 4.900660000000000016e-01 -5.383699999999995711e-01 4.227299999999999613e+01 1.598840000000000146e+03
3.600000000000000422e-02 4.894990000000000174e-01 -1.239254999999999995e+00 3.916244999999999976e+01 1.597914999999999964e+03
3.700000000000000511e-02 4.889944999999999986e-01 -1.839000000000000412e+00 3.631454999999999700e+01 1.597050000000000182e+03
3.799999999999999906e-02 4.885715000000000474e-01 -2.283189999999999831e+00 3.385979999999999990e+01 1.596275000000000091e+03
3.899999999999999994e-02 4.882425000000000237e-01 -2.536760000000000126e+00 3.189540000000000219e+01 1.595619999999999891e+03
4.000000000000000083e-02 4.880125000000000157e-01 -2.582129999999999814e+00 3.048235000000000028e+01 1.595115000000000009e+03
4.100000000000000172e-02 4.878824999999999967e-01 -2.414766500000000260e+00 2.964755000000000251e+01 1.594769999999999982e+03
4.200000000000000261e-02 4.878494999999999915e-01 -2.037990000000000190e+00 2.939055000000000106e+01 1.594579999999999927e+03
4.300000000000000350e-02 4.879094999999999960e-01 -1.458559499999999787e+00 2.969165000000000276e+01 1.594559999999999945e+03
4.400000000000000439e-02 4.880574999999999775e-01 -6.837799999999999434e-01 3.051964999999999861e+01 1.594695000000000164e+03
4.499999999999999833e-02 4.882879999999999998e-01 2.793149999999997579e-01 3.183770000000000167e+01 1.594980000000000018e+03
4.599999999999999922e-02 4.885950000000000015e-01 1.423084999999999933e+00 3.360605000000000331e+01 1.595404999999999973e+03
4.700000000000000011e-02 4.889729999999999910e-01 2.737419999999999742e+00 3.578269999999999840e+01 1.595960000000000036e+03
4.800000000000000100e-02 4.894135000000000568e-01 4.207729999999999748e+00 3.832224999999999682e+01 1.596630000000000109e+03
4.900000000000000189e-02 4.899080000000000101e-01 5.813629999999999853e+00 4.117445000000000022e+01 1.597404999999999973e+03
5.000000000000000278e-02 4.904459999999999376e-01 7.528939999999999522e+00 4.428355000000000530e+01 1.598260000000000218e+03
5.100000000000000366e-02 4.910160000000000080e-01 9.322285000000000821e+00 4.758879999999999910e+01 1.599190000000000055e+03
5.200000000000000455e-02 4.916065000000000573e-01 1.115946500000000086e+01 5.102655000000000030e+01 1.600175000000000182e+03
5.300000000000000544e-02 4.922054999999999625e-01 1.300554499999999969e+01 5.453289999999999793e+01 1.601190000000000055e+03
5.399999999999999939e-02 4.928035000000000054e-01 1.482777500000000082e+01 5.804765000000000441e+01 1.602224999999999909e+03
5.500000000000000028e-02 4.933914999999999829e-01 1.659727000000000174e+01 6.151789999999999736e+01 1.603265000000000100e+03
5.600000000000000117e-02 4.939624999999999710e-01 1.829114999999999824e+01 6.490085000000000548e+01 1.604289999999999964e+03
5.700000000000000205e-02 4.945134999999999947e-01 1.989300000000000068e+01 6.816585000000000605e+01 1.605295000000000073e+03
5.800000000000000294e-02 4.950419999999999821e-01 2.139325000000000188e+01 7.129545000000000243e+01 1.606269999999999982e+03
5.900000000000000383e-02 4.955485000000000029e-01 2.278865000000000052e+01 7.428499999999999659e+01 1.607219999999999800e+03
6.000000000000000472e-02 4.960350000000000037e-01 2.408129999999999882e+01 7.714124999999999943e+01 1.608125000000000000e+03
6.099999999999999867e-02 4.965049999999999741e-01 2.527779999999999916e+01 7.988065000000000282e+01 1.609009999999999991e+03
6.199999999999999956e-02 4.969635000000000025e-01 2.638770000000000238e+01 8.252639999999999532e+01 1.609860000000000127e+03
6.300000000000000044e-02 4.974144999999999817e-01 2.742255000000000109e+01 8.510605000000001041e+01 1.610700000000000045e+03
6.400000000000000133e-02 4.978640000000000287e-01 2.839460000000000051e+01 8.764865000000000350e+01 1.611519999999999982e+03
6.500000000000000222e-02 4.983150000000000079e-01 2.931595000000000084e+01 9.018234999999999957e+01 1.612340000000000146e+03
6.600000000000000311e-02 4.987719999999999931e-01 3.019744999999999990e+01 9.273195000000001187e+01 1.613159999999999854e+03
6.700000000000000400e-02 4.992380000000000151e-01 3.104789999999999850e+01 9.531694999999999141e+01 1.613985000000000127e+03
6.800000000000000488e-02 4.997144999999999504e-01 3.187354999999999805e+01 9.794970000000000709e+01 1.614824999999999818e+03
6.900000000000000577e-02 5.002005000000000479e-01 3.267750000000000199e+01 1.006351499999999959e+02 1.615680000000000064e+03
7.000000000000000666e-02 5.006960000000000299e-01 3.345955000000000013e+01 1.033694500000000005e+02 1.616545000000000073e+03
7.100000000000000755e-02 5.011974999999999625e-01 3.421625000000000227e+01 1.061415000000000077e+02 1.617424999999999955e+03
7.200000000000000844e-02 5.017009999999999525e-01 3.494134999999999991e+01 1.089314999999999998e+02 1.618309999999999945e+03
7.300000000000000933e-02 5.022024999999999961e-01 3.562619999999999720e+01 1.117154999999999916e+02 1.619195000000000164e+03
7.399999999999999634e-02 5.026954999999999618e-01 3.626044999999999874e+01 1.144620000000000033e+02 1.620070000000000164e+03
7.499999999999999722e-02 5.031754999999999978e-01 3.683290000000000219e+01 1.171405000000000030e+02 1.620930000000000064e+03
7.599999999999999811e-02 5.036359999999999726e-01 3.733230000000000359e+01 1.197169999999999987e+02 1.621764999999999873e+03
7.699999999999999900e-02 5.040715000000000057e-01 3.774795000000000300e+01 1.221605000000000132e+02 1.622559999999999945e+03
7.799999999999999989e-02 5.044779999999999820e-01 3.807054999999999723e+01 1.244430000000000121e+02 1.623320000000000164e+03
7.900000000000000078e-02 5.048515000000000086e-01 3.829255000000000564e+01 1.265390000000000015e+02 1.624019999999999982e+03
8.000000000000000167e-02 5.051885000000000403e-01 3.840874999999999773e+01 1.284304999999999950e+02 1.624659999999999854e+03
8.100000000000000255e-02 5.054880000000000484e-01 3.841625000000000512e+01 1.301045000000000016e+02 1.625244999999999891e+03
8.200000000000000344e-02 5.057479999999999754e-01 3.831499999999999773e+01 1.315544999999999902e+02 1.625759999999999991e+03
8.300000000000000433e-02 5.059704999999999897e-01 3.810739999999999839e+01 1.327794999999999845e+02 1.626204999999999927e+03
8.400000000000000522e-02 5.061550000000000216e-01 3.779845000000000255e+01 1.337860000000000014e+02 1.626590000000000146e+03
8.500000000000000611e-02 5.063039999999999763e-01 3.739560000000000173e+01 1.345854999999999961e+02 1.626904999999999973e+03
8.600000000000000699e-02 5.064214999999999689e-01 3.690820000000000078e+01 1.351935000000000002e+02 1.627159999999999854e+03
8.700000000000000788e-02 5.065095000000000569e-01 3.634754999999999825e+01 1.356305000000000121e+02 1.627360000000000127e+03
8.800000000000000877e-02 5.065735000000000099e-01 3.572594999999999743e+01 1.359194999999999993e+02 1.627509999999999991e+03
8.899999999999999578e-02 5.066169999999999840e-01 3.505679999999999552e+01 1.360849999999999795e+02 1.627619999999999891e+03
8.999999999999999667e-02 5.066444999999999421e-01 3.435374999999999801e+01 1.361535000000000082e+02 1.627684999999999945e+03
9.099999999999999756e-02 5.066599999999999993e-01 3.363004999999999711e+01 1.361494999999999891e+02 1.627724999999999909e+03
9.199999999999999845e-02 5.066675000000000484e-01 3.289849999999999852e+01 1.360985000000000014e+02 1.627750000000000000e+03
9.299999999999999933e-02 5.066709999999999825e-01 3.217060000000000031e+01 1.360204999999999984e+02 1.627755000000000109e+03
9.400000000000000022e-02 5.066734999999999989e-01 3.145609999999999928e+01 1.359354999999999905e+02 1.627750000000000000e+03
9.500000000000000111e-02 5.066764999999999741e-01 3.076295000000000002e+01 1.358580000000000041e+02 1.627740000000000009e+03
9.600000000000000200e-02 5.066824999999999246e-01 3.009675000000000011e+01 1.357980000000000018e+02 1.627735000000000127e+03
9.700000000000000289e-02 5.066915000000000724e-01 2.946085000000000065e+01 1.357634999999999934e+02 1.627735000000000127e+03
9.800000000000000377e-02 5.067034999999999734e-01 2.885629999999999740e+01 1.357539999999999907e+02 1.627730000000000018e+03
9.900000000000000466e-02 5.067190000000000305e-01 2.828184999999999860e+01 1.357680000000000007e+02 1.627740000000000009e+03
1.000000000000000056e-01 5.067350000000000465e-01 2.773444999999999894e+01 1.357989999999999782e+02 1.627744999999999891e+03
1.010000000000000064e-01 5.067509999999999515e-01 2.720929999999999893e+01 1.358365000000000009e+02 1.627755000000000109e+03
1.020000000000000073e-01 5.067639999999999922e-01 2.670045000000000002e+01 1.358700000000000045e+02 1.627759999999999991e+03
1.030000000000000082e-01 5.067724999999999591e-01 2.620100000000000051e+01 1.358845000000000027e+02 1.627765000000000100e+03
1.040000000000000091e-01 5.067730000000000290e-01 2.570380000000000109e+01 1.358654999999999973e+02 1.627759999999999991e+03
1.050000000000000100e-01 5.067635000000000334e-01 2.520159999999999911e+01 1.358004999999999995e+02 1.627740000000000009e+03
1.059999999999999970e-01 5.067424999999999846e-01 2.468775000000000119e+01 1.356754999999999995e+02 1.627704999999999927e+03
1.069999999999999979e-01 5.067074999999999774e-01 2.415630000000000166e+01 1.354790000000000134e+02 1.627650000000000091e+03
1.079999999999999988e-01 5.066579999999999417e-01 2.360255000000000081e+01 1.352034999999999911e+02 1.627575000000000045e+03
1.089999999999999997e-01 5.065929999999999600e-01 2.302315000000000111e+01 1.348414999999999964e+02 1.627470000000000027e+03
1.100000000000000006e-01 5.065119999999999623e-01 2.241629999999999967e+01 1.343919999999999959e+02 1.627345000000000027e+03
1.110000000000000014e-01 5.064159999999999773e-01 2.178209999999999980e+01 1.338550000000000182e+02 1.627194999999999936e+03
1.120000000000000023e-01 5.063050000000000050e-01 2.112219999999999942e+01 1.332359999999999900e+02 1.627019999999999982e+03
1.130000000000000032e-01 5.061820000000000208e-01 2.044014999999999915e+01 1.325424999999999898e+02 1.626820000000000164e+03
1.140000000000000041e-01 5.060480000000000533e-01 1.974085000000000178e+01 1.317849999999999966e+02 1.626599999999999909e+03
1.150000000000000050e-01 5.059059999999999668e-01 1.903079999999999927e+01 1.309770000000000039e+02 1.626360000000000127e+03
1.160000000000000059e-01 5.057590000000000696e-01 1.831745000000000090e+01 1.301349999999999909e+02 1.626110000000000127e+03
1.170000000000000068e-01 5.056100000000000039e-01 1.760914999999999964e+01 1.292755000000000223e+02 1.625855000000000018e+03
1.180000000000000077e-01 5.054615000000000080e-01 1.691465000000000174e+01 1.284170000000000016e+02 1.625594999999999800e+03
1.190000000000000085e-01 5.053174999999999750e-01 1.624269999999999925e+01 1.275774999999999864e+02 1.625335000000000036e+03
1.200000000000000094e-01 5.051805000000000323e-01 1.560190000000000055e+01 1.267740000000000009e+02 1.625085000000000036e+03
1.209999999999999964e-01 5.050540000000000029e-01 1.499995000000000012e+01 1.260225000000000080e+02 1.624844999999999800e+03
1.219999999999999973e-01 5.049390000000000267e-01 1.444364999999999988e+01 1.253365000000000009e+02 1.624625000000000000e+03
1.229999999999999982e-01 5.048375000000000501e-01 1.393864999999999910e+01 1.247270000000000039e+02 1.624420000000000073e+03
1.239999999999999991e-01 5.047509999999999497e-01 1.348880499999999927e+01 1.242019999999999982e+02 1.624240000000000009e+03
1.250000000000000000e-01 5.046804999999999763e-01 1.309658499999999925e+01 1.237675000000000125e+02 1.624085000000000036e+03
1.260000000000000009e-01 5.046249999999999902e-01 1.276277499999999954e+01 1.234234999999999900e+02 1.623960000000000036e+03
1.270000000000000018e-01 5.045849999999999502e-01 1.248641999999999896e+01 1.231694999999999993e+02 1.623855000000000018e+03
1.280000000000000027e-01 5.045589999999999797e-01 1.226524000000000036e+01 1.230004999999999882e+02 1.623779999999999973e+03
1.290000000000000036e-01 5.045455000000000911e-01 1.209544999999999959e+01 1.229085000000000036e+02 1.623720000000000027e+03
1.300000000000000044e-01 5.045435000000000336e-01 1.197224999999999895e+01 1.228859999999999957e+02 1.623690000000000055e+03
1.310000000000000053e-01 5.045505000000000129e-01 1.189010000000000034e+01 1.229200000000000017e+02 1.623679999999999836e+03
1.320000000000000062e-01 5.045644999999999714e-01 1.184285000000000032e+01 1.230004999999999882e+02 1.623684999999999945e+03
1.330000000000000071e-01 5.045835000000000736e-01 1.182394999999999996e+01 1.231150000000000091e+02 1.623699999999999818e+03
1.340000000000000080e-01 5.046055000000000401e-01 1.182714999999999961e+01 1.232514999999999930e+02 1.623720000000000027e+03
1.350000000000000089e-01 5.046289999999999942e-01 1.184614999999999974e+01 1.233995000000000033e+02 1.623750000000000000e+03
1.360000000000000098e-01 5.046519999999999895e-01 1.187529999999999930e+01 1.235490000000000066e+02 1.623789999999999964e+03
1.370000000000000107e-01 5.046734999999999971e-01 1.190954999999999941e+01 1.236920000000000073e+02 1.623824999999999818e+03
1.380000000000000115e-01 5.046924999999999883e-01 1.194435000000000002e+01 1.238215000000000003e+02 1.623855000000000018e+03
1.390000000000000124e-01 5.047079999999999345e-01 1.197625000000000028e+01 1.239325000000000045e+02 1.623884999999999991e+03
1.400000000000000133e-01 5.047205000000000163e-01 1.200240000000000151e+01 1.240225000000000080e+02 1.623910000000000082e+03
1.410000000000000142e-01 5.047285000000000244e-01 1.202090000000000103e+01 1.240900000000000034e+02 1.623930000000000064e+03
1.420000000000000151e-01 5.047325000000000284e-01 1.203045000000000009e+01 1.241349999999999909e+02 1.623950000000000045e+03
1.430000000000000160e-01 5.047340000000000160e-01 1.203074999999999939e+01 1.241589999999999918e+02 1.623954999999999927e+03
1.440000000000000169e-01 5.047325000000000284e-01 1.202185000000000059e+01 1.241645000000000039e+02 1.623960000000000036e+03
1.450000000000000178e-01 5.047289999999999832e-01 1.200464999999999982e+01 1.241550000000000011e+02 1.623960000000000036e+03
1.459999999999999909e-01 5.047234999999999916e-01 1.198020999999999958e+01 1.241345000000000027e+02 1.623954999999999927e+03
1.469999999999999918e-01 5.047174999999999301e-01 1.195012499999999989e+01 1.241075000000000017e+02 1.623950000000000045e+03
1.479999999999999927e-01 5.047120000000000495e-01 1.191597499999999954e+01 1.240784999999999911e+02 1.623945000000000164e+03
1.489999999999999936e-01 5.047064999999999468e-01 1.187969000000000008e+01 1.240519999999999925e+02 1.623940000000000055e+03
1.499999999999999944e-01 5.047030000000000127e-01 1.184295999999999971e+01 1.240310000000000059e+02 1.623934999999999945e+03
1.509999999999999953e-01 5.047015000000000251e-01 1.180753499999999967e+01 1.240194999999999936e+02 1.623930000000000064e+03
1.519999999999999962e-01 5.047019999999999840e-01 1.177478499999999961e+01 1.240204999999999984e+02 1.623934999999999945e+03
1.529999999999999971e-01 5.047055000000000291e-01 1.174599500000000063e+01 1.240354999999999990e+02 1.623934999999999945e+03
1.539999999999999980e-01 5.047114999999999796e-01 1.172195999999999927e+01 1.240660000000000025e+02 1.623945000000000164e+03
1.549999999999999989e-01 5.047205000000000163e-01 1.170328999999999908e+01 1.241115000000000066e+02 1.623954999999999927e+03
1.559999999999999998e-01 5.047319999999999585e-01 1.169011499999999870e+01 1.241715000000000089e+02 1.623974999999999909e+03
1.570000000000000007e-01 5.047460000000000280e-01 1.168234999999999957e+01 1.242460000000000093e+02 1.623994999999999891e+03
1.580000000000000016e-01 5.047619999999999330e-01 1.167960000000000065e+01 1.243319999999999936e+02 1.624014999999999873e+03
1.590000000000000024e-01 5.047789999999999777e-01 1.168114999999999881e+01 1.244279999999999973e+02 1.624045000000000073e+03
