# t [s], A [cm^2], U [cm/s], P [cPa], c [cm/s]
1.000000000000000021e-03 2.143184999999999951e-01 3.943386500000000128e-01 1.012561499999999910e+02 2.007264999999999873e+03
2.000000000000000042e-03 2.142415000000000014e-01 2.182106000000000101e+00 9.753090000000000259e+01 2.006809999999999945e+03
3.000000000000000062e-03 2.140440000000000120e-01 4.371909500000000115e+00 9.235464999999999236e+01 2.005680000000000064e+03
4.000000000000000083e-03 2.137815000000000132e-01 6.830382000000000176e+00 8.685039999999999338e+01 2.004199999999999818e+03
5.000000000000000104e-03 2.135075000000000167e-01 9.454785000000001105e+00 8.206860000000000355e+01 2.002664999999999964e+03
6.000000000000000125e-03 2.132499999999999951e-01 1.199746499999999827e+01 7.823409999999999798e+01 2.001240000000000009e+03
7.000000000000000146e-03 2.130115000000000203e-01 1.419622000000000028e+01 7.496000000000000796e+01 1.999954999999999927e+03
8.000000000000000167e-03 2.127975000000000005e-01 1.599399999999999977e+01 7.202320000000000277e+01 1.998820000000000164e+03
9.000000000000001055e-03 2.126144999999999841e-01 1.746124999999999972e+01 6.954664999999999964e+01 1.997865000000000009e+03
1.000000000000000194e-02 2.124645000000000006e-01 1.863770000000000238e+01 6.759290000000000020e+01 1.997085000000000036e+03
1.099999999999999936e-02 2.123454999999999926e-01 1.954999999999999716e+01 6.611135000000000161e+01 1.996480000000000018e+03
1.200000000000000025e-02 2.122549999999999992e-01 2.023385000000000034e+01 6.505019999999998959e+01 1.996025000000000091e+03
1.300000000000000114e-02 2.121890000000000165e-01 2.070369999999999777e+01 6.430965000000000487e+01 1.995700000000000045e+03
1.400000000000000203e-02 2.121389999999999942e-01 2.097390000000000043e+01 6.374954999999999927e+01 1.995460000000000036e+03
1.499999999999999944e-02 2.121035000000000004e-01 2.112910000000000110e+01 6.337749999999999773e+01 1.995295000000000073e+03
1.600000000000000033e-02 2.120889999999999997e-01 2.134145000000000181e+01 6.348185000000000144e+01 1.995244999999999891e+03
1.700000000000000122e-02 2.121115000000000084e-01 2.179030000000000200e+01 6.449289999999999168e+01 1.995369999999999891e+03
1.800000000000000211e-02 2.121804999999999941e-01 2.254974999999999952e+01 6.666100000000000136e+01 1.995730000000000018e+03
1.900000000000000300e-02 2.122959999999999847e-01 2.353099999999999881e+01 6.980965000000000487e+01 1.996335000000000036e+03
2.000000000000000042e-02 2.124395000000000033e-01 2.451210000000000022e+01 7.332859999999999445e+01 1.997085000000000036e+03
2.100000000000000130e-02 2.125825000000000076e-01 2.523004999999999853e+01 7.639339999999999975e+01 1.997849999999999909e+03
2.200000000000000219e-02 2.126954999999999818e-01 2.548429999999999751e+01 7.828110000000000923e+01 1.998470000000000027e+03
2.299999999999999961e-02 2.127574999999999883e-01 2.520870000000000033e+01 7.863474999999999682e+01 1.998824999999999818e+03
2.400000000000000050e-02 2.127624999999999933e-01 2.448485000000000156e+01 7.757054999999999723e+01 1.998880000000000109e+03
2.500000000000000139e-02 2.127204999999999790e-01 2.349754999999999683e+01 7.559380000000000166e+01 1.998690000000000055e+03
2.600000000000000228e-02 2.126525000000000221e-01 2.245599999999999952e+01 7.337469999999999004e+01 1.998340000000000146e+03
2.700000000000000316e-02 2.125799999999999912e-01 2.151790000000000092e+01 7.149099999999999966e+01 1.997965000000000146e+03
2.800000000000000058e-02 2.125199999999999867e-01 2.074629999999999797e+01 7.024600000000000932e+01 1.997640000000000100e+03
2.900000000000000147e-02 2.124785000000000146e-01 2.010844999999999771e+01 6.961700000000000443e+01 1.997414999999999964e+03
3.000000000000000236e-02 2.124515000000000153e-01 1.950975000000000037e+01 6.932939999999999259e+01 1.997265000000000100e+03
3.099999999999999978e-02 2.124290000000000067e-01 1.884380000000000166e+01 6.900710000000000832e+01 1.997144999999999982e+03
3.200000000000000067e-02 2.123990000000000045e-01 1.804059999999999775e+01 6.833664999999999168e+01 1.996990000000000009e+03
3.300000000000000155e-02 2.123539999999999872e-01 1.709884999999999877e+01 6.719460000000000832e+01 1.996759999999999991e+03
3.400000000000000244e-02 2.122939999999999827e-01 1.609309999999999974e+01 6.570005000000000450e+01 1.996450000000000045e+03
3.500000000000000333e-02 2.122280000000000000e-01 1.515439999999999898e+01 6.418104999999999905e+01 1.996099999999999909e+03
3.600000000000000422e-02 2.121699999999999975e-01 1.443074999999999974e+01 6.306860000000000355e+01 1.995789999999999964e+03
3.700000000000000511e-02 2.121359999999999912e-01 1.404220000000000113e+01 6.275554999999999950e+01 1.995599999999999909e+03
3.799999999999999906e-02 2.121389999999999942e-01 1.404405000000000037e+01 6.346965000000000146e+01 1.995599999999999909e+03
3.899999999999999994e-02 2.121830000000000105e-01 1.441029999999999944e+01 6.520019999999999527e+01 1.995815000000000055e+03
4.000000000000000083e-02 2.122649999999999815e-01 1.503894999999999982e+01 6.769534999999999059e+01 1.996224999999999909e+03
4.100000000000000172e-02 2.123720000000000052e-01 1.577524999999999977e+01 7.052215000000001055e+01 1.996779999999999973e+03
4.200000000000000261e-02 2.124860000000000082e-01 1.644395000000000095e+01 7.316429999999999723e+01 1.997369999999999891e+03
4.300000000000000350e-02 2.125869999999999982e-01 1.688149999999999906e+01 7.512815000000000509e+01 1.997904999999999973e+03
4.400000000000000439e-02 2.126560000000000117e-01 1.696090000000000231e+01 7.603010000000000446e+01 1.998279999999999973e+03
4.499999999999999833e-02 2.126794999999999936e-01 1.660665000000000191e+01 7.565024999999999977e+01 1.998420000000000073e+03
4.599999999999999922e-02 2.126490000000000047e-01 1.579790000000000028e+01 7.394665000000000532e+01 1.998280000000000200e+03
4.700000000000000011e-02 2.125644999999999896e-01 1.456169999999999831e+01 7.103419999999999845e+01 1.997849999999999909e+03
4.800000000000000100e-02 2.124294999999999933e-01 1.296075499999999892e+01 6.714090000000000202e+01 1.997155000000000200e+03
4.900000000000000189e-02 2.122539999999999982e-01 1.107892000000000010e+01 6.255400000000000205e+01 1.996244999999999891e+03
5.000000000000000278e-02 2.120480000000000143e-01 9.008269999999999555e+00 5.757165000000000532e+01 1.995164999999999964e+03
5.100000000000000366e-02 2.118249999999999855e-01 6.839814999999999756e+00 5.246779999999999688e+01 1.993994999999999891e+03
5.200000000000000455e-02 2.115940000000000043e-01 4.659311999999999898e+00 4.747509999999999764e+01 1.992775000000000091e+03
5.300000000000000544e-02 2.113659999999999983e-01 2.545860000000000234e+00 4.278345000000000198e+01 1.991569999999999936e+03
5.399999999999999939e-02 2.111494999999999900e-01 5.735099999999999643e-01 3.854845000000000255e+01 1.990430000000000064e+03
5.500000000000000028e-02 2.109524999999999872e-01 -1.187124999999999986e+00 3.490409999999999968e+01 1.989380000000000109e+03
5.600000000000000117e-02 2.107820000000000249e-01 -2.668098499999999706e+00 3.197344999999999970e+01 1.988469999999999800e+03
5.700000000000000205e-02 2.106439999999999979e-01 -3.805005000000000415e+00 2.987324999999999875e+01 1.987724999999999909e+03
5.800000000000000294e-02 2.105444999999999955e-01 -4.539780000000000371e+00 2.871154999999999902e+01 1.987180000000000064e+03
5.900000000000000383e-02 2.104885000000000228e-01 -4.824754999999999683e+00 2.857985000000000042e+01 1.986864999999999782e+03
6.000000000000000472e-02 2.104805000000000148e-01 -4.627164999999999750e+00 2.954135000000000133e+01 1.986795000000000073e+03
6.099999999999999867e-02 2.105234999999999745e-01 -3.932984999999999953e+00 3.161950000000000216e+01 1.986994999999999891e+03
6.199999999999999956e-02 2.106184999999999863e-01 -2.749232999999999816e+00 3.479014999999999702e+01 1.987464999999999918e+03
6.300000000000000044e-02 2.107630000000000059e-01 -1.104154999999999776e+00 3.897905000000000086e+01 1.988200000000000045e+03
6.400000000000000133e-02 2.109540000000000026e-01 9.547200000000002351e-01 4.406544999999999845e+01 1.989184999999999945e+03
6.500000000000000222e-02 2.111875000000000002e-01 3.364194999999999602e+00 4.989175000000000182e+01 1.990389999999999873e+03
6.600000000000000311e-02 2.114544999999999897e-01 6.050068500000000071e+00 5.627604999999999791e+01 1.991780000000000200e+03
6.700000000000000400e-02 2.117485000000000062e-01 8.932090000000000529e+00 6.302620000000000289e+01 1.993325000000000045e+03
6.800000000000000488e-02 2.120609999999999995e-01 1.192830000000000013e+01 6.995210000000000150e+01 1.994970000000000027e+03
6.900000000000000577e-02 2.123825000000000018e-01 1.495898000000000039e+01 7.687604999999999222e+01 1.996670000000000073e+03
7.000000000000000666e-02 2.127069999999999794e-01 1.794954999999999856e+01 8.364024999999999466e+01 1.998389999999999873e+03
7.100000000000000755e-02 2.130259999999999931e-01 2.083330000000000126e+01 9.011109999999999332e+01 2.000089999999999918e+03
7.200000000000000844e-02 2.133335000000000092e-01 2.355330000000000013e+01 9.618280000000000030e+01 2.001735000000000127e+03
7.300000000000000933e-02 2.136244999999999949e-01 2.606449999999999889e+01 1.017798999999999978e+02 2.003300000000000182e+03
7.399999999999999634e-02 2.138964999999999894e-01 2.833510000000000062e+01 1.068592500000000030e+02 2.004759999999999991e+03
7.499999999999999722e-02 2.141460000000000030e-01 3.034790000000000276e+01 1.114104999999999990e+02 2.006115000000000009e+03
7.599999999999999811e-02 2.143725000000000214e-01 3.210069999999999624e+01 1.154569999999999936e+02 2.007345000000000027e+03
7.699999999999999900e-02 2.145779999999999910e-01 3.360535000000000139e+01 1.190515000000000043e+02 2.008464999999999918e+03
7.799999999999999989e-02 2.147640000000000104e-01 3.488649999999999807e+01 1.222729999999999961e+02 2.009480000000000018e+03
7.900000000000000078e-02 2.149334999999999996e-01 3.597870000000000346e+01 1.252204999999999870e+02 2.010409999999999854e+03
8.000000000000000167e-02 2.150914999999999910e-01 3.692354999999999876e+01 1.280014999999999930e+02 2.011275000000000091e+03
8.100000000000000255e-02 2.152425000000000033e-01 3.776534999999999798e+01 1.307259999999999991e+02 2.012099999999999909e+03
8.200000000000000344e-02 2.153904999999999847e-01 3.854779999999999518e+01 1.334950000000000045e+02 2.012904999999999973e+03
8.300000000000000433e-02 2.155394999999999950e-01 3.931019999999999470e+01 1.363924999999999841e+02 2.013724999999999909e+03
8.400000000000000522e-02 2.156945000000000112e-01 4.008494999999999919e+01 1.394799999999999898e+02 2.014565000000000055e+03
8.500000000000000611e-02 2.158565000000000067e-01 4.089499999999999602e+01 1.427930000000000064e+02 2.015440000000000055e+03
8.600000000000000699e-02 2.160274999999999834e-01 4.175305000000000177e+01 1.463369999999999891e+02 2.016369999999999891e+03
8.700000000000000788e-02 2.162080000000000113e-01 4.266084999999999638e+01 1.500925000000000011e+02 2.017340000000000146e+03
8.800000000000000877e-02 2.163964999999999916e-01 4.361020000000000607e+01 1.540124999999999886e+02 2.018360000000000127e+03
8.899999999999999578e-02 2.165910000000000057e-01 4.458374999999999488e+01 1.580324999999999989e+02 2.019414999999999964e+03
8.999999999999999667e-02 2.167899999999999827e-01 4.555675000000000097e+01 1.620709999999999980e+02 2.020485000000000127e+03
9.099999999999999756e-02 2.169880000000000142e-01 4.649925000000000352e+01 1.660405000000000086e+02 2.021559999999999945e+03
9.199999999999999845e-02 2.171819999999999862e-01 4.737855000000000416e+01 1.698485000000000014e+02 2.022610000000000127e+03
9.299999999999999933e-02 2.173674999999999913e-01 4.816070000000000562e+01 1.734060000000000059e+02 2.023619999999999891e+03
9.400000000000000022e-02 2.175420000000000131e-01 4.881360000000000099e+01 1.766324999999999932e+02 2.024569999999999936e+03
9.500000000000000111e-02 2.177000000000000046e-01 4.930819999999999936e+01 1.794579999999999984e+02 2.025434999999999945e+03
9.600000000000000200e-02 2.178394999999999915e-01 4.962049999999999983e+01 1.818299999999999841e+02 2.026200000000000045e+03
9.700000000000000289e-02 2.179579999999999851e-01 4.973279999999999745e+01 1.837110000000000127e+02 2.026855000000000018e+03
9.800000000000000377e-02 2.180539999999999978e-01 4.963434999999999775e+01 1.850824999999999818e+02 2.027389999999999873e+03
9.900000000000000466e-02 2.181265000000000009e-01 4.932214999999999350e+01 1.859459999999999980e+02 2.027795000000000073e+03
1.000000000000000056e-01 2.181750000000000078e-01 4.880060000000000286e+01 1.863185000000000002e+02 2.028070000000000164e+03
1.010000000000000064e-01 2.182010000000000061e-01 4.808145000000000380e+01 1.862350000000000136e+02 2.028230000000000018e+03
1.020000000000000073e-01 2.182054999999999967e-01 4.718280000000000030e+01 1.857415000000000020e+02 2.028264999999999873e+03
1.030000000000000082e-01 2.181909999999999961e-01 4.612814999999999799e+01 1.848969999999999914e+02 2.028199999999999818e+03
1.040000000000000091e-01 2.181599999999999928e-01 4.494494999999999862e+01 1.837669999999999959e+02 2.028045000000000073e+03
1.050000000000000100e-01 2.181140000000000023e-01 4.366365000000000407e+01 1.824200000000000159e+02 2.027805000000000064e+03
1.059999999999999970e-01 2.180584999999999885e-01 4.231589999999999918e+01 1.809270000000000209e+02 2.027509999999999991e+03
1.069999999999999979e-01 2.179944999999999800e-01 4.093319999999999936e+01 1.793550000000000182e+02 2.027174999999999955e+03
1.079999999999999988e-01 2.179264999999999952e-01 3.954605000000000103e+01 1.777680000000000007e+02 2.026804999999999836e+03
1.089999999999999997e-01 2.178565000000000085e-01 3.818220000000000169e+01 1.762219999999999800e+02 2.026430000000000064e+03
1.100000000000000006e-01 2.177875000000000227e-01 3.686615000000000464e+01 1.747649999999999864e+02 2.026054999999999836e+03
1.110000000000000014e-01 2.177215000000000122e-01 3.561820000000000164e+01 1.734339999999999975e+02 2.025695000000000164e+03
1.120000000000000023e-01 2.176609999999999934e-01 3.445385000000000275e+01 1.722574999999999932e+02 2.025365000000000009e+03
1.130000000000000032e-01 2.176059999999999939e-01 3.338340000000000174e+01 1.712489999999999952e+02 2.025059999999999945e+03
1.140000000000000041e-01 2.175579999999999736e-01 3.241185000000000116e+01 1.704144999999999754e+02 2.024795000000000073e+03
1.150000000000000050e-01 2.175170000000000159e-01 3.153884999999999650e+01 1.697450000000000045e+02 2.024565000000000055e+03
1.160000000000000059e-01 2.174829999999999819e-01 3.075900000000000034e+01 1.692239999999999895e+02 2.024380000000000109e+03
1.170000000000000068e-01 2.174554999999999960e-01 3.006244999999999834e+01 1.688240000000000123e+02 2.024220000000000027e+03
1.180000000000000077e-01 2.174325000000000008e-01 2.943545000000000300e+01 1.685115000000000123e+02 2.024090000000000146e+03
1.190000000000000085e-01 2.174139999999999961e-01 2.886124999999999829e+01 1.682450000000000045e+02 2.023980000000000018e+03
1.200000000000000094e-01 2.173964999999999925e-01 2.832104999999999961e+01 1.679825000000000159e+02 2.023880000000000109e+03
1.209999999999999964e-01 2.173800000000000177e-01 2.779520000000000124e+01 1.676790000000000020e+02 2.023784999999999854e+03
1.219999999999999973e-01 2.173605000000000120e-01 2.726404999999999745e+01 1.672920000000000016e+02 2.023675000000000182e+03
1.229999999999999982e-01 2.173375000000000168e-01 2.670919999999999916e+01 1.667824999999999989e+02 2.023549999999999955e+03
1.239999999999999991e-01 2.173090000000000022e-01 2.611435000000000173e+01 1.661175000000000068e+02 2.023394999999999982e+03
1.250000000000000000e-01 2.172735000000000083e-01 2.546630000000000038e+01 1.652719999999999914e+02 2.023204999999999927e+03
1.260000000000000009e-01 2.172299999999999787e-01 2.475544999999999973e+01 1.642309999999999945e+02 2.022970000000000027e+03
1.270000000000000018e-01 2.171775000000000233e-01 2.397635000000000005e+01 1.629870000000000232e+02 2.022684999999999945e+03
1.280000000000000027e-01 2.171154999999999891e-01 2.312835000000000107e+01 1.615459999999999923e+02 2.022355000000000018e+03
1.290000000000000036e-01 2.170455000000000023e-01 2.221495000000000175e+01 1.599220000000000255e+02 2.021980000000000018e+03
1.300000000000000044e-01 2.169665000000000066e-01 2.124419999999999931e+01 1.581399999999999864e+02 2.021555000000000064e+03
1.310000000000000053e-01 2.168815000000000048e-01 2.022800000000000153e+01 1.562334999999999923e+02 2.021099999999999909e+03
1.320000000000000062e-01 2.167899999999999827e-01 1.918164999999999765e+01 1.542425000000000068e+02 2.020610000000000127e+03
1.330000000000000071e-01 2.166949999999999987e-01 1.812280000000000157e+01 1.522110000000000127e+02 2.020099999999999909e+03
1.340000000000000080e-01 2.165980000000000127e-01 1.707079999999999842e+01 1.501864999999999952e+02 2.019569999999999936e+03
1.350000000000000089e-01 2.165015000000000134e-01 1.604554999999999865e+01 1.482160000000000082e+02 2.019054999999999836e+03
1.360000000000000098e-01 2.164070000000000160e-01 1.506664999999999921e+01 1.463449999999999989e+02 2.018545000000000073e+03
1.370000000000000107e-01 2.163174999999999959e-01 1.415240000000000009e+01 1.446140000000000043e+02 2.018054999999999836e+03
1.380000000000000115e-01 2.162344999999999962e-01 1.331895000000000095e+01 1.430589999999999975e+02 2.017605000000000018e+03
1.390000000000000124e-01 2.161585000000000034e-01 1.257959999999999923e+01 1.417079999999999984e+02 2.017190000000000055e+03
1.400000000000000133e-01 2.160920000000000063e-01 1.194432499999999919e+01 1.405794999999999959e+02 2.016825000000000045e+03
1.410000000000000142e-01 2.160360000000000058e-01 1.141925999999999952e+01 1.396854999999999905e+02 2.016514999999999873e+03
1.420000000000000151e-01 2.159905000000000019e-01 1.100684000000000040e+01 1.390255000000000223e+02 2.016265000000000100e+03
1.430000000000000160e-01 2.159560000000000091e-01 1.070543999999999940e+01 1.385939999999999941e+02 2.016069999999999936e+03
1.440000000000000169e-01 2.159314999999999984e-01 1.050993500000000047e+01 1.383745000000000118e+02 2.015929999999999836e+03
1.450000000000000178e-01 2.159165000000000112e-01 1.041198500000000138e+01 1.383460000000000036e+02 2.015840000000000146e+03
1.459999999999999909e-01 2.159110000000000196e-01 1.040030499999999947e+01 1.384809999999999945e+02 2.015804999999999836e+03
1.469999999999999918e-01 2.159125000000000072e-01 1.046165999999999840e+01 1.387479999999999905e+02 2.015809999999999945e+03
1.479999999999999927e-01 2.159210000000000018e-01 1.058109999999999928e+01 1.391129999999999995e+02 2.015845000000000027e+03
1.489999999999999936e-01 2.159340000000000148e-01 1.074295000000000044e+01 1.395414999999999850e+02 2.015910000000000082e+03
1.499999999999999944e-01 2.159504999999999897e-01 1.093130000000000024e+01 1.399995000000000118e+02 2.015994999999999891e+03
1.509999999999999953e-01 2.159685000000000077e-01 1.113080000000000069e+01 1.404540000000000077e+02 2.016090000000000146e+03
1.519999999999999962e-01 2.159869999999999846e-01 1.132695000000000007e+01 1.408765000000000214e+02 2.016184999999999945e+03
1.529999999999999971e-01 2.160039999999999738e-01 1.150675000000000026e+01 1.412420000000000186e+02 2.016275000000000091e+03
1.539999999999999980e-01 2.160190000000000166e-01 1.165920000000000023e+01 1.415294999999999845e+02 2.016355000000000018e+03
1.549999999999999989e-01 2.160305000000000142e-01 1.177534999999999954e+01 1.417239999999999895e+02 2.016420000000000073e+03
1.559999999999999998e-01 2.160384999999999944e-01 1.184874999999999901e+01 1.418160000000000025e+02 2.016464999999999918e+03
1.570000000000000007e-01 2.160420000000000118e-01 1.187539999999999907e+01 1.418009999999999877e+02 2.016485000000000127e+03
1.580000000000000016e-01 2.160410000000000108e-01 1.185369999999999990e+01 1.416789999999999736e+02 2.016485000000000127e+03
1.590000000000000024e-01 2.160354999999999914e-01 1.178440000000000154e+01 1.414560000000000173e+02 2.016454999999999927e+03
