# t [s], A [cm^2], U [cm/s], P [cPa], c [cm/s]
1.000000000000000021e-03 8.068349999999999689e-01 5.751499999999999668e-03 1.060660000000000025e+02 1.594424999999999955e+03
2.000000000000000042e-03 8.068219999999999281e-01 4.964499999999998428e-04 1.060344999999999942e+02 1.594420000000000073e+03
3.000000000000000062e-03 8.069124999999999215e-01 1.274997499999999950e-01 1.061680000000000064e+02 1.594444999999999936e+03
4.000000000000000083e-03 8.069660000000000721e-01 2.214694500000000121e-01 1.062740000000000009e+02 1.594470000000000027e+03
5.000000000000000104e-03 8.068940000000000001e-01 1.535055000000000169e-01 1.061315000000000026e+02 1.594445000000000164e+03
6.000000000000000125e-03 8.067815000000000403e-01 2.171000000000000707e-02 1.058139999999999930e+02 1.594380000000000109e+03
7.000000000000000146e-03 8.066725000000000145e-01 -1.179050000000000376e-01 1.054114999999999895e+02 1.594300000000000182e+03
8.000000000000000167e-03 8.064789999999999459e-01 -3.929350000000000342e-01 1.047810000000000059e+02 1.594174999999999955e+03
9.000000000000001055e-03 8.061830000000000940e-01 -8.311099999999999044e-01 1.038395000000000010e+02 1.593990000000000009e+03
1.000000000000000194e-02 8.057885000000000186e-01 -1.412274999999999725e+00 1.025622000000000043e+02 1.593735000000000127e+03
1.099999999999999936e-02 8.052619999999999223e-01 -2.161880000000000024e+00 1.008702000000000112e+02 1.593389999999999873e+03
1.200000000000000025e-02 8.045930000000000026e-01 -3.067064999999999930e+00 9.872120000000001028e+01 1.592944999999999936e+03
1.300000000000000114e-02 8.038540000000000685e-01 -3.989535000000000053e+00 9.624240000000000350e+01 1.592420000000000073e+03
1.400000000000000203e-02 8.031719999999999970e-01 -4.708935000000000315e+00 9.372084999999999866e+01 1.591865000000000009e+03
1.499999999999999944e-02 8.026454999999999007e-01 -5.041820999999999664e+00 9.145709999999999695e+01 1.591335000000000036e+03
1.600000000000000033e-02 8.022964999999999680e-01 -4.923185000000000144e+00 8.962950000000000728e+01 1.590884999999999991e+03
1.700000000000000122e-02 8.020749999999999824e-01 -4.413579999999999615e+00 8.823799999999999955e+01 1.590500000000000000e+03
1.800000000000000211e-02 8.018899999999999917e-01 -3.656794999999999796e+00 8.713190000000000168e+01 1.590174999999999955e+03
1.900000000000000300e-02 8.016484999999999861e-01 -2.817736499999999644e+00 8.608445000000000391e+01 1.589865000000000009e+03
2.000000000000000042e-02 8.012905000000000166e-01 -2.022071000000000396e+00 8.488589999999999236e+01 1.589529999999999973e+03
2.100000000000000130e-02 8.008064999999999767e-01 -1.317639999999999922e+00 8.342064999999999486e+01 1.589144999999999982e+03
2.200000000000000219e-02 8.002354999999999885e-01 -6.742900000000000560e-01 8.169599999999999795e+01 1.588715000000000146e+03
2.299999999999999961e-02 7.996369999999999312e-01 -2.037000000000022126e-02 7.981360000000000809e+01 1.588250000000000000e+03
2.400000000000000050e-02 7.990619999999999390e-01 7.069600000000000328e-01 7.790295000000000414e+01 1.587779999999999973e+03
2.500000000000000139e-02 7.985295000000000032e-01 1.522894999999999666e+00 7.605535000000000423e+01 1.587309999999999945e+03
2.600000000000000228e-02 7.980224999999999680e-01 2.380304999999999893e+00 7.428190000000000737e+01 1.586849999999999909e+03
2.700000000000000316e-02 7.974924999999999375e-01 3.178240000000000620e+00 7.250509999999999877e+01 1.586389999999999873e+03
2.800000000000000058e-02 7.968775000000000164e-01 3.786759999999999682e+00 7.057935000000000514e+01 1.585909999999999854e+03
2.900000000000000147e-02 7.961190000000000211e-01 4.080360000000000653e+00 6.833320000000000505e+01 1.585365000000000009e+03
3.000000000000000236e-02 7.951795000000000391e-01 3.971614999999999895e+00 6.562165000000000248e+01 1.584735000000000127e+03
3.099999999999999978e-02 7.940585000000000004e-01 3.436609999999999498e+00 6.237485000000000213e+01 1.584005000000000109e+03
3.200000000000000067e-02 7.927919999999999412e-01 2.523220000000000240e+00 5.862735000000000696e+01 1.583164999999999964e+03
3.300000000000000155e-02 7.914480000000000404e-01 1.340000000000000746e+00 5.451919999999999789e+01 1.582250000000000000e+03
3.400000000000000244e-02 7.901110000000000078e-01 3.115000000000023306e-02 5.027060000000000173e+01 1.581295000000000073e+03
3.500000000000000333e-02 7.888640000000000096e-01 -1.253250000000000419e+00 4.614034999999999798e+01 1.580345000000000027e+03
3.600000000000000422e-02 7.877790000000000070e-01 -2.380909999999999638e+00 4.238360000000000127e+01 1.579460000000000036e+03
3.700000000000000511e-02 7.869064999999999532e-01 -3.252214999999999634e+00 3.921744999999999948e+01 1.578690000000000055e+03
3.799999999999999906e-02 7.862770000000000037e-01 -3.804824999999999680e+00 3.680020000000000380e+01 1.578065000000000055e+03
3.899999999999999994e-02 7.859009999999999607e-01 -4.010391000000000261e+00 3.522370000000000090e+01 1.577615000000000009e+03
4.000000000000000083e-02 7.857735000000000136e-01 -3.866270000000000095e+00 3.451845000000000141e+01 1.577359999999999900e+03
4.100000000000000172e-02 7.858819999999999695e-01 -3.385384999999999867e+00 3.466599999999999682e+01 1.577289999999999964e+03
4.200000000000000261e-02 7.862080000000000179e-01 -2.586784999999999890e+00 3.561625000000000085e+01 1.577404999999999973e+03
4.300000000000000350e-02 7.867334999999999745e-01 -1.489330000000000265e+00 3.730284999999999940e+01 1.577700000000000045e+03
4.400000000000000439e-02 7.874410000000000576e-01 -1.095049999999999635e-01 3.965509999999999735e+01 1.578154999999999973e+03
4.499999999999999833e-02 7.883145000000000291e-01 1.536809999999999565e+00 4.260275000000000034e+01 1.578755000000000109e+03
4.599999999999999922e-02 7.893360000000000376e-01 3.430104999999999738e+00 4.607574999999999932e+01 1.579484999999999900e+03
4.700000000000000011e-02 7.904865000000000919e-01 5.542930000000000135e+00 5.000039999999999907e+01 1.580329999999999927e+03
4.800000000000000100e-02 7.917389999999999706e-01 7.836764999999999759e+00 5.429510000000000502e+01 1.581269999999999982e+03
4.900000000000000189e-02 7.930665000000000076e-01 1.026210000000000022e+01 5.886829999999999785e+01 1.582289999999999964e+03
5.000000000000000278e-02 7.944355000000000722e-01 1.276078500000000027e+01 6.361945000000000050e+01 1.583369999999999891e+03
5.100000000000000366e-02 7.958145000000000913e-01 1.527028999999999925e+01 6.844334999999999525e+01 1.584470000000000027e+03
5.200000000000000455e-02 7.971725000000000616e-01 1.772910500000000056e+01 7.323640000000000327e+01 1.585585000000000036e+03
5.300000000000000544e-02 7.984839999999999716e-01 2.008185000000000286e+01 7.790404999999999802e+01 1.586690000000000055e+03
5.399999999999999939e-02 7.997270000000000767e-01 2.228314999999999912e+01 8.236740000000000350e+01 1.587759999999999991e+03
5.500000000000000028e-02 8.008904999999999497e-01 2.430015000000000214e+01 8.656780000000000541e+01 1.588785000000000082e+03
5.600000000000000117e-02 8.019674999999999443e-01 2.611285000000000167e+01 9.046959999999999980e+01 1.589750000000000000e+03
5.700000000000000205e-02 8.029584999999999084e-01 2.771379999999999910e+01 9.406100000000000705e+01 1.590654999999999973e+03
5.800000000000000294e-02 8.038695000000000146e-01 2.910589999999999833e+01 9.734950000000000614e+01 1.591494999999999891e+03
5.900000000000000383e-02 8.047104999999999952e-01 3.030069999999999908e+01 1.003599999999999994e+02 1.592265000000000100e+03
6.000000000000000472e-02 8.054930000000000145e-01 3.131595000000000084e+01 1.031316500000000076e+02 1.592990000000000009e+03
6.099999999999999867e-02 8.062314999999999898e-01 3.217399999999999949e+01 1.057109999999999985e+02 1.593664999999999964e+03
6.199999999999999956e-02 8.069405000000000605e-01 3.290059999999999718e+01 1.081504999999999939e+02 1.594304999999999836e+03
6.300000000000000044e-02 8.076354999999999507e-01 3.352344999999999686e+01 1.105045000000000073e+02 1.594920000000000073e+03
6.400000000000000133e-02 8.083304999999999518e-01 3.407115000000000293e+01 1.128269999999999982e+02 1.595519999999999982e+03
6.500000000000000222e-02 8.090399999999999814e-01 3.457179999999999609e+01 1.151684999999999945e+02 1.596125000000000000e+03
6.600000000000000311e-02 8.097754999999999814e-01 3.505124999999999602e+01 1.175730000000000075e+02 1.596730000000000018e+03
6.700000000000000400e-02 8.105449999999999600e-01 3.553110000000000213e+01 1.200734999999999957e+02 1.597355000000000018e+03
6.800000000000000488e-02 8.113529999999999909e-01 3.602729999999999677e+01 1.226924999999999955e+02 1.598005000000000109e+03
6.900000000000000577e-02 8.121990000000000043e-01 3.654834999999999923e+01 1.254375000000000000e+02 1.598679999999999836e+03
7.000000000000000666e-02 8.130789999999999962e-01 3.709499999999999886e+01 1.282990000000000066e+02 1.599375000000000000e+03
7.100000000000000755e-02 8.139834999999999710e-01 3.765990000000000038e+01 1.312535000000000025e+02 1.600095000000000027e+03
7.200000000000000844e-02 8.148994999999999989e-01 3.822879999999999967e+01 1.342620000000000005e+02 1.600829999999999927e+03
7.300000000000000933e-02 8.158100000000000351e-01 3.878195000000000192e+01 1.372760000000000105e+02 1.601565000000000055e+03
7.399999999999999634e-02 8.166990000000000638e-01 3.929595000000000482e+01 1.402375000000000114e+02 1.602295000000000073e+03
7.499999999999999722e-02 8.175470000000000237e-01 3.974575000000000102e+01 1.430860000000000127e+02 1.603000000000000000e+03
7.599999999999999811e-02 8.183384999999999687e-01 4.010685000000000144e+01 1.457620000000000005e+02 1.603670000000000073e+03
7.699999999999999900e-02 8.190569999999999240e-01 4.035685000000000144e+01 1.482110000000000127e+02 1.604289999999999964e+03
7.799999999999999989e-02 8.196905000000000996e-01 4.047700000000000387e+01 1.503854999999999791e+02 1.604855000000000018e+03
7.900000000000000078e-02 8.202305000000000845e-01 4.045295000000000130e+01 1.522500000000000000e+02 1.605349999999999909e+03
8.000000000000000167e-02 8.206710000000000393e-01 4.027575000000000216e+01 1.537789999999999964e+02 1.605769999999999982e+03
8.100000000000000255e-02 8.210100000000000176e-01 3.994209999999999638e+01 1.549615000000000009e+02 1.606110000000000127e+03
8.200000000000000344e-02 8.212494999999999656e-01 3.945409999999999684e+01 1.557984999999999900e+02 1.606365000000000009e+03
8.300000000000000433e-02 8.213945000000000274e-01 3.881940000000000168e+01 1.563034999999999854e+02 1.606545000000000073e+03
8.400000000000000522e-02 8.214524999999999189e-01 3.805039999999999623e+01 1.564995000000000118e+02 1.606650000000000091e+03
8.500000000000000611e-02 8.214339999999999975e-01 3.716394999999999982e+01 1.564200000000000159e+02 1.606684999999999945e+03
8.600000000000000699e-02 8.213509999999999422e-01 3.618014999999999759e+01 1.561059999999999945e+02 1.606659999999999854e+03
8.700000000000000788e-02 8.212174999999999336e-01 3.512170000000000414e+01 1.556034999999999968e+02 1.606585000000000036e+03
8.800000000000000877e-02 8.210470000000000823e-01 3.401279999999999859e+01 1.549599999999999795e+02 1.606470000000000027e+03
8.899999999999999578e-02 8.208539999999999726e-01 3.287789999999999679e+01 1.542250000000000227e+02 1.606325000000000045e+03
8.999999999999999667e-02 8.206510000000000193e-01 3.174069999999999681e+01 1.534460000000000264e+02 1.606159999999999854e+03
9.099999999999999756e-02 8.204510000000000414e-01 3.062324999999999875e+01 1.526664999999999850e+02 1.605994999999999891e+03
9.199999999999999845e-02 8.202635000000000343e-01 2.954465000000000074e+01 1.519254999999999995e+02 1.605825000000000045e+03
9.299999999999999933e-02 8.200975000000000348e-01 2.852080000000000126e+01 1.512529999999999859e+02 1.605664999999999964e+03
9.400000000000000022e-02 8.199579999999999647e-01 2.756334999999999980e+01 1.506730000000000018e+02 1.605525000000000091e+03
9.500000000000000111e-02 8.198484999999999800e-01 2.667980000000000018e+01 1.502004999999999768e+02 1.605400000000000091e+03
9.600000000000000200e-02 8.197704999999999576e-01 2.587320000000000064e+01 1.498410000000000082e+02 1.605304999999999836e+03
9.700000000000000289e-02 8.197220000000000617e-01 2.514240000000000208e+01 1.495929999999999893e+02 1.605224999999999909e+03
9.800000000000000377e-02 8.196999999999999842e-01 2.448239999999999839e+01 1.494465000000000146e+02 1.605174999999999955e+03
9.900000000000000466e-02 8.196980000000000377e-01 2.388475000000000037e+01 1.493859999999999957e+02 1.605144999999999982e+03
1.000000000000000056e-01 8.197114999999999263e-01 2.333820000000000050e+01 1.493894999999999982e+02 1.605130000000000109e+03
1.010000000000000064e-01 8.197305000000000286e-01 2.282955000000000112e+01 1.494314999999999998e+02 1.605125000000000000e+03
1.020000000000000073e-01 8.197495000000000198e-01 2.234414999999999907e+01 1.494850000000000136e+02 1.605125000000000000e+03
1.030000000000000082e-01 8.197579999999999867e-01 2.186674999999999969e+01 1.495215000000000032e+02 1.605125000000000000e+03
1.040000000000000091e-01 8.197499999999999787e-01 2.138240000000000052e+01 1.495135000000000218e+02 1.605119999999999891e+03
1.050000000000000100e-01 8.197174999999999878e-01 2.087709999999999866e+01 1.494345000000000141e+02 1.605095000000000027e+03
1.059999999999999970e-01 8.196550000000000225e-01 2.033870000000000289e+01 1.492635000000000218e+02 1.605054999999999836e+03
1.069999999999999979e-01 8.195590000000000375e-01 1.975734999999999886e+01 1.489825000000000159e+02 1.605000000000000000e+03
1.079999999999999988e-01 8.194250000000000700e-01 1.912594999999999956e+01 1.485790000000000077e+02 1.604904999999999973e+03
1.089999999999999997e-01 8.192540000000000378e-01 1.844095000000000084e+01 1.480484999999999900e+02 1.604789999999999964e+03
1.100000000000000006e-01 8.190454999999999819e-01 1.770210000000000150e+01 1.473899999999999864e+02 1.604644999999999982e+03
1.110000000000000014e-01 8.188040000000000873e-01 1.691259999999999764e+01 1.466125000000000114e+02 1.604474999999999909e+03
1.120000000000000023e-01 8.185335000000000250e-01 1.607905000000000229e+01 1.457295000000000016e+02 1.604280000000000200e+03
1.130000000000000032e-01 8.182409999999999961e-01 1.521119999999999983e+01 1.447595000000000027e+02 1.604054999999999836e+03
1.140000000000000041e-01 8.179324999999999513e-01 1.432115500000000097e+01 1.437259999999999991e+02 1.603819999999999936e+03
1.150000000000000050e-01 8.176179999999999559e-01 1.342309000000000196e+01 1.426580000000000155e+02 1.603575000000000045e+03
1.160000000000000059e-01 8.173044999999999893e-01 1.253246000000000038e+01 1.415835000000000150e+02 1.603320000000000164e+03
1.170000000000000068e-01 8.170029999999999237e-01 1.166516000000000020e+01 1.405335000000000036e+02 1.603070000000000164e+03
1.180000000000000077e-01 8.167210000000000303e-01 1.083689999999999998e+01 1.395374999999999943e+02 1.602829999999999927e+03
1.190000000000000085e-01 8.164655000000000662e-01 1.006235500000000016e+01 1.386235000000000070e+02 1.602605000000000018e+03
1.200000000000000094e-01 8.162434999999998997e-01 9.354575000000000529e+00 1.378154999999999859e+02 1.602400000000000091e+03
1.209999999999999964e-01 8.160605000000000775e-01 8.724185000000000301e+00 1.371324999999999932e+02 1.602224999999999909e+03
1.219999999999999973e-01 8.159190000000000609e-01 8.179235000000000255e+00 1.365885000000000105e+02 1.602074999999999818e+03
1.229999999999999982e-01 8.158220000000000471e-01 7.724554999999999616e+00 1.361924999999999955e+02 1.601954999999999927e+03
1.239999999999999991e-01 8.157680000000000486e-01 7.361909999999999954e+00 1.359465000000000146e+02 1.601875000000000000e+03
1.250000000000000000e-01 8.157550000000000079e-01 7.089800000000000324e+00 1.358460000000000036e+02 1.601829999999999927e+03
1.260000000000000009e-01 8.157809999999999784e-01 6.903760000000000119e+00 1.358824999999999932e+02 1.601815000000000055e+03
1.270000000000000018e-01 8.158395000000000508e-01 6.796660000000000146e+00 1.360409999999999968e+02 1.601829999999999927e+03
1.280000000000000027e-01 8.159254999999999702e-01 6.759124999999999162e+00 1.363029999999999973e+02 1.601869999999999891e+03
1.290000000000000036e-01 8.160330000000000084e-01 6.780050000000000132e+00 1.366475000000000080e+02 1.601930000000000064e+03
1.300000000000000044e-01 8.161540000000000461e-01 6.847165000000000390e+00 1.370504999999999995e+02 1.602009999999999991e+03
1.310000000000000053e-01 8.162829999999999808e-01 6.947580000000000311e+00 1.374894999999999925e+02 1.602099999999999909e+03
1.320000000000000062e-01 8.164120000000000266e-01 7.068355000000000388e+00 1.379399999999999977e+02 1.602195000000000164e+03
1.330000000000000071e-01 8.165354999999999697e-01 7.196989999999999554e+00 1.383804999999999836e+02 1.602289999999999964e+03
1.340000000000000080e-01 8.166480000000000405e-01 7.321909999999999918e+00 1.387909999999999968e+02 1.602384999999999991e+03
1.350000000000000089e-01 8.167450000000000543e-01 7.432800000000000296e+00 1.391539999999999964e+02 1.602470000000000027e+03
1.360000000000000098e-01 8.168229999999999658e-01 7.520970000000000155e+00 1.394560000000000173e+02 1.602545000000000073e+03
1.370000000000000107e-01 8.168794999999999806e-01 7.579500000000000348e+00 1.396879999999999882e+02 1.602605000000000018e+03
1.380000000000000115e-01 8.169134999999999591e-01 7.603415000000000035e+00 1.398425000000000011e+02 1.602644999999999982e+03
1.390000000000000124e-01 8.169249999999999012e-01 7.589704999999999480e+00 1.399175000000000182e+02 1.602670000000000073e+03
1.400000000000000133e-01 8.169139999999999180e-01 7.537290000000000489e+00 1.399149999999999920e+02 1.602679999999999836e+03
1.410000000000000142e-01 8.168819999999999970e-01 7.446944999999999482e+00 1.398374999999999773e+02 1.602675000000000182e+03
1.420000000000000151e-01 8.168329999999999202e-01 7.321059999999999235e+00 1.396929999999999836e+02 1.602650000000000091e+03
1.430000000000000160e-01 8.167674999999999796e-01 7.163475000000000037e+00 1.394904999999999973e+02 1.602605000000000018e+03
1.440000000000000169e-01 8.166904999999999859e-01 6.979190000000000005e+00 1.392404999999999973e+02 1.602559999999999945e+03
1.450000000000000178e-01 8.166050000000000253e-01 6.774059999999999526e+00 1.389555000000000007e+02 1.602500000000000000e+03
1.459999999999999909e-01 8.165145000000000319e-01 6.554484999999999673e+00 1.386474999999999795e+02 1.602429999999999836e+03
1.469999999999999918e-01 8.164230000000000098e-01 6.327090000000000103e+00 1.383284999999999911e+02 1.602365000000000009e+03
1.479999999999999927e-01 8.163329999999999753e-01 6.098390000000000200e+00 1.380104999999999791e+02 1.602289999999999964e+03
1.489999999999999936e-01 8.162480000000000846e-01 5.874509999999999899e+00 1.377030000000000030e+02 1.602224999999999909e+03
1.499999999999999944e-01 8.161690000000000333e-01 5.660899999999999821e+00 1.374150000000000205e+02 1.602154999999999973e+03
1.509999999999999953e-01 8.160994999999999777e-01 5.462134999999999962e+00 1.371539999999999964e+02 1.602095000000000027e+03
1.519999999999999962e-01 8.160395000000000287e-01 5.281724999999999781e+00 1.369240000000000066e+02 1.602034999999999854e+03
1.529999999999999971e-01 8.159894999999999232e-01 5.122035000000000338e+00 1.367275000000000205e+02 1.601980000000000018e+03
1.539999999999999980e-01 8.159484999999999655e-01 4.984250000000000291e+00 1.365649999999999977e+02 1.601940000000000055e+03
1.549999999999999989e-01 8.159164999999999335e-01 4.868394999999999584e+00 1.364335000000000093e+02 1.601904999999999973e+03
1.559999999999999998e-01 8.158924999999999095e-01 4.773460000000000036e+00 1.363299999999999841e+02 1.601875000000000000e+03
1.570000000000000007e-01 8.158734999999999182e-01 4.697519999999999918e+00 1.362485000000000070e+02 1.601849999999999909e+03
1.580000000000000016e-01 8.158585000000000420e-01 4.637945000000000206e+00 1.361839999999999975e+02 1.601829999999999927e+03
1.590000000000000024e-01 8.158444999999999725e-01 4.591619999999999813e+00 1.361279999999999859e+02 1.601815000000000055e+03
