# t [s], A [cm^2], U [cm/s], P [cPa], c [cm/s]
1.000000000000000021e-03 1.733870000000000133e-01 3.262708000000000275e-01 9.442769999999998731e+01 2.336644999999999982e+03
2.000000000000000042e-03 1.733314999999999995e-01 1.825457499999999733e+00 9.068009999999999593e+01 2.336090000000000146e+03
3.000000000000000062e-03 1.732024999999999815e-01 3.698049999999999837e+00 8.539454999999999529e+01 2.334850000000000364e+03
4.000000000000000083e-03 1.730395000000000127e-01 5.838414499999999840e+00 7.991694999999999993e+01 2.333305000000000291e+03
5.000000000000000104e-03 1.728764999999999885e-01 8.124494999999999578e+00 7.534080000000000155e+01 2.331774999999999636e+03
6.000000000000000125e-03 1.727259999999999907e-01 1.025500000000000078e+01 7.168319999999999936e+01 2.330394999999999982e+03
7.000000000000000146e-03 1.725885000000000058e-01 1.199601000000000006e+01 6.842529999999999291e+01 2.329159999999999854e+03
8.000000000000000167e-03 1.724685000000000246e-01 1.337780500000000039e+01 6.555724999999999625e+01 2.328100000000000364e+03
9.000000000000001055e-03 1.723700000000000232e-01 1.446724999999999994e+01 6.326600000000000534e+01 2.327239999999999782e+03
1.000000000000000194e-02 1.722925000000000151e-01 1.529020000000000046e+01 6.154025000000000034e+01 2.326574999999999818e+03
1.099999999999999936e-02 1.722345000000000126e-01 1.587375000000000114e+01 6.030245000000000744e+01 2.326085000000000036e+03
1.200000000000000025e-02 1.721914999999999973e-01 1.621665000000000134e+01 5.937940000000000396e+01 2.325730000000000018e+03
1.300000000000000114e-02 1.721559999999999757e-01 1.633075000000000188e+01 5.855710000000000548e+01 2.325449999999999818e+03
1.400000000000000203e-02 1.721294999999999908e-01 1.635164999999999935e+01 5.794129999999999825e+01 2.325234999999999673e+03
1.499999999999999944e-02 1.721225000000000116e-01 1.653209999999999980e+01 5.811155000000000115e+01 2.325194999999999709e+03
1.600000000000000033e-02 1.721504999999999841e-01 1.708245000000000147e+01 5.973215000000000430e+01 2.325434999999999945e+03
1.700000000000000122e-02 1.722179999999999822e-01 1.801020000000000110e+01 6.296229999999999905e+01 2.326019999999999982e+03
1.800000000000000211e-02 1.723175000000000123e-01 1.909389999999999787e+01 6.718940000000000623e+01 2.326890000000000327e+03
1.900000000000000300e-02 1.724249999999999949e-01 1.999620000000000175e+01 7.126435000000000741e+01 2.327845000000000255e+03
2.000000000000000042e-02 1.725129999999999997e-01 2.042985000000000184e+01 7.403974999999999795e+01 2.328654999999999745e+03
2.100000000000000130e-02 1.725635000000000085e-01 2.028164999999999907e+01 7.487850000000000250e+01 2.329140000000000327e+03
2.200000000000000219e-02 1.725694999999999868e-01 1.964085000000000036e+01 7.387800000000000011e+01 2.329234999999999673e+03
2.299999999999999961e-02 1.725409999999999999e-01 1.873109999999999786e+01 7.173460000000000036e+01 2.329015000000000327e+03
2.400000000000000050e-02 1.724960000000000104e-01 1.779269999999999996e+01 6.935814999999999486e+01 2.328619999999999891e+03
2.500000000000000139e-02 1.724505000000000066e-01 1.697800000000000153e+01 6.745400000000000773e+01 2.328220000000000255e+03
2.600000000000000228e-02 1.724149999999999849e-01 1.630570000000000164e+01 6.626775000000000659e+01 2.327894999999999982e+03
2.700000000000000316e-02 1.723899999999999877e-01 1.568140000000000001e+01 6.557439999999999714e+01 2.327659999999999854e+03
2.800000000000000058e-02 1.723659999999999914e-01 1.496430000000000149e+01 6.487120000000000175e+01 2.327445000000000164e+03
2.900000000000000147e-02 1.723345000000000016e-01 1.404704999999999870e+01 6.366429999999999723e+01 2.327170000000000073e+03
3.000000000000000236e-02 1.722870000000000235e-01 1.291765000000000008e+01 6.172874999999999801e+01 2.326764999999999873e+03
3.099999999999999978e-02 1.722255000000000036e-01 1.167935999999999908e+01 5.924224999999999852e+01 2.326230000000000018e+03
3.200000000000000067e-02 1.721590000000000065e-01 1.052236500000000063e+01 5.674295000000000044e+01 2.325644999999999982e+03
3.300000000000000155e-02 1.721024999999999916e-01 9.657450000000000756e+00 5.493234999999999957e+01 2.325135000000000218e+03
3.400000000000000244e-02 1.720710000000000017e-01 9.241780000000000328e+00 5.441009999999999991e+01 2.324835000000000036e+03
3.500000000000000333e-02 1.720754999999999924e-01 9.325359999999999872e+00 5.545194999999999652e+01 2.324840000000000146e+03
3.600000000000000422e-02 1.721170000000000200e-01 9.836615000000000109e+00 5.791199999999999903e+01 2.325180000000000291e+03
3.700000000000000511e-02 1.721870000000000067e-01 1.060560500000000062e+01 6.126879999999999882e+01 2.325779999999999745e+03
3.799999999999999906e-02 1.722719999999999807e-01 1.141164500000000004e+01 6.477844999999999231e+01 2.326515000000000327e+03
3.899999999999999994e-02 1.723525000000000196e-01 1.203664999999999985e+01 6.767069999999999652e+01 2.327230000000000018e+03
4.000000000000000083e-02 1.724120000000000097e-01 1.230935000000000024e+01 6.932499999999998863e+01 2.327770000000000437e+03
4.100000000000000172e-02 1.724375000000000213e-01 1.213030000000000008e+01 6.938220000000001164e+01 2.328019999999999982e+03
4.200000000000000261e-02 1.724229999999999929e-01 1.147665999999999897e+01 6.777609999999999957e+01 2.327914999999999964e+03
4.300000000000000350e-02 1.723684999999999801e-01 1.038910000000000089e+01 6.469074999999999420e+01 2.327449999999999818e+03
4.400000000000000439e-02 1.722775000000000001e-01 8.948850000000000193e+00 6.047135000000000105e+01 2.326664999999999964e+03
4.499999999999999833e-02 1.721604999999999941e-01 7.253779999999999895e+00 5.552219999999999800e+01 2.325640000000000327e+03
4.599999999999999922e-02 1.720249999999999835e-01 5.399979999999999336e+00 5.022299999999999898e+01 2.324449999999999818e+03
4.700000000000000011e-02 1.718810000000000060e-01 3.472100499999999812e+00 4.488060000000000116e+01 2.323175000000000182e+03
4.800000000000000100e-02 1.717345000000000121e-01 1.542405000000000026e+00 3.971914999999999907e+01 2.321880000000000109e+03
4.900000000000000189e-02 1.715920000000000223e-01 -3.249499999999998501e-01 3.489844999999999686e+01 2.320610000000000127e+03
5.000000000000000278e-02 1.714579999999999993e-01 -2.067915000000000170e+00 3.054469999999999885e+01 2.319414999999999964e+03
5.100000000000000366e-02 1.713369999999999893e-01 -3.622231000000000201e+00 2.677905000000000157e+01 2.318329999999999927e+03
5.200000000000000455e-02 1.712334999999999829e-01 -4.920620000000000438e+00 2.373404999999999987e+01 2.317394999999999982e+03
5.300000000000000544e-02 1.711499999999999966e-01 -5.895889999999999631e+00 2.155379999999999896e+01 2.316635000000000218e+03
5.399999999999999939e-02 1.710920000000000218e-01 -6.486914999999999765e+00 2.038025000000000020e+01 2.316099999999999909e+03
5.500000000000000028e-02 1.710634999999999795e-01 -6.645780000000000243e+00 2.033120000000000260e+01 2.315819999999999709e+03
5.600000000000000117e-02 1.710670000000000246e-01 -6.344105000000000771e+00 2.147850000000000037e+01 2.315815000000000055e+03
5.700000000000000205e-02 1.711030000000000051e-01 -5.577009999999999579e+00 2.383129999999999882e+01 2.316109999999999673e+03
5.800000000000000294e-02 1.711730000000000196e-01 -4.364155000000000229e+00 2.733035000000000281e+01 2.316699999999999818e+03
5.900000000000000383e-02 1.712739999999999818e-01 -2.747792500000000082e+00 3.185144999999999982e+01 2.317559999999999945e+03
6.000000000000000472e-02 1.714025000000000132e-01 -7.888299999999999201e-01 3.721819999999999595e+01 2.318675000000000182e+03
6.099999999999999867e-02 1.715534999999999977e-01 1.438335000000000141e+00 4.321845000000000425e+01 2.319989999999999782e+03
6.199999999999999956e-02 1.717214999999999991e-01 3.851344500000000171e+00 4.962290000000000134e+01 2.321474999999999909e+03
6.300000000000000044e-02 1.718999999999999972e-01 6.365375000000000227e+00 5.620215000000000316e+01 2.323050000000000182e+03
6.400000000000000133e-02 1.720840000000000147e-01 8.898345000000000837e+00 6.274269999999999925e+01 2.324684999999999945e+03
6.500000000000000222e-02 1.722670000000000035e-01 1.137585999999999942e+01 6.906029999999999802e+01 2.326319999999999709e+03
6.600000000000000311e-02 1.724445000000000006e-01 1.373558500000000038e+01 7.501144999999999641e+01 2.327904999999999745e+03
6.700000000000000400e-02 1.726125000000000020e-01 1.593074999999999974e+01 8.050140000000000384e+01 2.329420000000000073e+03
6.800000000000000488e-02 1.727684999999999915e-01 1.793240000000000123e+01 8.548890000000000100e+01 2.330840000000000146e+03
6.900000000000000577e-02 1.729129999999999834e-01 1.972984999999999900e+01 8.998505000000000109e+01 2.332144999999999982e+03
7.000000000000000666e-02 1.730444999999999900e-01 2.132925000000000182e+01 9.404759999999998854e+01 2.333350000000000364e+03
7.100000000000000755e-02 1.731659999999999866e-01 2.275065000000000026e+01 9.776879999999999882e+01 2.334460000000000036e+03
7.200000000000000844e-02 1.732795000000000030e-01 2.402380000000000138e+01 1.012615499999999997e+02 2.335500000000000000e+03
7.300000000000000933e-02 1.733875000000000000e-01 2.518325000000000102e+01 1.046451000000000136e+02 2.336489999999999782e+03
7.399999999999999634e-02 1.734934999999999949e-01 2.626389999999999958e+01 1.080264999999999986e+02 2.337454999999999927e+03
7.499999999999999722e-02 1.736000000000000043e-01 2.729680000000000106e+01 1.114925000000000068e+02 2.338425000000000182e+03
7.599999999999999811e-02 1.737075000000000147e-01 2.830614999999999881e+01 1.150995000000000061e+02 2.339409999999999854e+03
7.699999999999999900e-02 1.738195000000000157e-01 2.930749999999999744e+01 1.188714999999999975e+02 2.340425000000000182e+03
7.799999999999999989e-02 1.739354999999999929e-01 3.030695000000000050e+01 1.227999999999999972e+02 2.341475000000000364e+03
7.900000000000000078e-02 1.740539999999999865e-01 3.130149999999999721e+01 1.268465000000000060e+02 2.342560000000000400e+03
8.000000000000000167e-02 1.741749999999999965e-01 3.228000000000000114e+01 1.309509999999999934e+02 2.343659999999999854e+03
8.100000000000000255e-02 1.742970000000000075e-01 3.322455000000000069e+01 1.350364999999999895e+02 2.344769999999999982e+03
8.200000000000000344e-02 1.744175000000000031e-01 3.411265000000000214e+01 1.390144999999999982e+02 2.345864999999999782e+03
8.300000000000000433e-02 1.745339999999999947e-01 3.491884999999999906e+01 1.427965000000000089e+02 2.346929999999999836e+03
8.400000000000000522e-02 1.746444999999999803e-01 3.561704999999999899e+01 1.462964999999999804e+02 2.347934999999999945e+03
8.500000000000000611e-02 1.747460000000000124e-01 3.618205000000000382e+01 1.494354999999999905e+02 2.348869999999999891e+03
8.600000000000000699e-02 1.748370000000000202e-01 3.659175000000000466e+01 1.521490000000000009e+02 2.349710000000000036e+03
8.700000000000000788e-02 1.749160000000000159e-01 3.682849999999999824e+01 1.543870000000000005e+02 2.350435000000000400e+03
8.800000000000000877e-02 1.749815000000000120e-01 3.688049999999999784e+01 1.561195000000000164e+02 2.351045000000000073e+03
8.899999999999999578e-02 1.750319999999999931e-01 3.674254999999999427e+01 1.573365000000000009e+02 2.351525000000000091e+03
8.999999999999999667e-02 1.750685000000000158e-01 3.641675000000000040e+01 1.580475000000000136e+02 2.351869999999999891e+03
9.099999999999999756e-02 1.750909999999999966e-01 3.591230000000000189e+01 1.582824999999999989e+02 2.352090000000000146e+03
9.199999999999999845e-02 1.751004999999999923e-01 3.524510000000000076e+01 1.580880000000000223e+02 2.352189999999999600e+03
9.299999999999999933e-02 1.750979999999999759e-01 3.443659999999999854e+01 1.575260000000000105e+02 2.352184999999999945e+03
9.400000000000000022e-02 1.750855000000000050e-01 3.351274999999999693e+01 1.566674999999999898e+02 2.352079999999999927e+03
9.500000000000000111e-02 1.750645000000000118e-01 3.250215000000000032e+01 1.555879999999999939e+02 2.351899999999999636e+03
9.600000000000000200e-02 1.750375000000000125e-01 3.143489999999999895e+01 1.543650000000000091e+02 2.351654999999999745e+03
9.700000000000000289e-02 1.750059999999999949e-01 3.034060000000000201e+01 1.530734999999999957e+02 2.351380000000000109e+03
9.800000000000000377e-02 1.749725000000000030e-01 2.924729999999999919e+01 1.517805000000000177e+02 2.351079999999999927e+03
9.900000000000000466e-02 1.749390000000000112e-01 2.818015000000000114e+01 1.505444999999999993e+02 2.350775000000000091e+03
1.000000000000000056e-01 1.749060000000000059e-01 2.716025000000000134e+01 1.494114999999999895e+02 2.350474999999999909e+03
1.010000000000000064e-01 1.748760000000000037e-01 2.620394999999999897e+01 1.484159999999999968e+02 2.350204999999999927e+03
1.020000000000000073e-01 1.748494999999999910e-01 2.532205000000000084e+01 1.475755000000000052e+02 2.349954999999999927e+03
1.030000000000000082e-01 1.748270000000000102e-01 2.451950000000000074e+01 1.468944999999999936e+02 2.349739999999999782e+03
1.040000000000000091e-01 1.748075000000000045e-01 2.379540000000000077e+01 1.463614999999999782e+02 2.349560000000000400e+03
1.050000000000000100e-01 1.747925000000000173e-01 2.314339999999999975e+01 1.459515000000000100e+02 2.349414999999999964e+03
1.059999999999999970e-01 1.747799999999999909e-01 2.255209999999999937e+01 1.456274999999999977e+02 2.349295000000000073e+03
1.069999999999999979e-01 1.747690000000000077e-01 2.200609999999999999e+01 1.453439999999999941e+02 2.349189999999999600e+03
1.079999999999999988e-01 1.747585000000000111e-01 2.148729999999999762e+01 1.450495000000000232e+02 2.349095000000000255e+03
1.089999999999999997e-01 1.747480000000000144e-01 2.097625000000000028e+01 1.446910000000000025e+02 2.348989999999999782e+03
1.100000000000000006e-01 1.747350000000000014e-01 2.045369999999999777e+01 1.442169999999999845e+02 2.348869999999999891e+03
1.110000000000000014e-01 1.747184999999999988e-01 1.990180000000000149e+01 1.435829999999999984e+02 2.348720000000000255e+03
1.120000000000000023e-01 1.746975000000000056e-01 1.930580000000000140e+01 1.427529999999999859e+02 2.348529999999999745e+03
1.130000000000000032e-01 1.746710000000000207e-01 1.865480000000000160e+01 1.417055000000000007e+02 2.348289999999999964e+03
1.140000000000000041e-01 1.746385000000000021e-01 1.794289999999999807e+01 1.404319999999999879e+02 2.347994999999999891e+03
1.150000000000000050e-01 1.745995000000000186e-01 1.716944999999999766e+01 1.389379999999999882e+02 2.347644999999999982e+03
1.160000000000000059e-01 1.745550000000000157e-01 1.633910000000000196e+01 1.372454999999999927e+02 2.347244999999999891e+03
1.170000000000000068e-01 1.745050000000000212e-01 1.546185000000000187e+01 1.353910000000000196e+02 2.346800000000000182e+03
1.180000000000000077e-01 1.744514999999999816e-01 1.455184999999999818e+01 1.334194999999999993e+02 2.346309999999999945e+03
1.190000000000000085e-01 1.743945000000000078e-01 1.362685000000000102e+01 1.313855000000000075e+02 2.345800000000000182e+03
1.200000000000000094e-01 1.743370000000000197e-01 1.270680000000000121e+01 1.293485000000000014e+02 2.345275000000000091e+03
1.209999999999999964e-01 1.742785000000000029e-01 1.181259000000000015e+01 1.273680000000000092e+02 2.344750000000000000e+03
1.219999999999999973e-01 1.742219999999999880e-01 1.096459000000000117e+01 1.255000000000000000e+02 2.344239999999999782e+03
1.229999999999999982e-01 1.741699999999999915e-01 1.018156000000000105e+01 1.237944999999999993e+02 2.343755000000000109e+03
1.239999999999999991e-01 1.741214999999999846e-01 9.479589999999999961e+00 1.222924999999999898e+02 2.343314999999999600e+03
1.250000000000000000e-01 1.740789999999999837e-01 8.871000000000000441e+00 1.210229999999999961e+02 2.342920000000000073e+03
1.260000000000000009e-01 1.740424999999999889e-01 8.364155000000000229e+00 1.200039999999999907e+02 2.342585000000000036e+03
1.270000000000000018e-01 1.740130000000000010e-01 7.963089999999999336e+00 1.192404999999999973e+02 2.342309999999999945e+03
1.280000000000000027e-01 1.739904999999999924e-01 7.667505000000000237e+00 1.187270000000000039e+02 2.342100000000000364e+03
1.290000000000000036e-01 1.739749999999999908e-01 7.473105000000000331e+00 1.184465000000000003e+02 2.341949999999999818e+03
1.300000000000000044e-01 1.739660000000000095e-01 7.372099999999999653e+00 1.183744999999999976e+02 2.341855000000000018e+03
1.310000000000000053e-01 1.739620000000000055e-01 7.353769999999999918e+00 1.184805000000000064e+02 2.341819999999999709e+03
1.320000000000000062e-01 1.739640000000000075e-01 7.405185000000000350e+00 1.187290000000000134e+02 2.341820000000000164e+03
1.330000000000000071e-01 1.739684999999999981e-01 7.511950000000000571e+00 1.190819999999999936e+02 2.341864999999999782e+03
1.340000000000000080e-01 1.739769999999999928e-01 7.658884999999999721e+00 1.195014999999999930e+02 2.341935000000000400e+03
1.350000000000000089e-01 1.739870000000000028e-01 7.830754999999999910e+00 1.199505000000000052e+02 2.342019999999999982e+03
1.360000000000000098e-01 1.739979999999999860e-01 8.012879999999999114e+00 1.203949999999999960e+02 2.342114999999999782e+03
1.370000000000000107e-01 1.740085000000000104e-01 8.191735000000001321e+00 1.208040000000000020e+02 2.342215000000000146e+03
1.380000000000000115e-01 1.740190000000000070e-01 8.355440000000001532e+00 1.211525000000000034e+02 2.342305000000000291e+03
1.390000000000000124e-01 1.740275000000000016e-01 8.494144999999999612e+00 1.214205000000000041e+02 2.342380000000000109e+03
1.400000000000000133e-01 1.740339999999999943e-01 8.600369999999999848e+00 1.215945000000000107e+02 2.342440000000000055e+03
1.410000000000000142e-01 1.740375000000000116e-01 8.669174999999999187e+00 1.216674999999999898e+02 2.342474999999999909e+03
1.420000000000000151e-01 1.740389999999999993e-01 8.698199999999999932e+00 1.216375000000000028e+02 2.342484999999999673e+03
1.430000000000000160e-01 1.740379999999999983e-01 8.687625000000000597e+00 1.215109999999999957e+02 2.342480000000000018e+03
1.440000000000000169e-01 1.740340000000000220e-01 8.639920000000000044e+00 1.212980000000000018e+02 2.342449999999999818e+03
1.450000000000000178e-01 1.740280000000000160e-01 8.559509999999999508e+00 1.210130000000000052e+02 2.342394999999999982e+03
1.459999999999999909e-01 1.740200000000000080e-01 8.452304999999999069e+00 1.206744999999999948e+02 2.342329999999999927e+03
1.469999999999999918e-01 1.740105000000000124e-01 8.325195000000000789e+00 1.203015000000000043e+02 2.342250000000000000e+03
1.479999999999999927e-01 1.740005000000000024e-01 8.185439999999999827e+00 1.199129999999999967e+02 2.342154999999999745e+03
1.489999999999999936e-01 1.739895000000000191e-01 8.040155000000000385e+00 1.195275000000000034e+02 2.342065000000000055e+03
1.499999999999999944e-01 1.739795000000000091e-01 7.895755000000000301e+00 1.191599999999999966e+02 2.341965000000000146e+03
1.509999999999999953e-01 1.739694999999999991e-01 7.757585000000000619e+00 1.188220000000000027e+02 2.341880000000000109e+03
1.519999999999999962e-01 1.739605000000000179e-01 7.629625000000000767e+00 1.185200000000000102e+02 2.341789999999999964e+03
1.529999999999999971e-01 1.739519999999999955e-01 7.514374999999999361e+00 1.182574999999999932e+02 2.341715000000000146e+03
1.539999999999999980e-01 1.739445000000000019e-01 7.412810000000000343e+00 1.180324999999999989e+02 2.341650000000000091e+03
1.549999999999999989e-01 1.739380000000000093e-01 7.324579999999999202e+00 1.178404999999999916e+02 2.341590000000000146e+03
1.559999999999999998e-01 1.739324999999999899e-01 7.248170000000000002e+00 1.176734999999999900e+02 2.341539999999999964e+03
1.570000000000000007e-01 1.739275000000000126e-01 7.181210000000000093e+00 1.175225000000000080e+02 2.341489999999999782e+03
1.580000000000000016e-01 1.739224999999999799e-01 7.120810000000000528e+00 1.173764999999999930e+02 2.341444999999999709e+03
1.590000000000000024e-01 1.739179999999999893e-01 7.063814999999999955e+00 1.172270000000000039e+02 2.341404999999999745e+03
