# t [s], A [cm^2], U [cm/s], P [cPa], c [cm/s]
1.000000000000000021e-03 1.258644999999999903e-01 3.909261499999999723e-01 8.911414999999999509e+01 2.061654999999999745e+03
2.000000000000000042e-03 1.258330000000000004e-01 1.880122499999999919e+00 8.575530000000000541e+01 2.061260000000000218e+03
3.000000000000000062e-03 1.257479999999999987e-01 3.668180500000000066e+00 8.132980000000000587e+01 2.060234999999999673e+03
4.000000000000000083e-03 1.256324999999999803e-01 5.660617999999999483e+00 7.676005000000000678e+01 2.058854999999999563e+03
5.000000000000000104e-03 1.255100000000000104e-01 7.782354999999999912e+00 7.285869999999999891e+01 2.057400000000000091e+03
6.000000000000000125e-03 1.253914999999999891e-01 9.845594999999999430e+00 6.975050000000000239e+01 2.056019999999999982e+03
7.000000000000000146e-03 1.252804999999999891e-01 1.165858499999999864e+01 6.708539999999999281e+01 2.054744999999999891e+03
8.000000000000000167e-03 1.251780000000000115e-01 1.318186000000000035e+01 6.467059999999999320e+01 2.053585000000000036e+03
9.000000000000001055e-03 1.250880000000000047e-01 1.446509999999999962e+01 6.259475000000000477e+01 2.052579999999999927e+03
1.000000000000000194e-02 1.250114999999999976e-01 1.553330000000000055e+01 6.090635000000000332e+01 2.051735000000000127e+03
1.099999999999999936e-02 1.249475000000000030e-01 1.639369999999999905e+01 5.955124999999999602e+01 2.051034999999999854e+03
1.200000000000000025e-02 1.248954999999999926e-01 1.705330000000000013e+01 5.845109999999999673e+01 2.050474999999999909e+03
1.300000000000000114e-02 1.248520000000000046e-01 1.751454999999999984e+01 5.750400000000000489e+01 2.050014999999999873e+03
1.400000000000000203e-02 1.248149999999999954e-01 1.780075000000000074e+01 5.663244999999999862e+01 2.049630000000000109e+03
1.499999999999999944e-02 1.247840000000000060e-01 1.799779999999999802e+01 5.591970000000000596e+01 2.049309999999999945e+03
1.600000000000000033e-02 1.247634999999999994e-01 1.824779999999999802e+01 5.566024999999999778e+01 2.049105000000000018e+03
1.700000000000000122e-02 1.247600000000000098e-01 1.868410000000000082e+01 5.621510000000000673e+01 2.049074999999999818e+03
1.800000000000000211e-02 1.247784999999999866e-01 1.935579999999999856e+01 5.776924999999999955e+01 2.049284999999999854e+03
1.900000000000000300e-02 1.248189999999999855e-01 2.019635000000000247e+01 6.017095000000000482e+01 2.049730000000000018e+03
2.000000000000000042e-02 1.248749999999999999e-01 2.105020000000000024e+01 6.295125000000000171e+01 2.050355000000000018e+03
2.100000000000000130e-02 1.249355000000000049e-01 2.173655000000000115e+01 6.549460000000000548e+01 2.051034999999999854e+03
2.200000000000000219e-02 1.249895000000000034e-01 2.211589999999999989e+01 6.726210000000000377e+01 2.051644999999999982e+03
2.299999999999999961e-02 1.250264999999999849e-01 2.213305000000000078e+01 6.796510000000000673e+01 2.052085000000000036e+03
2.400000000000000050e-02 1.250430000000000152e-01 2.182300000000000040e+01 6.762889999999998736e+01 2.052295000000000073e+03
2.500000000000000139e-02 1.250410000000000132e-01 2.128459999999999752e+01 6.653645000000000209e+01 2.052289999999999964e+03
2.600000000000000228e-02 1.250244999999999829e-01 2.063560000000000016e+01 6.508939999999999770e+01 2.052130000000000109e+03
2.700000000000000316e-02 1.250010000000000010e-01 1.997034999999999982e+01 6.365264999999999418e+01 2.051880000000000109e+03
2.800000000000000058e-02 1.249765000000000043e-01 1.933469999999999800e+01 6.244209999999999638e+01 2.051610000000000127e+03
2.900000000000000147e-02 1.249534999999999951e-01 1.872380000000000067e+01 6.148845000000000027e+01 2.051349999999999909e+03
3.000000000000000236e-02 1.249320000000000153e-01 1.809939999999999927e+01 6.067479999999999762e+01 2.051109999999999673e+03
3.099999999999999978e-02 1.249100000000000071e-01 1.741659999999999897e+01 5.982094999999999629e+01 2.050869999999999891e+03
3.200000000000000067e-02 1.248855000000000104e-01 1.665010000000000190e+01 5.877819999999999823e+01 2.050599999999999909e+03
3.300000000000000155e-02 1.248559999999999948e-01 1.581104999999999983e+01 5.750234999999999985e+01 2.050275000000000091e+03
3.400000000000000244e-02 1.248225000000000029e-01 1.495129999999999981e+01 5.608445000000000391e+01 2.049909999999999854e+03
3.500000000000000333e-02 1.247880000000000100e-01 1.415209999999999901e+01 5.473170000000000357e+01 2.049529999999999745e+03
3.600000000000000422e-02 1.247570000000000068e-01 1.350355000000000061e+01 5.370759999999999934e+01 2.049184999999999945e+03
3.700000000000000511e-02 1.247344999999999982e-01 1.307959999999999923e+01 5.325284999999999513e+01 2.048930000000000291e+03
3.799999999999999906e-02 1.247260000000000035e-01 1.291795000000000115e+01 5.351174999999999926e+01 2.048824999999999818e+03
3.899999999999999994e-02 1.247329999999999967e-01 1.300945000000000107e+01 5.448695000000000022e+01 2.048885000000000218e+03
4.000000000000000083e-02 1.247550000000000048e-01 1.329930000000000057e+01 5.603334999999999866e+01 2.049114999999999782e+03
4.100000000000000172e-02 1.247884999999999966e-01 1.369835000000000136e+01 5.788795000000000357e+01 2.049470000000000255e+03
4.200000000000000261e-02 1.248279999999999945e-01 1.410050000000000026e+01 5.972480000000000189e+01 2.049894999999999982e+03
4.300000000000000350e-02 1.248660000000000048e-01 1.440115000000000123e+01 6.121734999999999616e+01 2.050324999999999818e+03
4.400000000000000439e-02 1.248970000000000080e-01 1.451275000000000048e+01 6.209364999999999668e+01 2.050664999999999964e+03
4.499999999999999833e-02 1.249144999999999978e-01 1.437475000000000058e+01 6.217345000000000255e+01 2.050864999999999782e+03
4.599999999999999922e-02 1.249145000000000116e-01 1.395739999999999981e+01 6.138255000000000194e+01 2.050875000000000000e+03
4.700000000000000011e-02 1.248950000000000060e-01 1.326004999999999967e+01 5.974669999999999703e+01 2.050670000000000073e+03
4.800000000000000100e-02 1.248565000000000091e-01 1.230519999999999925e+01 5.736939999999999884e+01 2.050255000000000109e+03
4.900000000000000189e-02 1.248009999999999953e-01 1.113147999999999982e+01 5.440314999999999657e+01 2.049644999999999982e+03
5.000000000000000278e-02 1.247304999999999942e-01 9.786279999999999646e+00 5.102060000000000173e+01 2.048875000000000000e+03
5.100000000000000366e-02 1.246494999999999964e-01 8.320249999999999702e+00 4.739199999999999591e+01 2.047980000000000018e+03
5.200000000000000455e-02 1.245610000000000051e-01 6.784029999999999561e+00 4.367194999999999538e+01 2.047000000000000000e+03
5.300000000000000544e-02 1.244679999999999953e-01 5.226790000000000269e+00 3.999424999999999386e+01 2.045974999999999909e+03
5.399999999999999939e-02 1.243744999999999989e-01 3.696079500000000184e+00 3.647415000000000163e+01 2.044940000000000055e+03
5.500000000000000028e-02 1.242840000000000056e-01 2.238444999999999574e+00 3.321340000000000003e+01 2.043929999999999836e+03
5.600000000000000117e-02 1.241980000000000028e-01 8.997549999999998604e-01 3.030600000000000094e+01 2.042974999999999909e+03
5.700000000000000205e-02 1.241204999999999947e-01 -2.750899999999998347e-01 2.784140000000000015e+01 2.042105000000000018e+03
5.800000000000000294e-02 1.240529999999999966e-01 -1.243314999999999948e+00 2.590530000000000044e+01 2.041349999999999909e+03
5.900000000000000383e-02 1.239984999999999976e-01 -1.966113499999999847e+00 2.457605000000000217e+01 2.040730000000000018e+03
6.000000000000000472e-02 1.239584999999999992e-01 -2.411019999999999719e+00 2.391975000000000051e+01 2.040279999999999973e+03
6.099999999999999867e-02 1.239355000000000040e-01 -2.554269999999999818e+00 2.398375000000000057e+01 2.040005000000000109e+03
6.199999999999999956e-02 1.239304999999999990e-01 -2.382719999999999949e+00 2.479075000000000273e+01 2.039930000000000064e+03
6.300000000000000044e-02 1.239444999999999852e-01 -1.895134499999999944e+00 2.633500000000000085e+01 2.040059999999999945e+03
6.400000000000000133e-02 1.239770000000000039e-01 -1.102442499999999992e+00 2.858064999999999856e+01 2.040400000000000091e+03
6.500000000000000222e-02 1.240269999999999984e-01 -2.710500000000015675e-02 3.146374999999999744e+01 2.040934999999999945e+03
6.600000000000000311e-02 1.240940000000000099e-01 1.298355000000000148e+00 3.489594999999999914e+01 2.041659999999999854e+03
6.700000000000000400e-02 1.241755000000000081e-01 2.833460000000000090e+00 3.877060000000000173e+01 2.042550000000000182e+03
6.800000000000000488e-02 1.242695000000000050e-01 4.532255000000000145e+00 4.297025000000000006e+01 2.043569999999999936e+03
6.900000000000000577e-02 1.243729999999999974e-01 6.345909999999999940e+00 4.737335000000000207e+01 2.044704999999999927e+03
7.000000000000000666e-02 1.244825000000000098e-01 8.225384999999999280e+00 5.186230000000000473e+01 2.045920000000000073e+03
7.100000000000000755e-02 1.245960000000000123e-01 1.012386000000000053e+01 5.632895000000000607e+01 2.047180000000000064e+03
7.200000000000000844e-02 1.247110000000000024e-01 1.199876500000000057e+01 6.068040000000000589e+01 2.048454999999999927e+03
7.300000000000000933e-02 1.248239999999999905e-01 1.381395000000000017e+01 6.484305000000000518e+01 2.049720000000000255e+03
7.399999999999999634e-02 1.249345000000000039e-01 1.554064999999999941e+01 6.876494999999999891e+01 2.050954999999999927e+03
7.499999999999999722e-02 1.250394999999999979e-01 1.715850000000000009e+01 7.241710000000000491e+01 2.052139999999999873e+03
7.599999999999999811e-02 1.251400000000000012e-01 1.865579999999999927e+01 7.579290000000000305e+01 2.053264999999999873e+03
7.699999999999999900e-02 1.252334999999999976e-01 2.002904999999999802e+01 7.890590000000000259e+01 2.054329999999999927e+03
7.799999999999999989e-02 1.253219999999999890e-01 2.128200000000000003e+01 8.178655000000000541e+01 2.055329999999999927e+03
7.900000000000000078e-02 1.254045000000000021e-01 2.242454999999999998e+01 8.447749999999999204e+01 2.056275000000000091e+03
8.000000000000000167e-02 1.254830000000000112e-01 2.347079999999999700e+01 8.702864999999999895e+01 2.057170000000000073e+03
8.100000000000000255e-02 1.255574999999999886e-01 2.443744999999999834e+01 8.949195000000000277e+01 2.058020000000000437e+03
8.200000000000000344e-02 1.256299999999999917e-01 2.534189999999999898e+01 9.191624999999999091e+01 2.058849999999999909e+03
8.300000000000000433e-02 1.257020000000000082e-01 2.620069999999999766e+01 9.434369999999999834e+01 2.059659999999999854e+03
8.400000000000000522e-02 1.257725000000000093e-01 2.702805000000000035e+01 9.680604999999999905e+01 2.060470000000000255e+03
8.500000000000000611e-02 1.258434999999999970e-01 2.783500000000000085e+01 9.932339999999999236e+01 2.061279999999999745e+03
8.600000000000000699e-02 1.259160000000000001e-01 2.862850000000000250e+01 1.019024000000000001e+02 2.062105000000000018e+03
8.700000000000000788e-02 1.259895000000000043e-01 2.941130000000000067e+01 1.045374999999999943e+02 2.062939999999999600e+03
8.800000000000000877e-02 1.260640000000000094e-01 3.018189999999999884e+01 1.072104999999999961e+02 2.063784999999999854e+03
8.899999999999999578e-02 1.261384999999999867e-01 3.093459999999999610e+01 1.098940000000000055e+02 2.064639999999999873e+03
8.999999999999999667e-02 1.262134999999999785e-01 3.166070000000000206e+01 1.125525000000000091e+02 2.065494999999999891e+03
9.099999999999999756e-02 1.262874999999999970e-01 3.234855000000000302e+01 1.151450000000000102e+02 2.066340000000000146e+03
9.199999999999999845e-02 1.263600000000000001e-01 3.298465000000000202e+01 1.176285000000000025e+02 2.067159999999999854e+03
9.299999999999999933e-02 1.264290000000000136e-01 3.355460000000000065e+01 1.199585000000000008e+02 2.067949999999999818e+03
9.400000000000000022e-02 1.264949999999999963e-01 3.404390000000000072e+01 1.220939999999999941e+02 2.068704999999999927e+03
9.500000000000000111e-02 1.265554999999999874e-01 3.443869999999999720e+01 1.239964999999999975e+02 2.069394999999999982e+03
9.600000000000000200e-02 1.266105000000000147e-01 3.472679999999999723e+01 1.256340000000000003e+02 2.070029999999999745e+03
9.700000000000000289e-02 1.266585000000000072e-01 3.489809999999999945e+01 1.269805000000000064e+02 2.070585000000000036e+03
9.800000000000000377e-02 1.266990000000000061e-01 3.494534999999999769e+01 1.280204999999999984e+02 2.071055000000000291e+03
9.900000000000000466e-02 1.267320000000000113e-01 3.486459999999999582e+01 1.287450000000000045e+02 2.071440000000000055e+03
1.000000000000000056e-01 1.267570000000000086e-01 3.465524999999999523e+01 1.291560000000000059e+02 2.071729999999999563e+03
1.010000000000000064e-01 1.267735000000000112e-01 3.432054999999999723e+01 1.292624999999999886e+02 2.071930000000000291e+03
1.020000000000000073e-01 1.267820000000000058e-01 3.386695000000000277e+01 1.290840000000000032e+02 2.072039999999999964e+03
1.030000000000000082e-01 1.267834999999999934e-01 3.330440000000000111e+01 1.286465000000000032e+02 2.072064999999999600e+03
1.040000000000000091e-01 1.267775000000000152e-01 3.264549999999999841e+01 1.279824999999999875e+02 2.072005000000000109e+03
1.050000000000000100e-01 1.267655000000000032e-01 3.190514999999999901e+01 1.271285000000000025e+02 2.071880000000000109e+03
1.059999999999999970e-01 1.267479999999999996e-01 3.109984999999999999e+01 1.261255000000000024e+02 2.071689999999999600e+03
1.069999999999999979e-01 1.267260000000000053e-01 3.024694999999999823e+01 1.250140000000000100e+02 2.071449999999999818e+03
1.079999999999999988e-01 1.267010000000000081e-01 2.936415000000000219e+01 1.238344999999999914e+02 2.071164999999999964e+03
1.089999999999999997e-01 1.266734999999999944e-01 2.846819999999999951e+01 1.226254999999999882e+02 2.070860000000000127e+03
1.100000000000000006e-01 1.266444999999999932e-01 2.757499999999999929e+01 1.214209999999999923e+02 2.070529999999999745e+03
1.110000000000000014e-01 1.266145000000000187e-01 2.669849999999999923e+01 1.202489999999999952e+02 2.070194999999999709e+03
1.120000000000000023e-01 1.265855000000000175e-01 2.585040000000000049e+01 1.191345000000000027e+02 2.069860000000000127e+03
1.130000000000000032e-01 1.265570000000000028e-01 2.503969999999999985e+01 1.180925000000000011e+02 2.069534999999999854e+03
1.140000000000000041e-01 1.265295000000000170e-01 2.427270000000000039e+01 1.171324999999999932e+02 2.069220000000000255e+03
1.150000000000000050e-01 1.265040000000000053e-01 2.355259999999999820e+01 1.162579999999999956e+02 2.068929999999999836e+03
1.160000000000000059e-01 1.264794999999999947e-01 2.287975000000000136e+01 1.154629999999999939e+02 2.068650000000000091e+03
1.170000000000000068e-01 1.264575000000000005e-01 2.225164999999999793e+01 1.147385000000000019e+02 2.068394999999999982e+03
1.180000000000000077e-01 1.264365000000000072e-01 2.166349999999999909e+01 1.140685000000000002e+02 2.068154999999999745e+03
1.190000000000000085e-01 1.264170000000000016e-01 2.110840000000000316e+01 1.134325000000000045e+02 2.067925000000000182e+03
1.200000000000000094e-01 1.263980000000000103e-01 2.057775000000000176e+01 1.128089999999999975e+02 2.067710000000000036e+03
1.209999999999999964e-01 1.263795000000000057e-01 2.006204999999999927e+01 1.121724999999999994e+02 2.067494999999999891e+03
1.219999999999999973e-01 1.263610000000000011e-01 1.955120000000000147e+01 1.114995000000000118e+02 2.067275000000000091e+03
1.229999999999999982e-01 1.263410000000000089e-01 1.903539999999999921e+01 1.107669999999999959e+02 2.067055000000000291e+03
1.239999999999999991e-01 1.263205000000000022e-01 1.850529999999999831e+01 1.099530000000000030e+02 2.066809999999999945e+03
1.250000000000000000e-01 1.262969999999999926e-01 1.795289999999999964e+01 1.090430000000000064e+02 2.066545000000000073e+03
1.260000000000000009e-01 1.262719999999999954e-01 1.737194999999999823e+01 1.080229999999999961e+02 2.066260000000000218e+03
1.270000000000000018e-01 1.262435000000000085e-01 1.675805000000000078e+01 1.068875000000000028e+02 2.065944999999999709e+03
1.280000000000000027e-01 1.262130000000000196e-01 1.610934999999999917e+01 1.056355000000000075e+02 2.065595000000000255e+03
1.290000000000000036e-01 1.261789999999999856e-01 1.542624999999999957e+01 1.042740000000000009e+02 2.065210000000000036e+03
1.300000000000000044e-01 1.261430000000000051e-01 1.471184999999999832e+01 1.028130500000000040e+02 2.064800000000000182e+03
1.310000000000000053e-01 1.261045000000000083e-01 1.397139999999999915e+01 1.012710999999999899e+02 2.064359999999999673e+03
1.320000000000000062e-01 1.260630000000000084e-01 1.321240000000000059e+01 9.966965000000000430e+01 2.063900000000000091e+03
1.330000000000000071e-01 1.260205000000000075e-01 1.244384999999999941e+01 9.803489999999999327e+01 2.063420000000000073e+03
1.340000000000000080e-01 1.259770000000000056e-01 1.167624999999999957e+01 9.639430000000000121e+01 2.062930000000000291e+03
1.350000000000000089e-01 1.259329999999999894e-01 1.092072500000000090e+01 9.477719999999999345e+01 2.062435000000000400e+03
1.360000000000000098e-01 1.258894999999999875e-01 1.018873499999999943e+01 9.321224999999999739e+01 2.061940000000000055e+03
1.370000000000000107e-01 1.258475000000000010e-01 9.491229999999999833e+00 9.172655000000000314e+01 2.061460000000000036e+03
1.380000000000000115e-01 1.258064999999999878e-01 8.838474999999998971e+00 9.034420000000000073e+01 2.061000000000000000e+03
1.390000000000000124e-01 1.257679999999999909e-01 8.239409999999999457e+00 8.908554999999999779e+01 2.060565000000000055e+03
1.400000000000000133e-01 1.257329999999999837e-01 7.701279999999999681e+00 8.796635000000000559e+01 2.060164999999999964e+03
1.410000000000000142e-01 1.257010000000000072e-01 7.229530000000000456e+00 8.699715000000000487e+01 2.059795000000000073e+03
1.420000000000000151e-01 1.256729999999999792e-01 6.827519999999999811e+00 8.618340000000000600e+01 2.059474999999999909e+03
1.430000000000000160e-01 1.256484999999999963e-01 6.496539999999999537e+00 8.552545000000000641e+01 2.059190000000000055e+03
1.440000000000000169e-01 1.256280000000000174e-01 6.235854999999999926e+00 8.501865000000000805e+01 2.058960000000000036e+03
1.450000000000000178e-01 1.256114999999999871e-01 6.042819999999999858e+00 8.465434999999999377e+01 2.058765000000000327e+03
1.459999999999999909e-01 1.255985000000000018e-01 5.913149999999999906e+00 8.442019999999999413e+01 2.058614999999999782e+03
1.469999999999999918e-01 1.255890000000000062e-01 5.841145000000000032e+00 8.430105000000000359e+01 2.058500000000000000e+03
1.479999999999999927e-01 1.255830000000000002e-01 5.820005000000000095e+00 8.427984999999999616e+01 2.058425000000000182e+03
1.489999999999999936e-01 1.255789999999999962e-01 5.842154999999999987e+00 8.433840000000000714e+01 2.058380000000000109e+03
1.499999999999999944e-01 1.255779999999999952e-01 5.899560000000000137e+00 8.445815000000000339e+01 2.058359999999999673e+03
1.509999999999999953e-01 1.255784999999999818e-01 5.984074999999999811e+00 8.462080000000000268e+01 2.058359999999999673e+03
1.519999999999999962e-01 1.255804999999999838e-01 6.087664999999999438e+00 8.480920000000000414e+01 2.058380000000000109e+03
1.529999999999999971e-01 1.255835000000000146e-01 6.202735000000000554e+00 8.500759999999999650e+01 2.058409999999999854e+03
1.539999999999999980e-01 1.255870000000000042e-01 6.322345000000000326e+00 8.520230000000000814e+01 2.058444999999999709e+03
1.549999999999999989e-01 1.255910000000000082e-01 6.440364999999999895e+00 8.538169999999999504e+01 2.058484999999999673e+03
1.559999999999999998e-01 1.255944999999999978e-01 6.551660000000000039e+00 8.553695000000000448e+01 2.058525000000000091e+03
1.570000000000000007e-01 1.255975000000000008e-01 6.652169999999999916e+00 8.566159999999999286e+01 2.058560000000000400e+03
1.580000000000000016e-01 1.255999999999999894e-01 6.738965000000000316e+00 8.575180000000000291e+01 2.058590000000000146e+03
1.590000000000000024e-01 1.256019999999999914e-01 6.810240000000000293e+00 8.580644999999999811e+01 2.058614999999999782e+03
