# t [s], A [cm^2], U [cm/s], P [cPa], c [cm/s]
1.000000000000000021e-03 1.220209999999999906e-01 5.720752499999999241e-01 8.983830000000000382e+01 1.969744999999999891e+03
2.000000000000000042e-03 1.219820000000000071e-01 2.315595999999999766e+00 8.591904999999999859e+01 1.969210000000000036e+03
3.000000000000000062e-03 1.218829999999999913e-01 4.341729700000000136e+00 8.103379999999999939e+01 1.967904999999999973e+03
4.000000000000000083e-03 1.217545000000000016e-01 6.570029999999999148e+00 7.636109999999999332e+01 1.966220000000000027e+03
5.000000000000000104e-03 1.216209999999999930e-01 8.887070000000001357e+00 7.265674999999998818e+01 1.964485000000000127e+03
6.000000000000000125e-03 1.214949999999999919e-01 1.105486499999999950e+01 6.979089999999999350e+01 1.962860000000000127e+03
7.000000000000000146e-03 1.213764999999999983e-01 1.290359499999999926e+01 6.730629999999999313e+01 1.961375000000000000e+03
8.000000000000000167e-03 1.212695000000000023e-01 1.444681000000000104e+01 6.509610000000000696e+01 1.960039999999999964e+03
9.000000000000001055e-03 1.211770000000000069e-01 1.574129999999999896e+01 6.326699999999999591e+01 1.958900000000000091e+03
1.000000000000000194e-02 1.210979999999999834e-01 1.680049999999999955e+01 6.179734999999999445e+01 1.957950000000000045e+03
1.099999999999999936e-02 1.210330000000000017e-01 1.763595000000000113e+01 6.060394999999999754e+01 1.957160000000000082e+03
1.200000000000000025e-02 1.209795000000000037e-01 1.826565000000000083e+01 5.962500000000000000e+01 1.956535000000000082e+03
1.300000000000000114e-02 1.209350000000000008e-01 1.870210000000000150e+01 5.878164999999999907e+01 1.956014999999999873e+03
1.400000000000000203e-02 1.208980000000000055e-01 1.898745000000000260e+01 5.804169999999999874e+01 1.955590000000000146e+03
1.499999999999999944e-02 1.208685000000000037e-01 1.923575000000000301e+01 5.757039999999999935e+01 1.955259999999999991e+03
1.600000000000000033e-02 1.208530000000000021e-01 1.960770000000000124e+01 5.773340000000000316e+01 1.955095000000000027e+03
1.700000000000000122e-02 1.208589999999999942e-01 2.022354999999999947e+01 5.887729999999999819e+01 1.955175000000000182e+03
1.800000000000000211e-02 1.208894999999999970e-01 2.108399999999999963e+01 6.105624999999999858e+01 1.955554999999999836e+03
1.900000000000000300e-02 1.209425000000000083e-01 2.205599999999999739e+01 6.391405000000000314e+01 1.956204999999999927e+03
2.000000000000000042e-02 1.210080000000000044e-01 2.292569999999999908e+01 6.679025000000000034e+01 1.957005000000000109e+03
2.100000000000000130e-02 1.210719999999999991e-01 2.348395000000000010e+01 6.897209999999999752e+01 1.957799999999999955e+03
2.200000000000000219e-02 1.211205000000000059e-01 2.360179999999999723e+01 6.995615000000000805e+01 1.958414999999999964e+03
2.299999999999999961e-02 1.211450000000000027e-01 2.326684999999999803e+01 6.960755000000000337e+01 1.958735000000000127e+03
2.400000000000000050e-02 1.211425000000000002e-01 2.257314999999999827e+01 6.816595000000000937e+01 1.958744999999999891e+03
2.500000000000000139e-02 1.211190000000000044e-01 2.167439999999999856e+01 6.611500000000000909e+01 1.958480000000000018e+03
2.600000000000000228e-02 1.210829999999999962e-01 2.072520000000000095e+01 6.398529999999999518e+01 1.958054999999999836e+03
2.700000000000000316e-02 1.210434999999999983e-01 1.983364999999999867e+01 6.217674999999999841e+01 1.957579999999999927e+03
2.800000000000000058e-02 1.210070000000000034e-01 1.904115000000000180e+01 6.086159999999999570e+01 1.957140000000000100e+03
2.900000000000000147e-02 1.209775000000000017e-01 1.832905000000000229e+01 5.998660000000000281e+01 1.956775000000000091e+03
3.000000000000000236e-02 1.209530000000000050e-01 1.764549999999999841e+01 5.935155000000000314e+01 1.956474999999999909e+03
3.099999999999999978e-02 1.209314999999999973e-01 1.693755000000000166e+01 5.872205000000000297e+01 1.956215000000000146e+03
3.200000000000000067e-02 1.209095000000000031e-01 1.617879999999999896e+01 5.793254999999999910e+01 1.955944999999999936e+03
3.300000000000000155e-02 1.208839999999999915e-01 1.538444999999999929e+01 5.695134999999999792e+01 1.955639999999999873e+03
3.400000000000000244e-02 1.208565000000000056e-01 1.460979999999999990e+01 5.589140000000000441e+01 1.955304999999999836e+03
3.500000000000000333e-02 1.208289999999999920e-01 1.393539999999999957e+01 5.497095000000000198e+01 1.954974999999999909e+03
3.600000000000000422e-02 1.208069999999999977e-01 1.344299999999999962e+01 5.443939999999999912e+01 1.954700000000000045e+03
3.700000000000000511e-02 1.207944999999999991e-01 1.319059999999999988e+01 5.449414999999999765e+01 1.954539999999999964e+03
3.799999999999999906e-02 1.207960000000000006e-01 1.319415000000000049e+01 5.521399999999999864e+01 1.954545000000000073e+03
3.899999999999999994e-02 1.208120000000000027e-01 1.341990000000000016e+01 5.652719999999999345e+01 1.954730000000000018e+03
4.000000000000000083e-02 1.208410000000000040e-01 1.378930000000000078e+01 5.821994999999999720e+01 1.955065000000000055e+03
4.100000000000000172e-02 1.208779999999999993e-01 1.419330000000000069e+01 5.997910000000000252e+01 1.955505000000000109e+03
4.200000000000000261e-02 1.209165000000000101e-01 1.451194999999999879e+01 6.145425000000000182e+01 1.955970000000000027e+03
4.300000000000000350e-02 1.209494999999999876e-01 1.463339999999999996e+01 6.232139999999999702e+01 1.956365000000000009e+03
4.400000000000000439e-02 1.209679999999999922e-01 1.447015000000000029e+01 6.233570000000000277e+01 1.956590000000000146e+03
4.499999999999999833e-02 1.209675000000000056e-01 1.396829999999999927e+01 6.136190000000000566e+01 1.956595000000000027e+03
4.599999999999999922e-02 1.209439999999999960e-01 1.311040000000000028e+01 5.938179999999999836e+01 1.956319999999999936e+03
4.700000000000000011e-02 1.208974999999999911e-01 1.191273999999999944e+01 5.648170000000000357e+01 1.955759999999999991e+03
4.800000000000000100e-02 1.208279999999999910e-01 1.041902999999999935e+01 5.282600000000000051e+01 1.954920000000000073e+03
4.900000000000000189e-02 1.207384999999999986e-01 8.691974999999999341e+00 4.862584999999999980e+01 1.953840000000000146e+03
5.000000000000000278e-02 1.206334999999999907e-01 6.805760000000000254e+00 4.411045000000000016e+01 1.952579999999999927e+03
5.100000000000000366e-02 1.205190000000000150e-01 4.839578000000000380e+00 3.950450000000000017e+01 1.951184999999999945e+03
5.200000000000000455e-02 1.203990000000000060e-01 2.873179999999999623e+00 3.501539999999999964e+01 1.949730000000000018e+03
5.300000000000000544e-02 1.202789999999999970e-01 9.843399999999999928e-01 3.082760000000000034e+01 1.948275000000000091e+03
5.399999999999999939e-02 1.201644999999999935e-01 -7.527300000000001212e-01 2.710289999999999822e+01 1.946875000000000000e+03
5.500000000000000028e-02 1.200589999999999991e-01 -2.268384999999999874e+00 2.398294999999999888e+01 1.945594999999999800e+03
5.600000000000000117e-02 1.199679999999999913e-01 -3.498747499999999899e+00 2.159110000000000085e+01 1.944474999999999909e+03
5.700000000000000205e-02 1.198940000000000006e-01 -4.387304999999999566e+00 2.003280000000000172e+01 1.943570000000000164e+03
5.800000000000000294e-02 1.198410000000000031e-01 -4.887119999999999465e+00 1.939264999999999972e+01 1.942909999999999854e+03
5.900000000000000383e-02 1.198114999999999875e-01 -4.963395000000000223e+00 1.973004999999999853e+01 1.942529999999999973e+03
6.000000000000000472e-02 1.198069999999999968e-01 -4.595874999999999488e+00 2.107310000000000016e+01 1.942454999999999927e+03
6.099999999999999867e-02 1.198300000000000060e-01 -3.780815000000000481e+00 2.341389999999999816e+01 1.942700000000000045e+03
6.199999999999999956e-02 1.198790000000000133e-01 -2.531849499999999864e+00 2.670530000000000115e+01 1.943269999999999982e+03
6.300000000000000044e-02 1.199535000000000046e-01 -8.796149999999998137e-01 3.086184999999999690e+01 1.944150000000000091e+03
6.400000000000000133e-02 1.200525000000000064e-01 1.129985000000000017e+00 3.576399999999999579e+01 1.945329999999999927e+03
6.500000000000000222e-02 1.201735000000000025e-01 3.438724999999999810e+00 4.126550000000000296e+01 1.946769999999999982e+03
6.600000000000000311e-02 1.203124999999999889e-01 5.979757000000000211e+00 4.720380000000000109e+01 1.948434999999999945e+03
6.700000000000000400e-02 1.204649999999999888e-01 8.681779999999999831e+00 5.341100000000000136e+01 1.950284999999999854e+03
6.800000000000000488e-02 1.206274999999999986e-01 1.147291500000000042e+01 5.972415000000000163e+01 1.952255000000000109e+03
6.900000000000000577e-02 1.207965000000000011e-01 1.428448000000000029e+01 6.599470000000000880e+01 1.954315000000000055e+03
7.000000000000000666e-02 1.209669999999999912e-01 1.705389999999999873e+01 7.209499999999999886e+01 1.956400000000000091e+03
7.100000000000000755e-02 1.211359999999999937e-01 1.972700000000000031e+01 7.792304999999998927e+01 1.958474999999999909e+03
7.200000000000000844e-02 1.213000000000000050e-01 2.225975000000000037e+01 8.340485000000001037e+01 1.960509999999999991e+03
7.300000000000000933e-02 1.214580000000000104e-01 2.461954999999999671e+01 8.849520000000001119e+01 1.962460000000000036e+03
7.399999999999999634e-02 1.216069999999999929e-01 2.678544999999999732e+01 9.317715000000001169e+01 1.964315000000000055e+03
7.499999999999999722e-02 1.217469999999999941e-01 2.874859999999999971e+01 9.746059999999999945e+01 1.966065000000000055e+03
7.599999999999999811e-02 1.218774999999999997e-01 3.051174999999999926e+01 1.013799999999999955e+02 1.967694999999999936e+03
7.699999999999999900e-02 1.219989999999999963e-01 3.208809999999999718e+01 1.049890000000000043e+02 1.969224999999999909e+03
7.799999999999999989e-02 1.221124999999999849e-01 3.349989999999999668e+01 1.083594999999999970e+02 1.970660000000000082e+03
7.900000000000000078e-02 1.222199999999999953e-01 3.477609999999999957e+01 1.115725000000000051e+02 1.972014999999999873e+03
8.000000000000000167e-02 1.223229999999999873e-01 3.595049999999999812e+01 1.147144999999999868e+02 1.973320000000000164e+03
8.100000000000000255e-02 1.224230000000000040e-01 3.705819999999999936e+01 1.178704999999999927e+02 1.974585000000000036e+03
8.200000000000000344e-02 1.225225000000000064e-01 3.813365000000000293e+01 1.211169999999999902e+02 1.975849999999999909e+03
8.300000000000000433e-02 1.226234999999999964e-01 3.920735000000000525e+01 1.245169999999999959e+02 1.977125000000000000e+03
8.400000000000000522e-02 1.227274999999999894e-01 4.030424999999999613e+01 1.281154999999999973e+02 1.978440000000000055e+03
8.500000000000000611e-02 1.228360000000000007e-01 4.144160000000000110e+01 1.319360000000000070e+02 1.979809999999999945e+03
8.600000000000000699e-02 1.229490000000000027e-01 4.262784999999999513e+01 1.359784999999999968e+02 1.981240000000000009e+03
8.700000000000000788e-02 1.230674999999999963e-01 4.386244999999999550e+01 1.402199999999999989e+02 1.982730000000000018e+03
8.800000000000000877e-02 1.231905000000000083e-01 4.513595000000000113e+01 1.446170000000000186e+02 1.984289999999999964e+03
8.899999999999999578e-02 1.233169999999999961e-01 4.643104999999999905e+01 1.491084999999999923e+02 1.985889999999999873e+03
8.999999999999999667e-02 1.234460000000000002e-01 4.772390000000000043e+01 1.536195000000000164e+02 1.987525000000000091e+03
9.099999999999999756e-02 1.235759999999999914e-01 4.898590000000000089e+01 1.580674999999999955e+02 1.989170000000000073e+03
9.199999999999999845e-02 1.237049999999999955e-01 5.018560000000000088e+01 1.623670000000000186e+02 1.990805000000000064e+03
9.299999999999999933e-02 1.238295000000000090e-01 5.129085000000000605e+01 1.664340000000000259e+02 1.992400000000000091e+03
9.400000000000000022e-02 1.239490000000000036e-01 5.227084999999999582e+01 1.701920000000000073e+02 1.993920000000000073e+03
9.500000000000000111e-02 1.240610000000000046e-01 5.309740000000000038e+01 1.735754999999999768e+02 1.995349999999999909e+03
9.600000000000000200e-02 1.241634999999999961e-01 5.374689999999999657e+01 1.765310000000000059e+02 1.996670000000000073e+03
9.700000000000000289e-02 1.242550000000000043e-01 5.420125000000000171e+01 1.790215000000000032e+02 1.997849999999999909e+03
9.800000000000000377e-02 1.243350000000000011e-01 5.444854999999999734e+01 1.810255000000000223e+02 1.998880000000000109e+03
9.900000000000000466e-02 1.244019999999999987e-01 5.448359999999999559e+01 1.825384999999999991e+02 1.999750000000000000e+03
1.000000000000000056e-01 1.244560000000000111e-01 5.430809999999999604e+01 1.835720000000000027e+02 2.000454999999999927e+03
1.010000000000000064e-01 1.244969999999999966e-01 5.393014999999999759e+01 1.841505000000000223e+02 2.000994999999999891e+03
1.020000000000000073e-01 1.245254999999999973e-01 5.336400000000000432e+01 1.843135000000000048e+02 2.001380000000000109e+03
1.030000000000000082e-01 1.245425000000000004e-01 5.262910000000000110e+01 1.841090000000000089e+02 2.001615000000000009e+03
1.040000000000000091e-01 1.245484999999999925e-01 5.174895000000000067e+01 1.835925000000000011e+02 2.001710000000000036e+03
1.050000000000000100e-01 1.245455000000000034e-01 5.075055000000000405e+01 1.828259999999999934e+02 2.001684999999999945e+03
1.059999999999999970e-01 1.245344999999999924e-01 4.966239999999999810e+01 1.818729999999999905e+02 2.001559999999999945e+03
1.069999999999999979e-01 1.245175000000000032e-01 4.851415000000000077e+01 1.807969999999999970e+02 2.001349999999999909e+03
1.079999999999999988e-01 1.244959999999999956e-01 4.733455000000000013e+01 1.796585000000000036e+02 2.001085000000000036e+03
1.089999999999999997e-01 1.244714999999999849e-01 4.615095000000000169e+01 1.785130000000000052e+02 2.000775000000000091e+03
1.100000000000000006e-01 1.244450000000000001e-01 4.498794999999999789e+01 1.774095000000000084e+02 2.000444999999999936e+03
1.110000000000000014e-01 1.244185000000000013e-01 4.386664999999999992e+01 1.763859999999999957e+02 2.000110000000000127e+03
1.120000000000000023e-01 1.243930000000000036e-01 4.280400000000000205e+01 1.754739999999999895e+02 1.999780000000000200e+03
1.130000000000000032e-01 1.243695000000000078e-01 4.181224999999999881e+01 1.746910000000000025e+02 1.999480000000000018e+03
1.140000000000000041e-01 1.243479999999999863e-01 4.089879999999999427e+01 1.740455000000000041e+02 1.999204999999999927e+03
1.150000000000000050e-01 1.243299999999999961e-01 4.006620000000000203e+01 1.735364999999999895e+02 1.998970000000000027e+03
1.160000000000000059e-01 1.243139999999999940e-01 3.931244999999999834e+01 1.731510000000000105e+02 1.998759999999999991e+03
1.170000000000000068e-01 1.243020000000000097e-01 3.863105000000000189e+01 1.728684999999999832e+02 1.998595000000000027e+03
1.180000000000000077e-01 1.242914999999999992e-01 3.801219999999999999e+01 1.726624999999999943e+02 1.998460000000000036e+03
1.190000000000000085e-01 1.242835000000000051e-01 3.744299999999999784e+01 1.724989999999999952e+02 1.998344999999999800e+03
1.200000000000000094e-01 1.242759999999999976e-01 3.690850000000000364e+01 1.723429999999999893e+02 1.998250000000000000e+03
1.209999999999999964e-01 1.242699999999999916e-01 3.639260000000000161e+01 1.721580000000000155e+02 1.998154999999999973e+03
1.219999999999999973e-01 1.242619999999999975e-01 3.587879999999999825e+01 1.719064999999999941e+02 1.998059999999999945e+03
1.229999999999999982e-01 1.242534999999999890e-01 3.535134999999999650e+01 1.715564999999999998e+02 1.997945000000000164e+03
1.239999999999999991e-01 1.242420000000000052e-01 3.479574999999999818e+01 1.710774999999999864e+02 1.997799999999999955e+03
1.250000000000000000e-01 1.242284999999999917e-01 3.419975000000000165e+01 1.704470000000000027e+02 1.997619999999999891e+03
1.260000000000000009e-01 1.242105000000000015e-01 3.355375000000000085e+01 1.696494999999999891e+02 1.997389999999999873e+03
1.270000000000000018e-01 1.241890000000000077e-01 3.285134999999999650e+01 1.686754999999999995e+02 1.997110000000000127e+03
1.280000000000000027e-01 1.241625000000000090e-01 3.208964999999999890e+01 1.675264999999999986e+02 1.996775000000000091e+03
1.290000000000000036e-01 1.241315000000000057e-01 3.126944999999999908e+01 1.662099999999999795e+02 1.996384999999999991e+03
1.300000000000000044e-01 1.240959999999999841e-01 3.039495000000000147e+01 1.647425000000000068e+02 1.995934999999999945e+03
1.310000000000000053e-01 1.240570000000000006e-01 2.947394999999999854e+01 1.631465000000000032e+02 1.995434999999999945e+03
1.320000000000000062e-01 1.240134999999999987e-01 2.851684999999999803e+01 1.614530000000000030e+02 1.994889999999999873e+03
1.330000000000000071e-01 1.239679999999999949e-01 2.753679999999999950e+01 1.596949999999999932e+02 1.994309999999999945e+03
1.340000000000000080e-01 1.239200000000000024e-01 2.654845000000000255e+01 1.579099999999999966e+02 1.993704999999999927e+03
1.350000000000000089e-01 1.238705000000000084e-01 2.556770000000000209e+01 1.561359999999999957e+02 1.993079999999999927e+03
1.360000000000000098e-01 1.238220000000000154e-01 2.461064999999999969e+01 1.544110000000000014e+02 1.992454999999999927e+03
1.370000000000000107e-01 1.237729999999999941e-01 2.369310000000000116e+01 1.527710000000000150e+02 1.991845000000000027e+03
1.380000000000000115e-01 1.237264999999999893e-01 2.282954999999999757e+01 1.512485000000000070e+02 1.991244999999999891e+03
1.390000000000000124e-01 1.236825000000000008e-01 2.203280000000000172e+01 1.498695000000000164e+02 1.990684999999999945e+03
1.400000000000000133e-01 1.236420000000000019e-01 2.131349999999999767e+01 1.486564999999999941e+02 1.990164999999999964e+03
1.410000000000000142e-01 1.236055000000000070e-01 2.067949999999999733e+01 1.476234999999999786e+02 1.989695000000000164e+03
1.420000000000000151e-01 1.235730000000000023e-01 2.013569999999999993e+01 1.467789999999999964e+02 1.989279999999999973e+03
1.430000000000000160e-01 1.235455000000000025e-01 1.968410000000000082e+01 1.461229999999999905e+02 1.988924999999999955e+03
1.440000000000000169e-01 1.235229999999999939e-01 1.932365000000000066e+01 1.456499999999999773e+02 1.988634999999999991e+03
1.450000000000000178e-01 1.235055000000000042e-01 1.905035000000000167e+01 1.453469999999999800e+02 1.988404999999999973e+03
1.459999999999999909e-01 1.234920000000000045e-01 1.885784999999999911e+01 1.451979999999999791e+02 1.988230000000000018e+03
1.469999999999999918e-01 1.234834999999999960e-01 1.873760000000000048e+01 1.451814999999999998e+02 1.988109999999999900e+03
1.479999999999999927e-01 1.234780000000000044e-01 1.867929999999999779e+01 1.452725000000000080e+02 1.988039999999999964e+03
1.489999999999999936e-01 1.234765000000000029e-01 1.867145000000000010e+01 1.454454999999999814e+02 1.988009999999999991e+03
1.499999999999999944e-01 1.234774999999999900e-01 1.870199999999999818e+01 1.456730000000000018e+02 1.988014999999999873e+03
1.509999999999999953e-01 1.234800000000000064e-01 1.875854999999999961e+01 1.459290000000000020e+02 1.988045000000000073e+03
1.519999999999999962e-01 1.234840000000000104e-01 1.882920000000000016e+01 1.461889999999999930e+02 1.988090000000000146e+03
1.529999999999999971e-01 1.234889999999999877e-01 1.890265000000000128e+01 1.464300000000000068e+02 1.988144999999999982e+03
1.539999999999999980e-01 1.234935000000000060e-01 1.896884999999999977e+01 1.466340000000000146e+02 1.988200000000000045e+03
1.549999999999999989e-01 1.234979999999999967e-01 1.901895000000000024e+01 1.467839999999999918e+02 1.988250000000000000e+03
1.559999999999999998e-01 1.235009999999999997e-01 1.904609999999999914e+01 1.468695000000000164e+02 1.988289999999999964e+03
1.570000000000000007e-01 1.235025000000000012e-01 1.904480000000000217e+01 1.468820000000000050e+02 1.988309999999999945e+03
1.580000000000000016e-01 1.235030000000000017e-01 1.901174999999999926e+01 1.468185000000000002e+02 1.988319999999999936e+03
1.590000000000000024e-01 1.235015000000000002e-01 1.894534999999999769e+01 1.466790000000000020e+02 1.988295000000000073e+03
