# t [s], A [cm^2], U [cm/s], P [cPa], c [cm/s]
1.000000000000000021e-03 4.593774999999999942e-01 8.820499999999953378e-04 9.558400000000000318e+01 1.564539999999999964e+03
2.000000000000000042e-03 4.593770000000000353e-01 1.605759999999999826e-02 9.557175000000000864e+01 1.564534999999999854e+03
3.000000000000000062e-03 4.594340000000000090e-01 1.558712500000000167e-01 9.571620000000000061e+01 1.564570000000000164e+03
4.000000000000000083e-03 4.594544999999999879e-01 2.159234999999999904e-01 9.578985000000000127e+01 1.564595000000000027e+03
5.000000000000000104e-03 4.594145000000000589e-01 1.303739999999999899e-01 9.563419999999999277e+01 1.564565000000000055e+03
6.000000000000000125e-03 4.593610000000000193e-01 -3.549999999999942091e-04 9.532355000000001155e+01 1.564490000000000009e+03
7.000000000000000146e-03 4.592904999999999904e-01 -1.802599999999999758e-01 9.486740000000000350e+01 1.564385000000000218e+03
8.000000000000000167e-03 4.591649999999999343e-01 -5.053549999999998876e-01 9.413759999999999195e+01 1.564210000000000036e+03
9.000000000000001055e-03 4.589769999999999683e-01 -9.903899999999998816e-01 9.306215000000000259e+01 1.563940000000000055e+03
1.000000000000000194e-02 4.587195000000000022e-01 -1.632359999999999811e+00 9.159664999999999679e+01 1.563570000000000164e+03
1.099999999999999936e-02 4.583789999999999809e-01 -2.444574999999999942e+00 8.968125000000000568e+01 1.563075000000000045e+03
1.200000000000000025e-02 4.579634999999999678e-01 -3.380184999999999995e+00 8.732849999999999113e+01 1.562454999999999927e+03
1.300000000000000114e-02 4.575204999999999966e-01 -4.288420000000000343e+00 8.470735000000000525e+01 1.561735000000000127e+03
1.400000000000000203e-02 4.571155000000000079e-01 -4.971512999999999849e+00 8.210490000000000066e+01 1.560994999999999891e+03
1.499999999999999944e-02 4.567965000000000497e-01 -5.281424499999999966e+00 7.980125000000001023e+01 1.560299999999999955e+03
1.600000000000000033e-02 4.565744999999999942e-01 -5.177380000000000315e+00 7.795924999999999727e+01 1.559690000000000055e+03
1.700000000000000122e-02 4.564245000000000108e-01 -4.725189999999999557e+00 7.658199999999999363e+01 1.559180000000000064e+03
1.800000000000000211e-02 4.563039999999999874e-01 -4.056944999999999801e+00 7.553735000000000355e+01 1.558759999999999991e+03
1.900000000000000300e-02 4.561695000000000055e-01 -3.316300000000000026e+00 7.462324999999999875e+01 1.558375000000000000e+03
2.000000000000000042e-02 4.559914999999999941e-01 -2.609804200000000129e+00 7.364685000000000059e+01 1.557994999999999891e+03
2.100000000000000130e-02 4.557605000000000128e-01 -1.980830000000000091e+00 7.248629999999999995e+01 1.557575000000000045e+03
2.200000000000000219e-02 4.554884999999999629e-01 -1.414230000000000098e+00 7.111324999999999363e+01 1.557110000000000127e+03
2.299999999999999961e-02 4.551955000000000306e-01 -8.653950000000001364e-01 6.957224999999999682e+01 1.556610000000000127e+03
2.400000000000000050e-02 4.548975000000000102e-01 -2.965800000000000658e-01 6.793465000000000487e+01 1.556079999999999927e+03
2.500000000000000139e-02 4.546000000000000041e-01 2.962250000000001826e-01 6.625120000000001141e+01 1.555529999999999973e+03
2.600000000000000228e-02 4.542960000000000331e-01 8.739349999999999064e-01 6.452219999999999800e+01 1.554960000000000036e+03
2.700000000000000316e-02 4.539649999999999519e-01 1.361769999999999925e+00 6.269030000000000058e+01 1.554360000000000127e+03
2.800000000000000058e-02 4.535834999999999728e-01 1.668320000000000025e+00 6.065525000000000233e+01 1.553710000000000036e+03
2.900000000000000147e-02 4.531299999999999772e-01 1.709515000000000562e+00 5.830375000000000085e+01 1.552980000000000018e+03
3.000000000000000236e-02 4.525925000000000642e-01 1.431240000000000290e+00 5.554524999999999579e+01 1.552154999999999973e+03
3.099999999999999978e-02 4.519699999999999829e-01 8.247249999999999304e-01 5.234385000000000332e+01 1.551210000000000036e+03
3.200000000000000067e-02 4.512795000000000556e-01 -6.889999999999929514e-02 4.873789999999999623e+01 1.550164999999999964e+03
3.300000000000000155e-02 4.505500000000000060e-01 -1.165359999999999729e+00 4.484205000000000041e+01 1.549034999999999854e+03
3.400000000000000244e-02 4.498180000000000511e-01 -2.352895000000000181e+00 4.083279999999999887e+01 1.547860000000000127e+03
3.500000000000000333e-02 4.491224999999999801e-01 -3.510874999999999524e+00 3.692260000000000275e+01 1.546690000000000055e+03
3.600000000000000422e-02 4.485010000000000385e-01 -4.526580000000000048e+00 3.333044999999999902e+01 1.545585000000000036e+03
3.700000000000000511e-02 4.479825000000000057e-01 -5.307845000000000368e+00 3.025534999999999997e+01 1.544605000000000018e+03
3.799999999999999906e-02 4.475890000000000146e-01 -5.788649500000000003e+00 2.785634999999999906e+01 1.543789999999999964e+03
3.899999999999999994e-02 4.473334999999999950e-01 -5.930225000000000080e+00 2.624215000000000231e+01 1.543180000000000064e+03
4.000000000000000083e-02 4.472209999999999797e-01 -5.716920000000000002e+00 2.546914999999999907e+01 1.542799999999999955e+03
4.100000000000000172e-02 4.472485000000000488e-01 -5.150784999999999947e+00 2.554654999999999987e+01 1.542659999999999854e+03
4.200000000000000261e-02 4.474104999999999888e-01 -4.245440000000000325e+00 2.644620000000000104e+01 1.542755000000000109e+03
4.300000000000000350e-02 4.476975000000000260e-01 -3.021410000000000373e+00 2.811325000000000074e+01 1.543085000000000036e+03
4.400000000000000439e-02 4.480975000000000374e-01 -1.503435000000000077e+00 3.047590000000000288e+01 1.543634999999999991e+03
4.499999999999999833e-02 4.485980000000000523e-01 2.800500000000001322e-01 3.345219999999999771e+01 1.544380000000000109e+03
4.599999999999999922e-02 4.491850000000000565e-01 2.296124999999999972e+00 3.695394999999999897e+01 1.545299999999999955e+03
4.700000000000000011e-02 4.498434999999999517e-01 4.506149999999999878e+00 4.088790000000000191e+01 1.546364999999999782e+03
4.800000000000000100e-02 4.505569999999999853e-01 6.865374999999999339e+00 4.515675000000000239e+01 1.547549999999999955e+03
4.900000000000000189e-02 4.513085000000000013e-01 9.323199999999999932e+00 4.965980000000000416e+01 1.548829999999999927e+03
5.000000000000000278e-02 4.520794999999999675e-01 1.182555150000000133e+01 5.429525000000000290e+01 1.550170000000000073e+03
5.100000000000000366e-02 4.528539999999999788e-01 1.431728999999999985e+01 5.896354999999999791e+01 1.551549999999999955e+03
5.200000000000000455e-02 4.536155000000000603e-01 1.674596999999999980e+01 6.357164999999999822e+01 1.552929999999999836e+03
5.300000000000000544e-02 4.543515000000000192e-01 1.906513500000000150e+01 6.803804999999999836e+01 1.554299999999999955e+03
5.399999999999999939e-02 4.550520000000000120e-01 2.123689999999999856e+01 7.229710000000000036e+01 1.555625000000000000e+03
5.500000000000000028e-02 4.557104999999999628e-01 2.323399999999999821e+01 7.630205000000000837e+01 1.556894999999999982e+03
5.600000000000000117e-02 4.563240000000000629e-01 2.504025000000000034e+01 8.002729999999999677e+01 1.558105000000000018e+03
5.700000000000000205e-02 4.568924999999999792e-01 2.665064999999999884e+01 8.346790000000000020e+01 1.559235000000000127e+03
5.800000000000000294e-02 4.574205000000000076e-01 2.807010000000000005e+01 8.663824999999999932e+01 1.560299999999999955e+03
5.900000000000000383e-02 4.579130000000000145e-01 2.931179999999999808e+01 8.956915000000000759e+01 1.561295000000000073e+03
6.000000000000000472e-02 4.583785000000000220e-01 3.039549999999999841e+01 9.230410000000000537e+01 1.562234999999999900e+03
6.099999999999999867e-02 4.588250000000000384e-01 3.134550000000000125e+01 9.489480000000000359e+01 1.563130000000000109e+03
6.199999999999999956e-02 4.592625000000000179e-01 3.218874999999999886e+01 9.739815000000000111e+01 1.563990000000000009e+03
6.300000000000000044e-02 4.596999999999999975e-01 3.295340000000000202e+01 9.986979999999999791e+01 1.564835000000000036e+03
6.400000000000000133e-02 4.601454999999999851e-01 3.366710000000000491e+01 1.023645999999999958e+02 1.565680000000000064e+03
6.500000000000000222e-02 4.606060000000000154e-01 3.435575000000000045e+01 1.049300000000000068e+02 1.566535000000000082e+03
6.600000000000000311e-02 4.610885000000000122e-01 3.504189999999999827e+01 1.076049999999999898e+02 1.567414999999999964e+03
6.700000000000000400e-02 4.615960000000000063e-01 3.574380000000000024e+01 1.104184999999999945e+02 1.568329999999999927e+03
6.800000000000000488e-02 4.621310000000000140e-01 3.647395000000000209e+01 1.133850000000000051e+02 1.569285000000000082e+03
6.900000000000000577e-02 4.626925000000000066e-01 3.723834999999999695e+01 1.165070000000000050e+02 1.570284999999999854e+03
7.000000000000000666e-02 4.632785000000000375e-01 3.803629999999999711e+01 1.197719999999999914e+02 1.571325000000000045e+03
7.100000000000000755e-02 4.638824999999999754e-01 3.885989999999999611e+01 1.231534999999999940e+02 1.572394999999999982e+03
7.200000000000000844e-02 4.644985000000000364e-01 3.969514999999999816e+01 1.266129999999999995e+02 1.573494999999999891e+03
7.300000000000000933e-02 4.651160000000000294e-01 4.052270000000000039e+01 1.301009999999999991e+02 1.574610000000000127e+03
7.399999999999999634e-02 4.657270000000000021e-01 4.131915000000000049e+01 1.335604999999999905e+02 1.575715000000000146e+03
7.499999999999999722e-02 4.663200000000000123e-01 4.205904999999999916e+01 1.369304999999999950e+02 1.576809999999999945e+03
7.599999999999999811e-02 4.668840000000000212e-01 4.271634999999999849e+01 1.401499999999999773e+02 1.577860000000000127e+03
7.699999999999999900e-02 4.674105000000000065e-01 4.326630000000000109e+01 1.431589999999999918e+02 1.578865000000000009e+03
7.799999999999999989e-02 4.678909999999999458e-01 4.368699999999999761e+01 1.459080000000000155e+02 1.579789999999999964e+03
7.900000000000000078e-02 4.683185000000000264e-01 4.396039999999999992e+01 1.483524999999999920e+02 1.580639999999999873e+03
8.000000000000000167e-02 4.686879999999999935e-01 4.407354999999999734e+01 1.504619999999999891e+02 1.581384999999999991e+03
8.100000000000000255e-02 4.689969999999999972e-01 4.401914999999999623e+01 1.522164999999999964e+02 1.582035000000000082e+03
8.200000000000000344e-02 4.692454999999999821e-01 4.379545000000000243e+01 1.536105000000000018e+02 1.582574999999999818e+03
8.300000000000000433e-02 4.694344999999999768e-01 4.340650000000000119e+01 1.546505000000000223e+02 1.583005000000000109e+03
8.400000000000000522e-02 4.695670000000000122e-01 4.286190000000000566e+01 1.553539999999999850e+02 1.583329999999999927e+03
8.500000000000000611e-02 4.696489999999999831e-01 4.217589999999999861e+01 1.557500000000000000e+02 1.583554999999999836e+03
8.600000000000000699e-02 4.696870000000000211e-01 4.136674999999999613e+01 1.558760000000000048e+02 1.583694999999999936e+03
8.700000000000000788e-02 4.696865000000000068e-01 4.045595000000000141e+01 1.557740000000000009e+02 1.583755000000000109e+03
8.800000000000000877e-02 4.696569999999999911e-01 3.946710000000000207e+01 1.554925000000000068e+02 1.583750000000000000e+03
8.899999999999999578e-02 4.696064999999999823e-01 3.842480000000000473e+01 1.550805000000000007e+02 1.583690000000000055e+03
8.999999999999999667e-02 4.695424999999999738e-01 3.735399999999999920e+01 1.545869999999999891e+02 1.583599999999999909e+03
9.099999999999999756e-02 4.694730000000000292e-01 3.627844999999999942e+01 1.540575000000000045e+02 1.583480000000000018e+03
9.199999999999999845e-02 4.694045000000000023e-01 3.521999999999999886e+01 1.535344999999999800e+02 1.583355000000000018e+03
9.299999999999999933e-02 4.693430000000000102e-01 3.419785000000000252e+01 1.530534999999999854e+02 1.583224999999999909e+03
9.400000000000000022e-02 4.692929999999999602e-01 3.322755000000000081e+01 1.526435000000000173e+02 1.583110000000000127e+03
9.500000000000000111e-02 4.692570000000000352e-01 3.232099999999999795e+01 1.523265000000000100e+02 1.583015000000000100e+03
9.600000000000000200e-02 4.692380000000000440e-01 3.148545000000000016e+01 1.521134999999999877e+02 1.582945000000000164e+03
9.700000000000000289e-02 4.692359999999999864e-01 3.072405000000000186e+01 1.520095000000000027e+02 1.582900000000000091e+03
9.800000000000000377e-02 4.692489999999999717e-01 3.003560000000000230e+01 1.520095000000000027e+02 1.582880000000000109e+03
9.900000000000000466e-02 4.692764999999999853e-01 2.941510000000000247e+01 1.521030000000000086e+02 1.582889999999999873e+03
1.000000000000000056e-01 4.693144999999999678e-01 2.885389999999999944e+01 1.522710000000000150e+02 1.582920000000000073e+03
1.010000000000000064e-01 4.693589999999999707e-01 2.834094999999999942e+01 1.524915000000000020e+02 1.582970000000000027e+03
1.020000000000000073e-01 4.694059999999999899e-01 2.786280000000000001e+01 1.527384999999999877e+02 1.583030000000000200e+03
1.030000000000000082e-01 4.694499999999999784e-01 2.740494999999999948e+01 1.529830000000000041e+02 1.583089999999999918e+03
1.040000000000000091e-01 4.694869999999999877e-01 2.695250000000000057e+01 1.531974999999999909e+02 1.583144999999999982e+03
1.050000000000000100e-01 4.695124999999999993e-01 2.649099999999999966e+01 1.533539999999999850e+02 1.583190000000000055e+03
1.059999999999999970e-01 4.695224999999999538e-01 2.600699999999999790e+01 1.534279999999999973e+02 1.583215000000000146e+03
1.069999999999999979e-01 4.695139999999999869e-01 2.548904999999999887e+01 1.533990000000000009e+02 1.583210000000000036e+03
1.079999999999999988e-01 4.694844999999999713e-01 2.492790000000000106e+01 1.532520000000000095e+02 1.583174999999999955e+03
1.089999999999999997e-01 4.694325000000000303e-01 2.431725000000000136e+01 1.529764999999999873e+02 1.583105000000000018e+03
1.100000000000000006e-01 4.693579999999999974e-01 2.365379999999999683e+01 1.525680000000000121e+02 1.583000000000000000e+03
1.110000000000000014e-01 4.692614999999999981e-01 2.293750000000000000e+01 1.520294999999999845e+02 1.582849999999999909e+03
1.120000000000000023e-01 4.691450000000000342e-01 2.217135000000000034e+01 1.513689999999999998e+02 1.582670000000000073e+03
1.130000000000000032e-01 4.690109999999999557e-01 2.136155000000000115e+01 1.506009999999999991e+02 1.582450000000000045e+03
1.140000000000000041e-01 4.688620000000000010e-01 2.051684999999999803e+01 1.497429999999999950e+02 1.582204999999999927e+03
1.150000000000000050e-01 4.687034999999999951e-01 1.964840000000000231e+01 1.488185000000000002e+02 1.581934999999999945e+03
1.160000000000000059e-01 4.685394999999999976e-01 1.876895000000000024e+01 1.478534999999999968e+02 1.581650000000000091e+03
1.170000000000000068e-01 4.683734999999999982e-01 1.789254999999999995e+01 1.468754999999999882e+02 1.581355000000000018e+03
1.180000000000000077e-01 4.682120000000000171e-01 1.703365000000000151e+01 1.459114999999999895e+02 1.581059999999999945e+03
1.190000000000000085e-01 4.680584999999999885e-01 1.620659999999999812e+01 1.449895000000000209e+02 1.580769999999999982e+03
1.200000000000000094e-01 4.679174999999999862e-01 1.542495000000000083e+01 1.441345000000000027e+02 1.580494999999999891e+03
1.209999999999999964e-01 4.677919999999999856e-01 1.470069999999999943e+01 1.433695000000000164e+02 1.580250000000000000e+03
1.219999999999999973e-01 4.676854999999999762e-01 1.404415000000000013e+01 1.427115000000000009e+02 1.580019999999999982e+03
1.229999999999999982e-01 4.676000000000000156e-01 1.346285499999999935e+01 1.421745000000000232e+02 1.579829999999999927e+03
1.239999999999999991e-01 4.675364999999999660e-01 1.296211999999999875e+01 1.417669999999999959e+02 1.579674999999999955e+03
1.250000000000000000e-01 4.674944999999999795e-01 1.254422999999999888e+01 1.414909999999999854e+02 1.579559999999999945e+03
1.260000000000000009e-01 4.674749999999999739e-01 1.220867499999999950e+01 1.413449999999999989e+02 1.579480000000000018e+03
1.270000000000000018e-01 4.674754999999999328e-01 1.195240000000000080e+01 1.413215000000000146e+02 1.579440000000000055e+03
1.280000000000000027e-01 4.674930000000000474e-01 1.176989999999999981e+01 1.414085000000000036e+02 1.579430000000000064e+03
1.290000000000000036e-01 4.675265000000000115e-01 1.165354999999999919e+01 1.415914999999999964e+02 1.579454999999999927e+03
1.300000000000000044e-01 4.675715000000000288e-01 1.159420000000000073e+01 1.418509999999999991e+02 1.579505000000000109e+03
1.310000000000000053e-01 4.676259999999999861e-01 1.158135000000000048e+01 1.421680000000000064e+02 1.579574999999999818e+03
1.320000000000000062e-01 4.676850000000000174e-01 1.160399999999999920e+01 1.425219999999999914e+02 1.579659999999999854e+03
1.330000000000000071e-01 4.677459999999999951e-01 1.165099999999999980e+01 1.428919999999999959e+02 1.579755000000000109e+03
1.340000000000000080e-01 4.678059999999999996e-01 1.171119999999999983e+01 1.432579999999999814e+02 1.579855000000000018e+03
1.350000000000000089e-01 4.678610000000000269e-01 1.177425000000000033e+01 1.436030000000000086e+02 1.579954999999999927e+03
1.360000000000000098e-01 4.679094999999999782e-01 1.183089999999999975e+01 1.439120000000000061e+02 1.580039999999999964e+03
1.370000000000000107e-01 4.679495000000000182e-01 1.187300000000000111e+01 1.441719999999999970e+02 1.580119999999999891e+03
1.380000000000000115e-01 4.679799999999999516e-01 1.189419999999999966e+01 1.443729999999999905e+02 1.580184999999999945e+03
1.390000000000000124e-01 4.679990000000000538e-01 1.188935000000000031e+01 1.445099999999999909e+02 1.580235000000000127e+03
1.400000000000000133e-01 4.680075000000000207e-01 1.185535000000000139e+01 1.445794999999999959e+02 1.580264999999999873e+03
1.410000000000000142e-01 4.680045000000000455e-01 1.179060499999999934e+01 1.445824999999999818e+02 1.580275000000000091e+03
1.420000000000000151e-01 4.679910000000000458e-01 1.169514000000000031e+01 1.445210000000000150e+02 1.580264999999999873e+03
1.430000000000000160e-01 4.679679999999999951e-01 1.157042999999999999e+01 1.444010000000000105e+02 1.580244999999999891e+03
1.440000000000000169e-01 4.679375000000000062e-01 1.141918499999999881e+01 1.442300000000000182e+02 1.580204999999999927e+03
1.450000000000000178e-01 4.678999999999999826e-01 1.124531500000000150e+01 1.440169999999999959e+02 1.580150000000000091e+03
1.459999999999999909e-01 4.678579999999999961e-01 1.105330499999999994e+01 1.437719999999999914e+02 1.580085000000000036e+03
1.469999999999999918e-01 4.678130000000000344e-01 1.084840499999999963e+01 1.435045000000000073e+02 1.580009999999999991e+03
1.479999999999999927e-01 4.677664999999999740e-01 1.063595000000000113e+01 1.432270000000000039e+02 1.579934999999999945e+03
1.489999999999999936e-01 4.677204999999999835e-01 1.042149999999999999e+01 1.429474999999999909e+02 1.579855000000000018e+03
1.499999999999999944e-01 4.676759999999999806e-01 1.021012999999999948e+01 1.426759999999999877e+02 1.579775000000000091e+03
1.509999999999999953e-01 4.676350000000000229e-01 1.000666499999999992e+01 1.424200000000000159e+02 1.579700000000000045e+03
1.519999999999999962e-01 4.675974999999999993e-01 9.815199999999999037e+00 1.421854999999999905e+02 1.579625000000000000e+03
1.529999999999999971e-01 4.675650000000000084e-01 9.638970000000000482e+00 1.419780000000000086e+02 1.579559999999999945e+03
1.539999999999999980e-01 4.675369999999999804e-01 9.480475000000000207e+00 1.417995000000000232e+02 1.579500000000000000e+03
1.549999999999999989e-01 4.675145000000000550e-01 9.341120000000000090e+00 1.416504999999999939e+02 1.579449999999999818e+03
1.559999999999999998e-01 4.674969999999999959e-01 9.221450000000000813e+00 1.415310000000000059e+02 1.579404999999999973e+03
1.570000000000000007e-01 4.674830000000000374e-01 9.121000000000000441e+00 1.414379999999999882e+02 1.579369999999999891e+03
1.580000000000000016e-01 4.674734999999999863e-01 9.038599999999998857e+00 1.413679999999999950e+02 1.579339999999999918e+03
1.590000000000000024e-01 4.674660000000000482e-01 8.972335000000001060e+00 1.413160000000000025e+02 1.579315000000000055e+03
