# t [s], A [cm^2], U [cm/s], P [cPa], c [cm/s]
1.000000000000000021e-03 1.357955000000000134e-01 2.863910000000000067e-01 9.730885000000000673e+01 1.937769999999999982e+03
2.000000000000000042e-03 1.357700000000000018e-01 1.752111500000000044e+00 9.431754999999999711e+01 1.937470000000000027e+03
3.000000000000000062e-03 1.356829999999999981e-01 3.556338999999999917e+00 9.032885000000000275e+01 1.936505000000000109e+03
4.000000000000000083e-03 1.355560000000000098e-01 5.565678500000000639e+00 8.589199999999999591e+01 1.935119999999999891e+03
5.000000000000000104e-03 1.354115000000000180e-01 7.725165000000000504e+00 8.174915000000000020e+01 1.933554999999999836e+03
6.000000000000000125e-03 1.352655000000000107e-01 9.917334999999999567e+00 7.825740000000000407e+01 1.931990000000000009e+03
7.000000000000000146e-03 1.351259999999999961e-01 1.197253000000000078e+01 7.533445000000000391e+01 1.930515000000000100e+03
8.000000000000000167e-03 1.349954999999999905e-01 1.377520499999999970e+01 7.274925000000000352e+01 1.929150000000000091e+03
9.000000000000001055e-03 1.348749999999999949e-01 1.531814999999999927e+01 7.043585000000000207e+01 1.927920000000000073e+03
1.000000000000000194e-02 1.347694999999999865e-01 1.663450000000000273e+01 6.845470000000000255e+01 1.926844999999999800e+03
1.099999999999999936e-02 1.346785000000000065e-01 1.774305000000000021e+01 6.682805000000000462e+01 1.925934999999999945e+03
1.200000000000000025e-02 1.346025000000000138e-01 1.865315000000000012e+01 6.552079999999999416e+01 1.925180000000000064e+03
1.300000000000000114e-02 1.345399999999999929e-01 1.937205000000000155e+01 6.447429999999999950e+01 1.924565000000000055e+03
1.400000000000000203e-02 1.344885000000000108e-01 1.990270000000000294e+01 6.360880000000000223e+01 1.924069999999999936e+03
1.499999999999999944e-02 1.344449999999999812e-01 2.025849999999999795e+01 6.285030000000000427e+01 1.923654999999999973e+03
1.600000000000000033e-02 1.344090000000000007e-01 2.048955000000000126e+01 6.220539999999999736e+01 1.923319999999999936e+03
1.700000000000000122e-02 1.343820000000000014e-01 2.068779999999999930e+01 6.181149999999999523e+01 1.923079999999999927e+03
1.800000000000000211e-02 1.343685000000000018e-01 2.095900000000000318e+01 6.189375000000000426e+01 1.922960000000000036e+03
1.900000000000000300e-02 1.343735000000000068e-01 2.137720000000000198e+01 6.264589999999999748e+01 1.923019999999999982e+03
2.000000000000000042e-02 1.343989999999999907e-01 2.195155000000000101e+01 6.411280000000000712e+01 1.923279999999999973e+03
2.100000000000000130e-02 1.344429999999999792e-01 2.262265000000000015e+01 6.614054999999999040e+01 1.923730000000000018e+03
2.200000000000000219e-02 1.345005000000000228e-01 2.328529999999999944e+01 6.841440000000000055e+01 1.924315000000000055e+03
2.299999999999999961e-02 1.345624999999999738e-01 2.382584999999999908e+01 7.055649999999999977e+01 1.924954999999999927e+03
2.400000000000000050e-02 1.346205000000000040e-01 2.415735000000000099e+01 7.223850000000000193e+01 1.925550000000000182e+03
2.500000000000000139e-02 1.346674999999999955e-01 2.424099999999999966e+01 7.326695000000000846e+01 1.926045000000000073e+03
2.600000000000000228e-02 1.346984999999999988e-01 2.409035000000000082e+01 7.361730000000000018e+01 1.926389999999999873e+03
2.700000000000000316e-02 1.347144999999999870e-01 2.375850000000000151e+01 7.341315000000000168e+01 1.926575000000000045e+03
2.800000000000000058e-02 1.347180000000000044e-01 2.331524999999999892e+01 7.286459999999999582e+01 1.926625000000000000e+03
2.900000000000000147e-02 1.347134999999999860e-01 2.282440000000000069e+01 7.219134999999999991e+01 1.926595000000000027e+03
3.000000000000000236e-02 1.347050000000000192e-01 2.232629999999999981e+01 7.155754999999999200e+01 1.926514999999999873e+03
3.099999999999999978e-02 1.346944999999999948e-01 2.183194999999999908e+01 7.103584999999999638e+01 1.926409999999999854e+03
3.200000000000000067e-02 1.346844999999999848e-01 2.132704999999999984e+01 7.060699999999999932e+01 1.926315000000000055e+03
3.300000000000000155e-02 1.346739999999999882e-01 2.078410000000000224e+01 7.018825000000001069e+01 1.926210000000000036e+03
3.400000000000000244e-02 1.346610000000000029e-01 2.017739999999999867e+01 6.967834999999999468e+01 1.926079999999999927e+03
3.500000000000000333e-02 1.346439999999999859e-01 1.949564999999999770e+01 6.900249999999999773e+01 1.925914999999999964e+03
3.600000000000000422e-02 1.346224999999999783e-01 1.875075000000000003e+01 6.814670000000000982e+01 1.925700000000000045e+03
3.700000000000000511e-02 1.345965000000000078e-01 1.797850000000000037e+01 6.717105000000000814e+01 1.925444999999999936e+03
3.799999999999999906e-02 1.345684999999999798e-01 1.723290000000000077e+01 6.620080000000000098e+01 1.925170000000000073e+03
3.899999999999999994e-02 1.345419999999999949e-01 1.657509999999999906e+01 6.539754999999999541e+01 1.924900000000000091e+03
4.000000000000000083e-02 1.345210000000000017e-01 1.605949999999999989e+01 6.492015000000000668e+01 1.924690000000000055e+03
4.100000000000000172e-02 1.345095000000000041e-01 1.572220000000000084e+01 6.488580000000000325e+01 1.924559999999999945e+03
4.200000000000000261e-02 1.345100000000000184e-01 1.557339999999999947e+01 6.534090000000000487e+01 1.924554999999999836e+03
4.300000000000000350e-02 1.345234999999999903e-01 1.559500000000000064e+01 6.624965000000000259e+01 1.924674999999999955e+03
4.400000000000000439e-02 1.345485000000000153e-01 1.574474999999999980e+01 6.750020000000000664e+01 1.924920000000000073e+03
4.499999999999999833e-02 1.345820000000000072e-01 1.596369999999999933e+01 6.892555000000000121e+01 1.925250000000000000e+03
4.599999999999999922e-02 1.346200000000000174e-01 1.618605000000000160e+01 7.033270000000000266e+01 1.925625000000000000e+03
4.700000000000000011e-02 1.346574999999999855e-01 1.634864999999999924e+01 7.153374999999999773e+01 1.925994999999999891e+03
4.800000000000000100e-02 1.346895000000000175e-01 1.639844999999999686e+01 7.237165000000000248e+01 1.926324999999999818e+03
4.900000000000000189e-02 1.347125000000000128e-01 1.629755000000000109e+01 7.273794999999999789e+01 1.926559999999999945e+03
5.000000000000000278e-02 1.347224999999999950e-01 1.602505000000000024e+01 7.257939999999999259e+01 1.926670000000000073e+03
5.100000000000000366e-02 1.347189999999999777e-01 1.557600000000000051e+01 7.189600000000000080e+01 1.926639999999999873e+03
5.200000000000000455e-02 1.347005000000000008e-01 1.495855000000000068e+01 7.073064999999999714e+01 1.926464999999999918e+03
5.300000000000000544e-02 1.346689999999999832e-01 1.419020000000000081e+01 6.915590000000000259e+01 1.926150000000000091e+03
5.399999999999999939e-02 1.346245000000000080e-01 1.329449999999999932e+01 6.725954999999999018e+01 1.925714999999999918e+03
5.500000000000000028e-02 1.345709999999999962e-01 1.229763499999999965e+01 6.513300000000000978e+01 1.925170000000000073e+03
5.600000000000000117e-02 1.345085000000000031e-01 1.122672000000000025e+01 6.286265000000000214e+01 1.924550000000000182e+03
5.700000000000000205e-02 1.344410000000000049e-01 1.010885000000000034e+01 6.052655000000000030e+01 1.923865000000000009e+03
5.800000000000000294e-02 1.343699999999999894e-01 8.971080000000000609e+00 5.819389999999999930e+01 1.923154999999999973e+03
5.900000000000000383e-02 1.342980000000000007e-01 7.840949999999999420e+00 5.592745000000000033e+01 1.922424999999999955e+03
6.000000000000000472e-02 1.342269999999999852e-01 6.746869999999999479e+00 5.378645000000000209e+01 1.921704999999999927e+03
6.099999999999999867e-02 1.341590000000000005e-01 5.718429999999999680e+00 5.182985000000000042e+01 1.921009999999999991e+03
6.199999999999999956e-02 1.340954999999999786e-01 4.786175000000000068e+00 5.011764999999999759e+01 1.920365000000000009e+03
6.300000000000000044e-02 1.340385000000000049e-01 3.980939999999999923e+00 4.871085000000000065e+01 1.919789999999999964e+03
6.400000000000000133e-02 1.339909999999999990e-01 3.332654999999999923e+00 4.766970000000000596e+01 1.919300000000000182e+03
6.500000000000000222e-02 1.339545000000000041e-01 2.868814999999999671e+00 4.705044999999999789e+01 1.918920000000000073e+03
6.600000000000000311e-02 1.339305000000000079e-01 2.612970000000000237e+00 4.690140000000000242e+01 1.918659999999999854e+03
6.700000000000000400e-02 1.339210000000000123e-01 2.583124999999999893e+00 4.725910000000000366e+01 1.918549999999999955e+03
6.800000000000000488e-02 1.339259999999999895e-01 2.790649999999999853e+00 4.814489999999999981e+01 1.918589999999999918e+03
6.900000000000000577e-02 1.339480000000000115e-01 3.239454999999999973e+00 4.956295000000000073e+01 1.918795000000000073e+03
7.000000000000000666e-02 1.339865000000000084e-01 3.925815000000000055e+00 5.149915000000000020e+01 1.919164999999999964e+03
7.100000000000000755e-02 1.340409999999999935e-01 4.838594999999999757e+00 5.392215000000000202e+01 1.919700000000000045e+03
7.200000000000000844e-02 1.341110000000000080e-01 5.959979999999999833e+00 5.678509999999999991e+01 1.920390000000000100e+03
7.300000000000000933e-02 1.341950000000000087e-01 7.266584999999999184e+00 6.002889999999999304e+01 1.921224999999999909e+03
7.399999999999999634e-02 1.342920000000000225e-01 8.730769999999999698e+00 6.358554999999999779e+01 1.922190000000000055e+03
7.499999999999999722e-02 1.343989999999999907e-01 1.032209500000000091e+01 6.738269999999999982e+01 1.923269999999999982e+03
7.599999999999999811e-02 1.345155000000000101e-01 1.200891999999999982e+01 7.134704999999999586e+01 1.924434999999999945e+03
7.699999999999999900e-02 1.346384999999999943e-01 1.375983500000000070e+01 7.540895000000000437e+01 1.925674999999999955e+03
7.799999999999999989e-02 1.347650000000000237e-01 1.554504999999999981e+01 7.950505000000001132e+01 1.926965000000000146e+03
7.900000000000000078e-02 1.348945000000000005e-01 1.733760000000000190e+01 8.358129999999999882e+01 1.928280000000000200e+03
8.000000000000000167e-02 1.350250000000000061e-01 1.911395000000000266e+01 8.759494999999999720e+01 1.929610000000000127e+03
8.100000000000000255e-02 1.351549999999999974e-01 2.085519999999999996e+01 9.151524999999999466e+01 1.930940000000000055e+03
8.200000000000000344e-02 1.352829999999999866e-01 2.254684999999999917e+01 9.532399999999999807e+01 1.932255000000000109e+03
8.300000000000000433e-02 1.354090000000000016e-01 2.417895000000000039e+01 9.901374999999998749e+01 1.933554999999999836e+03
8.400000000000000522e-02 1.355330000000000146e-01 2.574569999999999936e+01 1.025872999999999990e+02 1.934825000000000045e+03
8.500000000000000611e-02 1.356534999999999824e-01 2.724500000000000099e+01 1.060563500000000090e+02 1.936070000000000164e+03
8.600000000000000699e-02 1.357709999999999750e-01 2.867759999999999820e+01 1.094360000000000070e+02 1.937295000000000073e+03
8.700000000000000788e-02 1.358869999999999800e-01 3.004625000000000057e+01 1.127454999999999927e+02 1.938494999999999891e+03
8.800000000000000877e-02 1.360000000000000098e-01 3.135484999999999900e+01 1.160024999999999977e+02 1.939674999999999955e+03
8.899999999999999578e-02 1.361120000000000108e-01 3.260750000000000171e+01 1.192239999999999895e+02 1.940840000000000146e+03
8.999999999999999667e-02 1.362234999999999974e-01 3.380819999999999936e+01 1.224230000000000018e+02 1.942000000000000000e+03
9.099999999999999756e-02 1.363334999999999964e-01 3.495990000000000464e+01 1.256065000000000111e+02 1.943144999999999982e+03
9.199999999999999845e-02 1.364429999999999810e-01 3.606414999999999793e+01 1.287780000000000200e+02 1.944289999999999964e+03
9.299999999999999933e-02 1.365520000000000067e-01 3.712109999999999843e+01 1.319314999999999998e+02 1.945429999999999836e+03
9.400000000000000022e-02 1.366604999999999903e-01 3.812935000000000230e+01 1.350585000000000093e+02 1.946559999999999945e+03
9.500000000000000111e-02 1.367669999999999997e-01 3.908575000000000443e+01 1.381460000000000150e+02 1.947684999999999945e+03
9.600000000000000200e-02 1.368735000000000090e-01 3.998595000000000255e+01 1.411744999999999948e+02 1.948795000000000073e+03
9.700000000000000289e-02 1.369770000000000154e-01 4.082450000000000045e+01 1.441245000000000118e+02 1.949880000000000109e+03
9.800000000000000377e-02 1.370784999999999920e-01 4.159489999999999554e+01 1.469724999999999966e+02 1.950945000000000164e+03
9.900000000000000466e-02 1.371769999999999934e-01 4.229019999999999868e+01 1.496959999999999980e+02 1.951980000000000018e+03
1.000000000000000056e-01 1.372710000000000041e-01 4.290330000000000155e+01 1.522715000000000032e+02 1.952974999999999909e+03
1.010000000000000064e-01 1.373610000000000109e-01 4.342714999999999748e+01 1.546769999999999925e+02 1.953920000000000073e+03
1.020000000000000073e-01 1.374449999999999839e-01 4.385510000000000019e+01 1.568930000000000007e+02 1.954809999999999945e+03
1.030000000000000082e-01 1.375234999999999930e-01 4.418139999999999645e+01 1.589004999999999939e+02 1.955644999999999982e+03
1.040000000000000091e-01 1.375950000000000228e-01 4.440125000000000455e+01 1.606864999999999952e+02 1.956410000000000082e+03
1.050000000000000100e-01 1.376600000000000046e-01 4.451109999999999900e+01 1.622395000000000209e+02 1.957099999999999909e+03
1.059999999999999970e-01 1.377174999999999927e-01 4.450900000000000034e+01 1.635525000000000091e+02 1.957710000000000036e+03
1.069999999999999979e-01 1.377674999999999872e-01 4.439480000000000359e+01 1.646234999999999786e+02 1.958244999999999891e+03
1.079999999999999988e-01 1.378099999999999881e-01 4.417024999999999579e+01 1.654549999999999841e+02 1.958700000000000045e+03
1.089999999999999997e-01 1.378444999999999809e-01 4.383885000000000076e+01 1.660525000000000091e+02 1.959070000000000164e+03
1.100000000000000006e-01 1.378715000000000079e-01 4.340625000000000000e+01 1.664279999999999973e+02 1.959369999999999891e+03
1.110000000000000014e-01 1.378909999999999858e-01 4.287969999999999970e+01 1.665969999999999800e+02 1.959585000000000036e+03
1.120000000000000023e-01 1.379035000000000122e-01 4.226815000000000566e+01 1.665780000000000030e+02 1.959730000000000018e+03
1.130000000000000032e-01 1.379104999999999914e-01 4.158194999999999908e+01 1.663935000000000173e+02 1.959809999999999945e+03
1.140000000000000041e-01 1.379110000000000058e-01 4.083234999999999815e+01 1.660660000000000025e+02 1.959825000000000045e+03
1.150000000000000050e-01 1.379064999999999874e-01 4.003114999999999668e+01 1.656214999999999975e+02 1.959785000000000082e+03
1.160000000000000059e-01 1.378979999999999928e-01 3.919050000000000011e+01 1.650844999999999914e+02 1.959704999999999927e+03
1.170000000000000068e-01 1.378860000000000086e-01 3.832235000000000014e+01 1.644795000000000016e+02 1.959585000000000036e+03
1.180000000000000077e-01 1.378710000000000213e-01 3.743800000000000239e+01 1.638294999999999959e+02 1.959434999999999945e+03
1.190000000000000085e-01 1.378539999999999766e-01 3.654795000000000016e+01 1.631535000000000082e+02 1.959259999999999991e+03
1.200000000000000094e-01 1.378354999999999997e-01 3.566134999999999877e+01 1.624689999999999941e+02 1.959069999999999936e+03
1.209999999999999964e-01 1.378159999999999941e-01 3.478620000000000090e+01 1.617900000000000205e+02 1.958865000000000009e+03
1.219999999999999973e-01 1.377964999999999884e-01 3.392860000000000298e+01 1.611260000000000048e+02 1.958660000000000082e+03
1.229999999999999982e-01 1.377765000000000239e-01 3.309320000000000306e+01 1.604830000000000041e+02 1.958454999999999927e+03
1.239999999999999991e-01 1.377569999999999906e-01 3.228289999999999793e+01 1.598644999999999925e+02 1.958240000000000009e+03
1.250000000000000000e-01 1.377375000000000127e-01 3.149889999999999901e+01 1.592690000000000055e+02 1.958034999999999854e+03
1.260000000000000009e-01 1.377185000000000215e-01 3.074080000000000013e+01 1.586915000000000191e+02 1.957835000000000036e+03
1.270000000000000018e-01 1.376999999999999891e-01 3.000685000000000002e+01 1.581265000000000214e+02 1.957634999999999991e+03
1.280000000000000027e-01 1.376809999999999978e-01 2.929415000000000191e+01 1.575645000000000095e+02 1.957434999999999945e+03
1.290000000000000036e-01 1.376620000000000066e-01 2.859859999999999758e+01 1.569935000000000116e+02 1.957235000000000127e+03
1.300000000000000044e-01 1.376430000000000153e-01 2.791564999999999941e+01 1.564035000000000082e+02 1.957029999999999973e+03
1.310000000000000053e-01 1.376229999999999953e-01 2.724005000000000010e+01 1.557805000000000177e+02 1.956819999999999936e+03
1.320000000000000062e-01 1.376020000000000021e-01 2.656654999999999944e+01 1.551145000000000209e+02 1.956595000000000027e+03
1.330000000000000071e-01 1.375794999999999935e-01 2.589005000000000223e+01 1.543935000000000173e+02 1.956360000000000127e+03
1.340000000000000080e-01 1.375554999999999972e-01 2.520570000000000022e+01 1.536080000000000041e+02 1.956105000000000018e+03
1.350000000000000089e-01 1.375294999999999990e-01 2.450945000000000107e+01 1.527500000000000000e+02 1.955835000000000036e+03
1.360000000000000098e-01 1.375014999999999987e-01 2.379804999999999993e+01 1.518149999999999977e+02 1.955535000000000082e+03
1.370000000000000107e-01 1.374704999999999955e-01 2.306929999999999836e+01 1.508000000000000114e+02 1.955210000000000036e+03
1.380000000000000115e-01 1.374374999999999902e-01 2.232219999999999871e+01 1.497050000000000125e+02 1.954869999999999891e+03
1.390000000000000124e-01 1.374019999999999964e-01 2.155705000000000027e+01 1.485339999999999918e+02 1.954494999999999891e+03
1.400000000000000133e-01 1.373639999999999861e-01 2.077550000000000097e+01 1.472930000000000064e+02 1.954099999999999909e+03
1.410000000000000142e-01 1.373240000000000016e-01 1.998060000000000258e+01 1.459915000000000020e+02 1.953674999999999955e+03
1.420000000000000151e-01 1.372815000000000007e-01 1.917629999999999768e+01 1.446419999999999959e+02 1.953235000000000127e+03
1.430000000000000160e-01 1.372380000000000266e-01 1.836805000000000021e+01 1.432585000000000264e+02 1.952779999999999973e+03
1.440000000000000169e-01 1.371930000000000094e-01 1.756180000000000163e+01 1.418570000000000277e+02 1.952309999999999945e+03
1.450000000000000178e-01 1.371475000000000055e-01 1.676445000000000007e+01 1.404559999999999889e+02 1.951835000000000036e+03
1.459999999999999909e-01 1.371014999999999873e-01 1.598320000000000007e+01 1.390715000000000146e+02 1.951349999999999909e+03
1.469999999999999918e-01 1.370554999999999968e-01 1.522535000000000061e+01 1.377219999999999800e+02 1.950875000000000000e+03
1.479999999999999927e-01 1.370109999999999939e-01 1.449794999999999945e+01 1.364245000000000232e+02 1.950409999999999854e+03
1.489999999999999936e-01 1.369680000000000064e-01 1.380780000000000030e+01 1.351939999999999884e+02 1.949954999999999927e+03
1.499999999999999944e-01 1.369265000000000065e-01 1.316084999999999994e+01 1.340444999999999993e+02 1.949525000000000091e+03
1.509999999999999953e-01 1.368874999999999953e-01 1.256220000000000070e+01 1.329864999999999782e+02 1.949109999999999900e+03
1.519999999999999962e-01 1.368510000000000004e-01 1.201580000000000048e+01 1.320285000000000082e+02 1.948730000000000018e+03
1.529999999999999971e-01 1.368174999999999808e-01 1.152455499999999944e+01 1.311754999999999995e+02 1.948375000000000000e+03
1.539999999999999980e-01 1.367875000000000063e-01 1.109004999999999974e+01 1.304300000000000068e+02 1.948055000000000064e+03
1.549999999999999989e-01 1.367605000000000071e-01 1.071252499999999941e+01 1.297915000000000134e+02 1.947769999999999982e+03
1.559999999999999998e-01 1.367364999999999831e-01 1.039118000000000031e+01 1.292570000000000050e+02 1.947514999999999873e+03
1.570000000000000007e-01 1.367160000000000042e-01 1.012394000000000105e+01 1.288204999999999814e+02 1.947295000000000073e+03
1.580000000000000016e-01 1.366985000000000006e-01 9.907939999999999969e+00 1.284755000000000109e+02 1.947110000000000127e+03
1.590000000000000024e-01 1.366844999999999866e-01 9.739239999999998787e+00 1.282110000000000127e+02 1.946950000000000045e+03
