# t [s], A [cm^2], U [cm/s], P [cPa], c [cm/s]
1.000000000000000021e-03 5.112140000000000573e-01 4.136750000000001537e-03 1.020629999999999882e+02 1.539119999999999891e+03
2.000000000000000042e-03 5.112060000000000493e-01 -1.029082499999999911e-03 1.020424999999999898e+02 1.539115000000000009e+03
3.000000000000000062e-03 5.112410000000000565e-01 6.853339999999999432e-02 1.021124999999999972e+02 1.539134999999999991e+03
4.000000000000000083e-03 5.112839999999999607e-01 1.587657000000000096e-01 1.022245000000000061e+02 1.539170000000000073e+03
5.000000000000000104e-03 5.112809999999999855e-01 1.630240000000000022e-01 1.022255000000000109e+02 1.539174999999999955e+03
6.000000000000000125e-03 5.112404999999999866e-01 8.996149999999999980e-02 1.020865000000000009e+02 1.539144999999999982e+03
7.000000000000000146e-03 5.112010000000000165e-01 1.262900000000000134e-02 1.018824999999999932e+02 1.539095000000000027e+03
8.000000000000000167e-03 5.111525000000000096e-01 -8.841099999999996184e-02 1.016059999999999945e+02 1.539029999999999973e+03
9.000000000000001055e-03 5.110680000000000778e-01 -2.736800000000000344e-01 1.011814999999999998e+02 1.538930000000000064e+03
1.000000000000000194e-02 5.109405000000000197e-01 -5.599949999999999095e-01 1.005618499999999926e+02 1.538779999999999973e+03
1.099999999999999936e-02 5.107614999999999794e-01 -9.557700000000000085e-01 9.970615000000000805e+01 1.538574999999999818e+03
1.200000000000000025e-02 5.105195000000000149e-01 -1.475165000000000060e+00 9.856425000000000125e+01 1.538300000000000182e+03
1.300000000000000114e-02 5.102164999999999617e-01 -2.098419999999999952e+00 9.712260000000000559e+01 1.537934999999999945e+03
1.400000000000000203e-02 5.098780000000000534e-01 -2.747239999999999682e+00 9.544875000000000398e+01 1.537505000000000109e+03
1.499999999999999944e-02 5.095469999999999722e-01 -3.309185000000000265e+00 9.367750000000000909e+01 1.537035000000000082e+03
1.600000000000000033e-02 5.092554999999999721e-01 -3.685316000000000258e+00 9.195560000000000400e+01 1.536559999999999945e+03
1.700000000000000122e-02 5.090175000000000116e-01 -3.824419000000000235e+00 9.038804999999999268e+01 1.536095000000000027e+03
1.800000000000000211e-02 5.088270000000000293e-01 -3.730085599999999779e+00 8.901294999999998936e+01 1.535670000000000073e+03
1.900000000000000300e-02 5.086614999999999887e-01 -3.447276500000000077e+00 8.780385000000001128e+01 1.535275000000000091e+03
2.000000000000000042e-02 5.084969999999999768e-01 -3.039844444999999951e+00 8.669259999999999877e+01 1.534900000000000091e+03
2.100000000000000130e-02 5.083124999999999449e-01 -2.568128999999999884e+00 8.559794999999999732e+01 1.534530000000000200e+03
2.200000000000000219e-02 5.080964999999999510e-01 -2.072480000000000100e+00 8.445399999999999352e+01 1.534144999999999982e+03
2.299999999999999961e-02 5.078494999999999537e-01 -1.566449999999999898e+00 8.322755000000000791e+01 1.533739999999999782e+03
2.400000000000000050e-02 5.075810000000000599e-01 -1.040704999999999991e+00 8.192204999999999870e+01 1.533315000000000055e+03
2.500000000000000139e-02 5.073050000000000059e-01 -4.751399999999998958e-01 8.056745000000000800e+01 1.532884999999999991e+03
2.600000000000000228e-02 5.070310000000000095e-01 1.463649999999998563e-01 7.920165000000000077e+01 1.532440000000000055e+03
2.700000000000000316e-02 5.067639999999999922e-01 8.241000000000000547e-01 7.785204999999999131e+01 1.532000000000000000e+03
2.800000000000000058e-02 5.064999999999999503e-01 1.537089999999999845e+00 7.652209999999999468e+01 1.531565000000000055e+03
2.900000000000000147e-02 5.062290000000000401e-01 2.244544999999999568e+00 7.518700000000001182e+01 1.531125000000000000e+03
3.000000000000000236e-02 5.059350000000000236e-01 2.892990000000000173e+00 7.379800000000000182e+01 1.530674999999999955e+03
3.099999999999999978e-02 5.056024999999999547e-01 3.426644999999999719e+00 7.229359999999999786e+01 1.530200000000000045e+03
3.200000000000000067e-02 5.052200000000000024e-01 3.798690000000000566e+00 7.061459999999999582e+01 1.529680000000000064e+03
3.300000000000000155e-02 5.047820000000000640e-01 3.980864999999999654e+00 6.871985000000000809e+01 1.529110000000000127e+03
3.400000000000000244e-02 5.042919999999999625e-01 3.969139999999999890e+00 6.659834999999999638e+01 1.528494999999999891e+03
3.500000000000000333e-02 5.037620000000000431e-01 3.784229999999999539e+00 6.427500000000000568e+01 1.527820000000000164e+03
3.600000000000000422e-02 5.032110000000000749e-01 3.467049999999999965e+00 6.180939999999999657e+01 1.527110000000000127e+03
3.700000000000000511e-02 5.026610000000000245e-01 3.070664999999999978e+00 5.928690000000000282e+01 1.526384999999999991e+03
3.799999999999999906e-02 5.021344999999999281e-01 2.651524999999999910e+00 5.680705000000000382e+01 1.525664999999999964e+03
3.899999999999999994e-02 5.016519999999999868e-01 2.261484999999999967e+00 5.447039999999999793e+01 1.524969999999999800e+03
4.000000000000000083e-02 5.012284999999999657e-01 1.942884999999999973e+00 5.236784999999999712e+01 1.524329999999999927e+03
4.100000000000000172e-02 5.008749999999999591e-01 1.726080000000000059e+00 5.057330000000000325e+01 1.523769999999999982e+03
4.200000000000000261e-02 5.005990000000000162e-01 1.630000000000000115e+00 4.913974999999999937e+01 1.523300000000000182e+03
4.300000000000000350e-02 5.004020000000000135e-01 1.664274999999999949e+00 4.809959999999999525e+01 1.522934999999999945e+03
4.400000000000000439e-02 5.002849999999999797e-01 1.832338500000000092e+00 4.746730000000000160e+01 1.522675000000000182e+03
4.499999999999999833e-02 5.002465000000000384e-01 2.134539499999999812e+00 4.724370000000000402e+01 1.522535000000000082e+03
4.599999999999999922e-02 5.002839999999999510e-01 2.570619999999999905e+00 4.742060000000000031e+01 1.522509999999999991e+03
4.700000000000000011e-02 5.003960000000000630e-01 3.140984999999999694e+00 4.798485000000000156e+01 1.522599999999999909e+03
4.800000000000000100e-02 5.005804999999999838e-01 3.846820000000000128e+00 4.892074999999999818e+01 1.522800000000000182e+03
4.900000000000000189e-02 5.008340000000000014e-01 4.689099999999999824e+00 5.021124999999999972e+01 1.523099999999999909e+03
5.000000000000000278e-02 5.011539999999999884e-01 5.667072999999999361e+00 5.183735000000000070e+01 1.523505000000000109e+03
5.100000000000000366e-02 5.015370000000000106e-01 6.776670000000000194e+00 5.377729999999999677e+01 1.524009999999999991e+03
5.200000000000000455e-02 5.019764999999999366e-01 8.009349999999999525e+00 5.600475000000000136e+01 1.524599999999999909e+03
5.300000000000000544e-02 5.024665000000000381e-01 9.351449999999999818e+00 5.848825000000000784e+01 1.525269999999999982e+03
5.399999999999999939e-02 5.029995000000000438e-01 1.078478500000000118e+01 6.119089999999999918e+01 1.526009999999999991e+03
5.500000000000000028e-02 5.035644999999999705e-01 1.228732000000000113e+01 6.407115000000000293e+01 1.526809999999999945e+03
5.600000000000000117e-02 5.041530000000000733e-01 1.383464000000000027e+01 6.708440000000000225e+01 1.527659999999999854e+03
5.700000000000000205e-02 5.047559999999999825e-01 1.540191999999999872e+01 7.018500000000000227e+01 1.528539999999999964e+03
5.800000000000000294e-02 5.053644999999999943e-01 1.696510999999999925e+01 7.332890000000000441e+01 1.529454999999999927e+03
5.900000000000000383e-02 5.059710000000000596e-01 1.850285000000000224e+01 7.647584999999999411e+01 1.530375000000000000e+03
6.000000000000000472e-02 5.065690000000000470e-01 1.999705000000000155e+01 7.959139999999999304e+01 1.531295000000000073e+03
6.099999999999999867e-02 5.071554999999999813e-01 2.143359999999999843e+01 8.264820000000000277e+01 1.532204999999999927e+03
6.199999999999999956e-02 5.077260000000000106e-01 2.280274999999999963e+01 8.562675000000000125e+01 1.533110000000000127e+03
6.300000000000000044e-02 5.082809999999999828e-01 2.409860000000000113e+01 8.851550000000000296e+01 1.533994999999999891e+03
6.400000000000000133e-02 5.088194999999999801e-01 2.531859999999999999e+01 9.131020000000000891e+01 1.534860000000000127e+03
6.500000000000000222e-02 5.093425000000000313e-01 2.646314999999999884e+01 9.401255000000000450e+01 1.535694999999999936e+03
6.600000000000000311e-02 5.098519999999999719e-01 2.753484999999999872e+01 9.662960000000001060e+01 1.536514999999999873e+03
6.700000000000000400e-02 5.103504999999999292e-01 2.853770000000000095e+01 9.917234999999999445e+01 1.537315000000000055e+03
6.800000000000000488e-02 5.108399999999999608e-01 2.947644999999999982e+01 1.016525000000000034e+02 1.538095000000000027e+03
6.900000000000000577e-02 5.113235000000000419e-01 3.035594999999999999e+01 1.040828999999999951e+02 1.538865000000000009e+03
7.000000000000000666e-02 5.118015000000000203e-01 3.118079999999999785e+01 1.064759999999999991e+02 1.539619999999999891e+03
7.100000000000000755e-02 5.122769999999999824e-01 3.195485000000000042e+01 1.088414999999999964e+02 1.540364999999999782e+03
7.200000000000000844e-02 5.127504999999999979e-01 3.268059999999999832e+01 1.111855000000000047e+02 1.541105000000000018e+03
7.300000000000000933e-02 5.132214999999999971e-01 3.335940000000000083e+01 1.135120000000000005e+02 1.541845000000000027e+03
7.399999999999999634e-02 5.136895000000000211e-01 3.399094999999999800e+01 1.158195000000000050e+02 1.542570000000000164e+03
7.499999999999999722e-02 5.141529999999999712e-01 3.457370000000000232e+01 1.181029999999999944e+02 1.543295000000000073e+03
7.599999999999999811e-02 5.146094999999999420e-01 3.510455000000000325e+01 1.203534999999999968e+02 1.544005000000000109e+03
7.699999999999999900e-02 5.150569999999999871e-01 3.557954999999999757e+01 1.225594999999999999e+02 1.544710000000000036e+03
7.799999999999999989e-02 5.154914999999999914e-01 3.599410000000000309e+01 1.247055000000000007e+02 1.545394999999999982e+03
7.900000000000000078e-02 5.159104999999999386e-01 3.634309999999999974e+01 1.267764999999999986e+02 1.546055000000000064e+03
8.000000000000000167e-02 5.163100000000000467e-01 3.662180000000000035e+01 1.287540000000000191e+02 1.546695000000000164e+03
8.100000000000000255e-02 5.166874999999999662e-01 3.682560000000000144e+01 1.306235000000000070e+02 1.547304999999999836e+03
8.200000000000000344e-02 5.170399999999999441e-01 3.695065000000000310e+01 1.323685000000000116e+02 1.547875000000000000e+03
8.300000000000000433e-02 5.173645000000000049e-01 3.699414999999999765e+01 1.339755000000000109e+02 1.548414999999999964e+03
8.400000000000000522e-02 5.176594999999999391e-01 3.695425000000000182e+01 1.354350000000000023e+02 1.548904999999999973e+03
8.500000000000000611e-02 5.179240000000000510e-01 3.683044999999999902e+01 1.367375000000000114e+02 1.549349999999999909e+03
8.600000000000000699e-02 5.181569999999999787e-01 3.662345000000000539e+01 1.378784999999999741e+02 1.549750000000000000e+03
8.700000000000000788e-02 5.183569999999999567e-01 3.633520000000000039e+01 1.388549999999999898e+02 1.550099999999999909e+03
8.800000000000000877e-02 5.185265000000000013e-01 3.596899999999999409e+01 1.396694999999999993e+02 1.550400000000000091e+03
8.899999999999999578e-02 5.186644999999999728e-01 3.552915000000000134e+01 1.403249999999999886e+02 1.550655000000000200e+03
8.999999999999999667e-02 5.187739999999999574e-01 3.502145000000000152e+01 1.408280000000000030e+02 1.550860000000000127e+03
9.099999999999999756e-02 5.188559999999999839e-01 3.445234999999999559e+01 1.411884999999999764e+02 1.551014999999999873e+03
9.199999999999999845e-02 5.189124999999999988e-01 3.382954999999999757e+01 1.414180000000000064e+02 1.551139999999999873e+03
9.299999999999999933e-02 5.189460000000000184e-01 3.316129999999999711e+01 1.415285000000000082e+02 1.551220000000000027e+03
9.400000000000000022e-02 5.189605000000000468e-01 3.245635000000000048e+01 1.415360000000000014e+02 1.551264999999999873e+03
9.500000000000000111e-02 5.189580000000000304e-01 3.172384999999999877e+01 1.414544999999999959e+02 1.551275000000000091e+03
9.600000000000000200e-02 5.189420000000000144e-01 3.097305000000000064e+01 1.413015000000000043e+02 1.551264999999999873e+03
9.700000000000000289e-02 5.189154999999999740e-01 3.021270000000000167e+01 1.410914999999999964e+02 1.551230000000000018e+03
9.800000000000000377e-02 5.188810000000000366e-01 2.945135000000000147e+01 1.408405000000000200e+02 1.551180000000000064e+03
9.900000000000000466e-02 5.188409999999999966e-01 2.869644999999999868e+01 1.405620000000000118e+02 1.551109999999999900e+03
1.000000000000000056e-01 5.187979999999999814e-01 2.795450000000000301e+01 1.402690000000000055e+02 1.551039999999999964e+03
1.010000000000000064e-01 5.187534999999999785e-01 2.723080000000000211e+01 1.399705000000000155e+02 1.550960000000000036e+03
1.020000000000000073e-01 5.187095000000000455e-01 2.652904999999999802e+01 1.396765000000000043e+02 1.550880000000000109e+03
1.030000000000000082e-01 5.186664999999999193e-01 2.585179999999999723e+01 1.393904999999999745e+02 1.550799999999999955e+03
1.040000000000000091e-01 5.186245000000000438e-01 2.519969999999999999e+01 1.391170000000000186e+02 1.550720000000000027e+03
1.050000000000000100e-01 5.185840000000000449e-01 2.457229999999999848e+01 1.388555000000000064e+02 1.550634999999999991e+03
1.059999999999999970e-01 5.185440000000000049e-01 2.396764999999999901e+01 1.386045000000000016e+02 1.550559999999999945e+03
1.069999999999999979e-01 5.185035000000000061e-01 2.338295000000000101e+01 1.383594999999999970e+02 1.550480000000000018e+03
1.079999999999999988e-01 5.184609999999999497e-01 2.281435000000000102e+01 1.381159999999999854e+02 1.550400000000000091e+03
1.089999999999999997e-01 5.184165000000000578e-01 2.225744999999999862e+01 1.378659999999999854e+02 1.550319999999999936e+03
1.100000000000000006e-01 5.183670000000000222e-01 2.170759999999999934e+01 1.376024999999999920e+02 1.550235000000000127e+03
1.110000000000000014e-01 5.183119999999999949e-01 2.115990000000000038e+01 1.373185000000000002e+02 1.550150000000000091e+03
1.120000000000000023e-01 5.182499999999999885e-01 2.060974999999999824e+01 1.370054999999999836e+02 1.550055000000000064e+03
1.130000000000000032e-01 5.181795000000000151e-01 2.005300000000000082e+01 1.366580000000000155e+02 1.549950000000000045e+03
1.140000000000000041e-01 5.181000000000000050e-01 1.948580000000000112e+01 1.362699999999999818e+02 1.549829999999999927e+03
1.150000000000000050e-01 5.180109999999999992e-01 1.890540000000000020e+01 1.358369999999999891e+02 1.549700000000000045e+03
1.160000000000000059e-01 5.179124999999999979e-01 1.830975000000000108e+01 1.353565000000000111e+02 1.549559999999999945e+03
1.170000000000000068e-01 5.178030000000000133e-01 1.769780000000000086e+01 1.348285000000000196e+02 1.549404999999999973e+03
1.180000000000000077e-01 5.176850000000000618e-01 1.706960000000000122e+01 1.342545000000000073e+02 1.549234999999999900e+03
1.190000000000000085e-01 5.175579999999999625e-01 1.642629999999999768e+01 1.336360000000000241e+02 1.549050000000000182e+03
1.200000000000000094e-01 5.174244999999999539e-01 1.577005000000000123e+01 1.329794999999999732e+02 1.548860000000000127e+03
1.209999999999999964e-01 5.172845000000000359e-01 1.510389999999999944e+01 1.322915000000000134e+02 1.548655000000000200e+03
1.219999999999999973e-01 5.171405000000000030e-01 1.443193999999999910e+01 1.315799999999999841e+02 1.548450000000000045e+03
1.229999999999999982e-01 5.169945000000000235e-01 1.375891000000000020e+01 1.308550000000000182e+02 1.548235000000000127e+03
1.239999999999999991e-01 5.168490000000000029e-01 1.309017000000000053e+01 1.301260000000000048e+02 1.548014999999999873e+03
1.250000000000000000e-01 5.167059999999999986e-01 1.243140500000000159e+01 1.294050000000000011e+02 1.547795000000000073e+03
1.260000000000000009e-01 5.165674999999999573e-01 1.178850999999999871e+01 1.287024999999999864e+02 1.547579999999999927e+03
1.270000000000000018e-01 5.164360000000000062e-01 1.116735999999999862e+01 1.280305000000000177e+02 1.547380000000000109e+03
1.280000000000000027e-01 5.163130000000000219e-01 1.057353999999999949e+01 1.273990000000000009e+02 1.547180000000000064e+03
1.290000000000000036e-01 5.162010000000000209e-01 1.001225499999999968e+01 1.268169999999999931e+02 1.546994999999999891e+03
1.300000000000000044e-01 5.161009999999999209e-01 9.487925000000000608e+00 1.262930000000000064e+02 1.546824999999999818e+03
1.310000000000000053e-01 5.160139999999999727e-01 9.004284999999999428e+00 1.258335000000000008e+02 1.546670000000000073e+03
1.320000000000000062e-01 5.159414999999999418e-01 8.564120000000000843e+00 1.254435000000000002e+02 1.546539999999999964e+03
1.330000000000000071e-01 5.158825000000000216e-01 8.169159999999999755e+00 1.251260000000000048e+02 1.546424999999999955e+03
1.340000000000000080e-01 5.158384999999999776e-01 7.820100000000000051e+00 1.248815000000000026e+02 1.546335000000000036e+03
1.350000000000000089e-01 5.158085000000000031e-01 7.516569999999999752e+00 1.247085000000000008e+02 1.546264999999999873e+03
1.360000000000000098e-01 5.157914999999999583e-01 7.257234999999999658e+00 1.246045000000000016e+02 1.546210000000000036e+03
1.370000000000000107e-01 5.157869999999999955e-01 7.039859999999999118e+00 1.245645000000000095e+02 1.546179999999999836e+03
1.380000000000000115e-01 5.157935000000000159e-01 6.861419999999999852e+00 1.245819999999999936e+02 1.546164999999999964e+03
1.390000000000000124e-01 5.158085000000000031e-01 6.718294999999999462e+00 1.246504999999999939e+02 1.546170000000000073e+03
1.400000000000000133e-01 5.158320000000000682e-01 6.606374999999999886e+00 1.247614999999999981e+02 1.546184999999999945e+03
1.410000000000000142e-01 5.158605000000000551e-01 6.521284999999999776e+00 1.249064999999999941e+02 1.546210000000000036e+03
1.420000000000000151e-01 5.158944999999999226e-01 6.458544999999999980e+00 1.250769999999999982e+02 1.546250000000000000e+03
1.430000000000000160e-01 5.159310000000000285e-01 6.413694999999999702e+00 1.252644999999999982e+02 1.546289999999999964e+03
1.440000000000000169e-01 5.159679999999999822e-01 6.382464999999999833e+00 1.254609999999999985e+02 1.546340000000000146e+03
1.450000000000000178e-01 5.160055000000000058e-01 6.360875000000000057e+00 1.256604999999999990e+02 1.546394999999999982e+03
1.459999999999999909e-01 5.160420000000000007e-01 6.345340000000000202e+00 1.258555000000000064e+02 1.546450000000000045e+03
1.469999999999999918e-01 5.160765000000000491e-01 6.332705000000000695e+00 1.260409999999999968e+02 1.546494999999999891e+03
1.479999999999999927e-01 5.161080000000000112e-01 6.320335000000000036e+00 1.262139999999999986e+02 1.546549999999999955e+03
1.489999999999999936e-01 5.161370000000000680e-01 6.306090000000000195e+00 1.263704999999999927e+02 1.546595000000000027e+03
1.499999999999999944e-01 5.161620000000000097e-01 6.288330000000000197e+00 1.265095000000000027e+02 1.546634999999999991e+03
1.509999999999999953e-01 5.161835000000000173e-01 6.265914999999999679e+00 1.266295000000000073e+02 1.546670000000000073e+03
1.519999999999999962e-01 5.162019999999999387e-01 6.238160000000000593e+00 1.267305000000000064e+02 1.546704999999999927e+03
1.529999999999999971e-01 5.162169999999999259e-01 6.204800000000000537e+00 1.268139999999999930e+02 1.546730000000000018e+03
1.539999999999999980e-01 5.162289999999999379e-01 6.165905000000000413e+00 1.268810000000000002e+02 1.546755000000000109e+03
1.549999999999999989e-01 5.162390000000000034e-01 6.121869999999999479e+00 1.269325000000000045e+02 1.546769999999999982e+03
1.559999999999999998e-01 5.162459999999999827e-01 6.073315000000000019e+00 1.269719999999999942e+02 1.546789999999999964e+03
1.570000000000000007e-01 5.162519999999999332e-01 6.021049999999999791e+00 1.270014999999999930e+02 1.546799999999999955e+03
1.580000000000000016e-01 5.162565000000000071e-01 5.965975000000000250e+00 1.270229999999999961e+02 1.546809999999999945e+03
1.590000000000000024e-01 5.162605000000000111e-01 5.909050000000000580e+00 1.270384999999999991e+02 1.546819999999999936e+03
