# t [s], A [cm^2], U [cm/s], P [cPa], c [cm/s]
1.000000000000000021e-03 5.923530000000000184e-01 3.829400000000003634e-03 9.293699999999999761e+01 1.498155000000000200e+03
2.000000000000000042e-03 5.923439999999999817e-01 -2.278955999999999951e-03 9.291804999999999382e+01 1.498150000000000091e+03
3.000000000000000062e-03 5.923730000000000384e-01 4.631684999999999969e-02 9.296299999999999386e+01 1.498164999999999964e+03
4.000000000000000083e-03 5.924245000000000205e-01 1.362064999999999804e-01 9.306929999999999836e+01 1.498190000000000055e+03
5.000000000000000104e-03 5.924350000000000449e-01 1.652361999999999997e-01 9.310249999999999204e+01 1.498204999999999927e+03
6.000000000000000125e-03 5.923955000000000748e-01 1.106409999999999894e-01 9.300554999999999950e+01 1.498184999999999945e+03
7.000000000000000146e-03 5.923479999999999857e-01 3.906399999999998762e-02 9.283870000000000289e+01 1.498144999999999982e+03
8.000000000000000167e-03 5.923045000000000115e-01 -3.116049999999997988e-02 9.263474999999999682e+01 1.498094999999999800e+03
9.000000000000001055e-03 5.922344999999999970e-01 -1.563055000000000416e-01 9.233689999999999998e+01 1.498025000000000091e+03
1.000000000000000194e-02 5.921220000000000372e-01 -3.670149999999999801e-01 9.189490000000000691e+01 1.497930000000000064e+03
1.099999999999999936e-02 5.919619999999999882e-01 -6.683399999999999341e-01 9.127909999999999968e+01 1.497784999999999854e+03
1.200000000000000025e-02 5.917439999999999367e-01 -1.074015000000000164e+00 9.044859999999999900e+01 1.497589999999999918e+03
1.300000000000000114e-02 5.914584999999999981e-01 -1.589220000000000077e+00 8.936799999999999500e+01 1.497335000000000036e+03
1.400000000000000203e-02 5.911180000000000323e-01 -2.176059999999999661e+00 8.805234999999998990e+01 1.497019999999999982e+03
1.499999999999999944e-02 5.907599999999999518e-01 -2.751249999999999751e+00 8.658289999999999509e+01 1.496654999999999973e+03
1.600000000000000033e-02 5.904234999999999900e-01 -3.218445000000000000e+00 8.507814999999999372e+01 1.496264999999999873e+03
1.700000000000000122e-02 5.901374999999999815e-01 -3.505717499999999820e+00 8.364730000000000132e+01 1.495880000000000109e+03
1.800000000000000211e-02 5.899075000000000291e-01 -3.585121599999999908e+00 8.235559999999999548e+01 1.495514999999999873e+03
1.900000000000000300e-02 5.897194999999999521e-01 -3.471549500000000066e+00 8.121379999999999200e+01 1.495175000000000182e+03
2.000000000000000042e-02 5.895489999999999897e-01 -3.208511999999999809e+00 8.018690000000000850e+01 1.494855000000000018e+03
2.100000000000000130e-02 5.893705000000000194e-01 -2.849614850000000033e+00 7.921394999999999698e+01 1.494545000000000073e+03
2.200000000000000219e-02 5.891655000000000086e-01 -2.441708999999999907e+00 7.823114999999999952e+01 1.494230000000000018e+03
2.299999999999999961e-02 5.889250000000000318e-01 -2.013460000000000250e+00 7.719120000000000914e+01 1.493900000000000091e+03
2.400000000000000050e-02 5.886519999999999531e-01 -1.571435000000000137e+00 7.607505000000000450e+01 1.493555000000000064e+03
2.500000000000000139e-02 5.883579999999999366e-01 -1.104184999999999972e+00 7.489265000000000327e+01 1.493195000000000164e+03
2.600000000000000228e-02 5.880575000000000108e-01 -5.922800000000001397e-01 7.367390000000000327e+01 1.492829999999999927e+03
2.700000000000000316e-02 5.877620000000000067e-01 -2.016499999999998849e-02 7.245439999999999259e+01 1.492454999999999927e+03
2.800000000000000058e-02 5.874774999999999858e-01 6.142449999999997079e-01 7.126019999999999754e+01 1.492079999999999927e+03
2.900000000000000147e-02 5.872015000000000429e-01 1.294959999999999889e+00 7.009775000000000489e+01 1.491720000000000027e+03
3.000000000000000236e-02 5.869220000000000548e-01 1.988685000000000036e+00 6.894989999999999952e+01 1.491360000000000127e+03
3.099999999999999978e-02 5.866250000000000631e-01 2.650184999999999569e+00 6.777890000000000725e+01 1.490990000000000009e+03
3.200000000000000067e-02 5.862929999999999531e-01 3.230550000000000033e+00 6.653459999999999752e+01 1.490610000000000127e+03
3.300000000000000155e-02 5.859124999999999472e-01 3.686519999999999797e+00 6.516649999999999920e+01 1.490204999999999927e+03
3.400000000000000244e-02 5.854770000000000252e-01 3.988969999999999683e+00 6.363615000000000066e+01 1.489759999999999991e+03
3.500000000000000333e-02 5.849879999999999525e-01 4.128635000000000055e+00 6.192794999999999561e+01 1.489279999999999973e+03
3.600000000000000422e-02 5.844564999999999344e-01 4.117639999999999745e+00 6.005514999999999759e+01 1.488759999999999991e+03
3.700000000000000511e-02 5.838999999999999746e-01 3.986864999999999881e+00 5.806019999999999470e+01 1.488204999999999927e+03
3.799999999999999906e-02 5.833420000000000272e-01 3.779879999999999907e+00 5.600925000000000153e+01 1.487644999999999982e+03
3.899999999999999994e-02 5.828059999999999352e-01 3.545230000000000103e+00 5.398279999999999745e+01 1.487079999999999927e+03
4.000000000000000083e-02 5.823139999999999983e-01 3.329695000000000071e+00 5.206565000000000509e+01 1.486535000000000082e+03
4.100000000000000172e-02 5.818834999999999980e-01 3.172839999999999883e+00 5.033719999999999573e+01 1.486039999999999964e+03
4.200000000000000261e-02 5.815280000000000449e-01 3.104639999999999844e+00 4.886469999999999914e+01 1.485605000000000018e+03
4.300000000000000350e-02 5.812550000000000772e-01 3.144885000000000375e+00 4.769955000000000211e+01 1.485235000000000127e+03
4.400000000000000439e-02 5.810695000000000165e-01 3.304770500000000055e+00 4.687640000000000384e+01 1.484960000000000036e+03
4.499999999999999833e-02 5.809720000000000439e-01 3.589364999999999917e+00 4.641479999999999961e+01 1.484779999999999973e+03
4.599999999999999922e-02 5.809625000000000483e-01 4.000404999999999767e+00 4.632245000000000346e+01 1.484690000000000055e+03
4.700000000000000011e-02 5.810389999999999722e-01 4.538795000000000357e+00 4.659884999999999877e+01 1.484704999999999927e+03
4.800000000000000100e-02 5.812009999999999676e-01 5.206215000000000259e+00 4.723895000000000266e+01 1.484819999999999936e+03
4.900000000000000189e-02 5.814479999999999649e-01 6.005700000000000038e+00 4.823570000000000135e+01 1.485039999999999964e+03
5.000000000000000278e-02 5.817790000000000461e-01 6.941150000000000375e+00 4.958124999999999716e+01 1.485349999999999909e+03
5.100000000000000366e-02 5.821925000000000017e-01 8.015984999999998806e+00 5.126680000000000348e+01 1.485765000000000100e+03
5.200000000000000455e-02 5.826864999999999961e-01 9.231569999999999609e+00 5.328164999999999907e+01 1.486269999999999982e+03
5.300000000000000544e-02 5.832580000000000542e-01 1.058576499999999854e+01 5.561164999999999736e+01 1.486865000000000009e+03
5.399999999999999939e-02 5.839020000000000321e-01 1.207155500000000004e+01 5.823760000000000048e+01 1.487545000000000073e+03
5.500000000000000028e-02 5.846109999999999918e-01 1.367694000000000010e+01 6.113450000000000273e+01 1.488304999999999836e+03
5.600000000000000117e-02 5.853764999999999663e-01 1.538508000000000031e+01 6.427139999999999986e+01 1.489139999999999873e+03
5.700000000000000205e-02 5.861879999999999313e-01 1.717518499999999904e+01 6.761175000000000068e+01 1.490034999999999854e+03
5.800000000000000294e-02 5.870349999999999735e-01 1.902398000000000167e+01 7.111525000000000318e+01 1.490985000000000127e+03
5.900000000000000383e-02 5.879064999999999985e-01 2.090684999999999860e+01 7.473940000000000339e+01 1.491980000000000018e+03
6.000000000000000472e-02 5.887930000000000108e-01 2.279974999999999952e+01 7.844194999999999141e+01 1.493005000000000109e+03
6.099999999999999867e-02 5.896844999999999448e-01 2.468019999999999925e+01 8.218254999999999200e+01 1.494050000000000182e+03
6.199999999999999956e-02 5.905724999999999447e-01 2.652834999999999965e+01 8.592525000000000546e+01 1.495105000000000018e+03
6.300000000000000044e-02 5.914515000000000189e-01 2.832770000000000010e+01 8.963874999999998749e+01 1.496164999999999964e+03
6.400000000000000133e-02 5.923169999999999824e-01 3.006504999999999939e+01 9.329810000000000514e+01 1.497214999999999918e+03
6.500000000000000222e-02 5.931649999999999423e-01 3.173085000000000022e+01 9.688605000000001155e+01 1.498255000000000109e+03
6.600000000000000311e-02 5.939940000000000220e-01 3.331839999999999691e+01 1.003900999999999897e+02 1.499275000000000091e+03
6.700000000000000400e-02 5.948039999999999994e-01 3.482404999999999973e+01 1.038035999999999888e+02 1.500284999999999854e+03
6.800000000000000488e-02 5.955945000000000267e-01 3.624615000000000009e+01 1.071255500000000040e+02 1.501269999999999982e+03
6.900000000000000577e-02 5.963680000000000092e-01 3.758464999999999634e+01 1.103580499999999915e+02 1.502230000000000018e+03
7.000000000000000666e-02 5.971239999999999881e-01 3.884089999999999776e+01 1.135060000000000002e+02 1.503174999999999955e+03
7.100000000000000755e-02 5.978655000000000497e-01 4.001689999999999969e+01 1.165765000000000100e+02 1.504090000000000146e+03
7.200000000000000844e-02 5.985929999999999307e-01 4.111475000000000080e+01 1.195755000000000052e+02 1.504994999999999891e+03
7.300000000000000933e-02 5.993085000000000218e-01 4.213665000000000305e+01 1.225104999999999933e+02 1.505880000000000109e+03
7.399999999999999634e-02 6.000119999999999898e-01 4.308424999999999727e+01 1.253859999999999957e+02 1.506750000000000000e+03
7.499999999999999722e-02 6.007044999999999746e-01 4.395850000000000080e+01 1.282055000000000007e+02 1.507599999999999909e+03
7.599999999999999811e-02 6.013839999999999186e-01 4.475959999999999894e+01 1.309685000000000059e+02 1.508440000000000055e+03
7.699999999999999900e-02 6.020510000000000028e-01 4.548680000000000234e+01 1.336730000000000018e+02 1.509260000000000218e+03
7.799999999999999989e-02 6.027024999999999189e-01 4.613859999999999673e+01 1.363134999999999764e+02 1.510065000000000055e+03
7.900000000000000078e-02 6.033375000000000821e-01 4.671274999999999977e+01 1.388840000000000146e+02 1.510849999999999909e+03
8.000000000000000167e-02 6.039514999999999745e-01 4.720650000000000546e+01 1.413725000000000023e+02 1.511610000000000127e+03
8.100000000000000255e-02 6.045435000000000114e-01 4.761714999999999520e+01 1.437694999999999936e+02 1.512349999999999909e+03
8.200000000000000344e-02 6.051094999999999668e-01 4.794200000000000017e+01 1.460625000000000000e+02 1.513065000000000055e+03
8.300000000000000433e-02 6.056470000000000464e-01 4.817865000000000464e+01 1.482409999999999854e+02 1.513739999999999782e+03
8.400000000000000522e-02 6.061535000000000117e-01 4.832560000000000144e+01 1.502930000000000064e+02 1.514380000000000109e+03
8.500000000000000611e-02 6.066264999999999574e-01 4.838185000000000002e+01 1.522094999999999914e+02 1.514990000000000009e+03
8.600000000000000699e-02 6.070649999999999658e-01 4.834754999999999825e+01 1.539819999999999993e+02 1.515555000000000064e+03
8.700000000000000788e-02 6.074675000000000491e-01 4.822355000000000302e+01 1.556050000000000182e+02 1.516079999999999927e+03
8.800000000000000877e-02 6.078324999999999978e-01 4.801185000000000258e+01 1.570735000000000241e+02 1.516555000000000064e+03
8.899999999999999578e-02 6.081609999999999516e-01 4.771529999999999916e+01 1.583874999999999886e+02 1.516990000000000009e+03
8.999999999999999667e-02 6.084525000000000627e-01 4.733749999999999858e+01 1.595459999999999923e+02 1.517380000000000109e+03
9.099999999999999756e-02 6.087080000000000268e-01 4.688309999999999889e+01 1.605534999999999854e+02 1.517724999999999909e+03
9.199999999999999845e-02 6.089284999999999837e-01 4.635739999999999839e+01 1.614125000000000227e+02 1.518025000000000091e+03
9.299999999999999933e-02 6.091159999999999908e-01 4.576645000000000607e+01 1.621315000000000168e+02 1.518285000000000082e+03
9.400000000000000022e-02 6.092714999999999659e-01 4.511684999999999945e+01 1.627175000000000011e+02 1.518505000000000109e+03
9.500000000000000111e-02 6.093990000000000240e-01 4.441595000000000226e+01 1.631804999999999950e+02 1.518680000000000064e+03
9.600000000000000200e-02 6.094999999999999307e-01 4.367145000000000010e+01 1.635304999999999893e+02 1.518829999999999927e+03
9.700000000000000289e-02 6.095774999999999944e-01 4.289139999999999731e+01 1.637810000000000059e+02 1.518940000000000055e+03
9.800000000000000377e-02 6.096340000000000092e-01 4.208405000000000484e+01 1.639424999999999955e+02 1.519025000000000091e+03
9.900000000000000466e-02 6.096729999999999094e-01 4.125764999999999816e+01 1.640294999999999845e+02 1.519085000000000036e+03
1.000000000000000056e-01 6.096980000000000732e-01 4.042020000000000124e+01 1.640540000000000020e+02 1.519119999999999891e+03
1.010000000000000064e-01 6.097110000000000030e-01 3.957925000000000182e+01 1.640285000000000082e+02 1.519134999999999991e+03
1.020000000000000073e-01 6.097144999999999371e-01 3.874179999999999779e+01 1.639644999999999868e+02 1.519134999999999991e+03
1.030000000000000082e-01 6.097120000000000317e-01 3.791389999999999816e+01 1.638729999999999905e+02 1.519130000000000109e+03
1.040000000000000091e-01 6.097049999999999415e-01 3.710049999999999670e+01 1.637635000000000218e+02 1.519110000000000127e+03
1.050000000000000100e-01 6.096939999999999582e-01 3.630550000000000210e+01 1.636424999999999841e+02 1.519089999999999918e+03
1.059999999999999970e-01 6.096814999999999873e-01 3.553149999999999409e+01 1.635169999999999959e+02 1.519059999999999945e+03
1.069999999999999979e-01 6.096675000000000288e-01 3.477980000000000160e+01 1.633885000000000218e+02 1.519025000000000091e+03
1.079999999999999988e-01 6.096520000000000827e-01 3.405044999999999789e+01 1.632605000000000075e+02 1.518990000000000009e+03
1.089999999999999997e-01 6.096350000000000380e-01 3.334235000000000326e+01 1.631310000000000002e+02 1.518950000000000045e+03
1.100000000000000006e-01 6.096150000000000180e-01 3.265350000000000108e+01 1.629989999999999952e+02 1.518914999999999964e+03
1.110000000000000014e-01 6.095915000000000639e-01 3.198089999999999833e+01 1.628605000000000018e+02 1.518875000000000000e+03
1.120000000000000023e-01 6.095634999999999248e-01 3.132094999999999985e+01 1.627100000000000080e+02 1.518829999999999927e+03
1.130000000000000032e-01 6.095295000000000574e-01 3.066969999999999885e+01 1.625425000000000182e+02 1.518779999999999973e+03
1.140000000000000041e-01 6.094885000000000996e-01 3.002279999999999660e+01 1.623525000000000205e+02 1.518724999999999909e+03
1.150000000000000050e-01 6.094375000000000764e-01 2.937604999999999933e+01 1.621329999999999814e+02 1.518659999999999854e+03
1.160000000000000059e-01 6.093764999999999876e-01 2.872520000000000095e+01 1.618779999999999859e+02 1.518585000000000036e+03
1.170000000000000068e-01 6.093044999999999156e-01 2.806649999999999778e+01 1.615819999999999936e+02 1.518505000000000109e+03
1.180000000000000077e-01 6.092199999999999838e-01 2.739659999999999940e+01 1.612420000000000186e+02 1.518409999999999854e+03
1.190000000000000085e-01 6.091225000000000112e-01 2.671274999999999977e+01 1.608520000000000039e+02 1.518299999999999955e+03
1.200000000000000094e-01 6.090119999999999978e-01 2.601299999999999812e+01 1.604110000000000014e+02 1.518175000000000182e+03
1.209999999999999964e-01 6.088884999999999437e-01 2.529599999999999937e+01 1.599184999999999945e+02 1.518039999999999964e+03
1.219999999999999973e-01 6.087519999999999598e-01 2.456159999999999854e+01 1.593734999999999786e+02 1.517889999999999873e+03
1.229999999999999982e-01 6.086035000000000750e-01 2.381029999999999802e+01 1.587800000000000011e+02 1.517724999999999909e+03
1.239999999999999991e-01 6.084434999999999150e-01 2.304359999999999786e+01 1.581399999999999864e+02 1.517545000000000073e+03
1.250000000000000000e-01 6.082739999999999814e-01 2.226375000000000171e+01 1.574585000000000150e+02 1.517359999999999900e+03
1.260000000000000009e-01 6.080974999999999575e-01 2.147400000000000020e+01 1.567425000000000068e+02 1.517154999999999973e+03
1.270000000000000018e-01 6.079140000000000654e-01 2.067820000000000036e+01 1.559984999999999786e+02 1.516945000000000164e+03
1.280000000000000027e-01 6.077274999999999761e-01 1.988084999999999880e+01 1.552355000000000018e+02 1.516730000000000018e+03
1.290000000000000036e-01 6.075390000000000512e-01 1.908680000000000021e+01 1.544619999999999891e+02 1.516505000000000109e+03
1.300000000000000044e-01 6.073520000000000030e-01 1.830124999999999957e+01 1.536870000000000118e+02 1.516289999999999964e+03
1.310000000000000053e-01 6.071674999999999711e-01 1.752965000000000018e+01 1.529209999999999923e+02 1.516065000000000055e+03
1.320000000000000062e-01 6.069890000000000008e-01 1.677710000000000079e+01 1.521719999999999970e+02 1.515849999999999909e+03
1.330000000000000071e-01 6.068175000000000097e-01 1.604885000000000161e+01 1.514495000000000005e+02 1.515634999999999991e+03
1.340000000000000080e-01 6.066549999999999443e-01 1.534934999999999938e+01 1.507609999999999957e+02 1.515429999999999836e+03
1.350000000000000089e-01 6.065034999999999732e-01 1.468270000000000053e+01 1.501140000000000043e+02 1.515230000000000018e+03
1.360000000000000098e-01 6.063635000000000552e-01 1.405240000000000045e+01 1.495129999999999768e+02 1.515049999999999955e+03
1.370000000000000107e-01 6.062365000000000670e-01 1.346102499999999935e+01 1.489625000000000057e+02 1.514880000000000109e+03
1.380000000000000115e-01 6.061224999999998975e-01 1.291036000000000072e+01 1.484654999999999916e+02 1.514724999999999909e+03
1.390000000000000124e-01 6.060220000000000606e-01 1.240131500000000031e+01 1.480229999999999961e+02 1.514585000000000036e+03
1.400000000000000133e-01 6.059345000000000425e-01 1.193389999999999951e+01 1.476345000000000027e+02 1.514454999999999927e+03
1.410000000000000142e-01 6.058584999999999665e-01 1.150741999999999976e+01 1.472980000000000018e+02 1.514340000000000146e+03
1.420000000000000151e-01 6.057945000000000135e-01 1.112028000000000105e+01 1.470099999999999909e+02 1.514244999999999891e+03
1.430000000000000160e-01 6.057394999999999863e-01 1.077036000000000016e+01 1.467660000000000196e+02 1.514154999999999973e+03
1.440000000000000169e-01 6.056939999999999547e-01 1.045494500000000038e+01 1.465610000000000070e+02 1.514085000000000036e+03
1.450000000000000178e-01 6.056555000000000133e-01 1.017105499999999907e+01 1.463890000000000100e+02 1.514019999999999982e+03
1.459999999999999909e-01 6.056219999999999937e-01 9.915240000000000720e+00 1.462439999999999998e+02 1.513965000000000146e+03
1.469999999999999918e-01 6.055930000000000479e-01 9.684224999999999639e+00 1.461195000000000164e+02 1.513914999999999964e+03
1.479999999999999927e-01 6.055669999999999664e-01 9.474464999999998582e+00 1.460095000000000027e+02 1.513869999999999891e+03
1.489999999999999936e-01 6.055420000000000247e-01 9.282695000000000363e+00 1.459080000000000155e+02 1.513835000000000036e+03
1.499999999999999944e-01 6.055174999999999308e-01 9.105695000000000761e+00 1.458104999999999905e+02 1.513795000000000073e+03
1.509999999999999953e-01 6.054924999999999891e-01 8.940674999999998818e+00 1.457115000000000009e+02 1.513759999999999991e+03
1.519999999999999962e-01 6.054649999999999199e-01 8.784969999999999501e+00 1.456080000000000041e+02 1.513719999999999800e+03
1.529999999999999971e-01 6.054360000000000852e-01 8.636314999999999742e+00 1.454970000000000141e+02 1.513684999999999945e+03
1.539999999999999980e-01 6.054045000000000121e-01 8.492754999999998944e+00 1.453754999999999882e+02 1.513644999999999982e+03
1.549999999999999989e-01 6.053695000000000048e-01 8.352624999999999744e+00 1.452429999999999950e+02 1.513605000000000018e+03
1.559999999999999998e-01 6.053319999999999812e-01 8.214594999999999203e+00 1.450980000000000132e+02 1.513559999999999945e+03
1.570000000000000007e-01 6.052915000000000934e-01 8.077580000000001093e+00 1.449404999999999859e+02 1.513509999999999991e+03
1.580000000000000016e-01 6.052480000000000082e-01 7.940814999999999735e+00 1.447700000000000102e+02 1.513460000000000036e+03
1.590000000000000024e-01 6.052014999999999478e-01 7.803739999999999455e+00 1.445880000000000223e+02 1.513409999999999854e+03
