# t [s], A [cm^2], U [cm/s], P [cPa], c [cm/s]
1.000000000000000021e-03 7.305234999999999923e-01 6.128899999999999626e-03 9.267289999999999850e+01 1.785059999999999945e+03
2.000000000000000042e-03 7.305114999999999803e-01 -2.500856499999999823e-03 9.263980000000000814e+01 1.785050000000000182e+03
3.000000000000000062e-03 7.305719999999999992e-01 1.014945500000000028e-01 9.276380000000000337e+01 1.785079999999999927e+03
4.000000000000000083e-03 7.306194999999999773e-01 1.973398199999999991e-01 9.289150000000000773e+01 1.785105000000000018e+03
5.000000000000000104e-03 7.305800000000000072e-01 1.572998000000000174e-01 9.279849999999999000e+01 1.785090000000000146e+03
6.000000000000000125e-03 7.305095000000000338e-01 6.002499999999999503e-02 9.254675000000000296e+01 1.785034999999999854e+03
7.000000000000000146e-03 7.304509999999999614e-01 -2.767249999999998877e-02 9.224495000000000289e+01 1.784970000000000027e+03
8.000000000000000167e-03 7.303484999999999561e-01 -2.032049999999999690e-01 9.177915000000000134e+01 1.784869999999999891e+03
9.000000000000001055e-03 7.301794999999999813e-01 -5.129950000000000898e-01 9.105634999999999479e+01 1.784720000000000027e+03
1.000000000000000194e-02 7.299309999999999965e-01 -9.739949999999999442e-01 9.001140000000000896e+01 1.784500000000000000e+03
1.099999999999999936e-02 7.295810000000000350e-01 -1.617085000000000106e+00 8.855369999999999209e+01 1.784190000000000055e+03
1.200000000000000025e-02 7.291400000000000103e-01 -2.405384999999999884e+00 8.667949999999999022e+01 1.783779999999999973e+03
1.300000000000000114e-02 7.286759999999999904e-01 -3.196379999999999999e+00 8.455610000000000070e+01 1.783315000000000055e+03
1.400000000000000203e-02 7.282675000000000676e-01 -3.815579000000000498e+00 8.244665000000000532e+01 1.782819999999999936e+03
1.499999999999999944e-02 7.279590000000000227e-01 -4.151246000000000436e+00 8.056765000000000043e+01 1.782365000000000009e+03
1.600000000000000033e-02 7.277420000000000000e-01 -4.191300000000000026e+00 7.900215000000000032e+01 1.781954999999999927e+03
1.700000000000000122e-02 7.275724999999999554e-01 -4.002060000000000173e+00 7.769854999999999734e+01 1.781595000000000027e+03
1.800000000000000211e-02 7.273990000000000178e-01 -3.681364999999999998e+00 7.652530000000000143e+01 1.781255000000000109e+03
1.900000000000000300e-02 7.271840000000000526e-01 -3.313555000000000028e+00 7.534104999999999563e+01 1.780920000000000073e+03
2.000000000000000042e-02 7.269155000000000477e-01 -2.941241999999999912e+00 7.405219999999999914e+01 1.780565000000000055e+03
2.100000000000000130e-02 7.266049999999999454e-01 -2.559979499999999852e+00 7.264005000000000223e+01 1.780179999999999836e+03
2.200000000000000219e-02 7.262800000000000367e-01 -2.134495000000000253e+00 7.115119999999998868e+01 1.779784999999999854e+03
2.299999999999999961e-02 7.259660000000000002e-01 -1.626999999999999780e+00 6.966079999999999472e+01 1.779384999999999991e+03
2.400000000000000050e-02 7.256755000000000289e-01 -1.023815000000000142e+00 6.822790000000000532e+01 1.778990000000000009e+03
2.500000000000000139e-02 7.254015000000000324e-01 -3.498349999999996740e-01 6.686169999999999902e+01 1.778610000000000127e+03
2.600000000000000228e-02 7.251194999999999169e-01 3.324849999999999195e-01 6.551044999999999163e+01 1.778235000000000127e+03
2.700000000000000316e-02 7.247969999999999136e-01 9.370550000000001933e-01 6.407214999999999350e+01 1.777845000000000027e+03
2.800000000000000058e-02 7.243990000000000151e-01 1.375730000000000119e+00 6.242315000000000680e+01 1.777410000000000082e+03
2.900000000000000147e-02 7.239055000000000906e-01 1.581370000000000164e+00 6.045499999999999829e+01 1.776914999999999964e+03
3.000000000000000236e-02 7.233125000000000249e-01 1.525625000000000231e+00 5.810994999999999777e+01 1.776340000000000146e+03
3.099999999999999978e-02 7.226380000000000026e-01 1.225690000000000168e+00 5.540194999999999936e+01 1.775695000000000164e+03
3.200000000000000067e-02 7.219154999999999323e-01 7.380299999999997418e-01 5.241809999999999548e+01 1.774980000000000018e+03
3.300000000000000155e-02 7.211875000000000924e-01 1.421349999999996783e-01 4.929980000000000473e+01 1.774230000000000018e+03
3.400000000000000244e-02 7.204945000000000377e-01 -4.786599999999996413e-01 4.621335000000000548e+01 1.773480000000000018e+03
3.500000000000000333e-02 7.198694999999999400e-01 -1.052855000000000096e+00 4.331980000000000075e+01 1.772764999999999873e+03
3.600000000000000422e-02 7.193359999999999754e-01 -1.529420000000000446e+00 4.075310000000000343e+01 1.772110000000000127e+03
3.700000000000000511e-02 7.189039999999999875e-01 -1.879190000000000138e+00 3.860755000000000337e+01 1.771545000000000073e+03
3.799999999999999906e-02 7.185775000000000912e-01 -2.090774999999999828e+00 3.693734999999999502e+01 1.771085000000000036e+03
3.899999999999999994e-02 7.183549999999999658e-01 -2.163630999999999638e+00 3.576270000000000238e+01 1.770740000000000009e+03
4.000000000000000083e-02 7.182304999999999939e-01 -2.100673000000000012e+00 3.508105000000000473e+01 1.770514999999999873e+03
4.100000000000000172e-02 7.182014999999999372e-01 -1.902609999999999912e+00 3.487869999999999493e+01 1.770400000000000091e+03
4.200000000000000261e-02 7.182669999999999888e-01 -1.565246499999999985e+00 3.513970000000000482e+01 1.770405000000000200e+03
4.300000000000000350e-02 7.184254999999999391e-01 -1.080040000000000111e+00 3.585040000000000049e+01 1.770519999999999982e+03
4.400000000000000439e-02 7.186779999999999280e-01 -4.372599999999999820e-01 3.699949999999999761e+01 1.770744999999999891e+03
4.499999999999999833e-02 7.190224999999998978e-01 3.696950000000001069e-01 3.857359999999999900e+01 1.771075000000000045e+03
4.599999999999999922e-02 7.194544999999999968e-01 1.340345000000000120e+00 4.055280000000000484e+01 1.771509999999999991e+03
4.700000000000000011e-02 7.199664999999999537e-01 2.464730000000000310e+00 4.290550000000000352e+01 1.772039999999999964e+03
4.800000000000000100e-02 7.205449999999999910e-01 3.722954999999999792e+00 4.558670000000000044e+01 1.772650000000000091e+03
4.900000000000000189e-02 7.211775000000000269e-01 5.086799999999999322e+00 4.853844999999999743e+01 1.773335000000000036e+03
5.000000000000000278e-02 7.218454999999999178e-01 6.522517500000000190e+00 5.169299999999999784e+01 1.774079999999999927e+03
5.100000000000000366e-02 7.225334999999999397e-01 7.994247499999999285e+00 5.497799999999999443e+01 1.774865000000000009e+03
5.200000000000000455e-02 7.232259999999999245e-01 9.467800000000000438e+00 5.832229999999999848e+01 1.775674999999999955e+03
5.300000000000000544e-02 7.239109999999999712e-01 1.091331500000000077e+01 6.166169999999999618e+01 1.776500000000000000e+03
5.399999999999999939e-02 7.245785000000000142e-01 1.230694499999999891e+01 6.494304999999999950e+01 1.777315000000000055e+03
5.500000000000000028e-02 7.252235000000000209e-01 1.363208000000000020e+01 6.812725000000000364e+01 1.778119999999999891e+03
5.600000000000000117e-02 7.258424999999999461e-01 1.487875000000000014e+01 7.119020000000000437e+01 1.778894999999999982e+03
5.700000000000000205e-02 7.264360000000000817e-01 1.604294999999999760e+01 7.412170000000000414e+01 1.779654999999999973e+03
5.800000000000000294e-02 7.270060000000000411e-01 1.712534999999999741e+01 7.692390000000000327e+01 1.780384999999999991e+03
5.900000000000000383e-02 7.275559999999999805e-01 1.813000000000000256e+01 7.960810000000000741e+01 1.781085000000000036e+03
6.000000000000000472e-02 7.280895000000000561e-01 1.906289999999999907e+01 8.219194999999999141e+01 1.781764999999999873e+03
6.099999999999999867e-02 7.286124999999999963e-01 1.993070000000000164e+01 8.469589999999999463e+01 1.782424999999999955e+03
6.199999999999999956e-02 7.291275000000000395e-01 2.073995000000000033e+01 8.714029999999999632e+01 1.783065000000000055e+03
6.300000000000000044e-02 7.296374999999999389e-01 2.149559999999999960e+01 8.954279999999999973e+01 1.783700000000000045e+03
6.400000000000000133e-02 7.301444999999999741e-01 2.220120000000000005e+01 9.191589999999999350e+01 1.784325000000000045e+03
6.500000000000000222e-02 7.306489999999999929e-01 2.285790000000000077e+01 9.426599999999999113e+01 1.784945000000000164e+03
6.600000000000000311e-02 7.311484999999999790e-01 2.346470000000000056e+01 9.659215000000000373e+01 1.785555000000000064e+03
6.700000000000000400e-02 7.316420000000000146e-01 2.401874999999999716e+01 9.888794999999998936e+01 1.786159999999999854e+03
6.800000000000000488e-02 7.321244999999999559e-01 2.451559999999999917e+01 1.011388499999999908e+02 1.786755000000000109e+03
6.900000000000000577e-02 7.325930000000000497e-01 2.495025000000000048e+01 1.033289000000000044e+02 1.787335000000000036e+03
7.000000000000000666e-02 7.330425000000000413e-01 2.531719999999999970e+01 1.054370000000000118e+02 1.787894999999999982e+03
7.100000000000000755e-02 7.334699999999999553e-01 2.561175000000000068e+01 1.074440000000000026e+02 1.788434999999999945e+03
7.200000000000000844e-02 7.338694999999999524e-01 2.582974999999999710e+01 1.093284999999999911e+02 1.788940000000000055e+03
7.300000000000000933e-02 7.342394999999999339e-01 2.596844999999999715e+01 1.110750000000000028e+02 1.789420000000000073e+03
7.399999999999999634e-02 7.345760000000000067e-01 2.602599999999999980e+01 1.126664999999999992e+02 1.789855000000000018e+03
7.499999999999999722e-02 7.348784999999999901e-01 2.600185000000000102e+01 1.140925000000000011e+02 1.790255000000000109e+03
7.599999999999999811e-02 7.351444999999999785e-01 2.589665000000000106e+01 1.153455000000000013e+02 1.790609999999999900e+03
7.699999999999999900e-02 7.353730000000000544e-01 2.571199999999999974e+01 1.164200000000000017e+02 1.790920000000000073e+03
7.799999999999999989e-02 7.355639999999999956e-01 2.545064999999999955e+01 1.173149999999999977e+02 1.791184999999999945e+03
7.900000000000000078e-02 7.357194999999999707e-01 2.511670000000000158e+01 1.180335000000000036e+02 1.791404999999999973e+03
8.000000000000000167e-02 7.358390000000000208e-01 2.471529999999999916e+01 1.185799999999999983e+02 1.791579999999999927e+03
8.100000000000000255e-02 7.359260000000000801e-01 2.425300000000000011e+01 1.189639999999999986e+02 1.791714999999999918e+03
8.200000000000000344e-02 7.359820000000000251e-01 2.373785000000000167e+01 1.191984999999999957e+02 1.791809999999999945e+03
8.300000000000000433e-02 7.360115000000000407e-01 2.317895000000000039e+01 1.192980000000000018e+02 1.791865000000000009e+03
8.400000000000000522e-02 7.360174999999999912e-01 2.258644999999999925e+01 1.192814999999999941e+02 1.791894999999999982e+03
8.500000000000000611e-02 7.360050000000000203e-01 2.197104999999999819e+01 1.191680000000000064e+02 1.791889999999999873e+03
8.600000000000000699e-02 7.359780000000000211e-01 2.134355000000000047e+01 1.189790000000000134e+02 1.791865000000000009e+03
8.700000000000000788e-02 7.359404999999999974e-01 2.071444999999999936e+01 1.187344999999999970e+02 1.791820000000000164e+03
8.800000000000000877e-02 7.358974999999999822e-01 2.009309999999999974e+01 1.184560000000000031e+02 1.791764999999999873e+03
8.899999999999999578e-02 7.358510000000000328e-01 1.948754999999999882e+01 1.181599999999999966e+02 1.791700000000000045e+03
8.999999999999999667e-02 7.358039999999999026e-01 1.890395000000000181e+01 1.178615000000000066e+02 1.791630000000000109e+03
9.099999999999999756e-02 7.357590000000000519e-01 1.834645000000000081e+01 1.175724999999999909e+02 1.791559999999999945e+03
9.199999999999999845e-02 7.357164999999999955e-01 1.781704999999999828e+01 1.172994999999999948e+02 1.791494999999999891e+03
9.299999999999999933e-02 7.356769999999999143e-01 1.731569999999999965e+01 1.170459999999999923e+02 1.791430000000000064e+03
9.400000000000000022e-02 7.356389999999999318e-01 1.684045000000000059e+01 1.168104999999999905e+02 1.791365000000000009e+03
9.500000000000000111e-02 7.356020000000000891e-01 1.638790000000000191e+01 1.165900000000000034e+02 1.791299999999999955e+03
9.600000000000000200e-02 7.355644999999999545e-01 1.595339999999999847e+01 1.163780000000000001e+02 1.791244999999999891e+03
9.700000000000000289e-02 7.355244999999999145e-01 1.553139999999999965e+01 1.161649999999999920e+02 1.791184999999999945e+03
9.800000000000000377e-02 7.354795000000000638e-01 1.511594999999999978e+01 1.159420000000000073e+02 1.791125000000000000e+03
9.900000000000000466e-02 7.354279999999999706e-01 1.470100000000000051e+01 1.156989999999999981e+02 1.791059999999999945e+03
1.000000000000000056e-01 7.353684999999999805e-01 1.428075000000000117e+01 1.154265000000000043e+02 1.790990000000000009e+03
1.010000000000000064e-01 7.352990000000000359e-01 1.385009999999999941e+01 1.151159999999999997e+02 1.790909999999999854e+03
1.020000000000000073e-01 7.352184999999999970e-01 1.340465000000000018e+01 1.147614999999999981e+02 1.790820000000000164e+03
1.030000000000000082e-01 7.351265000000000160e-01 1.294148999999999816e+01 1.143584999999999923e+02 1.790720000000000027e+03
1.040000000000000091e-01 7.350229999999999819e-01 1.245874999999999844e+01 1.139050000000000011e+02 1.790610000000000127e+03
1.050000000000000100e-01 7.349094999999999933e-01 1.195625000000000071e+01 1.134035000000000082e+02 1.790485000000000127e+03
1.059999999999999970e-01 7.347869999999999679e-01 1.143524500000000010e+01 1.128575000000000017e+02 1.790349999999999909e+03
1.069999999999999979e-01 7.346570000000000045e-01 1.089863000000000071e+01 1.122754999999999939e+02 1.790210000000000036e+03
1.079999999999999988e-01 7.345230000000000370e-01 1.035064999999999991e+01 1.116674999999999898e+02 1.790059999999999945e+03
1.089999999999999997e-01 7.343870000000000120e-01 9.796730000000000160e+00 1.110459999999999923e+02 1.789905000000000200e+03
1.100000000000000006e-01 7.342524999999999746e-01 9.243314999999999060e+00 1.104254999999999995e+02 1.789744999999999891e+03
1.110000000000000014e-01 7.341235000000000399e-01 8.697424999999999073e+00 1.098209999999999980e+02 1.789594999999999800e+03
1.120000000000000023e-01 7.340035000000000309e-01 8.166385000000000005e+00 1.092494999999999976e+02 1.789450000000000045e+03
1.130000000000000032e-01 7.338949999999999640e-01 7.657399999999999984e+00 1.087249999999999943e+02 1.789315000000000055e+03
1.140000000000000041e-01 7.338009999999999255e-01 7.177189999999999515e+00 1.082630000000000052e+02 1.789190000000000055e+03
1.150000000000000050e-01 7.337245000000000017e-01 6.731740000000000279e+00 1.078755000000000024e+02 1.789085000000000036e+03
1.160000000000000059e-01 7.336664999999999992e-01 6.325895000000000046e+00 1.075724999999999909e+02 1.789000000000000000e+03
1.170000000000000068e-01 7.336285000000000167e-01 5.963184999999999292e+00 1.073605000000000018e+02 1.788934999999999945e+03
1.180000000000000077e-01 7.336114999999999720e-01 5.645690000000000097e+00 1.072435000000000116e+02 1.788890000000000100e+03
1.190000000000000085e-01 7.336145000000000582e-01 5.373985000000000234e+00 1.072214999999999918e+02 1.788875000000000000e+03
1.200000000000000094e-01 7.336365000000000247e-01 5.147170000000000023e+00 1.072920000000000016e+02 1.788875000000000000e+03
1.209999999999999964e-01 7.336754999999999249e-01 4.962994999999999379e+00 1.074475000000000051e+02 1.788900000000000091e+03
1.219999999999999973e-01 7.337310000000000221e-01 4.818065000000000708e+00 1.076810000000000116e+02 1.788945000000000164e+03
1.229999999999999982e-01 7.337985000000000202e-01 4.708070000000000199e+00 1.079805000000000064e+02 1.789009999999999991e+03
1.239999999999999991e-01 7.338765000000000427e-01 4.628049999999999997e+00 1.083349999999999937e+02 1.789079999999999927e+03
1.250000000000000000e-01 7.339620000000000033e-01 4.572670000000000456e+00 1.087309999999999945e+02 1.789174999999999955e+03
1.260000000000000009e-01 7.340530000000000665e-01 4.536464999999999748e+00 1.091550000000000011e+02 1.789269999999999982e+03
1.270000000000000018e-01 7.341459999999999653e-01 4.514054999999999929e+00 1.095955000000000013e+02 1.789375000000000000e+03
1.280000000000000027e-01 7.342389999999999750e-01 4.500334999999999752e+00 1.100399999999999920e+02 1.789480000000000018e+03
1.290000000000000036e-01 7.343299999999999272e-01 4.490624999999999645e+00 1.104789999999999992e+02 1.789585000000000036e+03
1.300000000000000044e-01 7.344174999999999454e-01 4.480750000000000455e+00 1.109020000000000010e+02 1.789695000000000164e+03
1.310000000000000053e-01 7.345000000000000417e-01 4.467134999999999856e+00 1.113029999999999973e+02 1.789795000000000073e+03
1.320000000000000062e-01 7.345764999999999656e-01 4.446830000000000283e+00 1.116754999999999995e+02 1.789889999999999873e+03
1.330000000000000071e-01 7.346460000000000212e-01 4.417530000000000179e+00 1.120155000000000030e+02 1.789980000000000018e+03
1.340000000000000080e-01 7.347080000000000277e-01 4.377594999999999459e+00 1.123204999999999956e+02 1.790059999999999945e+03
1.350000000000000089e-01 7.347630000000000550e-01 4.326014999999999944e+00 1.125895000000000010e+02 1.790134999999999991e+03
1.360000000000000098e-01 7.348099999999999632e-01 4.262380000000000280e+00 1.128215000000000003e+02 1.790199999999999818e+03
1.370000000000000107e-01 7.348510000000000320e-01 4.186860000000000248e+00 1.130185000000000031e+02 1.790255000000000109e+03
1.380000000000000115e-01 7.348850000000000104e-01 4.100094999999999601e+00 1.131820000000000022e+02 1.790304999999999836e+03
1.390000000000000124e-01 7.349134999999999973e-01 4.003154999999999575e+00 1.133155000000000001e+02 1.790339999999999918e+03
1.400000000000000133e-01 7.349365000000001036e-01 3.897420000000000329e+00 1.134214999999999947e+02 1.790375000000000000e+03
1.410000000000000142e-01 7.349555000000000948e-01 3.784475000000000033e+00 1.135040000000000049e+02 1.790400000000000091e+03
1.420000000000000151e-01 7.349704999999999711e-01 3.666025000000000311e+00 1.135660000000000025e+02 1.790420000000000073e+03
1.430000000000000160e-01 7.349825000000000941e-01 3.543754999999999988e+00 1.136109999999999900e+02 1.790440000000000055e+03
1.440000000000000169e-01 7.349915000000000198e-01 3.419259999999999966e+00 1.136419999999999959e+02 1.790449999999999818e+03
1.450000000000000178e-01 7.349989999999999579e-01 3.293935000000000279e+00 1.136615000000000038e+02 1.790460000000000036e+03
1.459999999999999909e-01 7.350039999999999907e-01 3.168954999999999966e+00 1.136715000000000089e+02 1.790469999999999800e+03
1.469999999999999918e-01 7.350075000000000358e-01 3.045189999999999841e+00 1.136719999999999970e+02 1.790469999999999800e+03
1.479999999999999927e-01 7.350094999999999823e-01 2.923235000000000028e+00 1.136645000000000039e+02 1.790469999999999800e+03
1.489999999999999936e-01 7.350095000000000933e-01 2.803399999999999892e+00 1.136490000000000009e+02 1.790469999999999800e+03
1.499999999999999944e-01 7.350075000000000358e-01 2.685760000000000147e+00 1.136229999999999905e+02 1.790464999999999918e+03
1.509999999999999953e-01 7.350029999999999619e-01 2.570199999999999818e+00 1.135865000000000009e+02 1.790460000000000036e+03
1.519999999999999962e-01 7.349949999999999539e-01 2.456525000000000070e+00 1.135379999999999967e+02 1.790444999999999936e+03
1.529999999999999971e-01 7.349849999999999994e-01 2.344475000000000087e+00 1.134759999999999991e+02 1.790434999999999945e+03
1.539999999999999980e-01 7.349704999999999711e-01 2.233855000000000146e+00 1.133990000000000009e+02 1.790414999999999964e+03
1.549999999999999989e-01 7.349529999999999674e-01 2.124569999999999848e+00 1.133054999999999950e+02 1.790400000000000091e+03
1.559999999999999998e-01 7.349315000000000708e-01 2.016690000000000094e+00 1.131959999999999980e+02 1.790369999999999891e+03
1.570000000000000007e-01 7.349069999999999769e-01 1.910470000000000113e+00 1.130699999999999932e+02 1.790340000000000146e+03
1.580000000000000016e-01 7.348780000000000312e-01 1.806354999999999933e+00 1.129284999999999997e+02 1.790304999999999836e+03
1.590000000000000024e-01 7.348470000000000280e-01 1.704985000000000195e+00 1.127725000000000080e+02 1.790264999999999873e+03
