# t [s], A [cm^2], U [cm/s], P [cPa], c [cm/s]
1.000000000000000021e-03 1.929624999999999813e-01 1.605272500000000102e-01 9.603094999999999004e+01 1.989250000000000000e+03
2.000000000000000042e-03 1.929359999999999964e-01 1.409467499999999873e+00 9.345574999999999477e+01 1.989054999999999836e+03
3.000000000000000062e-03 1.928334999999999910e-01 3.004604000000000052e+00 8.995320000000000960e+01 1.988335000000000036e+03
4.000000000000000083e-03 1.926775000000000015e-01 4.804161000000000570e+00 8.586055000000000348e+01 1.987264999999999873e+03
5.000000000000000104e-03 1.924939999999999984e-01 6.760189999999999699e+00 8.182959999999999923e+01 1.986019999999999982e+03
6.000000000000000125e-03 1.923060000000000047e-01 8.787969999999999615e+00 7.827764999999999418e+01 1.984755000000000109e+03
7.000000000000000146e-03 1.921235000000000026e-01 1.074615499999999990e+01 7.525499999999999545e+01 1.983539999999999964e+03
8.000000000000000167e-03 1.919504999999999961e-01 1.250733500000000120e+01 7.259364999999999668e+01 1.982410000000000082e+03
9.000000000000001055e-03 1.917899999999999883e-01 1.403134999999999977e+01 7.019110000000000582e+01 1.981375000000000000e+03
1.000000000000000194e-02 1.916460000000000108e-01 1.533730000000000082e+01 6.808079999999999643e+01 1.980460000000000036e+03
1.099999999999999936e-02 1.915209999999999968e-01 1.644644999999999868e+01 6.630865000000000009e+01 1.979670000000000073e+03
1.200000000000000025e-02 1.914155000000000162e-01 1.736925000000000097e+01 6.486905000000000143e+01 1.979009999999999991e+03
1.300000000000000114e-02 1.913285000000000124e-01 1.811054999999999993e+01 6.371699999999999875e+01 1.978474999999999909e+03
1.400000000000000203e-02 1.912564999999999960e-01 1.867024999999999935e+01 6.277824999999999989e+01 1.978034999999999854e+03
1.499999999999999944e-02 1.911964999999999915e-01 1.905280000000000129e+01 6.196940000000000737e+01 1.977679999999999836e+03
1.600000000000000033e-02 1.911455000000000237e-01 1.928824999999999790e+01 6.125530000000000541e+01 1.977380000000000109e+03
1.700000000000000122e-02 1.911049999999999971e-01 1.944435000000000002e+01 6.070459999999999923e+01 1.977144999999999982e+03
1.800000000000000211e-02 1.910784999999999845e-01 1.961220000000000141e+01 6.048470000000000368e+01 1.977000000000000000e+03
1.900000000000000300e-02 1.910724999999999785e-01 1.987324999999999875e+01 6.078494999999999493e+01 1.976970000000000027e+03
2.000000000000000042e-02 1.910904999999999965e-01 2.026699999999999946e+01 6.171679999999999922e+01 1.977090000000000146e+03
2.100000000000000130e-02 1.911329999999999973e-01 2.077785000000000082e+01 6.324690000000000367e+01 1.977365000000000009e+03
2.200000000000000219e-02 1.911960000000000048e-01 2.134344999999999715e+01 6.519395000000000095e+01 1.977764999999999873e+03
2.299999999999999961e-02 1.912714999999999832e-01 2.187875000000000014e+01 6.728145000000000664e+01 1.978250000000000000e+03
2.400000000000000050e-02 1.913500000000000201e-01 2.230310000000000059e+01 6.921815000000000850e+01 1.978755000000000109e+03
2.500000000000000139e-02 1.914230000000000098e-01 2.256220000000000070e+01 7.077405000000000257e+01 1.979230000000000018e+03
2.600000000000000228e-02 1.914830000000000143e-01 2.263795000000000002e+01 7.182830000000001291e+01 1.979630000000000109e+03
2.700000000000000316e-02 1.915270000000000028e-01 2.254650000000000176e+01 7.237950000000000728e+01 1.979925000000000182e+03
2.800000000000000058e-02 1.915560000000000040e-01 2.232625000000000171e+01 7.252074999999999250e+01 1.980125000000000000e+03
2.900000000000000147e-02 1.915720000000000200e-01 2.202210000000000178e+01 7.239254999999999995e+01 1.980235000000000127e+03
3.000000000000000236e-02 1.915784999999999849e-01 2.167040000000000077e+01 7.213145000000000095e+01 1.980289999999999964e+03
3.099999999999999978e-02 1.915795000000000137e-01 2.128989999999999938e+01 7.183074999999999477e+01 1.980299999999999955e+03
3.200000000000000067e-02 1.915764999999999829e-01 2.088034999999999997e+01 7.152230000000000132e+01 1.980284999999999854e+03
3.300000000000000155e-02 1.915695000000000037e-01 2.042774999999999963e+01 7.118240000000000123e+01 1.980250000000000000e+03
3.400000000000000244e-02 1.915589999999999793e-01 1.991349999999999909e+01 7.075485000000000468e+01 1.980179999999999836e+03
3.500000000000000333e-02 1.915414999999999757e-01 1.932509999999999906e+01 7.018309999999999604e+01 1.980079999999999927e+03
3.600000000000000422e-02 1.915180000000000216e-01 1.866404999999999959e+01 6.943979999999999109e+01 1.979934999999999945e+03
3.700000000000000511e-02 1.914870000000000183e-01 1.795020000000000238e+01 6.854670000000000130e+01 1.979744999999999891e+03
3.799999999999999906e-02 1.914514999999999967e-01 1.722015000000000029e+01 6.757885000000000275e+01 1.979525000000000091e+03
3.899999999999999994e-02 1.914155000000000162e-01 1.652139999999999986e+01 6.665264999999999418e+01 1.979295000000000073e+03
4.000000000000000083e-02 1.913815000000000099e-01 1.590305000000000035e+01 6.590200000000000102e+01 1.979079999999999927e+03
4.100000000000000172e-02 1.913555000000000117e-01 1.540595000000000070e+01 6.544865000000000066e+01 1.978909999999999854e+03
4.200000000000000261e-02 1.913414999999999977e-01 1.505489999999999995e+01 6.537505000000000166e+01 1.978815000000000055e+03
4.300000000000000350e-02 1.913404999999999967e-01 1.485435000000000016e+01 6.570674999999999955e+01 1.978805000000000064e+03
4.400000000000000439e-02 1.913549999999999973e-01 1.478814999999999991e+01 6.640720000000000312e+01 1.978880000000000109e+03
4.499999999999999833e-02 1.913814999999999822e-01 1.482359999999999900e+01 6.738524999999999920e+01 1.979045000000000073e+03
4.599999999999999922e-02 1.914175000000000182e-01 1.491719999999999935e+01 6.851245000000000118e+01 1.979264999999999873e+03
4.700000000000000011e-02 1.914585000000000037e-01 1.502210000000000001e+01 6.964529999999999177e+01 1.979519999999999982e+03
4.800000000000000100e-02 1.914994999999999892e-01 1.509445000000000014e+01 7.064674999999999727e+01 1.979775000000000091e+03
4.900000000000000189e-02 1.915359999999999840e-01 1.509820000000000029e+01 7.140399999999999636e+01 1.980005000000000109e+03
5.000000000000000278e-02 1.915634999999999977e-01 1.500789999999999935e+01 7.183920000000000528e+01 1.980184999999999945e+03
5.100000000000000366e-02 1.915789999999999993e-01 1.480889999999999951e+01 7.191275000000000261e+01 1.980289999999999964e+03
5.200000000000000455e-02 1.915820000000000023e-01 1.449650000000000105e+01 7.161979999999999791e+01 1.980315000000000055e+03
5.300000000000000544e-02 1.915715000000000057e-01 1.407324999999999982e+01 7.098295000000000243e+01 1.980250000000000000e+03
5.399999999999999939e-02 1.915474999999999817e-01 1.354674999999999940e+01 7.004205000000000325e+01 1.980105000000000018e+03
5.500000000000000028e-02 1.915115000000000012e-01 1.292725000000000080e+01 6.884514999999998963e+01 1.979875000000000000e+03
5.600000000000000117e-02 1.914640000000000231e-01 1.222599999999999909e+01 6.744100000000000250e+01 1.979579999999999927e+03
5.700000000000000205e-02 1.914079999999999948e-01 1.145491499999999974e+01 6.587534999999999741e+01 1.979230000000000018e+03
5.800000000000000294e-02 1.913445000000000007e-01 1.062623999999999924e+01 6.418919999999999959e+01 1.978829999999999927e+03
5.900000000000000383e-02 1.912750000000000006e-01 9.753409999999998803e+00 6.242054999999999865e+01 1.978389999999999873e+03
6.000000000000000472e-02 1.912004999999999955e-01 8.851689999999999614e+00 6.060685000000000144e+01 1.977920000000000073e+03
6.099999999999999867e-02 1.911245000000000027e-01 7.938909999999999911e+00 5.878799999999999670e+01 1.977434999999999945e+03
6.199999999999999956e-02 1.910465000000000080e-01 7.035885000000000389e+00 5.700875000000000625e+01 1.976940000000000055e+03
6.300000000000000044e-02 1.909704999999999875e-01 6.166110000000000646e+00 5.531995000000000573e+01 1.976460000000000036e+03
6.400000000000000133e-02 1.908974999999999977e-01 5.355304999999999538e+00 5.377774999999999750e+01 1.975990000000000009e+03
6.500000000000000222e-02 1.908305000000000140e-01 4.630329999999999835e+00 5.244209999999999638e+01 1.975559999999999945e+03
6.600000000000000311e-02 1.907725000000000115e-01 4.017794999999999561e+00 5.137324999999999875e+01 1.975184999999999945e+03
6.700000000000000400e-02 1.907250000000000056e-01 3.542615000000000069e+00 5.062805000000000177e+01 1.974875000000000000e+03
6.800000000000000488e-02 1.906909999999999994e-01 3.226530000000000342e+00 5.025610000000000355e+01 1.974644999999999982e+03
6.900000000000000577e-02 1.906720000000000081e-01 3.086889999999999912e+00 5.029635000000000389e+01 1.974519999999999982e+03
7.000000000000000666e-02 1.906700000000000061e-01 3.135679999999999801e+00 5.077414999999999878e+01 1.974494999999999891e+03
7.100000000000000755e-02 1.906859999999999944e-01 3.379010000000000069e+00 5.170019999999999527e+01 1.974585000000000036e+03
7.200000000000000844e-02 1.907210000000000016e-01 3.816930000000000156e+00 5.306949999999999790e+01 1.974789999999999964e+03
7.300000000000000933e-02 1.907739999999999991e-01 4.443674999999999820e+00 5.486284999999999457e+01 1.975115000000000009e+03
7.399999999999999634e-02 1.908449999999999869e-01 5.248229999999999507e+00 5.704789999999999850e+01 1.975549999999999955e+03
7.499999999999999722e-02 1.909329999999999916e-01 6.215139999999999887e+00 5.958235000000000525e+01 1.976099999999999909e+03
7.599999999999999811e-02 1.910359999999999836e-01 7.325534999999999464e+00 6.241630000000000678e+01 1.976744999999999891e+03
7.699999999999999900e-02 1.911529999999999896e-01 8.558230000000000004e+00 6.549585000000000434e+01 1.977474999999999909e+03
7.799999999999999989e-02 1.912805000000000200e-01 9.890909999999999869e+00 6.876624999999999943e+01 1.978284999999999854e+03
7.900000000000000078e-02 1.914174999999999904e-01 1.130110499999999973e+01 7.217480000000000473e+01 1.979144999999999982e+03
8.000000000000000167e-02 1.915614999999999957e-01 1.276738000000000106e+01 7.567330000000001178e+01 1.980065000000000055e+03
8.100000000000000255e-02 1.917110000000000203e-01 1.426970000000000027e+01 7.922034999999999627e+01 1.981009999999999991e+03
8.200000000000000344e-02 1.918634999999999924e-01 1.579054999999999964e+01 8.278194999999999482e+01 1.981990000000000009e+03
8.300000000000000433e-02 1.920184999999999809e-01 1.731470000000000198e+01 8.633234999999999104e+01 1.982974999999999909e+03
8.400000000000000522e-02 1.921734999999999971e-01 1.882955000000000112e+01 8.985349999999999682e+01 1.983969999999999800e+03
8.500000000000000611e-02 1.923294999999999866e-01 2.032495000000000118e+01 9.333429999999999893e+01 1.984970000000000027e+03
8.600000000000000699e-02 1.924839999999999884e-01 2.179295000000000115e+01 9.676900000000000546e+01 1.985970000000000027e+03
8.700000000000000788e-02 1.926380000000000037e-01 2.322719999999999985e+01 1.001563000000000017e+02 1.986960000000000036e+03
8.800000000000000877e-02 1.927905000000000035e-01 2.462270000000000181e+01 1.034959999999999951e+02 1.987954999999999927e+03
8.899999999999999578e-02 1.929414999999999880e-01 2.597540000000000049e+01 1.067884999999999991e+02 1.988929999999999836e+03
8.999999999999999667e-02 1.930914999999999992e-01 2.728164999999999907e+01 1.100354999999999990e+02 1.989900000000000091e+03
9.099999999999999756e-02 1.932399999999999951e-01 2.853815000000000168e+01 1.132340000000000089e+02 1.990859999999999900e+03
9.199999999999999845e-02 1.933854999999999880e-01 2.974170000000000158e+01 1.163824999999999932e+02 1.991815000000000055e+03
9.299999999999999933e-02 1.935300000000000076e-01 3.088900000000000290e+01 1.194749999999999943e+02 1.992755000000000109e+03
9.400000000000000022e-02 1.936720000000000108e-01 3.197690000000000055e+01 1.225049999999999955e+02 1.993680000000000064e+03
9.500000000000000111e-02 1.938120000000000120e-01 3.300220000000000198e+01 1.254635000000000105e+02 1.994590000000000146e+03
9.600000000000000200e-02 1.939485000000000237e-01 3.396175000000000210e+01 1.283410000000000082e+02 1.995480000000000018e+03
9.700000000000000289e-02 1.940810000000000035e-01 3.485249999999999915e+01 1.311279999999999859e+02 1.996349999999999909e+03
9.800000000000000377e-02 1.942105000000000081e-01 3.567139999999999844e+01 1.338140000000000214e+02 1.997200000000000045e+03
9.900000000000000466e-02 1.943354999999999944e-01 3.641564999999999941e+01 1.363885000000000218e+02 1.998019999999999982e+03
1.000000000000000056e-01 1.944560000000000177e-01 3.708249999999999602e+01 1.388404999999999916e+02 1.998809999999999945e+03
1.010000000000000064e-01 1.945709999999999940e-01 3.766915000000000191e+01 1.411600000000000250e+02 1.999559999999999945e+03
1.020000000000000073e-01 1.946805000000000063e-01 3.817300000000000182e+01 1.433369999999999891e+02 2.000284999999999854e+03
1.030000000000000082e-01 1.947829999999999839e-01 3.859159999999999968e+01 1.453605000000000018e+02 2.000965000000000146e+03
1.040000000000000091e-01 1.948794999999999833e-01 3.892260000000000275e+01 1.472224999999999966e+02 2.001599999999999909e+03
1.050000000000000100e-01 1.949695000000000178e-01 3.916394999999999982e+01 1.489124999999999943e+02 2.002195000000000164e+03
1.059999999999999970e-01 1.950510000000000022e-01 3.931409999999999627e+01 1.504234999999999900e+02 2.002735000000000127e+03
1.069999999999999979e-01 1.951249999999999929e-01 3.937220000000000653e+01 1.517490000000000236e+02 2.003224999999999909e+03
1.079999999999999988e-01 1.951914999999999900e-01 3.933809999999999718e+01 1.528849999999999909e+02 2.003670000000000073e+03
1.089999999999999997e-01 1.952490000000000059e-01 3.921280000000000143e+01 1.538290000000000077e+02 2.004054999999999836e+03
1.100000000000000006e-01 1.952979999999999994e-01 3.899845000000000539e+01 1.545829999999999984e+02 2.004384999999999991e+03
1.110000000000000014e-01 1.953389999999999849e-01 3.869825000000000159e+01 1.551504999999999939e+02 2.004660000000000082e+03
1.120000000000000023e-01 1.953715000000000035e-01 3.831674999999999898e+01 1.555395000000000039e+02 2.004880000000000109e+03
1.130000000000000032e-01 1.953960000000000141e-01 3.785974999999999824e+01 1.557599999999999909e+02 2.005049999999999955e+03
1.140000000000000041e-01 1.954130000000000034e-01 3.733400000000000318e+01 1.558260000000000218e+02 2.005170000000000073e+03
1.150000000000000050e-01 1.954235000000000000e-01 3.674719999999999942e+01 1.557520000000000095e+02 2.005244999999999891e+03
1.160000000000000059e-01 1.954265000000000030e-01 3.610760000000000502e+01 1.555554999999999950e+02 2.005269999999999982e+03
1.170000000000000068e-01 1.954245000000000010e-01 3.542379999999999995e+01 1.552549999999999955e+02 2.005269999999999982e+03
1.180000000000000077e-01 1.954174999999999940e-01 3.470475000000000421e+01 1.548669999999999902e+02 2.005224999999999909e+03
1.190000000000000085e-01 1.954064999999999830e-01 3.395900000000000318e+01 1.544105000000000132e+02 2.005154999999999973e+03
1.200000000000000094e-01 1.953910000000000091e-01 3.319474999999999909e+01 1.539004999999999939e+02 2.005059999999999945e+03
1.209999999999999964e-01 1.953735000000000055e-01 3.241960000000000264e+01 1.533530000000000086e+02 2.004950000000000045e+03
1.219999999999999973e-01 1.953535000000000132e-01 3.164039999999999964e+01 1.527795000000000130e+02 2.004820000000000164e+03
1.229999999999999982e-01 1.953314999999999912e-01 3.086299999999999955e+01 1.521910000000000025e+02 2.004674999999999955e+03
1.239999999999999991e-01 1.953084999999999960e-01 3.009219999999999828e+01 1.515944999999999823e+02 2.004525000000000091e+03
1.250000000000000000e-01 1.952840000000000131e-01 2.933174999999999955e+01 1.509959999999999809e+02 2.004369999999999891e+03
1.260000000000000009e-01 1.952594999999999748e-01 2.858415000000000106e+01 1.503980000000000246e+02 2.004214999999999918e+03
1.270000000000000018e-01 1.952349999999999919e-01 2.785115000000000052e+01 1.498009999999999877e+02 2.004045000000000073e+03
1.280000000000000027e-01 1.952089999999999936e-01 2.713305000000000078e+01 1.492030000000000030e+02 2.003880000000000109e+03
1.290000000000000036e-01 1.951829999999999954e-01 2.642964999999999876e+01 1.486014999999999873e+02 2.003710000000000036e+03
1.300000000000000044e-01 1.951569999999999971e-01 2.573949999999999960e+01 1.479909999999999854e+02 2.003534999999999854e+03
1.310000000000000053e-01 1.951299999999999979e-01 2.506074999999999875e+01 1.473650000000000091e+02 2.003359999999999900e+03
1.320000000000000062e-01 1.951019999999999976e-01 2.439104999999999990e+01 1.467175000000000011e+02 2.003170000000000073e+03
1.330000000000000071e-01 1.950729999999999964e-01 2.372759999999999891e+01 1.460405000000000086e+02 2.002980000000000018e+03
1.340000000000000080e-01 1.950425000000000075e-01 2.306734999999999758e+01 1.453280000000000030e+02 2.002779999999999973e+03
1.350000000000000089e-01 1.950105000000000033e-01 2.240745000000000076e+01 1.445724999999999909e+02 2.002575000000000045e+03
1.360000000000000098e-01 1.949764999999999970e-01 2.174499999999999744e+01 1.437674999999999841e+02 2.002349999999999909e+03
1.370000000000000107e-01 1.949405000000000165e-01 2.107770000000000010e+01 1.429099999999999966e+02 2.002115000000000009e+03
1.380000000000000115e-01 1.949019999999999919e-01 2.040350000000000108e+01 1.419945000000000164e+02 2.001860000000000127e+03
1.390000000000000124e-01 1.948615000000000208e-01 1.972104999999999819e+01 1.410215000000000032e+02 2.001595000000000027e+03
1.400000000000000133e-01 1.948174999999999768e-01 1.902990000000000137e+01 1.399900000000000091e+02 2.001309999999999945e+03
1.410000000000000142e-01 1.947720000000000007e-01 1.833014999999999972e+01 1.389030000000000200e+02 2.001015000000000100e+03
1.420000000000000151e-01 1.947234999999999938e-01 1.762294999999999945e+01 1.377655000000000030e+02 2.000694999999999936e+03
1.430000000000000160e-01 1.946729999999999849e-01 1.691019999999999968e+01 1.365819999999999936e+02 2.000375000000000000e+03
1.440000000000000169e-01 1.946205000000000018e-01 1.619464999999999932e+01 1.353634999999999877e+02 2.000025000000000091e+03
1.450000000000000178e-01 1.945665000000000033e-01 1.547974999999999923e+01 1.341179999999999950e+02 1.999674999999999955e+03
1.459999999999999909e-01 1.945109999999999895e-01 1.476970000000000027e+01 1.328575000000000159e+02 1.999315000000000055e+03
1.469999999999999918e-01 1.944555000000000033e-01 1.406905000000000072e+01 1.315945000000000107e+02 1.998949999999999818e+03
1.479999999999999927e-01 1.943989999999999885e-01 1.338275000000000148e+01 1.303414999999999964e+02 1.998585000000000036e+03
1.489999999999999936e-01 1.943429999999999880e-01 1.271574999999999989e+01 1.291120000000000232e+02 1.998220000000000027e+03
1.499999999999999944e-01 1.942880000000000162e-01 1.207311999999999941e+01 1.279184999999999945e+02 1.997860000000000127e+03
1.509999999999999953e-01 1.942345000000000044e-01 1.145957999999999899e+01 1.267725000000000080e+02 1.997509999999999991e+03
1.519999999999999962e-01 1.941820000000000213e-01 1.087951499999999960e+01 1.256835000000000093e+02 1.997170000000000073e+03
1.529999999999999971e-01 1.941324999999999856e-01 1.033660000000000068e+01 1.246615000000000038e+02 1.996839999999999918e+03
1.539999999999999980e-01 1.940855000000000219e-01 9.834025000000000460e+00 1.237134999999999962e+02 1.996539999999999964e+03
1.549999999999999989e-01 1.940414999999999779e-01 9.374050000000000438e+00 1.228435000000000059e+02 1.996244999999999891e+03
1.559999999999999998e-01 1.940010000000000068e-01 8.958285000000000053e+00 1.220550000000000068e+02 1.995974999999999909e+03
1.570000000000000007e-01 1.939635000000000109e-01 8.587385000000001156e+00 1.213495000000000061e+02 1.995735000000000127e+03
1.580000000000000016e-01 1.939295000000000047e-01 8.261395000000000266e+00 1.207259999999999991e+02 1.995509999999999991e+03
1.590000000000000024e-01 1.938989999999999880e-01 7.979404999999999859e+00 1.201820000000000022e+02 1.995304999999999836e+03
