# t [s], A [cm^2], U [cm/s], P [cPa], c [cm/s]
1.000000000000000021e-03 4.714880000000000182e-01 2.549999999999996714e-03 9.500034999999999741e+01 1.571909999999999854e+03
2.000000000000000042e-03 4.714840000000000142e-01 4.536644999999999740e-03 9.498165000000000191e+01 1.571904999999999973e+03
3.000000000000000062e-03 4.715289999999999759e-01 1.100098499999999924e-01 9.508990000000000009e+01 1.571934999999999945e+03
4.000000000000000083e-03 4.715610000000000079e-01 1.917576500000000017e-01 9.519329999999999359e+01 1.571965000000000146e+03
5.000000000000000104e-03 4.715399999999999592e-01 1.539763000000000104e-01 9.512680000000000291e+01 1.571954999999999927e+03
6.000000000000000125e-03 4.714959999999999707e-01 5.696350000000000025e-02 9.491655000000000086e+01 1.571904999999999973e+03
7.000000000000000146e-03 4.714509999999999534e-01 -5.088900000000001755e-02 9.462324999999999875e+01 1.571829999999999927e+03
8.000000000000000167e-03 4.713760000000000172e-01 -2.383349999999999635e-01 9.417279999999999518e+01 1.571724999999999909e+03
9.000000000000001055e-03 4.712520000000000042e-01 -5.505200000000001204e-01 9.348205000000000098e+01 1.571554999999999836e+03
1.000000000000000194e-02 4.710750000000000215e-01 -9.916549999999999532e-01 9.250530000000000541e+01 1.571309999999999945e+03
1.099999999999999936e-02 4.708324999999999871e-01 -1.576919999999999877e+00 9.118590000000000373e+01 1.570969999999999800e+03
1.200000000000000025e-02 4.705194999999999794e-01 -2.300324999999999953e+00 8.948975000000000080e+01 1.570525000000000091e+03
1.300000000000000114e-02 4.701594999999999525e-01 -3.083870000000000111e+00 8.747905000000000086e+01 1.569985000000000127e+03
1.400000000000000203e-02 4.697979999999999934e-01 -3.789039999999999964e+00 8.532390000000000896e+01 1.569384999999999991e+03
1.499999999999999944e-02 4.694800000000000084e-01 -4.278894999999999449e+00 8.323519999999999186e+01 1.568779999999999973e+03
1.600000000000000033e-02 4.692279999999999784e-01 -4.474350900000000131e+00 8.138009999999999877e+01 1.568210000000000036e+03
1.700000000000000122e-02 4.690394999999999426e-01 -4.373305999999999472e+00 7.983039999999999736e+01 1.567695000000000164e+03
1.800000000000000211e-02 4.688895000000000146e-01 -4.036071500000000256e+00 7.855780000000000030e+01 1.567244999999999891e+03
1.900000000000000300e-02 4.687490000000000268e-01 -3.553646999999999778e+00 7.746245000000000402e+01 1.566829999999999927e+03
2.000000000000000042e-02 4.685894999999999921e-01 -3.013542999999999861e+00 7.641859999999999786e+01 1.566440000000000055e+03
2.100000000000000130e-02 4.683959999999999790e-01 -2.473807500000000381e+00 7.531969999999999743e+01 1.566035000000000082e+03
2.200000000000000219e-02 4.681690000000000018e-01 -1.952560000000000073e+00 7.410820000000001073e+01 1.565609999999999900e+03
2.299999999999999961e-02 4.679180000000000561e-01 -1.434965000000000046e+00 7.278175000000000239e+01 1.565160000000000082e+03
2.400000000000000050e-02 4.676575000000000037e-01 -8.924700000000000966e-01 7.137655000000000882e+01 1.564684999999999945e+03
2.500000000000000139e-02 4.673979999999999801e-01 -3.046699999999997743e-01 6.993845000000000312e+01 1.564204999999999927e+03
2.600000000000000228e-02 4.671425000000000161e-01 3.250399999999999956e-01 6.849535000000000196e+01 1.563714999999999918e+03
2.700000000000000316e-02 4.668835000000000068e-01 9.643400000000004191e-01 6.704040000000000532e+01 1.563220000000000027e+03
2.800000000000000058e-02 4.666064999999999796e-01 1.556939999999999991e+00 6.552859999999999729e+01 1.562714999999999918e+03
2.900000000000000147e-02 4.662934999999999719e-01 2.034889999999999866e+00 6.388694999999999879e+01 1.562170000000000073e+03
3.000000000000000236e-02 4.659280000000000088e-01 2.334220000000000184e+00 6.203385000000000105e+01 1.561569999999999936e+03
3.099999999999999978e-02 4.654999999999999694e-01 2.410004999999999953e+00 5.990155000000000030e+01 1.560909999999999854e+03
3.200000000000000067e-02 4.650085000000000468e-01 2.247234999999999427e+00 5.745775000000000432e+01 1.560170000000000073e+03
3.300000000000000155e-02 4.644639999999999880e-01 1.864745000000000097e+00 5.471860000000000213e+01 1.559345000000000027e+03
3.400000000000000244e-02 4.638855000000000617e-01 1.311679999999999957e+00 5.175154999999999461e+01 1.558465000000000146e+03
3.500000000000000333e-02 4.632990000000000164e-01 6.581500000000000128e-01 4.866689999999999827e+01 1.557545000000000073e+03
3.600000000000000422e-02 4.627310000000000034e-01 -1.747500000000012932e-02 4.560190000000000055e+01 1.556619999999999891e+03
3.700000000000000511e-02 4.622074999999999934e-01 -6.398749999999999716e-01 4.270185000000000031e+01 1.555724999999999909e+03
3.799999999999999906e-02 4.617510000000000225e-01 -1.145679999999999588e+00 4.010245000000000459e+01 1.554900000000000091e+03
3.899999999999999994e-02 4.613760000000000083e-01 -1.487999999999999989e+00 3.791655000000000086e+01 1.554175000000000182e+03
4.000000000000000083e-02 4.610925000000000162e-01 -1.637170000000000014e+00 3.622634999999999650e+01 1.553585000000000036e+03
4.100000000000000172e-02 4.609055000000000235e-01 -1.578505000000000269e+00 3.508200000000000074e+01 1.553139999999999873e+03
4.200000000000000261e-02 4.608154999999999890e-01 -1.308378999999999959e+00 3.450405000000000655e+01 1.552860000000000127e+03
4.300000000000000350e-02 4.608200000000000074e-01 -8.299155000000000282e-01 3.448899999999999721e+01 1.552735000000000127e+03
4.400000000000000439e-02 4.609150000000000191e-01 -1.494199999999999973e-01 3.501699999999999591e+01 1.552779999999999973e+03
4.499999999999999833e-02 4.610954999999999915e-01 7.257400000000000517e-01 3.605750000000000455e+01 1.552985000000000127e+03
4.599999999999999922e-02 4.613559999999999883e-01 1.787695000000000034e+00 3.757404999999999973e+01 1.553335000000000036e+03
4.700000000000000011e-02 4.616909999999999625e-01 3.027210000000000178e+00 3.952700000000000102e+01 1.553825000000000045e+03
4.800000000000000100e-02 4.620934999999999904e-01 4.432199999999999918e+00 4.187340000000000373e+01 1.554449999999999818e+03
4.900000000000000189e-02 4.625555000000000083e-01 5.986370000000000857e+00 4.456705000000000183e+01 1.555180000000000064e+03
5.000000000000000278e-02 4.630684999999999940e-01 7.668108499999999772e+00 4.755720000000000169e+01 1.556009999999999991e+03
5.100000000000000366e-02 4.636224999999999929e-01 9.450804999999999012e+00 5.078849999999999909e+01 1.556934999999999945e+03
5.200000000000000455e-02 4.642060000000000075e-01 1.130374999999999908e+01 5.420199999999999818e+01 1.557920000000000073e+03
5.300000000000000544e-02 4.648089999999999722e-01 1.319396499999999861e+01 5.773660000000000281e+01 1.558960000000000036e+03
5.399999999999999939e-02 4.654194999999999860e-01 1.508822999999999936e+01 6.133220000000000027e+01 1.560035000000000082e+03
5.500000000000000028e-02 4.660290000000000266e-01 1.695545500000000061e+01 6.493229999999999791e+01 1.561125000000000000e+03
5.600000000000000117e-02 4.666289999999999605e-01 1.876845000000000141e+01 6.848760000000000048e+01 1.562219999999999800e+03
5.700000000000000205e-02 4.672135000000000038e-01 2.050530000000000186e+01 7.195815000000000339e+01 1.563305000000000064e+03
5.800000000000000294e-02 4.677790000000000004e-01 2.215034999999999954e+01 7.531499999999999773e+01 1.564369999999999891e+03
5.900000000000000383e-02 4.683230000000000448e-01 2.369389999999999930e+01 7.854140000000001010e+01 1.565405000000000200e+03
6.000000000000000472e-02 4.688464999999999439e-01 2.513230000000000075e+01 8.163190000000000168e+01 1.566404999999999973e+03
6.099999999999999867e-02 4.693505000000000038e-01 2.646695000000000064e+01 8.459194999999999709e+01 1.567369999999999891e+03
6.199999999999999956e-02 4.698375000000000190e-01 2.770335000000000036e+01 8.743524999999999636e+01 1.568315000000000055e+03
6.300000000000000044e-02 4.703125000000000222e-01 2.885000000000000142e+01 9.018244999999998868e+01 1.569224999999999909e+03
6.400000000000000133e-02 4.707795000000000174e-01 2.991740000000000066e+01 9.285824999999999818e+01 1.570119999999999891e+03
6.500000000000000222e-02 4.712425000000000086e-01 3.091700000000000159e+01 9.548859999999999104e+01 1.570990000000000009e+03
6.600000000000000311e-02 4.717054999999999998e-01 3.186014999999999731e+01 9.810020000000000095e+01 1.571865000000000009e+03
6.700000000000000400e-02 4.721724999999999950e-01 3.275735000000000241e+01 1.007154999999999916e+02 1.572735000000000127e+03
6.800000000000000488e-02 4.726454999999999962e-01 3.361755000000000138e+01 1.033533500000000060e+02 1.573599999999999909e+03
6.900000000000000577e-02 4.731270000000000198e-01 3.444710000000000605e+01 1.060275000000000034e+02 1.574485000000000127e+03
7.000000000000000666e-02 4.736164999999999958e-01 3.525015000000000498e+01 1.087425000000000068e+02 1.575375000000000000e+03
7.100000000000000755e-02 4.741140000000000354e-01 3.602734999999999843e+01 1.114985000000000070e+02 1.576279999999999973e+03
7.200000000000000844e-02 4.746164999999999967e-01 3.677669999999999817e+01 1.142854999999999990e+02 1.577190000000000055e+03
7.300000000000000933e-02 4.751210000000000155e-01 3.749314999999999998e+01 1.170884999999999962e+02 1.578110000000000127e+03
7.399999999999999634e-02 4.756234999999999769e-01 3.816949999999999932e+01 1.198855000000000075e+02 1.579025000000000091e+03
7.499999999999999722e-02 4.761189999999999589e-01 3.879645000000000010e+01 1.226490000000000009e+02 1.579934999999999945e+03
7.599999999999999811e-02 4.766029999999999989e-01 3.936374999999999602e+01 1.253509999999999991e+02 1.580829999999999927e+03
7.699999999999999900e-02 4.770689999999999653e-01 3.986064999999999969e+01 1.279590000000000032e+02 1.581699999999999818e+03
7.799999999999999989e-02 4.775125000000000064e-01 4.027660000000000196e+01 1.304440000000000168e+02 1.582539999999999964e+03
7.900000000000000078e-02 4.779280000000000195e-01 4.060215000000000174e+01 1.327769999999999868e+02 1.583329999999999927e+03
8.000000000000000167e-02 4.783124999999999738e-01 4.082925000000000182e+01 1.349329999999999927e+02 1.584075000000000045e+03
8.100000000000000255e-02 4.786624999999999908e-01 4.095185000000000031e+01 1.368910000000000196e+02 1.584759999999999991e+03
8.200000000000000344e-02 4.789750000000000396e-01 4.096614999999999895e+01 1.386365000000000123e+02 1.585384999999999991e+03
8.300000000000000433e-02 4.792489999999999806e-01 4.087089999999999890e+01 1.401610000000000014e+02 1.585934999999999945e+03
8.400000000000000522e-02 4.794844999999999802e-01 4.066729999999999734e+01 1.414594999999999914e+02 1.586425000000000182e+03
8.500000000000000611e-02 4.796825000000000117e-01 4.035904999999999632e+01 1.425360000000000014e+02 1.586840000000000146e+03
8.600000000000000699e-02 4.798440000000000483e-01 3.995230000000000103e+01 1.433990000000000009e+02 1.587194999999999936e+03
8.700000000000000788e-02 4.799714999999999954e-01 3.945530000000000115e+01 1.440609999999999786e+02 1.587474999999999909e+03
8.800000000000000877e-02 4.800679999999999947e-01 3.887810000000000343e+01 1.445389999999999873e+02 1.587699999999999818e+03
8.899999999999999578e-02 4.801374999999999948e-01 3.823234999999999673e+01 1.448545000000000016e+02 1.587865000000000009e+03
8.999999999999999667e-02 4.801834999999999853e-01 3.753059999999999974e+01 1.450305000000000177e+02 1.587985000000000127e+03
9.099999999999999756e-02 4.802100000000000257e-01 3.678609999999999758e+01 1.450910000000000082e+02 1.588065000000000055e+03
9.199999999999999845e-02 4.802215000000000233e-01 3.601224999999999454e+01 1.450620000000000118e+02 1.588105000000000018e+03
9.299999999999999933e-02 4.802224999999999966e-01 3.522205000000000297e+01 1.449675000000000011e+02 1.588119999999999891e+03
9.400000000000000022e-02 4.802159999999999762e-01 3.442764999999999986e+01 1.448299999999999841e+02 1.588110000000000127e+03
9.500000000000000111e-02 4.802054999999999518e-01 3.364014999999999844e+01 1.446715000000000089e+02 1.588090000000000146e+03
9.600000000000000200e-02 4.801944999999999686e-01 3.286865000000000236e+01 1.445079999999999814e+02 1.588065000000000055e+03
9.700000000000000289e-02 4.801845000000000141e-01 3.212069999999999936e+01 1.443545000000000016e+02 1.588029999999999973e+03
9.800000000000000377e-02 4.801765000000000061e-01 3.140155000000000030e+01 1.442199999999999989e+02 1.588000000000000000e+03
9.900000000000000466e-02 4.801719999999999877e-01 3.071415000000000006e+01 1.441109999999999900e+02 1.587970000000000027e+03
1.000000000000000056e-01 4.801714999999999733e-01 3.005944999999999823e+01 1.440289999999999964e+02 1.587945000000000164e+03
1.010000000000000064e-01 4.801735000000000309e-01 2.943615000000000137e+01 1.439710000000000036e+02 1.587929999999999836e+03
1.020000000000000073e-01 4.801765000000000061e-01 2.884110000000000085e+01 1.439314999999999998e+02 1.587910000000000082e+03
1.030000000000000082e-01 4.801799999999999402e-01 2.826975000000000193e+01 1.439014999999999986e+02 1.587894999999999982e+03
1.040000000000000091e-01 4.801809999999999690e-01 2.771620000000000061e+01 1.438689999999999998e+02 1.587884999999999991e+03
1.050000000000000100e-01 4.801779999999999937e-01 2.717374999999999829e+01 1.438220000000000027e+02 1.587865000000000009e+03
1.059999999999999970e-01 4.801684999999999981e-01 2.663550000000000040e+01 1.437475000000000023e+02 1.587840000000000146e+03
1.069999999999999979e-01 4.801500000000000212e-01 2.609434999999999860e+01 1.436314999999999884e+02 1.587805000000000064e+03
1.079999999999999988e-01 4.801214999999999788e-01 2.554370000000000118e+01 1.434624999999999773e+02 1.587750000000000000e+03
1.089999999999999997e-01 4.800804999999999656e-01 2.497769999999999868e+01 1.432295000000000016e+02 1.587684999999999945e+03
1.100000000000000006e-01 4.800260000000000082e-01 2.439154999999999873e+01 1.429234999999999900e+02 1.587594999999999800e+03
1.110000000000000014e-01 4.799570000000000225e-01 2.378170000000000073e+01 1.425395000000000039e+02 1.587485000000000127e+03
1.120000000000000023e-01 4.798739999999999672e-01 2.314630000000000010e+01 1.420745000000000005e+02 1.587345000000000027e+03
1.130000000000000032e-01 4.797760000000000358e-01 2.248489999999999966e+01 1.415285000000000082e+02 1.587184999999999945e+03
1.140000000000000041e-01 4.796655000000000224e-01 2.179874999999999829e+01 1.409050000000000011e+02 1.587000000000000000e+03
1.150000000000000050e-01 4.795424999999999827e-01 2.109065000000000012e+01 1.402110000000000127e+02 1.586789999999999964e+03
1.160000000000000059e-01 4.794095000000000439e-01 2.036509999999999820e+01 1.394565000000000055e+02 1.586565000000000055e+03
1.170000000000000068e-01 4.792690000000000006e-01 1.962785000000000224e+01 1.386529999999999916e+02 1.586324999999999818e+03
1.180000000000000077e-01 4.791225000000000067e-01 1.888564999999999827e+01 1.378140000000000214e+02 1.586069999999999936e+03
1.190000000000000085e-01 4.789740000000000109e-01 1.814630000000000010e+01 1.369569999999999936e+02 1.585799999999999955e+03
1.200000000000000094e-01 4.788255000000000150e-01 1.741799999999999926e+01 1.360964999999999918e+02 1.585534999999999854e+03
1.209999999999999964e-01 4.786799999999999944e-01 1.670919999999999916e+01 1.352504999999999882e+02 1.585269999999999982e+03
1.219999999999999973e-01 4.785415000000000640e-01 1.602824999999999989e+01 1.344354999999999905e+02 1.585005000000000109e+03
1.229999999999999982e-01 4.784104999999999608e-01 1.538295000000000101e+01 1.336664999999999850e+02 1.584755000000000109e+03
1.239999999999999991e-01 4.782910000000000217e-01 1.478014999999999901e+01 1.329569999999999936e+02 1.584525000000000091e+03
1.250000000000000000e-01 4.781840000000000535e-01 1.422605000000000075e+01 1.323190000000000168e+02 1.584305000000000064e+03
1.260000000000000009e-01 4.780915000000000026e-01 1.372505500000000112e+01 1.317599999999999909e+02 1.584110000000000127e+03
1.270000000000000018e-01 4.780139999999999945e-01 1.328049000000000035e+01 1.312880000000000109e+02 1.583940000000000055e+03
1.280000000000000027e-01 4.779514999999999736e-01 1.289390500000000017e+01 1.309055000000000177e+02 1.583795000000000073e+03
1.290000000000000036e-01 4.779039999999999955e-01 1.256541999999999959e+01 1.306109999999999900e+02 1.583680000000000064e+03
1.300000000000000044e-01 4.778709999999999902e-01 1.229355499999999957e+01 1.304035000000000082e+02 1.583585000000000036e+03
1.310000000000000053e-01 4.778519999999999990e-01 1.207556500000000099e+01 1.302764999999999986e+02 1.583514999999999873e+03
1.320000000000000062e-01 4.778445000000000054e-01 1.190739999999999910e+01 1.302219999999999800e+02 1.583474999999999909e+03
1.330000000000000071e-01 4.778470000000000217e-01 1.178414500000000054e+01 1.302319999999999993e+02 1.583454999999999927e+03
1.340000000000000080e-01 4.778580000000000050e-01 1.170009999999999906e+01 1.302934999999999945e+02 1.583445000000000164e+03
1.350000000000000089e-01 4.778755000000000086e-01 1.164910000000000068e+01 1.303975000000000080e+02 1.583460000000000036e+03
1.360000000000000098e-01 4.778970000000000162e-01 1.162484999999999857e+01 1.305305000000000177e+02 1.583480000000000018e+03
1.370000000000000107e-01 4.779214999999999991e-01 1.162109999999999843e+01 1.306825000000000045e+02 1.583509999999999991e+03
1.380000000000000115e-01 4.779465000000000519e-01 1.163180000000000014e+01 1.308425000000000011e+02 1.583549999999999955e+03
1.390000000000000124e-01 4.779710000000000347e-01 1.165145000000000053e+01 1.310010000000000048e+02 1.583585000000000036e+03
1.400000000000000133e-01 4.779935000000000156e-01 1.167514999999999858e+01 1.311500000000000057e+02 1.583619999999999891e+03
1.410000000000000142e-01 4.780129999999999657e-01 1.169865000000000066e+01 1.312845000000000084e+02 1.583659999999999854e+03
1.420000000000000151e-01 4.780300000000000660e-01 1.171855000000000047e+01 1.313994999999999891e+02 1.583695000000000164e+03
1.430000000000000160e-01 4.780424999999999813e-01 1.173230000000000040e+01 1.314915000000000020e+02 1.583720000000000027e+03
1.440000000000000169e-01 4.780510000000000037e-01 1.173805000000000121e+01 1.315600000000000023e+02 1.583740000000000009e+03
1.450000000000000178e-01 4.780555000000000221e-01 1.173484999999999978e+01 1.316049999999999898e+02 1.583759999999999991e+03
1.459999999999999909e-01 4.780569999999999542e-01 1.172234500000000068e+01 1.316289999999999907e+02 1.583764999999999873e+03
1.469999999999999918e-01 4.780554999999999666e-01 1.170090000000000074e+01 1.316334999999999980e+02 1.583769999999999982e+03
1.479999999999999927e-01 4.780515000000000181e-01 1.167145000000000010e+01 1.316225000000000023e+02 1.583769999999999982e+03
1.489999999999999936e-01 4.780465000000000408e-01 1.163524999999999920e+01 1.316000000000000227e+02 1.583764999999999873e+03
1.499999999999999944e-01 4.780404999999999793e-01 1.159387500000000060e+01 1.315709999999999980e+02 1.583759999999999991e+03
1.509999999999999953e-01 4.780345000000000288e-01 1.154921500000000023e+01 1.315395000000000039e+02 1.583755000000000109e+03
1.519999999999999962e-01 4.780294999999999961e-01 1.150311500000000109e+01 1.315095000000000027e+02 1.583744999999999891e+03
1.529999999999999971e-01 4.780254999999999921e-01 1.145735499999999973e+01 1.314855000000000018e+02 1.583740000000000009e+03
1.539999999999999980e-01 4.780235000000000456e-01 1.141364000000000090e+01 1.314710000000000036e+02 1.583735000000000127e+03
1.549999999999999989e-01 4.780240000000000045e-01 1.137348500000000051e+01 1.314680000000000177e+02 1.583735000000000127e+03
1.559999999999999998e-01 4.780264999999999653e-01 1.133798499999999976e+01 1.314789999999999850e+02 1.583740000000000009e+03
1.570000000000000007e-01 4.780320000000000125e-01 1.130799000000000021e+01 1.315045000000000073e+02 1.583744999999999891e+03
1.580000000000000016e-01 4.780404999999999793e-01 1.128397999999999968e+01 1.315444999999999993e+02 1.583755000000000109e+03
1.590000000000000024e-01 4.780510000000000037e-01 1.126606500000000111e+01 1.315994999999999777e+02 1.583769999999999982e+03
