# t [s], A [cm^2], U [cm/s], P [cPa], c [cm/s]
1.000000000000000021e-03 1.252389999999999892e-01 4.130975000000000064e-01 8.988290000000000646e+01 1.979030000000000200e+03
2.000000000000000042e-03 1.252099999999999880e-01 1.940149999999999819e+00 8.654990000000000805e+01 1.978630000000000109e+03
3.000000000000000062e-03 1.251255000000000006e-01 3.759259000000000128e+00 8.223789999999999623e+01 1.977509999999999991e+03
4.000000000000000083e-03 1.250084999999999946e-01 5.773082000000000491e+00 7.778390000000000271e+01 1.975994999999999891e+03
5.000000000000000104e-03 1.248815000000000064e-01 7.912759999999999572e+00 7.395015000000000782e+01 1.974355000000000018e+03
6.000000000000000125e-03 1.247574999999999934e-01 1.001123499999999922e+01 7.088575000000000159e+01 1.972769999999999982e+03
7.000000000000000146e-03 1.246400000000000008e-01 1.188875499999999974e+01 6.829224999999999568e+01 1.971289999999999964e+03
8.000000000000000167e-03 1.245310000000000028e-01 1.349053999999999931e+01 6.595369999999999777e+01 1.969934999999999945e+03
9.000000000000001055e-03 1.244325000000000014e-01 1.485565000000000069e+01 6.391429999999999723e+01 1.968740000000000009e+03
1.000000000000000194e-02 1.243480000000000002e-01 1.601160000000000139e+01 6.222614999999999696e+01 1.967715000000000146e+03
1.099999999999999936e-02 1.242764999999999981e-01 1.696519999999999939e+01 6.084749999999999659e+01 1.966860000000000127e+03
1.200000000000000025e-02 1.242165000000000075e-01 1.772360000000000113e+01 5.971039999999999992e+01 1.966150000000000091e+03
1.300000000000000114e-02 1.241659999999999986e-01 1.829129999999999967e+01 5.873575000000000301e+01 1.965559999999999945e+03
1.400000000000000203e-02 1.241229999999999972e-01 1.868099999999999739e+01 5.784584999999999866e+01 1.965065000000000055e+03
1.499999999999999944e-02 1.240860000000000019e-01 1.894754999999999967e+01 5.705625000000000568e+01 1.964650000000000091e+03
1.600000000000000033e-02 1.240570000000000006e-01 1.920080000000000098e+01 5.655509999999999593e+01 1.964329999999999927e+03
1.700000000000000122e-02 1.240414999999999990e-01 1.956855000000000189e+01 5.664610000000000412e+01 1.964159999999999854e+03
1.800000000000000211e-02 1.240450000000000025e-01 2.013300000000000267e+01 5.757240000000000180e+01 1.964215000000000146e+03
1.900000000000000300e-02 1.240700000000000136e-01 2.088569999999999993e+01 5.934734999999999872e+01 1.964519999999999982e+03
2.000000000000000042e-02 1.241140000000000021e-01 2.172735000000000127e+01 6.169995000000000118e+01 1.965049999999999955e+03
2.100000000000000130e-02 1.241695000000000160e-01 2.250670000000000215e+01 6.415694999999999482e+01 1.965720000000000027e+03
2.200000000000000219e-02 1.242255000000000026e-01 2.307665000000000077e+01 6.620695000000000618e+01 1.966410000000000082e+03
2.299999999999999961e-02 1.242724999999999941e-01 2.334114999999999895e+01 6.746645000000000891e+01 1.966994999999999891e+03
2.400000000000000050e-02 1.243029999999999968e-01 2.327935000000000088e+01 6.778489999999999327e+01 1.967394999999999982e+03
2.500000000000000139e-02 1.243154999999999955e-01 2.294024999999999892e+01 6.725854999999999961e+01 1.967565000000000055e+03
2.600000000000000228e-02 1.243104999999999905e-01 2.241615000000000180e+01 6.616145000000000209e+01 1.967529999999999973e+03
2.700000000000000316e-02 1.242945000000000022e-01 2.180655000000000143e+01 6.483064999999999145e+01 1.967355000000000018e+03
2.800000000000000058e-02 1.242719999999999936e-01 2.118719999999999715e+01 6.355154999999999887e+01 1.967095000000000027e+03
2.900000000000000147e-02 1.242479999999999973e-01 2.059394999999999953e+01 6.248359999999999559e+01 1.966815000000000055e+03
3.000000000000000236e-02 1.242264999999999897e-01 2.002315000000000111e+01 6.164265000000000327e+01 1.966550000000000182e+03
3.099999999999999978e-02 1.242059999999999970e-01 1.944585000000000008e+01 6.093430000000000035e+01 1.966309999999999945e+03
3.200000000000000067e-02 1.241859999999999908e-01 1.882750000000000057e+01 6.021755000000000280e+01 1.966065000000000055e+03
3.300000000000000155e-02 1.241639999999999966e-01 1.814775000000000205e+01 5.937409999999999854e+01 1.965804999999999836e+03
3.400000000000000244e-02 1.241389999999999993e-01 1.741304999999999836e+01 5.836104999999999876e+01 1.965505000000000109e+03
3.500000000000000333e-02 1.241099999999999981e-01 1.666025000000000134e+01 5.723449999999999704e+01 1.965164999999999964e+03
3.600000000000000422e-02 1.240804999999999964e-01 1.594969999999999999e+01 5.613854999999999507e+01 1.964809999999999945e+03
3.700000000000000511e-02 1.240529999999999966e-01 1.535069999999999979e+01 5.526585000000000036e+01 1.964470000000000027e+03
3.799999999999999906e-02 1.240314999999999890e-01 1.492409999999999926e+01 5.480294999999999561e+01 1.964210000000000036e+03
3.899999999999999994e-02 1.240205000000000057e-01 1.470659999999999989e+01 5.487694999999999368e+01 1.964065000000000055e+03
4.000000000000000083e-02 1.240215000000000067e-01 1.470095000000000063e+01 5.551784999999999570e+01 1.964069999999999936e+03
4.100000000000000172e-02 1.240360000000000074e-01 1.487434999999999974e+01 5.664685000000000059e+01 1.964224999999999909e+03
4.200000000000000261e-02 1.240610000000000046e-01 1.516434999999999889e+01 5.808979999999999677e+01 1.964519999999999982e+03
4.300000000000000350e-02 1.240929999999999950e-01 1.549014999999999986e+01 5.961025000000000063e+01 1.964894999999999982e+03
4.400000000000000439e-02 1.241280000000000161e-01 1.576595000000000013e+01 6.095300000000000296e+01 1.965305000000000064e+03
4.499999999999999833e-02 1.241579999999999906e-01 1.591380000000000017e+01 6.188589999999999947e+01 1.965664999999999964e+03
4.599999999999999922e-02 1.241789999999999977e-01 1.587294999999999945e+01 6.223319999999999652e+01 1.965925000000000182e+03
4.700000000000000011e-02 1.241869999999999918e-01 1.560549999999999926e+01 6.189379999999999882e+01 1.966025000000000091e+03
4.800000000000000100e-02 1.241789999999999977e-01 1.509710000000000107e+01 6.084530000000000172e+01 1.965940000000000055e+03
4.900000000000000189e-02 1.241539999999999866e-01 1.435510000000000019e+01 5.913429999999999609e+01 1.965650000000000091e+03
5.000000000000000278e-02 1.241125000000000145e-01 1.340350000000000108e+01 5.685930000000000462e+01 1.965154999999999973e+03
5.100000000000000366e-02 1.240570000000000006e-01 1.227788500000000127e+01 5.414959999999999951e+01 1.964490000000000009e+03
5.200000000000000455e-02 1.239885000000000015e-01 1.102052999999999905e+01 5.114664999999999395e+01 1.963674999999999955e+03
5.300000000000000544e-02 1.239119999999999944e-01 9.676545000000000840e+00 4.798935000000000173e+01 1.962755000000000109e+03
5.399999999999999939e-02 1.238289999999999946e-01 8.291525000000000034e+00 4.480595000000000283e+01 1.961759999999999991e+03
5.500000000000000028e-02 1.237439999999999929e-01 6.910429999999999851e+00 4.171094999999999686e+01 1.960734999999999900e+03
5.600000000000000117e-02 1.236590000000000050e-01 5.577309999999999768e+00 3.880615000000000236e+01 1.959715000000000146e+03
5.700000000000000205e-02 1.235775000000000068e-01 4.335205000000000197e+00 3.618319999999999936e+01 1.958730000000000018e+03
5.800000000000000294e-02 1.235020000000000007e-01 3.226051999999999698e+00 3.392719999999999914e+01 1.957819999999999936e+03
5.900000000000000383e-02 1.234355000000000036e-01 2.290106000000000197e+00 3.211744999999999806e+01 1.957005000000000109e+03
6.000000000000000472e-02 1.233800000000000036e-01 1.564833000000000141e+00 3.082710000000000150e+01 1.956329999999999927e+03
6.099999999999999867e-02 1.233375000000000027e-01 1.083413500000000029e+00 3.012104999999999677e+01 1.955804999999999836e+03
6.199999999999999956e-02 1.233104999999999896e-01 8.729159000000000779e-01 3.005154999999999887e+01 1.955464999999999918e+03
6.300000000000000044e-02 1.232999999999999929e-01 9.525945000000000107e-01 3.065415000000000134e+01 1.955320000000000164e+03
6.400000000000000133e-02 1.233075000000000004e-01 1.332453499999999957e+00 3.194350000000000023e+01 1.955400000000000091e+03
6.500000000000000222e-02 1.233344999999999997e-01 2.012398000000000131e+00 3.391100000000000136e+01 1.955694999999999936e+03
6.600000000000000311e-02 1.233795000000000031e-01 2.982054999999999900e+00 3.652405000000000257e+01 1.956215000000000146e+03
6.700000000000000400e-02 1.234424999999999967e-01 4.221370000000000289e+00 3.972729999999999961e+01 1.956954999999999927e+03
6.800000000000000488e-02 1.235219999999999929e-01 5.701799999999999535e+00 4.344594999999999629e+01 1.957894999999999982e+03
6.900000000000000577e-02 1.236170000000000047e-01 7.387995000000000090e+00 4.759049999999999869e+01 1.959025000000000091e+03
7.000000000000000666e-02 1.237250000000000016e-01 9.239985000000000781e+00 5.206230000000000047e+01 1.960315000000000055e+03
7.100000000000000755e-02 1.238434999999999953e-01 1.121512500000000045e+01 5.675960000000000605e+01 1.961730000000000018e+03
7.200000000000000844e-02 1.239699999999999969e-01 1.327045000000000030e+01 6.158310000000000173e+01 1.963250000000000000e+03
7.300000000000000933e-02 1.241015000000000035e-01 1.536475000000000080e+01 6.644124999999999659e+01 1.964840000000000146e+03
7.399999999999999634e-02 1.242359999999999853e-01 1.746014999999999873e+01 7.125419999999999732e+01 1.966474999999999909e+03
7.499999999999999722e-02 1.243720000000000103e-01 1.952380000000000138e+01 7.595750000000001023e+01 1.968115000000000009e+03
7.599999999999999811e-02 1.245060000000000056e-01 2.152899999999999991e+01 8.050379999999999825e+01 1.969755000000000109e+03
7.699999999999999900e-02 1.246374999999999844e-01 2.345575000000000188e+01 8.486395000000000266e+01 1.971369999999999891e+03
7.799999999999999989e-02 1.247655000000000014e-01 2.529119999999999990e+01 8.902664999999998940e+01 1.972945000000000164e+03
7.900000000000000078e-02 1.248895000000000005e-01 2.702929999999999922e+01 9.299694999999999823e+01 1.974474999999999909e+03
8.000000000000000167e-02 1.250094999999999956e-01 2.867025000000000290e+01 9.679434999999999434e+01 1.975954999999999927e+03
8.100000000000000255e-02 1.251249999999999862e-01 3.021955000000000169e+01 1.004483500000000049e+02 1.977389999999999873e+03
8.200000000000000344e-02 1.252375000000000016e-01 3.168675000000000352e+01 1.039953000000000003e+02 1.978779999999999973e+03
8.300000000000000433e-02 1.253475000000000006e-01 3.308395000000000152e+01 1.074759999999999991e+02 1.980139999999999873e+03
8.400000000000000522e-02 1.254549999999999832e-01 3.442439999999999856e+01 1.109279999999999973e+02 1.981485000000000127e+03
8.500000000000000611e-02 1.255620000000000069e-01 3.572109999999999985e+01 1.143864999999999981e+02 1.982809999999999945e+03
8.600000000000000699e-02 1.256680000000000019e-01 3.698555000000000348e+01 1.178774999999999977e+02 1.984144999999999982e+03
8.700000000000000788e-02 1.257754999999999845e-01 3.822664999999999935e+01 1.214174999999999898e+02 1.985480000000000018e+03
8.800000000000000877e-02 1.258835000000000093e-01 3.945000000000000284e+01 1.250144999999999982e+02 1.986825000000000045e+03
8.899999999999999578e-02 1.259925000000000073e-01 4.065780000000000172e+01 1.286624999999999943e+02 1.988184999999999945e+03
8.999999999999999667e-02 1.261025000000000063e-01 4.184815000000000396e+01 1.323464999999999918e+02 1.989565000000000055e+03
9.099999999999999756e-02 1.262130000000000196e-01 4.301554999999999751e+01 1.360425000000000182e+02 1.990949999999999818e+03
9.199999999999999845e-02 1.263239999999999919e-01 4.415139999999999532e+01 1.397175000000000011e+02 1.992335000000000036e+03
9.299999999999999933e-02 1.264345000000000052e-01 4.524445000000000050e+01 1.433340000000000032e+02 1.993720000000000027e+03
9.400000000000000022e-02 1.265430000000000166e-01 4.628149999999999409e+01 1.468500000000000227e+02 1.995085000000000036e+03
9.500000000000000111e-02 1.266484999999999972e-01 4.724819999999999709e+01 1.502235000000000014e+02 1.996414999999999964e+03
9.600000000000000200e-02 1.267510000000000026e-01 4.812994999999999379e+01 1.534130000000000109e+02 1.997700000000000045e+03
9.700000000000000289e-02 1.268485000000000029e-01 4.891270000000000095e+01 1.563795000000000073e+02 1.998929999999999836e+03
9.800000000000000377e-02 1.269394999999999829e-01 4.958350000000000080e+01 1.590904999999999916e+02 2.000085000000000036e+03
9.900000000000000466e-02 1.270244999999999846e-01 5.013129999999999598e+01 1.615159999999999911e+02 2.001159999999999854e+03
1.000000000000000056e-01 1.271015000000000061e-01 5.054739999999999611e+01 1.636370000000000005e+02 2.002139999999999873e+03
1.010000000000000064e-01 1.271700000000000053e-01 5.082604999999999507e+01 1.654389999999999930e+02 2.003014999999999873e+03
1.020000000000000073e-01 1.272300000000000098e-01 5.096439999999999770e+01 1.669170000000000016e+02 2.003784999999999854e+03
1.030000000000000082e-01 1.272810000000000052e-01 5.096294999999999931e+01 1.680734999999999957e+02 2.004440000000000055e+03
1.040000000000000091e-01 1.273230000000000195e-01 5.082554999999999978e+01 1.689194999999999993e+02 2.004985000000000127e+03
1.050000000000000100e-01 1.273565000000000114e-01 5.055904999999999916e+01 1.694714999999999918e+02 2.005420000000000073e+03
1.059999999999999970e-01 1.273814999999999809e-01 5.017310000000000514e+01 1.697549999999999955e+02 2.005744999999999891e+03
1.069999999999999979e-01 1.273984999999999979e-01 4.967990000000000350e+01 1.697970000000000255e+02 2.005974999999999909e+03
1.079999999999999988e-01 1.274085000000000079e-01 4.909364999999999668e+01 1.696314999999999884e+02 2.006110000000000127e+03
1.089999999999999997e-01 1.274124999999999841e-01 4.842985000000000184e+01 1.692939999999999827e+02 2.006164999999999964e+03
1.100000000000000006e-01 1.274099999999999955e-01 4.770479999999999876e+01 1.688205000000000098e+02 2.006150000000000091e+03
1.110000000000000014e-01 1.274035000000000029e-01 4.693489999999999895e+01 1.682470000000000141e+02 2.006079999999999927e+03
1.120000000000000023e-01 1.273934999999999929e-01 4.613615000000000066e+01 1.676069999999999993e+02 2.005954999999999927e+03
1.130000000000000032e-01 1.273805000000000076e-01 4.532345000000000113e+01 1.669314999999999998e+02 2.005799999999999955e+03
1.140000000000000041e-01 1.273654999999999926e-01 4.451019999999999754e+01 1.662470000000000141e+02 2.005619999999999891e+03
1.150000000000000050e-01 1.273499999999999910e-01 4.370775000000000432e+01 1.655749999999999886e+02 2.005420000000000073e+03
1.160000000000000059e-01 1.273334999999999884e-01 4.292524999999999835e+01 1.649320000000000164e+02 2.005215000000000146e+03
1.170000000000000068e-01 1.273175000000000001e-01 4.216940000000000310e+01 1.643284999999999911e+02 2.005009999999999991e+03
1.180000000000000077e-01 1.273015000000000119e-01 4.144435000000000002e+01 1.637680000000000007e+02 2.004809999999999945e+03
1.190000000000000085e-01 1.272864999999999969e-01 4.075164999999999793e+01 1.632504999999999882e+02 2.004619999999999891e+03
1.200000000000000094e-01 1.272719999999999962e-01 4.009064999999999657e+01 1.627699999999999818e+02 2.004434999999999945e+03
1.209999999999999964e-01 1.272579999999999822e-01 3.945844999999999914e+01 1.623165000000000191e+02 2.004255000000000109e+03
1.219999999999999973e-01 1.272445000000000104e-01 3.885030000000000427e+01 1.618745000000000118e+02 2.004079999999999927e+03
1.229999999999999982e-01 1.272309999999999830e-01 3.825990000000000180e+01 1.614290000000000020e+02 2.003909999999999854e+03
1.239999999999999991e-01 1.272179999999999978e-01 3.768009999999999593e+01 1.609615000000000009e+02 2.003735000000000127e+03
1.250000000000000000e-01 1.272034999999999971e-01 3.710305000000000319e+01 1.604530000000000030e+02 2.003549999999999955e+03
1.260000000000000009e-01 1.271879999999999955e-01 3.652070000000000505e+01 1.598855000000000075e+02 2.003360000000000127e+03
1.270000000000000018e-01 1.271710000000000063e-01 3.592544999999999789e+01 1.592425000000000068e+02 2.003140000000000100e+03
1.280000000000000027e-01 1.271525000000000016e-01 3.531019999999999470e+01 1.585090000000000146e+02 2.002905000000000200e+03
1.290000000000000036e-01 1.271309999999999940e-01 3.466924999999999812e+01 1.576750000000000114e+02 2.002634999999999991e+03
1.300000000000000044e-01 1.271075000000000121e-01 3.399799999999999756e+01 1.567319999999999993e+02 2.002335000000000036e+03
1.310000000000000053e-01 1.270805000000000129e-01 3.329380000000000450e+01 1.556779999999999973e+02 2.002000000000000000e+03
1.320000000000000062e-01 1.270505000000000106e-01 3.255575000000000330e+01 1.545134999999999934e+02 2.001625000000000000e+03
1.330000000000000071e-01 1.270179999999999920e-01 3.178484999999999872e+01 1.532450000000000045e+02 2.001215000000000146e+03
1.340000000000000080e-01 1.269824999999999982e-01 3.098420000000000130e+01 1.518834999999999980e+02 2.000769999999999982e+03
1.350000000000000089e-01 1.269440000000000013e-01 3.015865000000000151e+01 1.504440000000000168e+02 2.000295000000000073e+03
1.360000000000000098e-01 1.269040000000000168e-01 2.931470000000000198e+01 1.489440000000000168e+02 1.999784999999999854e+03
1.370000000000000107e-01 1.268615000000000159e-01 2.846030000000000015e+01 1.474055000000000177e+02 1.999255000000000109e+03
1.380000000000000115e-01 1.268179999999999863e-01 2.760444999999999993e+01 1.458514999999999873e+02 1.998710000000000036e+03
1.390000000000000124e-01 1.267739999999999978e-01 2.675690000000000168e+01 1.443070000000000164e+02 1.998154999999999973e+03
1.400000000000000133e-01 1.267294999999999949e-01 2.592750000000000199e+01 1.427955000000000041e+02 1.997599999999999909e+03
1.410000000000000142e-01 1.266859999999999931e-01 2.512615000000000265e+01 1.413404999999999916e+02 1.997050000000000182e+03
1.420000000000000151e-01 1.266430000000000056e-01 2.436209999999999809e+01 1.399639999999999986e+02 1.996519999999999982e+03
1.430000000000000160e-01 1.266025000000000067e-01 2.364365000000000094e+01 1.386845000000000141e+02 1.996005000000000109e+03
1.440000000000000169e-01 1.265640000000000098e-01 2.297789999999999822e+01 1.375169999999999959e+02 1.995519999999999982e+03
1.450000000000000178e-01 1.265284999999999882e-01 2.237044999999999817e+01 1.364735000000000014e+02 1.995074999999999818e+03
1.459999999999999909e-01 1.264965000000000117e-01 2.182525000000000048e+01 1.355614999999999952e+02 1.994659999999999854e+03
1.469999999999999918e-01 1.264669999999999961e-01 2.134450000000000003e+01 1.347824999999999989e+02 1.994295000000000073e+03
1.479999999999999927e-01 1.264414999999999845e-01 2.092864999999999753e+01 1.341374999999999886e+02 1.993970000000000027e+03
1.489999999999999936e-01 1.264200000000000046e-01 2.057645000000000124e+01 1.336204999999999927e+02 1.993690000000000055e+03
1.499999999999999944e-01 1.264015000000000000e-01 2.028504999999999825e+01 1.332245000000000061e+02 1.993454999999999927e+03
1.509999999999999953e-01 1.263865000000000127e-01 2.005049999999999955e+01 1.329375000000000000e+02 1.993259999999999991e+03
1.519999999999999962e-01 1.263745000000000007e-01 1.986744999999999806e+01 1.327470000000000141e+02 1.993105000000000018e+03
1.529999999999999971e-01 1.263654999999999917e-01 1.972990000000000066e+01 1.326390000000000100e+02 1.992985000000000127e+03
1.539999999999999980e-01 1.263589999999999991e-01 1.963119999999999976e+01 1.325975000000000250e+02 1.992904999999999973e+03
1.549999999999999989e-01 1.263539999999999941e-01 1.956455000000000055e+01 1.326080000000000041e+02 1.992839999999999918e+03
1.559999999999999998e-01 1.263519999999999921e-01 1.952289999999999992e+01 1.326560000000000059e+02 1.992804999999999836e+03
1.570000000000000007e-01 1.263505000000000045e-01 1.949970000000000070e+01 1.327270000000000039e+02 1.992784999999999854e+03
1.580000000000000016e-01 1.263505000000000045e-01 1.948859999999999815e+01 1.328095000000000141e+02 1.992775000000000091e+03
1.590000000000000024e-01 1.263505000000000045e-01 1.948404999999999987e+01 1.328924999999999841e+02 1.992775000000000091e+03
