# t [s], A [cm^2], U [cm/s], P [cPa], c [cm/s]
1.000000000000000021e-03 1.946320000000000272e-01 3.971073000000000519e-01 8.951890000000000214e+01 1.994110000000000127e+03
2.000000000000000042e-03 1.945700000000000207e-01 1.999734499999999748e+00 8.611135000000000161e+01 1.993615000000000009e+03
3.000000000000000062e-03 1.944115000000000149e-01 3.930446499999999954e+00 8.149195000000000277e+01 1.992394999999999982e+03
4.000000000000000083e-03 1.942019999999999857e-01 6.086244999999999905e+00 7.669999999999998863e+01 1.990804999999999836e+03
5.000000000000000104e-03 1.939850000000000185e-01 8.379934999999999690e+00 7.264920000000000755e+01 1.989170000000000073e+03
6.000000000000000125e-03 1.937805000000000222e-01 1.058606499999999961e+01 6.947164999999999679e+01 1.987650000000000091e+03
7.000000000000000146e-03 1.935925000000000007e-01 1.247622000000000142e+01 6.676810000000000400e+01 1.986279999999999973e+03
8.000000000000000167e-03 1.934230000000000116e-01 1.401357999999999926e+01 6.434024999999999750e+01 1.985065000000000055e+03
9.000000000000001055e-03 1.932774999999999910e-01 1.526559999999999917e+01 6.230744999999999578e+01 1.984045000000000073e+03
1.000000000000000194e-02 1.931579999999999964e-01 1.626435000000000031e+01 6.071815000000000140e+01 1.983210000000000036e+03
1.099999999999999936e-02 1.930634999999999990e-01 1.702965000000000018e+01 5.951754999999999995e+01 1.982559999999999945e+03
1.200000000000000025e-02 1.929914999999999825e-01 1.758810000000000073e+01 5.865240000000000009e+01 1.982070000000000164e+03
1.300000000000000114e-02 1.929369999999999974e-01 1.794780000000000086e+01 5.802584999999999837e+01 1.981715000000000146e+03
1.400000000000000203e-02 1.928945000000000243e-01 1.812310000000000088e+01 5.751600000000000534e+01 1.981444999999999936e+03
1.499999999999999944e-02 1.928635000000000210e-01 1.820139999999999958e+01 5.716150000000000375e+01 1.981250000000000000e+03
1.600000000000000033e-02 1.928500000000000214e-01 1.835334999999999894e+01 5.727544999999999931e+01 1.981179999999999836e+03
1.700000000000000122e-02 1.928684999999999983e-01 1.875050000000000239e+01 5.829260000000000019e+01 1.981324999999999818e+03
1.800000000000000211e-02 1.929290000000000171e-01 1.945680000000000121e+01 6.044989999999999952e+01 1.981750000000000000e+03
1.900000000000000300e-02 1.930304999999999938e-01 2.037695000000000078e+01 6.355444999999999567e+01 1.982460000000000036e+03
2.000000000000000042e-02 1.931574999999999820e-01 2.128979999999999961e+01 6.699209999999999354e+01 1.983355000000000018e+03
2.100000000000000130e-02 1.932849999999999846e-01 2.193894999999999840e+01 6.995255000000000223e+01 1.984269999999999982e+03
2.200000000000000219e-02 1.933864999999999890e-01 2.213214999999999932e+01 7.173824999999999363e+01 1.985009999999999991e+03
2.299999999999999961e-02 1.934420000000000028e-01 2.180715000000000003e+01 7.201425000000000409e+01 1.985444999999999936e+03
2.400000000000000050e-02 1.934480000000000088e-01 2.104200000000000159e+01 7.090100000000001046e+01 1.985519999999999982e+03
2.500000000000000139e-02 1.934115000000000140e-01 2.001144999999999996e+01 6.888814999999999600e+01 1.985284999999999854e+03
2.600000000000000228e-02 1.933489999999999931e-01 1.891485000000000127e+01 6.662090000000000600e+01 1.984865000000000009e+03
2.700000000000000316e-02 1.932814999999999950e-01 1.790625000000000000e+01 6.466094999999999970e+01 1.984389999999999873e+03
2.800000000000000058e-02 1.932225000000000192e-01 1.705450000000000088e+01 6.331700000000000728e+01 1.983965000000000146e+03
2.900000000000000147e-02 1.931799999999999906e-01 1.634049999999999869e+01 6.259485000000000099e+01 1.983654999999999973e+03
3.000000000000000236e-02 1.931515000000000037e-01 1.568599999999999994e+01 6.226115000000000066e+01 1.983450000000000045e+03
3.099999999999999978e-02 1.931299999999999961e-01 1.499719999999999942e+01 6.197660000000000480e+01 1.983299999999999955e+03
3.200000000000000067e-02 1.931059999999999999e-01 1.420739999999999981e+01 6.144395000000000095e+01 1.983130000000000109e+03
3.300000000000000155e-02 1.930720000000000214e-01 1.330635000000000012e+01 6.052255000000000251e+01 1.982894999999999982e+03
3.400000000000000244e-02 1.930270000000000041e-01 1.234825000000000017e+01 5.928054999999999808e+01 1.982574999999999818e+03
3.500000000000000333e-02 1.929755000000000220e-01 1.143828500000000048e+01 5.797355000000000302e+01 1.982214999999999918e+03
3.600000000000000422e-02 1.929285000000000028e-01 1.070127000000000095e+01 5.696004999999999541e+01 1.981880000000000109e+03
3.700000000000000511e-02 1.928974999999999995e-01 1.024431500000000028e+01 5.658504999999999541e+01 1.981650000000000091e+03
3.799999999999999906e-02 1.928934999999999955e-01 1.012483500000000092e+01 5.706950000000000500e+01 1.981599999999999909e+03
3.899999999999999994e-02 1.929210000000000091e-01 1.033299999999999841e+01 5.843984999999999985e+01 1.981779999999999973e+03
4.000000000000000083e-02 1.929790000000000116e-01 1.079218499999999992e+01 6.051385000000000502e+01 1.982170000000000073e+03
4.100000000000000172e-02 1.930604999999999960e-01 1.137539999999999907e+01 6.294055000000000177e+01 1.982730000000000018e+03
4.200000000000000261e-02 1.931499999999999884e-01 1.193045000000000044e+01 6.527700000000000102e+01 1.983355000000000018e+03
4.300000000000000350e-02 1.932325000000000015e-01 1.230754999999999910e+01 6.707755000000000223e+01 1.983940000000000055e+03
4.400000000000000439e-02 1.932925000000000060e-01 1.238289999999999935e+01 6.797370000000000800e+01 1.984375000000000000e+03
4.499999999999999833e-02 1.933170000000000166e-01 1.207404999999999973e+01 6.772849999999999682e+01 1.984559999999999945e+03
4.599999999999999922e-02 1.932975000000000110e-01 1.134600499999999990e+01 6.625910000000000366e+01 1.984440000000000055e+03
4.700000000000000011e-02 1.932325000000000015e-01 1.020881999999999934e+01 6.362870000000000203e+01 1.983989999999999782e+03
4.800000000000000100e-02 1.931225000000000025e-01 8.708769999999999456e+00 6.001429999999999154e+01 1.983235000000000127e+03
4.900000000000000189e-02 1.929744999999999933e-01 6.916750000000000398e+00 5.566365000000000407e+01 1.982200000000000045e+03
5.000000000000000278e-02 1.927969999999999962e-01 4.916712000000000415e+00 5.085144999999999982e+01 1.980960000000000036e+03
5.100000000000000366e-02 1.926005000000000078e-01 2.796194999999999986e+00 4.584399999999999409e+01 1.979565000000000055e+03
5.200000000000000455e-02 1.923930000000000085e-01 6.404149999999999565e-01 4.087815000000000509e+01 1.978105000000000018e+03
5.300000000000000544e-02 1.921855000000000091e-01 -1.470554999999999835e+00 3.615259999999999962e+01 1.976630000000000109e+03
5.399999999999999939e-02 1.919849999999999890e-01 -3.462347499999999911e+00 3.183065000000000211e+01 1.975215000000000146e+03
5.500000000000000028e-02 1.917995000000000116e-01 -5.265754999999999519e+00 2.804765000000000086e+01 1.973889999999999873e+03
5.600000000000000117e-02 1.916344999999999854e-01 -6.816320000000000157e+00 2.491955000000000098e+01 1.972714999999999918e+03
5.700000000000000205e-02 1.914959999999999996e-01 -8.054885000000000517e+00 2.254870000000000019e+01 1.971720000000000027e+03
5.800000000000000294e-02 1.913894999999999902e-01 -8.929154999999999731e+00 2.102425000000000210e+01 1.970945000000000164e+03
5.900000000000000383e-02 1.913175000000000014e-01 -9.396650000000001057e+00 2.041860000000000142e+01 1.970414999999999964e+03
6.000000000000000472e-02 1.912854999999999972e-01 -9.427979999999999805e+00 2.077989999999999782e+01 1.970159999999999854e+03
6.099999999999999867e-02 1.912935000000000052e-01 -9.009885000000000588e+00 2.212369999999999948e+01 1.970184999999999945e+03
6.199999999999999956e-02 1.913429999999999853e-01 -8.147499999999999076e+00 2.442605000000000004e+01 1.970510000000000218e+03
6.300000000000000044e-02 1.914339999999999931e-01 -6.864829999999999544e+00 2.762079999999999913e+01 1.971115000000000009e+03
6.400000000000000133e-02 1.915620000000000100e-01 -5.203644999999999854e+00 3.160105000000000075e+01 1.971994999999999891e+03
6.500000000000000222e-02 1.917240000000000055e-01 -3.220611499999999960e+00 3.622619999999999862e+01 1.973110000000000127e+03
6.600000000000000311e-02 1.919140000000000013e-01 -9.833250000000000046e-01 4.133225000000000193e+01 1.974429999999999836e+03
6.700000000000000400e-02 1.921249999999999902e-01 1.434250000000000025e+00 4.674419999999999931e+01 1.975904999999999973e+03
6.800000000000000488e-02 1.923509999999999942e-01 3.956290000000000084e+00 5.228834999999999411e+01 1.977494999999999891e+03
6.900000000000000577e-02 1.925844999999999918e-01 6.509009999999999962e+00 5.780300000000000438e+01 1.979150000000000091e+03
7.000000000000000666e-02 1.928189999999999904e-01 9.023965000000000458e+00 6.314600000000000080e+01 1.980809999999999945e+03
7.100000000000000755e-02 1.930489999999999984e-01 1.144031999999999982e+01 6.820009999999999195e+01 1.982449999999999818e+03
7.200000000000000844e-02 1.932679999999999954e-01 1.370686000000000071e+01 7.287534999999999741e+01 1.984025000000000091e+03
7.300000000000000933e-02 1.934744999999999937e-01 1.578320000000000078e+01 7.711055000000000348e+01 1.985500000000000000e+03
7.399999999999999634e-02 1.936634999999999884e-01 1.764095000000000013e+01 8.087295000000000300e+01 1.986875000000000000e+03
7.499999999999999722e-02 1.938340000000000063e-01 1.926404999999999745e+01 8.415805000000000291e+01 1.988114999999999782e+03
7.599999999999999811e-02 1.939865000000000061e-01 2.064920000000000044e+01 8.698815000000000452e+01 1.989224999999999909e+03
7.699999999999999900e-02 1.941204999999999736e-01 2.180529999999999902e+01 8.941030000000000655e+01 1.990210000000000036e+03
7.799999999999999989e-02 1.942384999999999806e-01 2.275250000000000128e+01 9.149299999999999500e+01 1.991079999999999927e+03
7.900000000000000078e-02 1.943429999999999880e-01 2.352035000000000053e+01 9.332144999999999868e+01 1.991855000000000018e+03
8.000000000000000167e-02 1.944369999999999987e-01 2.414549999999999841e+01 9.499184999999999945e+01 1.992550000000000182e+03
8.100000000000000255e-02 1.945239999999999747e-01 2.466875000000000284e+01 9.660425000000000750e+01 1.993194999999999936e+03
8.200000000000000344e-02 1.946090000000000042e-01 2.513204999999999956e+01 9.825520000000000209e+01 1.993820000000000164e+03
8.300000000000000433e-02 1.946944999999999926e-01 2.557515000000000072e+01 1.000320499999999981e+02 1.994454999999999927e+03
8.400000000000000522e-02 1.947844999999999993e-01 2.603314999999999912e+01 1.020030000000000001e+02 1.995115000000000009e+03
8.500000000000000611e-02 1.948819999999999997e-01 2.653354999999999819e+01 1.042169999999999987e+02 1.995825000000000045e+03
8.600000000000000699e-02 1.949885000000000090e-01 2.709515000000000029e+01 1.066970000000000027e+02 1.996599999999999909e+03
8.700000000000000788e-02 1.951054999999999873e-01 2.772650000000000148e+01 1.094399999999999977e+02 1.997445000000000164e+03
8.800000000000000877e-02 1.952320000000000166e-01 2.842625000000000313e+01 1.124189999999999969e+02 1.998360000000000127e+03
8.899999999999999578e-02 1.953670000000000129e-01 2.918319999999999936e+01 1.155835000000000008e+02 1.999345000000000027e+03
8.999999999999999667e-02 1.955100000000000171e-01 2.997800000000000153e+01 1.188659999999999997e+02 2.000375000000000000e+03
9.099999999999999756e-02 1.956569999999999976e-01 3.078474999999999895e+01 1.221854999999999905e+02 2.001440000000000055e+03
9.199999999999999845e-02 1.958044999999999924e-01 3.157285000000000252e+01 1.254544999999999959e+02 2.002514999999999873e+03
9.299999999999999933e-02 1.959494999999999987e-01 3.230944999999999823e+01 1.285840000000000032e+02 2.003570000000000164e+03
9.400000000000000022e-02 1.960894999999999999e-01 3.296134999999999593e+01 1.314889999999999759e+02 2.004590000000000146e+03
9.500000000000000111e-02 1.962189999999999768e-01 3.349739999999999895e+01 1.340944999999999823e+02 2.005539999999999964e+03
9.600000000000000200e-02 1.963369999999999838e-01 3.388984999999999559e+01 1.363369999999999891e+02 2.006405000000000200e+03
9.700000000000000289e-02 1.964394999999999891e-01 3.411594999999999800e+01 1.381670000000000016e+02 2.007164999999999964e+03
9.800000000000000377e-02 1.965244999999999909e-01 3.415930000000000177e+01 1.395540000000000020e+02 2.007795000000000073e+03
9.900000000000000466e-02 1.965914999999999746e-01 3.401014999999999588e+01 1.404840000000000089e+02 2.008295000000000073e+03
1.000000000000000056e-01 1.966390000000000082e-01 3.366590000000000060e+01 1.409599999999999795e+02 2.008659999999999854e+03
1.010000000000000064e-01 1.966674999999999951e-01 3.313109999999999644e+01 1.410015000000000214e+02 2.008884999999999991e+03
1.020000000000000073e-01 1.966775000000000051e-01 3.241694999999999993e+01 1.406424999999999841e+02 2.008970000000000027e+03
1.030000000000000082e-01 1.966700000000000115e-01 3.154064999999999941e+01 1.399284999999999854e+02 2.008934999999999945e+03
1.040000000000000091e-01 1.966475000000000029e-01 3.052439999999999998e+01 1.389145000000000039e+02 2.008785000000000082e+03
1.050000000000000100e-01 1.966120000000000090e-01 2.939430000000000121e+01 1.376624999999999943e+02 2.008539999999999964e+03
1.059999999999999970e-01 1.965655000000000041e-01 2.817905000000000015e+01 1.362365000000000066e+02 2.008210000000000036e+03
1.069999999999999979e-01 1.965104999999999769e-01 2.690879999999999939e+01 1.347035000000000196e+02 2.007815000000000055e+03
1.079999999999999988e-01 1.964505000000000001e-01 2.561390000000000100e+01 1.331259999999999764e+02 2.007384999999999991e+03
1.089999999999999997e-01 1.963874999999999926e-01 2.432334999999999781e+01 1.315645000000000095e+02 2.006930000000000064e+03
1.100000000000000006e-01 1.963245000000000129e-01 2.306425000000000125e+01 1.300720000000000027e+02 2.006474999999999909e+03
1.110000000000000014e-01 1.962630000000000208e-01 2.186035000000000039e+01 1.286924999999999955e+02 2.006025000000000091e+03
1.120000000000000023e-01 1.962055000000000049e-01 2.073154999999999859e+01 1.274625000000000057e+02 2.005605000000000018e+03
1.130000000000000032e-01 1.961530000000000218e-01 1.969315000000000282e+01 1.264050000000000011e+02 2.005220000000000027e+03
1.140000000000000041e-01 1.961074999999999902e-01 1.875529999999999831e+01 1.255354999999999990e+02 2.004880000000000109e+03
1.150000000000000050e-01 1.960684999999999789e-01 1.792304999999999993e+01 1.248554999999999922e+02 2.004595000000000027e+03
1.160000000000000059e-01 1.960370000000000168e-01 1.719619999999999749e+01 1.243569999999999993e+02 2.004355000000000018e+03
1.170000000000000068e-01 1.960129999999999928e-01 1.656964999999999932e+01 1.240209999999999866e+02 2.004174999999999955e+03
1.180000000000000077e-01 1.959950000000000025e-01 1.603375000000000128e+01 1.238195000000000050e+02 2.004029999999999973e+03
1.190000000000000085e-01 1.959830000000000183e-01 1.557515000000000072e+01 1.237185000000000059e+02 2.003929999999999836e+03
1.200000000000000094e-01 1.959744999999999959e-01 1.517730000000000068e+01 1.236784999999999997e+02 2.003860000000000127e+03
1.209999999999999964e-01 1.959684999999999899e-01 1.482179999999999964e+01 1.236544999999999987e+02 2.003815000000000055e+03
1.219999999999999973e-01 1.959629999999999983e-01 1.448890000000000100e+01 1.236045000000000016e+02 2.003764999999999873e+03
1.229999999999999982e-01 1.959565000000000057e-01 1.415910000000000046e+01 1.234849999999999994e+02 2.003715000000000146e+03
1.239999999999999991e-01 1.959474999999999967e-01 1.381360000000000099e+01 1.232570000000000050e+02 2.003650000000000091e+03
1.250000000000000000e-01 1.959345000000000114e-01 1.343570000000000064e+01 1.228880000000000052e+02 2.003545000000000073e+03
1.260000000000000009e-01 1.959159999999999791e-01 1.301150000000000162e+01 1.223520000000000039e+02 2.003409999999999854e+03
1.270000000000000018e-01 1.958900000000000086e-01 1.253064999999999962e+01 1.216320000000000050e+02 2.003220000000000027e+03
1.280000000000000027e-01 1.958570000000000033e-01 1.198665000000000092e+01 1.207214999999999918e+02 2.002985000000000127e+03
1.290000000000000036e-01 1.958154999999999757e-01 1.137766000000000055e+01 1.196244999999999976e+02 2.002690000000000055e+03
1.300000000000000044e-01 1.957675000000000110e-01 1.070613499999999974e+01 1.183539999999999992e+02 2.002340000000000146e+03
1.310000000000000053e-01 1.957119999999999971e-01 9.978770000000000806e+00 1.169325000000000045e+02 2.001940000000000055e+03
1.320000000000000062e-01 1.956499999999999906e-01 9.206220000000000070e+00 1.153919999999999959e+02 2.001494999999999891e+03
1.330000000000000071e-01 1.955830000000000068e-01 8.402390000000000470e+00 1.137694999999999936e+02 2.001009999999999991e+03
1.340000000000000080e-01 1.955124999999999780e-01 7.583770000000000344e+00 1.121069999999999993e+02 2.000505000000000109e+03
1.350000000000000089e-01 1.954404999999999892e-01 6.768409999999999371e+00 1.104495000000000005e+02 1.999985000000000127e+03
1.360000000000000098e-01 1.953685000000000005e-01 5.975170000000000314e+00 1.088425000000000011e+02 1.999460000000000036e+03
1.370000000000000107e-01 1.952984999999999860e-01 5.222654999999999603e+00 1.073275000000000006e+02 1.998954999999999927e+03
1.380000000000000115e-01 1.952319999999999889e-01 4.528380000000000294e+00 1.059435000000000002e+02 1.998470000000000027e+03
1.390000000000000124e-01 1.951710000000000111e-01 3.907899999999999707e+00 1.047239999999999895e+02 1.998019999999999982e+03
1.400000000000000133e-01 1.951164999999999983e-01 3.374169999999999892e+00 1.036949999999999932e+02 1.997625000000000000e+03
1.410000000000000142e-01 1.950695000000000068e-01 2.936984999999999957e+00 1.028750000000000000e+02 1.997275000000000091e+03
1.420000000000000151e-01 1.950310000000000099e-01 2.602590000000000181e+00 1.022725000000000080e+02 1.996994999999999891e+03
1.430000000000000160e-01 1.950020000000000087e-01 2.373529999999999696e+00 1.018905000000000030e+02 1.996769999999999982e+03
1.440000000000000169e-01 1.949815000000000020e-01 2.248644999999999783e+00 1.017205000000000013e+02 1.996619999999999891e+03
1.450000000000000178e-01 1.949704999999999910e-01 2.223209999999999908e+00 1.017469999999999999e+02 1.996529999999999973e+03
1.459999999999999909e-01 1.949675000000000158e-01 2.289274999999999949e+00 1.019505000000000052e+02 1.996500000000000000e+03
1.469999999999999918e-01 1.949724999999999930e-01 2.436110000000000220e+00 1.023034999999999997e+02 1.996525000000000091e+03
1.479999999999999927e-01 1.949835000000000040e-01 2.650739999999999874e+00 1.027745000000000033e+02 1.996599999999999909e+03
1.489999999999999936e-01 1.950000000000000067e-01 2.918549999999999756e+00 1.033305000000000007e+02 1.996710000000000036e+03
1.499999999999999944e-01 1.950204999999999855e-01 3.223955000000000126e+00 1.039370000000000118e+02 1.996849999999999909e+03
1.509999999999999953e-01 1.950429999999999942e-01 3.550989999999999647e+00 1.045614999999999952e+02 1.997009999999999991e+03
1.519999999999999962e-01 1.950675000000000048e-01 3.883960000000000079e+00 1.051694999999999993e+02 1.997184999999999945e+03
1.529999999999999971e-01 1.950910000000000144e-01 4.208019999999999428e+00 1.057330000000000041e+02 1.997349999999999909e+03
1.539999999999999980e-01 1.951134999999999953e-01 4.509634999999999394e+00 1.062254999999999967e+02 1.997509999999999991e+03
1.549999999999999989e-01 1.951330000000000009e-01 4.777045000000000208e+00 1.066260000000000048e+02 1.997659999999999854e+03
1.559999999999999998e-01 1.951495000000000035e-01 5.000589999999999868e+00 1.069189999999999969e+02 1.997775000000000091e+03
1.570000000000000007e-01 1.951620000000000021e-01 5.172950000000000159e+00 1.070925000000000011e+02 1.997865000000000009e+03
1.580000000000000016e-01 1.951694999999999958e-01 5.289310000000000400e+00 1.071415000000000077e+02 1.997924999999999955e+03
1.590000000000000024e-01 1.951720000000000121e-01 5.347379999999999356e+00 1.070660000000000025e+02 1.997944999999999936e+03
