# t [s], A [cm^2], U [cm/s], P [cPa], c [cm/s]
1.000000000000000021e-03 5.179890000000000327e-01 3.907000000000000750e-03 1.068455000000000013e+02 1.639575000000000045e+03
2.000000000000000042e-03 5.179875000000000451e-01 1.651489999999999903e-02 1.068264999999999958e+02 1.639575000000000045e+03
3.000000000000000062e-03 5.180569999999999897e-01 1.763882500000000242e-01 1.070010000000000048e+02 1.639615000000000009e+03
4.000000000000000083e-03 5.180719999999999770e-01 2.339745000000000019e-01 1.070600000000000023e+02 1.639630000000000109e+03
5.000000000000000104e-03 5.180059999999999665e-01 1.118645000000000334e-01 1.068104999999999905e+02 1.639579999999999927e+03
6.000000000000000125e-03 5.179310000000000302e-01 -4.435999999999995502e-02 1.063944999999999936e+02 1.639494999999999891e+03
7.000000000000000146e-03 5.178279999999999550e-01 -2.780000000000000249e-01 1.057880000000000109e+02 1.639365000000000009e+03
8.000000000000000167e-03 5.176469999999999683e-01 -7.052650000000000308e-01 1.048164999999999907e+02 1.639154999999999973e+03
9.000000000000001055e-03 5.173919999999999630e-01 -1.308559999999999945e+00 1.034311500000000024e+02 1.638855000000000018e+03
1.000000000000000194e-02 5.170500000000000096e-01 -2.090889999999999915e+00 1.015717500000000086e+02 1.638440000000000055e+03
1.099999999999999936e-02 5.166005000000000180e-01 -3.070460000000000633e+00 9.915555000000000518e+01 1.637894999999999982e+03
1.200000000000000025e-02 5.160724999999999341e-01 -4.141589999999999883e+00 9.625845000000001050e+01 1.637224999999999909e+03
1.300000000000000114e-02 5.155560000000000143e-01 -5.055835000000000079e+00 9.320009999999999195e+01 1.636490000000000009e+03
1.400000000000000203e-02 5.151405000000000012e-01 -5.557749999999999524e+00 9.039820000000000277e+01 1.635775000000000091e+03
1.499999999999999944e-02 5.148654999999999760e-01 -5.521760000000000446e+00 8.815760000000000218e+01 1.635155000000000200e+03
1.600000000000000033e-02 5.147064999999999557e-01 -4.992379999999999818e+00 8.654585000000000150e+01 1.634659999999999854e+03
1.700000000000000122e-02 5.145984999999999587e-01 -4.140814999999999912e+00 8.539965000000000828e+01 1.634259999999999991e+03
1.800000000000000211e-02 5.144665000000000488e-01 -3.182439999999999714e+00 8.441769999999999641e+01 1.633909999999999854e+03
1.900000000000000300e-02 5.142560000000000464e-01 -2.290425500000000003e+00 8.329465000000000430e+01 1.633535000000000082e+03
2.000000000000000042e-02 5.139515000000000056e-01 -1.537694999999999812e+00 8.184019999999999584e+01 1.633110000000000127e+03
2.100000000000000130e-02 5.135779999999999790e-01 -8.931350000000000122e-01 8.003155000000000996e+01 1.632609999999999900e+03
2.200000000000000219e-02 5.131755000000000067e-01 -2.699599999999997557e-01 7.797854999999999848e+01 1.632054999999999836e+03
2.299999999999999961e-02 5.127810000000000423e-01 4.070050000000002832e-01 7.583389999999999986e+01 1.631470000000000027e+03
2.400000000000000050e-02 5.124045000000000405e-01 1.151650000000000063e+00 7.370179999999999154e+01 1.630880000000000109e+03
2.500000000000000139e-02 5.120310000000000139e-01 1.900814999999999699e+00 7.158394999999998731e+01 1.630284999999999854e+03
2.600000000000000228e-02 5.116244999999999266e-01 2.529765000000000263e+00 6.937215000000000487e+01 1.629664999999999964e+03
2.700000000000000316e-02 5.111390000000000100e-01 2.887995000000000090e+00 6.688179999999999836e+01 1.628990000000000009e+03
2.800000000000000058e-02 5.105374999999999774e-01 2.843190000000000328e+00 6.391255000000000308e+01 1.628215000000000146e+03
2.900000000000000147e-02 5.098015000000000185e-01 2.321499999999999897e+00 6.031759999999999877e+01 1.627315000000000055e+03
3.000000000000000236e-02 5.089390000000000303e-01 1.331949999999999967e+00 5.606165000000000020e+01 1.626259999999999991e+03
3.099999999999999978e-02 5.079875000000000362e-01 -3.254999999999963478e-02 5.124649999999999750e+01 1.625079999999999927e+03
3.200000000000000067e-02 5.070030000000000925e-01 -1.617299999999999294e+00 4.609914999999999452e+01 1.623805000000000064e+03
3.300000000000000155e-02 5.060485000000000122e-01 -3.240109999999999602e+00 4.092830000000000013e+01 1.622505000000000109e+03
3.400000000000000244e-02 5.051845000000000363e-01 -4.725604999999999833e+00 3.606929999999999836e+01 1.621259999999999991e+03
3.500000000000000333e-02 5.044595000000000606e-01 -5.930039999999999978e+00 3.183124999999999716e+01 1.620125000000000000e+03
3.600000000000000422e-02 5.039059999999999651e-01 -6.753926499999999500e+00 2.845864999999999867e+01 1.619180000000000064e+03
3.700000000000000511e-02 5.035415000000000862e-01 -7.142624999999999780e+00 2.611189999999999856e+01 1.618460000000000036e+03
3.799999999999999906e-02 5.033695000000000253e-01 -7.079649999999999999e+00 2.486475000000000080e+01 1.618000000000000000e+03
3.899999999999999994e-02 5.033825000000000660e-01 -6.574959999999999916e+00 2.471539999999999893e+01 1.617804999999999836e+03
4.000000000000000083e-02 5.035684999999999745e-01 -5.653604999999999769e+00 2.560665000000000191e+01 1.617875000000000000e+03
4.100000000000000172e-02 5.039105000000000389e-01 -4.346799999999999997e+00 2.744689999999999941e+01 1.618195000000000164e+03
4.200000000000000261e-02 5.043910000000000338e-01 -2.687685000000000102e+00 3.012754999999999939e+01 1.618734999999999900e+03
4.300000000000000350e-02 5.049924999999999553e-01 -7.115499999999999048e-01 3.353390000000000271e+01 1.619480000000000018e+03
4.400000000000000439e-02 5.056959999999999233e-01 1.540855000000000530e+00 3.754769999999999897e+01 1.620394999999999982e+03
4.499999999999999833e-02 5.064815000000000289e-01 4.019650000000000389e+00 4.204645000000000010e+01 1.621450000000000045e+03
4.599999999999999922e-02 5.073244999999999560e-01 6.663759999999999906e+00 4.690080000000000382e+01 1.622615000000000009e+03
4.700000000000000011e-02 5.082010000000000138e-01 9.401825000000000543e+00 5.197410000000000707e+01 1.623860000000000127e+03
4.800000000000000100e-02 5.090850000000000097e-01 1.215616999999999948e+01 5.712550000000000239e+01 1.625150000000000091e+03
4.900000000000000189e-02 5.099519999999999609e-01 1.484846500000000091e+01 6.221665000000000134e+01 1.626449999999999818e+03
5.000000000000000278e-02 5.107795000000000529e-01 1.740630499999999969e+01 6.712045000000000528e+01 1.627724999999999909e+03
5.100000000000000366e-02 5.115509999999999780e-01 1.976919999999999789e+01 7.172969999999999402e+01 1.628949999999999818e+03
5.200000000000000455e-02 5.122550000000000159e-01 2.189254999999999995e+01 7.596565000000001078e+01 1.630095000000000027e+03
5.300000000000000544e-02 5.128865000000000229e-01 2.374994999999999834e+01 7.978184999999999150e+01 1.631154999999999973e+03
5.399999999999999939e-02 5.134460000000000690e-01 2.533299999999999841e+01 8.316604999999999848e+01 1.632115000000000009e+03
5.500000000000000028e-02 5.139390000000000347e-01 2.664914999999999878e+01 8.613724999999999454e+01 1.632980000000000018e+03
5.600000000000000117e-02 5.143765000000000143e-01 2.771914999999999907e+01 8.874125000000000796e+01 1.633759999999999991e+03
5.700000000000000205e-02 5.147694999999999910e-01 2.857329999999999970e+01 9.104394999999999527e+01 1.634454999999999927e+03
5.800000000000000294e-02 5.151324999999999932e-01 2.924875000000000114e+01 9.312440000000000850e+01 1.635090000000000146e+03
5.900000000000000383e-02 5.154799999999999383e-01 2.978679999999999950e+01 9.506845000000001278e+01 1.635680000000000064e+03
6.000000000000000472e-02 5.158264999999999656e-01 3.023075000000000045e+01 9.696330000000000382e+01 1.636255000000000109e+03
6.099999999999999867e-02 5.161854999999999638e-01 3.062415000000000020e+01 9.889320000000000732e+01 1.636824999999999818e+03
6.199999999999999956e-02 5.165699999999999736e-01 3.100880000000000081e+01 1.009348499999999973e+02 1.637404999999999973e+03
6.300000000000000044e-02 5.169905000000000195e-01 3.142275000000000063e+01 1.031539999999999964e+02 1.638025000000000091e+03
6.400000000000000133e-02 5.174545000000000394e-01 3.189800000000000324e+01 1.056024999999999920e+02 1.638695000000000164e+03
6.500000000000000222e-02 5.179670000000000663e-01 3.245785000000000053e+01 1.083125000000000000e+02 1.639420000000000073e+03
6.600000000000000311e-02 5.185284999999999478e-01 3.311514999999999986e+01 1.112965000000000089e+02 1.640215000000000146e+03
6.700000000000000400e-02 5.191354999999999720e-01 3.387104999999999677e+01 1.145434999999999945e+02 1.641070000000000164e+03
6.800000000000000488e-02 5.197810000000000485e-01 3.471450000000000102e+01 1.180184999999999889e+02 1.641980000000000018e+03
6.900000000000000577e-02 5.204524999999999846e-01 3.562349999999999994e+01 1.216670000000000016e+02 1.642944999999999936e+03
7.000000000000000666e-02 5.211375000000000313e-01 3.656700000000000017e+01 1.254145000000000039e+02 1.643930000000000064e+03
7.100000000000000755e-02 5.218184999999999629e-01 3.750735000000000241e+01 1.291754999999999995e+02 1.644934999999999945e+03
7.200000000000000844e-02 5.224799999999999445e-01 3.840344999999999942e+01 1.328564999999999827e+02 1.645924999999999955e+03
7.300000000000000933e-02 5.231055000000000010e-01 3.921399999999999864e+01 1.363654999999999973e+02 1.646884999999999991e+03
7.399999999999999634e-02 5.236804999999999932e-01 3.990039999999999765e+01 1.396150000000000091e+02 1.647779999999999973e+03
7.499999999999999722e-02 5.241934999999999789e-01 4.042914999999999992e+01 1.425305000000000177e+02 1.648605000000000018e+03
7.599999999999999811e-02 5.246340000000000447e-01 4.077360000000000184e+01 1.450519999999999925e+02 1.649340000000000146e+03
7.699999999999999900e-02 5.249975000000000058e-01 4.091564999999999941e+01 1.471394999999999982e+02 1.649964999999999918e+03
7.799999999999999989e-02 5.252809999999999979e-01 4.084615000000000151e+01 1.487719999999999914e+02 1.650480000000000018e+03
7.900000000000000078e-02 5.254855000000000498e-01 4.056515000000000271e+01 1.499490000000000123e+02 1.650880000000000109e+03
8.000000000000000167e-02 5.256150000000000544e-01 4.008135000000000048e+01 1.506899999999999977e+02 1.651164999999999964e+03
8.100000000000000255e-02 5.256764999999999910e-01 3.941145000000000209e+01 1.510305000000000177e+02 1.651345000000000027e+03
8.200000000000000344e-02 5.256804999999999950e-01 3.857920000000000016e+01 1.510215000000000032e+02 1.651424999999999955e+03
8.300000000000000433e-02 5.256365000000000620e-01 3.761350000000000193e+01 1.507225000000000250e+02 1.651424999999999955e+03
8.400000000000000522e-02 5.255570000000000519e-01 3.654724999999999824e+01 1.502030000000000030e+02 1.651355000000000018e+03
8.500000000000000611e-02 5.254539999999999766e-01 3.541544999999999987e+01 1.495330000000000155e+02 1.651240000000000009e+03
8.600000000000000699e-02 5.253404999999999880e-01 3.425329999999999586e+01 1.487839999999999918e+02 1.651090000000000146e+03
8.700000000000000788e-02 5.252269999999999994e-01 3.309499999999999886e+01 1.480230000000000246e+02 1.650920000000000073e+03
8.800000000000000877e-02 5.251234999999999653e-01 3.197129999999999939e+01 1.473089999999999975e+02 1.650755000000000109e+03
8.899999999999999578e-02 5.250380000000000047e-01 3.090885000000000105e+01 1.466930000000000121e+02 1.650605000000000018e+03
8.999999999999999667e-02 5.249764999999999571e-01 2.992880000000000251e+01 1.462119999999999891e+02 1.650480000000000018e+03
9.099999999999999756e-02 5.249429999999999374e-01 2.904604999999999748e+01 1.458924999999999841e+02 1.650389999999999873e+03
9.199999999999999845e-02 5.249395000000000033e-01 2.826879999999999882e+01 1.457459999999999809e+02 1.650335000000000036e+03
9.299999999999999933e-02 5.249634999999999163e-01 2.759880000000000067e+01 1.457715000000000032e+02 1.650315000000000055e+03
9.400000000000000022e-02 5.250135000000000218e-01 2.703140000000000143e+01 1.459555000000000007e+02 1.650345000000000027e+03
9.500000000000000111e-02 5.250844999999999541e-01 2.655615000000000236e+01 1.462749999999999773e+02 1.650400000000000091e+03
9.600000000000000200e-02 5.251700000000000257e-01 2.615794999999999959e+01 1.466949999999999932e+02 1.650490000000000009e+03
9.700000000000000289e-02 5.252630000000000354e-01 2.581790000000000163e+01 1.471779999999999973e+02 1.650595000000000027e+03
9.800000000000000377e-02 5.253559999999999341e-01 2.551454999999999984e+01 1.476784999999999854e+02 1.650710000000000036e+03
9.900000000000000466e-02 5.254409999999999359e-01 2.522525000000000261e+01 1.481525000000000034e+02 1.650820000000000164e+03
1.000000000000000056e-01 5.255104999999999915e-01 2.492725000000000080e+01 1.485559999999999832e+02 1.650924999999999955e+03
1.010000000000000064e-01 5.255570000000000519e-01 2.459924999999999784e+01 1.488474999999999966e+02 1.651000000000000000e+03
1.020000000000000073e-01 5.255760000000000431e-01 2.422230000000000061e+01 1.489925000000000068e+02 1.651045000000000073e+03
1.030000000000000082e-01 5.255630000000000024e-01 2.378099999999999881e+01 1.489629999999999939e+02 1.651050000000000182e+03
1.040000000000000091e-01 5.255144999999999955e-01 2.326435000000000031e+01 1.487400000000000091e+02 1.651009999999999991e+03
1.050000000000000100e-01 5.254299999999999526e-01 2.266604999999999848e+01 1.483145000000000095e+02 1.650920000000000073e+03
1.059999999999999970e-01 5.253109999999999724e-01 2.198489999999999966e+01 1.476889999999999930e+02 1.650780000000000200e+03
1.069999999999999979e-01 5.251589999999999314e-01 2.122504999999999953e+01 1.468729999999999905e+02 1.650590000000000146e+03
1.079999999999999988e-01 5.249785000000000146e-01 2.039535000000000053e+01 1.458884999999999934e+02 1.650359999999999900e+03
1.089999999999999997e-01 5.247755000000000614e-01 1.950939999999999941e+01 1.447644999999999982e+02 1.650085000000000036e+03
1.100000000000000006e-01 5.245569999999999400e-01 1.858419999999999916e+01 1.435364999999999895e+02 1.649784999999999854e+03
1.110000000000000014e-01 5.243290000000000450e-01 1.763980000000000103e+01 1.422454999999999927e+02 1.649454999999999927e+03
1.120000000000000023e-01 5.241000000000000103e-01 1.669800000000000040e+01 1.409350000000000023e+02 1.649125000000000000e+03
1.130000000000000032e-01 5.238785000000000247e-01 1.578129999999999811e+01 1.396510000000000105e+02 1.648789999999999964e+03
1.140000000000000041e-01 5.236709999999999976e-01 1.491170500000000132e+01 1.384345000000000141e+02 1.648465000000000146e+03
1.150000000000000050e-01 5.234840000000000604e-01 1.410965500000000006e+01 1.373265000000000100e+02 1.648159999999999854e+03
1.160000000000000059e-01 5.233240000000000114e-01 1.339301000000000030e+01 1.363605000000000018e+02 1.647889999999999873e+03
1.170000000000000068e-01 5.231949999999999656e-01 1.277615500000000104e+01 1.355629999999999882e+02 1.647659999999999854e+03
1.180000000000000077e-01 5.230989999999999807e-01 1.226935500000000090e+01 1.349534999999999911e+02 1.647469999999999800e+03
1.190000000000000085e-01 5.230375000000000441e-01 1.187838999999999956e+01 1.345420000000000016e+02 1.647329999999999927e+03
1.200000000000000094e-01 5.230099999999999749e-01 1.160456999999999894e+01 1.343285000000000196e+02 1.647235000000000127e+03
1.209999999999999964e-01 5.230154999999999665e-01 1.144459999999999944e+01 1.343059999999999832e+02 1.647194999999999936e+03
1.219999999999999973e-01 5.230504999999999738e-01 1.139100000000000001e+01 1.344590000000000032e+02 1.647199999999999818e+03
1.229999999999999982e-01 5.231099999999999639e-01 1.143299999999999983e+01 1.347654999999999745e+02 1.647239999999999782e+03
1.239999999999999991e-01 5.231900000000000439e-01 1.155659999999999954e+01 1.351990000000000123e+02 1.647325000000000045e+03
1.250000000000000000e-01 5.232850000000000001e-01 1.174585000000000079e+01 1.357289999999999850e+02 1.647430000000000064e+03
1.260000000000000009e-01 5.233885000000000343e-01 1.198349999999999937e+01 1.363230000000000075e+02 1.647565000000000055e+03
1.270000000000000018e-01 5.234959999999999614e-01 1.225185000000000102e+01 1.369484999999999957e+02 1.647704999999999927e+03
1.280000000000000027e-01 5.236024999999999707e-01 1.253330000000000055e+01 1.375755000000000052e+02 1.647855000000000018e+03
1.290000000000000036e-01 5.237020000000000008e-01 1.281165000000000020e+01 1.381745000000000232e+02 1.648005000000000109e+03
1.300000000000000044e-01 5.237910000000000066e-01 1.307195000000000107e+01 1.387214999999999918e+02 1.648144999999999982e+03
1.310000000000000053e-01 5.238665000000000127e-01 1.330164999999999864e+01 1.391974999999999909e+02 1.648269999999999982e+03
1.320000000000000062e-01 5.239264999999999617e-01 1.349075000000000024e+01 1.395865000000000009e+02 1.648380000000000109e+03
1.330000000000000071e-01 5.239700000000000468e-01 1.363185000000000002e+01 1.398805000000000121e+02 1.648465000000000146e+03
1.340000000000000080e-01 5.239960000000000173e-01 1.372054999999999936e+01 1.400749999999999886e+02 1.648529999999999973e+03
1.350000000000000089e-01 5.240055000000000129e-01 1.375530000000000008e+01 1.401719999999999970e+02 1.648570000000000164e+03
1.360000000000000098e-01 5.240000000000000213e-01 1.373729999999999940e+01 1.401770000000000209e+02 1.648585000000000036e+03
1.370000000000000107e-01 5.239814999999999889e-01 1.367014999999999958e+01 1.401005000000000109e+02 1.648579999999999927e+03
1.380000000000000115e-01 5.239519999999999733e-01 1.355959999999999965e+01 1.399565000000000055e+02 1.648559999999999945e+03
1.390000000000000124e-01 5.239145000000000607e-01 1.341319999999999979e+01 1.397605000000000075e+02 1.648525000000000091e+03
1.400000000000000133e-01 5.238724999999999632e-01 1.323964999999999925e+01 1.395304999999999893e+02 1.648480000000000018e+03
1.410000000000000142e-01 5.238294999999999479e-01 1.304844999999999899e+01 1.392839999999999918e+02 1.648424999999999955e+03
1.420000000000000151e-01 5.237880000000000313e-01 1.284935000000000116e+01 1.390395000000000039e+02 1.648365000000000009e+03
1.430000000000000160e-01 5.237505000000000077e-01 1.265169999999999995e+01 1.388135000000000048e+02 1.648315000000000055e+03
1.440000000000000169e-01 5.237199999999999633e-01 1.246425999999999945e+01 1.386200000000000045e+02 1.648259999999999991e+03
1.450000000000000178e-01 5.236985000000000667e-01 1.229461500000000029e+01 1.384710000000000036e+02 1.648224999999999909e+03
1.459999999999999909e-01 5.236864999999999437e-01 1.214881000000000100e+01 1.383760000000000048e+02 1.648199999999999818e+03
1.469999999999999918e-01 5.236855000000000260e-01 1.203129999999999988e+01 1.383394999999999868e+02 1.648180000000000064e+03
1.479999999999999927e-01 5.236944999999999517e-01 1.194464999999999932e+01 1.383634999999999877e+02 1.648184999999999945e+03
1.489999999999999936e-01 5.237144999999999717e-01 1.188964999999999961e+01 1.384474999999999909e+02 1.648199999999999818e+03
1.499999999999999944e-01 5.237430000000000696e-01 1.186520000000000152e+01 1.385849999999999795e+02 1.648224999999999909e+03
1.509999999999999953e-01 5.237795000000000645e-01 1.186875000000000036e+01 1.387694999999999936e+02 1.648269999999999982e+03
1.519999999999999962e-01 5.238214999999999399e-01 1.189639999999999986e+01 1.389909999999999854e+02 1.648320000000000164e+03
1.529999999999999971e-01 5.238674999999999304e-01 1.194310000000000116e+01 1.392384999999999877e+02 1.648375000000000000e+03
1.539999999999999980e-01 5.239150000000000196e-01 1.200309999999999988e+01 1.395000000000000000e+02 1.648440000000000055e+03
1.549999999999999989e-01 5.239620000000000388e-01 1.207045000000000101e+01 1.397624999999999886e+02 1.648505000000000109e+03
1.559999999999999998e-01 5.240059999999999718e-01 1.213905000000000101e+01 1.400149999999999864e+02 1.648570000000000164e+03
1.570000000000000007e-01 5.240454999999999419e-01 1.220304999999999929e+01 1.402464999999999975e+02 1.648630000000000109e+03
1.580000000000000016e-01 5.240799999999999903e-01 1.225734999999999886e+01 1.404480000000000075e+02 1.648684999999999945e+03
1.590000000000000024e-01 5.241065000000000307e-01 1.229765000000000086e+01 1.406125000000000114e+02 1.648730000000000018e+03
