# t [s], A [cm^2], U [cm/s], P [cPa], c [cm/s]
1.000000000000000021e-03 7.944729999999999848e-01 5.049199999999996746e-03 9.888235000000000241e+01 1.675675000000000182e+03
2.000000000000000042e-03 7.944625000000000714e-01 3.442350000000000271e-04 9.885519999999999641e+01 1.675664999999999964e+03
3.000000000000000062e-03 7.945345000000000324e-01 1.071397500000000058e-01 9.897514999999999930e+01 1.675690000000000055e+03
4.000000000000000083e-03 7.945880000000000720e-01 1.975713000000000052e-01 9.909120000000000061e+01 1.675715000000000146e+03
5.000000000000000104e-03 7.945450000000000568e-01 1.569376000000000104e-01 9.900520000000000209e+01 1.675699999999999818e+03
6.000000000000000125e-03 7.944649999999999768e-01 5.695700000000003538e-02 9.876335000000000264e+01 1.675660000000000082e+03
7.000000000000000146e-03 7.943919999999999870e-01 -4.233449999999999713e-02 9.845504999999999995e+01 1.675599999999999909e+03
8.000000000000000167e-03 7.942670000000000563e-01 -2.306550000000000544e-01 9.798085000000000377e+01 1.675510000000000218e+03
9.000000000000001055e-03 7.940620000000000456e-01 -5.555800000000000738e-01 9.724885000000000446e+01 1.675375000000000000e+03
1.000000000000000194e-02 7.937670000000000003e-01 -1.025014999999999787e+00 9.620515000000000327e+01 1.675179999999999836e+03
1.099999999999999936e-02 7.933590000000000364e-01 -1.661375000000000046e+00 9.477514999999999645e+01 1.674909999999999854e+03
1.200000000000000025e-02 7.928390000000000715e-01 -2.443245000000000111e+00 9.293519999999999470e+01 1.674549999999999955e+03
1.300000000000000114e-02 7.922659999999999147e-01 -3.256220000000000336e+00 9.079874999999999829e+01 1.674130000000000109e+03
1.400000000000000203e-02 7.917259999999999298e-01 -3.935302000000000522e+00 8.858934999999999604e+01 1.673675000000000182e+03
1.499999999999999944e-02 7.912835000000000285e-01 -4.348279500000000297e+00 8.653194999999999482e+01 1.673230000000000018e+03
1.600000000000000033e-02 7.909534999999999760e-01 -4.446615999999999680e+00 8.475934999999999775e+01 1.672824999999999818e+03
1.700000000000000122e-02 7.907030000000000447e-01 -4.265035000000000132e+00 8.328180000000000405e+01 1.672465000000000146e+03
1.800000000000000211e-02 7.904800000000000715e-01 -3.889189999999999703e+00 8.201139999999999475e+01 1.672134999999999991e+03
1.900000000000000300e-02 7.902329999999999632e-01 -3.414520500000000069e+00 8.081499999999999773e+01 1.671825000000000045e+03
2.000000000000000042e-02 7.899305000000000909e-01 -2.911511999999999656e+00 7.957139999999999702e+01 1.671505000000000109e+03
2.100000000000000130e-02 7.895680000000000476e-01 -2.407293500000000197e+00 7.821334999999999127e+01 1.671164999999999964e+03
2.200000000000000219e-02 7.891650000000000054e-01 -1.888504999999999878e+00 7.674070000000000391e+01 1.670809999999999945e+03
2.299999999999999961e-02 7.887515000000000498e-01 -1.322195000000000231e+00 7.520204999999999984e+01 1.670434999999999945e+03
2.400000000000000050e-02 7.883480000000000487e-01 -6.832349999999998147e-01 7.365794999999999959e+01 1.670055000000000064e+03
2.500000000000000139e-02 7.879605000000000636e-01 2.437500000000003553e-02 7.214310000000000400e+01 1.669684999999999945e+03
2.600000000000000228e-02 7.875734999999999264e-01 7.596350000000000602e-01 7.064355000000000473e+01 1.669309999999999945e+03
2.700000000000000316e-02 7.871559999999999668e-01 1.450610000000000177e+00 6.909324999999999761e+01 1.668929999999999836e+03
2.800000000000000058e-02 7.866699999999999804e-01 2.010524999999999896e+00 6.738935000000000741e+01 1.668525000000000091e+03
2.900000000000000147e-02 7.860819999999999474e-01 2.358800000000000008e+00 6.542034999999999911e+01 1.668069999999999936e+03
3.000000000000000236e-02 7.853749999999999343e-01 2.441135000000000055e+00 6.309864999999999924e+01 1.667549999999999955e+03
3.099999999999999978e-02 7.845505000000000395e-01 2.243254999999999555e+00 6.038904999999999745e+01 1.666960000000000036e+03
3.200000000000000067e-02 7.836335000000000939e-01 1.794390000000000374e+00 5.732389999999999475e+01 1.666295000000000073e+03
3.300000000000000155e-02 7.826659999999999728e-01 1.159260000000000623e+00 5.400135000000000218e+01 1.665579999999999927e+03
3.400000000000000244e-02 7.816974999999999341e-01 4.231699999999998241e-01 5.056780000000000541e+01 1.664835000000000036e+03
3.500000000000000333e-02 7.807770000000000543e-01 -3.254450000000002063e-01 4.719250000000000256e+01 1.664095000000000027e+03
3.600000000000000422e-02 7.799454999999999583e-01 -1.009110000000000174e+00 4.404054999999999609e+01 1.663384999999999991e+03
3.700000000000000511e-02 7.792339999999999822e-01 -1.569695000000000285e+00 4.125275000000000603e+01 1.662744999999999891e+03
3.799999999999999906e-02 7.786589999999999900e-01 -1.970524999999999860e+00 3.893285000000000196e+01 1.662190000000000055e+03
3.899999999999999994e-02 7.782284999999999897e-01 -2.193685000000000329e+00 3.714459999999999695e+01 1.661744999999999891e+03
4.000000000000000083e-02 7.779409999999999936e-01 -2.234419500000000003e+00 3.591570000000000107e+01 1.661409999999999854e+03
4.100000000000000172e-02 7.777929999999999566e-01 -2.094813000000000258e+00 3.524620000000000175e+01 1.661194999999999936e+03
4.200000000000000261e-02 7.777785000000000393e-01 -1.778354999999999908e+00 3.511880000000000024e+01 1.661095000000000027e+03
4.300000000000000350e-02 7.778909999999999991e-01 -1.286819500000000005e+00 3.550789999999999935e+01 1.661110000000000127e+03
4.400000000000000439e-02 7.781264999999999432e-01 -6.197749999999999648e-01 3.638515000000000299e+01 1.661240000000000009e+03
4.499999999999999833e-02 7.784789999999999210e-01 2.236349999999998062e-01 3.772175000000000011e+01 1.661470000000000027e+03
4.599999999999999922e-02 7.789424999999999821e-01 1.241630000000000233e+00 3.948704999999999643e+01 1.661804999999999836e+03
4.700000000000000011e-02 7.795079999999999787e-01 2.426730000000000054e+00 4.164589999999999748e+01 1.662224999999999909e+03
4.800000000000000100e-02 7.801639999999999686e-01 3.763695000000000235e+00 4.415545000000000186e+01 1.662730000000000018e+03
4.900000000000000189e-02 7.808960000000000345e-01 5.228905000000000136e+00 4.696359999999999957e+01 1.663304999999999836e+03
5.000000000000000278e-02 7.816840000000000455e-01 6.791544499999999651e+00 5.000909999999999656e+01 1.663940000000000055e+03
5.100000000000000366e-02 7.825094999999999690e-01 8.416020500000000126e+00 5.322400000000000375e+01 1.664619999999999891e+03
5.200000000000000455e-02 7.833535000000000359e-01 1.006466999999999956e+01 5.653725000000000023e+01 1.665335000000000036e+03
5.300000000000000544e-02 7.841974999999999918e-01 1.170124500000000012e+01 5.987964999999999804e+01 1.666059999999999945e+03
5.399999999999999939e-02 7.850265000000000715e-01 1.329354000000000013e+01 6.318844999999999601e+01 1.666795000000000073e+03
5.500000000000000028e-02 7.858279999999999710e-01 1.481532500000000141e+01 6.641129999999999711e+01 1.667519999999999982e+03
5.600000000000000117e-02 7.865955000000000030e-01 1.624734999999999729e+01 6.950884999999999536e+01 1.668230000000000018e+03
5.700000000000000205e-02 7.873244999999999827e-01 1.757775000000000176e+01 7.245644999999998959e+01 1.668905000000000200e+03
5.800000000000000294e-02 7.880145000000000621e-01 1.880149999999999721e+01 7.524350000000001160e+01 1.669559999999999945e+03
5.900000000000000383e-02 7.886680000000000357e-01 1.991924999999999812e+01 7.787260000000000559e+01 1.670179999999999836e+03
6.000000000000000472e-02 7.892905000000000060e-01 2.093634999999999735e+01 8.035689999999999600e+01 1.670775000000000091e+03
6.099999999999999867e-02 7.898875000000000757e-01 2.186155000000000115e+01 8.271774999999999523e+01 1.671345000000000027e+03
6.199999999999999956e-02 7.904670000000000307e-01 2.270570000000000022e+01 8.498179999999999268e+01 1.671884999999999991e+03
6.300000000000000044e-02 7.910360000000000724e-01 2.348049999999999926e+01 8.717780000000000484e+01 1.672420000000000073e+03
6.400000000000000133e-02 7.916009999999999991e-01 2.419760000000000133e+01 8.933389999999999986e+01 1.672934999999999945e+03
6.500000000000000222e-02 7.921670000000000655e-01 2.486730000000000018e+01 9.147520000000000095e+01 1.673449999999999818e+03
6.600000000000000311e-02 7.927389999999999715e-01 2.549824999999999875e+01 9.362144999999999584e+01 1.673960000000000036e+03
6.700000000000000400e-02 7.933185000000000375e-01 2.609615000000000151e+01 9.578544999999999732e+01 1.674474999999999909e+03
6.800000000000000488e-02 7.939055000000000417e-01 2.666385000000000005e+01 9.797229999999998995e+01 1.674990000000000009e+03
6.900000000000000577e-02 7.944974999999999676e-01 2.720105000000000217e+01 1.001780499999999989e+02 1.675509999999999991e+03
7.000000000000000666e-02 7.950909999999999922e-01 2.770459999999999923e+01 1.023913499999999885e+02 1.676035000000000082e+03
7.100000000000000755e-02 7.956805000000000128e-01 2.816894999999999882e+01 1.045949999999999989e+02 1.676554999999999836e+03
7.200000000000000844e-02 7.962579999999999103e-01 2.858695000000000164e+01 1.067650000000000006e+02 1.677069999999999936e+03
7.300000000000000933e-02 7.968184999999999851e-01 2.895025000000000048e+01 1.088760000000000048e+02 1.677570000000000164e+03
7.399999999999999634e-02 7.973535000000000483e-01 2.925049999999999883e+01 1.108984999999999985e+02 1.678054999999999836e+03
7.499999999999999722e-02 7.978560000000000096e-01 2.947970000000000113e+01 1.128064999999999998e+02 1.678514999999999873e+03
7.599999999999999811e-02 7.983210000000000583e-01 2.963084999999999880e+01 1.145750000000000028e+02 1.678945000000000164e+03
7.699999999999999900e-02 7.987420000000000631e-01 2.969839999999999947e+01 1.161825000000000045e+02 1.679345000000000027e+03
7.799999999999999989e-02 7.991165000000000074e-01 2.967855000000000132e+01 1.176109999999999900e+02 1.679704999999999927e+03
7.900000000000000078e-02 7.994410000000000682e-01 2.956920000000000215e+01 1.188489999999999895e+02 1.680025000000000091e+03
8.000000000000000167e-02 7.997149999999999537e-01 2.937059999999999960e+01 1.198890000000000100e+02 1.680295000000000073e+03
8.100000000000000255e-02 7.999374999999999680e-01 2.908474999999999966e+01 1.207305000000000064e+02 1.680525000000000091e+03
8.200000000000000344e-02 8.001104999999999468e-01 2.871594999999999942e+01 1.213764999999999930e+02 1.680710000000000036e+03
8.300000000000000433e-02 8.002365000000000173e-01 2.827029999999999887e+01 1.218369999999999891e+02 1.680860000000000127e+03
8.400000000000000522e-02 8.003194999999999615e-01 2.775590000000000046e+01 1.221239999999999952e+02 1.680960000000000036e+03
8.500000000000000611e-02 8.003629999999999356e-01 2.718245000000000289e+01 1.222554999999999978e+02 1.681025000000000091e+03
8.600000000000000699e-02 8.003739999999999188e-01 2.656080000000000041e+01 1.222510000000000048e+02 1.681059999999999945e+03
8.700000000000000788e-02 8.003575000000000550e-01 2.590299999999999869e+01 1.221340000000000003e+02 1.681059999999999945e+03
8.800000000000000877e-02 8.003199999999999203e-01 2.522125000000000128e+01 1.219284999999999997e+02 1.681039999999999964e+03
8.899999999999999578e-02 8.002670000000000616e-01 2.452789999999999893e+01 1.216585000000000036e+02 1.681000000000000000e+03
8.999999999999999667e-02 8.002050000000000551e-01 2.383444999999999681e+01 1.213470000000000084e+02 1.680944999999999936e+03
9.099999999999999756e-02 8.001395000000000035e-01 2.315140000000000242e+01 1.210159999999999911e+02 1.680884999999999991e+03
9.199999999999999845e-02 8.000734999999999930e-01 2.248765000000000214e+01 1.206844999999999999e+02 1.680815000000000055e+03
9.299999999999999933e-02 8.000114999999999865e-01 2.185005000000000308e+01 1.203669999999999902e+02 1.680750000000000000e+03
9.400000000000000022e-02 7.999555000000000415e-01 2.124314999999999998e+01 1.200740000000000123e+02 1.680690000000000055e+03
9.500000000000000111e-02 7.999060000000000059e-01 2.066924999999999812e+01 1.198125000000000000e+02 1.680625000000000000e+03
9.600000000000000200e-02 7.998635000000000606e-01 2.012829999999999941e+01 1.195840000000000032e+02 1.680574999999999818e+03
9.700000000000000289e-02 7.998270000000000657e-01 1.961824999999999974e+01 1.193855000000000075e+02 1.680525000000000091e+03
9.800000000000000377e-02 7.997935000000000461e-01 1.913499999999999801e+01 1.192109999999999985e+02 1.680480000000000018e+03
9.900000000000000466e-02 7.997609999999999442e-01 1.867309999999999803e+01 1.190500000000000114e+02 1.680434999999999945e+03
1.000000000000000056e-01 7.997265000000000068e-01 1.822595000000000098e+01 1.188919999999999959e+02 1.680394999999999982e+03
1.010000000000000064e-01 7.996860000000000079e-01 1.778650000000000020e+01 1.187220000000000084e+02 1.680349999999999909e+03
1.020000000000000073e-01 7.996360000000000134e-01 1.734709999999999752e+01 1.185279999999999916e+02 1.680309999999999945e+03
1.030000000000000082e-01 7.995735000000000481e-01 1.690080000000000027e+01 1.182955000000000041e+02 1.680250000000000000e+03
1.040000000000000091e-01 7.994954999999999146e-01 1.644100000000000250e+01 1.180120000000000005e+02 1.680184999999999945e+03
1.050000000000000100e-01 7.993999999999999995e-01 1.596219999999999928e+01 1.176684999999999945e+02 1.680110000000000127e+03
1.059999999999999970e-01 7.992859999999999410e-01 1.546020000000000039e+01 1.172570000000000050e+02 1.680019999999999982e+03
1.069999999999999979e-01 7.991515000000000146e-01 1.493239999999999945e+01 1.167725000000000080e+02 1.679914999999999964e+03
1.079999999999999988e-01 7.989979999999999860e-01 1.437785000000000046e+01 1.162154999999999916e+02 1.679795000000000073e+03
1.089999999999999997e-01 7.988260000000000360e-01 1.379756000000000071e+01 1.155879999999999939e+02 1.679659999999999854e+03
1.100000000000000006e-01 7.986385000000000289e-01 1.319417499999999954e+01 1.148960000000000008e+02 1.679509999999999991e+03
1.110000000000000014e-01 7.984379999999999811e-01 1.257220999999999833e+01 1.141494999999999891e+02 1.679344999999999800e+03
1.120000000000000023e-01 7.982275000000000897e-01 1.193756000000000128e+01 1.133615000000000066e+02 1.679170000000000073e+03
1.130000000000000032e-01 7.980119999999999436e-01 1.129754499999999950e+01 1.125469999999999970e+02 1.678990000000000009e+03
1.140000000000000041e-01 7.977965000000000195e-01 1.066037000000000035e+01 1.117224999999999966e+02 1.678805000000000064e+03
1.150000000000000050e-01 7.975849999999999884e-01 1.003483500000000106e+01 1.109074999999999989e+02 1.678625000000000000e+03
1.160000000000000059e-01 7.973829999999999529e-01 9.429870000000001085e+00 1.101189999999999998e+02 1.678444999999999936e+03
1.170000000000000068e-01 7.971939999999999582e-01 8.854189999999999117e+00 1.093755000000000024e+02 1.678269999999999982e+03
1.180000000000000077e-01 7.970230000000000370e-01 8.315830000000000055e+00 1.086929999999999978e+02 1.678105000000000018e+03
1.190000000000000085e-01 7.968729999999999425e-01 7.821915000000000617e+00 1.080865000000000009e+02 1.677960000000000036e+03
1.200000000000000094e-01 7.967465000000000241e-01 7.378165000000000084e+00 1.075674999999999955e+02 1.677835000000000036e+03
1.209999999999999964e-01 7.966459999999999653e-01 6.988839999999999719e+00 1.071434999999999889e+02 1.677724999999999909e+03
1.219999999999999973e-01 7.965714999999999879e-01 6.656454999999999345e+00 1.068209999999999980e+02 1.677639999999999873e+03
1.229999999999999982e-01 7.965234999999999399e-01 6.381804999999999950e+00 1.065999999999999943e+02 1.677570000000000164e+03
1.239999999999999991e-01 7.965010000000000145e-01 6.163960000000000328e+00 1.064784999999999968e+02 1.677525000000000091e+03
1.250000000000000000e-01 7.965014999999999734e-01 6.000420000000000087e+00 1.064525000000000006e+02 1.677505000000000109e+03
1.260000000000000009e-01 7.965234999999999399e-01 5.887274999999999814e+00 1.065120000000000005e+02 1.677500000000000000e+03
1.270000000000000018e-01 7.965634999999999799e-01 5.819494999999999862e+00 1.066475000000000080e+02 1.677514999999999873e+03
1.280000000000000027e-01 7.966185000000000072e-01 5.791185000000000471e+00 1.068464999999999918e+02 1.677545000000000073e+03
1.290000000000000036e-01 7.966849999999999765e-01 5.795899999999999608e+00 1.070964999999999918e+02 1.677590000000000146e+03
1.300000000000000044e-01 7.967595000000000649e-01 5.826954999999999885e+00 1.073834999999999980e+02 1.677639999999999873e+03
1.310000000000000053e-01 7.968390000000000750e-01 5.877684999999999604e+00 1.076945000000000050e+02 1.677704999999999927e+03
1.320000000000000062e-01 7.969199999999999617e-01 5.941710000000000491e+00 1.080175000000000125e+02 1.677764999999999873e+03
1.330000000000000071e-01 7.970005000000000006e-01 6.013130000000000308e+00 1.083409999999999940e+02 1.677835000000000036e+03
1.340000000000000080e-01 7.970774999999999944e-01 6.086674999999999613e+00 1.086555000000000035e+02 1.677900000000000091e+03
1.350000000000000089e-01 7.971500000000000252e-01 6.157835000000000392e+00 1.089535000000000053e+02 1.677964999999999918e+03
1.360000000000000098e-01 7.972164999999999946e-01 6.222904999999999909e+00 1.092295000000000016e+02 1.678025000000000091e+03
1.370000000000000107e-01 7.972764999999999436e-01 6.279049999999999798e+00 1.094800000000000040e+02 1.678079999999999927e+03
1.380000000000000115e-01 7.973289999999999544e-01 6.324275000000000091e+00 1.097014999999999958e+02 1.678134999999999991e+03
1.390000000000000124e-01 7.973749999999999449e-01 6.357375000000000220e+00 1.098950000000000102e+02 1.678180000000000064e+03
1.400000000000000133e-01 7.974134999999999973e-01 6.377914999999999779e+00 1.100610000000000070e+02 1.678224999999999909e+03
1.410000000000000142e-01 7.974470000000000169e-01 6.386120000000000019e+00 1.102009999999999934e+02 1.678259999999999991e+03
1.420000000000000151e-01 7.974755000000000038e-01 6.382785000000000153e+00 1.103190000000000026e+02 1.678289999999999964e+03
1.430000000000000160e-01 7.974995000000000278e-01 6.369175000000000253e+00 1.104184999999999945e+02 1.678315000000000055e+03
1.440000000000000169e-01 7.975210000000000354e-01 6.346880000000000521e+00 1.105039999999999907e+02 1.678340000000000146e+03
1.450000000000000178e-01 7.975400000000000267e-01 6.317739999999999689e+00 1.105790000000000077e+02 1.678360000000000127e+03
1.459999999999999909e-01 7.975590000000000179e-01 6.283654999999999546e+00 1.106484999999999985e+02 1.678380000000000109e+03
1.469999999999999918e-01 7.975775000000000503e-01 6.246525000000000105e+00 1.107160000000000082e+02 1.678394999999999982e+03
1.479999999999999927e-01 7.975974999999999593e-01 6.208099999999999952e+00 1.107849999999999966e+02 1.678420000000000073e+03
1.489999999999999936e-01 7.976189999999999669e-01 6.169919999999999405e+00 1.108580000000000041e+02 1.678434999999999945e+03
1.499999999999999944e-01 7.976425000000000320e-01 6.133205000000000240e+00 1.109370000000000118e+02 1.678454999999999927e+03
1.509999999999999953e-01 7.976670000000000149e-01 6.098850000000000549e+00 1.110219999999999914e+02 1.678474999999999909e+03
1.519999999999999962e-01 7.976940000000000142e-01 6.067355000000000054e+00 1.111144999999999925e+02 1.678494999999999891e+03
1.529999999999999971e-01 7.977225000000000010e-01 6.038869999999999294e+00 1.112119999999999891e+02 1.678519999999999982e+03
1.539999999999999980e-01 7.977520000000000167e-01 6.013215000000000643e+00 1.113145000000000095e+02 1.678545000000000073e+03
1.549999999999999989e-01 7.977819999999999911e-01 5.989919999999999689e+00 1.114189999999999969e+02 1.678570000000000164e+03
1.559999999999999998e-01 7.978110000000000479e-01 5.968329999999999913e+00 1.115225000000000080e+02 1.678595000000000027e+03
1.570000000000000007e-01 7.978395000000000348e-01 5.947644999999999627e+00 1.116235000000000070e+02 1.678615000000000009e+03
1.580000000000000016e-01 7.978659999999999641e-01 5.927035000000000053e+00 1.117185000000000059e+02 1.678639999999999873e+03
1.590000000000000024e-01 7.978899999999999881e-01 5.905739999999999768e+00 1.118054999999999950e+02 1.678659999999999854e+03
