# t [s], A [cm^2], U [cm/s], P [cPa], c [cm/s]
1.000000000000000021e-03 5.593285000000000062e-01 3.192349999999996579e-03 1.093470000000000084e+02 1.404650000000000091e+03
2.000000000000000042e-03 5.593215000000000270e-01 1.451428500000000003e-03 1.093340000000000032e+02 1.404650000000000091e+03
3.000000000000000062e-03 5.593489999999999851e-01 4.458544999999999869e-02 1.093725000000000023e+02 1.404659999999999854e+03
4.000000000000000083e-03 5.593974999999999920e-01 1.214897499999999936e-01 1.094634999999999962e+02 1.404690000000000055e+03
5.000000000000000104e-03 5.594129999999999381e-01 1.456382499999999969e-01 1.095000000000000000e+02 1.404704999999999927e+03
6.000000000000000125e-03 5.593890000000000251e-01 1.058333499999999927e-01 1.094405000000000001e+02 1.404690000000000055e+03
7.000000000000000146e-03 5.593544999999999767e-01 4.576100000000002388e-02 1.093139999999999930e+02 1.404664999999999964e+03
8.000000000000000167e-03 5.593200000000000394e-01 -1.644050000000002454e-02 1.091449999999999960e+02 1.404630000000000109e+03
9.000000000000001055e-03 5.592650000000000121e-01 -1.169544999999999613e-01 1.088975000000000080e+02 1.404575000000000045e+03
1.000000000000000194e-02 5.591730000000000311e-01 -2.871579999999999688e-01 1.085260000000000105e+02 1.404490000000000009e+03
1.099999999999999936e-02 5.590370000000000061e-01 -5.353949999999999543e-01 1.080000000000000000e+02 1.404365000000000009e+03
1.200000000000000025e-02 5.588494999999999990e-01 -8.680349999999998900e-01 1.072895000000000039e+02 1.404195000000000164e+03
1.300000000000000114e-02 5.586025000000000018e-01 -1.288819999999999855e+00 1.063644999999999925e+02 1.403965000000000146e+03
1.400000000000000203e-02 5.582989999999999897e-01 -1.778874999999999762e+00 1.052214999999999918e+02 1.403679999999999836e+03
1.499999999999999944e-02 5.579585000000000239e-01 -2.287499999999999645e+00 1.038960999999999899e+02 1.403335000000000036e+03
1.600000000000000033e-02 5.576084999999999514e-01 -2.744514999999999816e+00 1.024624000000000024e+02 1.402954999999999927e+03
1.700000000000000122e-02 5.572770000000000223e-01 -3.083355000000000068e+00 1.010046499999999980e+02 1.402545000000000073e+03
1.800000000000000211e-02 5.569790000000000019e-01 -3.259724999999999984e+00 9.959579999999999700e+01 1.402139999999999873e+03
1.900000000000000300e-02 5.567174999999999763e-01 -3.258988499999999622e+00 9.827840000000000487e+01 1.401744999999999891e+03
2.000000000000000042e-02 5.564824999999999910e-01 -3.093237000000000236e+00 9.706350000000000477e+01 1.401360000000000127e+03
2.100000000000000130e-02 5.562605000000000466e-01 -2.792349999999999888e+00 9.593340000000000600e+01 1.400985000000000127e+03
2.200000000000000219e-02 5.560344999999999871e-01 -2.393145000000000078e+00 9.485354999999999848e+01 1.400619999999999891e+03
2.299999999999999961e-02 5.557929999999999815e-01 -1.929520000000000124e+00 9.378489999999999327e+01 1.400250000000000000e+03
2.400000000000000050e-02 5.555284999999999807e-01 -1.425489999999999924e+00 9.269519999999999982e+01 1.399875000000000000e+03
2.500000000000000139e-02 5.552405000000000257e-01 -8.925100000000001366e-01 9.156595000000000084e+01 1.399490000000000009e+03
2.600000000000000228e-02 5.549344999999999972e-01 -3.312800000000000189e-01 9.039439999999999031e+01 1.399099999999999909e+03
2.700000000000000316e-02 5.546165000000000678e-01 2.631600000000000605e-01 8.918975000000000364e+01 1.398694999999999936e+03
2.800000000000000058e-02 5.542939999999999534e-01 8.949500000000001343e-01 8.796670000000000300e+01 1.398279999999999973e+03
2.900000000000000147e-02 5.539695000000000036e-01 1.561829999999999830e+00 8.673740000000000805e+01 1.397865000000000009e+03
3.000000000000000236e-02 5.536434999999999551e-01 2.251929999999999765e+00 8.550565000000000282e+01 1.397449999999999818e+03
3.099999999999999978e-02 5.533095000000000097e-01 2.943490000000000606e+00 8.426364999999999839e+01 1.397029999999999973e+03
3.200000000000000067e-02 5.529589999999999783e-01 3.607235000000000191e+00 8.299240000000000350e+01 1.396599999999999909e+03
3.300000000000000155e-02 5.525830000000000464e-01 4.210515000000000008e+00 8.166514999999999702e+01 1.396159999999999854e+03
3.400000000000000244e-02 5.521734999999999838e-01 4.722464999999999691e+00 8.025260000000000105e+01 1.395700000000000045e+03
3.500000000000000333e-02 5.517235000000000333e-01 5.118665000000000020e+00 7.872970000000000823e+01 1.395215000000000146e+03
3.600000000000000422e-02 5.512325000000000141e-01 5.385305000000000675e+00 7.708125000000001137e+01 1.394694999999999936e+03
3.700000000000000511e-02 5.507035000000000124e-01 5.520895000000000330e+00 7.530670000000000641e+01 1.394150000000000091e+03
3.799999999999999906e-02 5.501460000000000239e-01 5.536385000000000112e+00 7.342214999999998781e+01 1.393570000000000164e+03
3.899999999999999994e-02 5.495719999999999494e-01 5.453439999999999621e+00 7.145974999999999966e+01 1.392980000000000018e+03
4.000000000000000083e-02 5.489979999999999860e-01 5.300815000000000055e+00 6.946465000000000600e+01 1.392375000000000000e+03
4.100000000000000172e-02 5.484390000000000098e-01 5.110680000000000334e+00 6.749070000000000391e+01 1.391769999999999982e+03
4.200000000000000261e-02 5.479110000000000369e-01 4.914905000000000079e+00 6.559459999999999980e+01 1.391190000000000055e+03
4.300000000000000350e-02 5.474269999999999969e-01 4.742179999999999396e+00 6.383149999999999835e+01 1.390634999999999991e+03
4.400000000000000439e-02 5.469990000000000130e-01 4.616509999999999891e+00 6.225074999999999648e+01 1.390134999999999991e+03
4.499999999999999833e-02 5.466344999999999121e-01 4.556144999999999889e+00 6.089334999999999809e+01 1.389679999999999836e+03
4.599999999999999922e-02 5.463400000000000478e-01 4.574359999999999538e+00 5.979064999999999941e+01 1.389305000000000064e+03
4.700000000000000011e-02 5.461190000000000211e-01 4.679997499999999810e+00 5.896460000000000434e+01 1.389000000000000000e+03
4.800000000000000100e-02 5.459730000000000416e-01 4.878935000000000244e+00 5.842844999999999800e+01 1.388780000000000200e+03
4.900000000000000189e-02 5.459030000000000271e-01 5.175135000000000041e+00 5.818840000000000146e+01 1.388639999999999873e+03
5.000000000000000278e-02 5.459089999999999776e-01 5.571555000000000035e+00 5.824519999999999698e+01 1.388590000000000146e+03
5.100000000000000366e-02 5.459895000000000165e-01 6.070639999999999148e+00 5.859559999999999746e+01 1.388630000000000109e+03
5.200000000000000455e-02 5.461439999999999628e-01 6.674330000000000318e+00 5.923329999999999984e+01 1.388750000000000000e+03
5.300000000000000544e-02 5.463704999999999812e-01 7.383720000000000283e+00 6.014959999999999951e+01 1.388960000000000036e+03
5.399999999999999939e-02 5.466670000000000140e-01 8.198475000000000179e+00 6.133329999999999416e+01 1.389244999999999891e+03
5.500000000000000028e-02 5.470294999999999463e-01 9.116289999999999338e+00 6.277075000000000671e+01 1.389615000000000009e+03
5.600000000000000117e-02 5.474535000000000373e-01 1.013214499999999951e+01 6.444519999999999982e+01 1.390059999999999945e+03
5.700000000000000205e-02 5.479344999999999910e-01 1.123836999999999975e+01 6.633684999999999832e+01 1.390575000000000045e+03
5.800000000000000294e-02 5.484655000000000502e-01 1.242437499999999950e+01 6.842259999999998854e+01 1.391154999999999973e+03
5.900000000000000383e-02 5.490384999999999849e-01 1.367715500000000084e+01 7.067660000000000764e+01 1.391785000000000082e+03
6.000000000000000472e-02 5.496474999999999556e-01 1.498178499999999858e+01 7.307049999999999557e+01 1.392465000000000146e+03
6.099999999999999867e-02 5.502825000000000077e-01 1.632209499999999736e+01 7.557470000000000709e+01 1.393184999999999945e+03
6.199999999999999956e-02 5.509370000000000100e-01 1.768169999999999931e+01 7.815909999999999513e+01 1.393945000000000164e+03
6.300000000000000044e-02 5.516035000000000244e-01 1.904439999999999955e+01 8.079449999999999932e+01 1.394720000000000027e+03
6.400000000000000133e-02 5.522740000000000427e-01 2.039539999999999864e+01 8.345349999999999113e+01 1.395514999999999873e+03
6.500000000000000222e-02 5.529444999999999499e-01 2.172140000000000271e+01 8.611154999999999404e+01 1.396320000000000164e+03
6.600000000000000311e-02 5.536084999999999479e-01 2.301129999999999853e+01 8.874744999999998640e+01 1.397125000000000000e+03
6.700000000000000400e-02 5.542635000000000201e-01 2.425605000000000189e+01 9.134485000000000809e+01 1.397924999999999955e+03
6.800000000000000488e-02 5.549060000000000104e-01 2.544910000000000139e+01 9.389064999999999372e+01 1.398720000000000027e+03
6.900000000000000577e-02 5.555354999999999599e-01 2.658590000000000231e+01 9.637659999999999627e+01 1.399500000000000000e+03
7.000000000000000666e-02 5.561510000000000620e-01 2.766380000000000194e+01 9.879789999999999850e+01 1.400275000000000091e+03
7.100000000000000755e-02 5.567520000000000246e-01 2.868195000000000050e+01 1.011538500000000056e+02 1.401025000000000091e+03
7.200000000000000844e-02 5.573394999999999877e-01 2.964039999999999964e+01 1.034454499999999939e+02 1.401765000000000100e+03
7.300000000000000933e-02 5.579155000000000086e-01 3.054044999999999987e+01 1.056770499999999942e+02 1.402485000000000127e+03
7.399999999999999634e-02 5.584795000000000176e-01 3.138380000000000081e+01 1.078530000000000086e+02 1.403195000000000164e+03
7.499999999999999722e-02 5.590340000000000309e-01 3.217229999999999990e+01 1.099784999999999968e+02 1.403889999999999873e+03
7.599999999999999811e-02 5.595789999999999376e-01 3.290784999999999627e+01 1.120594999999999999e+02 1.404570000000000164e+03
7.699999999999999900e-02 5.601165000000000171e-01 3.359214999999999662e+01 1.140999999999999943e+02 1.405240000000000009e+03
7.799999999999999989e-02 5.606465000000000476e-01 3.422625000000000028e+01 1.161034999999999968e+02 1.405894999999999982e+03
7.900000000000000078e-02 5.611684999999999590e-01 3.481074999999999875e+01 1.180715000000000003e+02 1.406545000000000073e+03
8.000000000000000167e-02 5.616825000000000845e-01 3.534555000000000291e+01 1.200039999999999907e+02 1.407180000000000064e+03
8.100000000000000255e-02 5.621875000000000622e-01 3.582994999999999663e+01 1.218984999999999985e+02 1.407805000000000064e+03
8.200000000000000344e-02 5.626820000000000155e-01 3.626264999999999361e+01 1.237514999999999930e+02 1.408420000000000073e+03
8.300000000000000433e-02 5.631645000000000678e-01 3.664170000000000016e+01 1.255564999999999998e+02 1.409019999999999982e+03
8.400000000000000522e-02 5.636324999999999807e-01 3.696495000000000175e+01 1.273075000000000045e+02 1.409605000000000018e+03
8.500000000000000611e-02 5.640844999999999887e-01 3.723000000000000398e+01 1.289959999999999809e+02 1.410170000000000073e+03
8.600000000000000699e-02 5.645179999999999643e-01 3.743439999999999657e+01 1.306119999999999948e+02 1.410714999999999918e+03
8.700000000000000788e-02 5.649294999999999733e-01 3.757569999999999766e+01 1.321474999999999795e+02 1.411235000000000127e+03
8.800000000000000877e-02 5.653175000000000283e-01 3.765194999999999936e+01 1.335935000000000059e+02 1.411735000000000127e+03
8.899999999999999578e-02 5.656805000000000305e-01 3.766150000000000375e+01 1.349410000000000025e+02 1.412204999999999927e+03
8.999999999999999667e-02 5.660155000000000047e-01 3.760320000000000107e+01 1.361834999999999809e+02 1.412634999999999991e+03
9.099999999999999756e-02 5.663219999999999921e-01 3.747670000000000101e+01 1.373139999999999930e+02 1.413039999999999964e+03
9.199999999999999845e-02 5.665980000000000461e-01 3.728199999999999648e+01 1.383274999999999864e+02 1.413410000000000082e+03
9.299999999999999933e-02 5.668435000000000556e-01 3.702025000000000432e+01 1.392219999999999800e+02 1.413740000000000009e+03
9.400000000000000022e-02 5.670585000000000209e-01 3.669284999999999997e+01 1.399939999999999998e+02 1.414030000000000200e+03
9.500000000000000111e-02 5.672414999999999541e-01 3.630240000000000578e+01 1.406449999999999818e+02 1.414284999999999854e+03
9.600000000000000200e-02 5.673945000000000238e-01 3.585190000000000055e+01 1.411759999999999877e+02 1.414505000000000109e+03
9.700000000000000289e-02 5.675175000000000081e-01 3.534499999999999886e+01 1.415894999999999868e+02 1.414684999999999945e+03
9.800000000000000377e-02 5.676120000000000054e-01 3.478614999999999924e+01 1.418910000000000196e+02 1.414829999999999927e+03
9.900000000000000466e-02 5.676795000000000035e-01 3.418014999999999759e+01 1.420865000000000009e+02 1.414934999999999945e+03
1.000000000000000056e-01 5.677210000000000312e-01 3.353240000000000265e+01 1.421825000000000045e+02 1.415015000000000100e+03
1.010000000000000064e-01 5.677400000000000224e-01 3.284859999999999758e+01 1.421864999999999952e+02 1.415059999999999945e+03
1.020000000000000073e-01 5.677375000000000060e-01 3.213485000000000014e+01 1.421084999999999923e+02 1.415079999999999927e+03
1.030000000000000082e-01 5.677164999999999573e-01 3.139730000000000132e+01 1.419575000000000102e+02 1.415070000000000164e+03
1.040000000000000091e-01 5.676789999999999337e-01 3.064220000000000255e+01 1.417429999999999950e+02 1.415034999999999854e+03
1.050000000000000100e-01 5.676280000000000214e-01 2.987565000000000026e+01 1.414745000000000061e+02 1.414980000000000018e+03
1.059999999999999970e-01 5.675649999999999862e-01 2.910360000000000014e+01 1.411630000000000109e+02 1.414914999999999964e+03
1.069999999999999979e-01 5.674930000000000252e-01 2.833165000000000333e+01 1.408165000000000191e+02 1.414829999999999927e+03
1.079999999999999988e-01 5.674139999999999739e-01 2.756484999999999985e+01 1.404435000000000002e+02 1.414730000000000018e+03
1.089999999999999997e-01 5.673300000000000010e-01 2.680770000000000408e+01 1.400534999999999854e+02 1.414625000000000000e+03
1.100000000000000006e-01 5.672429999999999417e-01 2.606380000000000052e+01 1.396525000000000034e+02 1.414514999999999873e+03
1.110000000000000014e-01 5.671530000000000182e-01 2.533619999999999806e+01 1.392464999999999975e+02 1.414394999999999982e+03
1.120000000000000023e-01 5.670619999999999550e-01 2.462689999999999912e+01 1.388394999999999868e+02 1.414275000000000091e+03
1.130000000000000032e-01 5.669705000000000439e-01 2.393714999999999904e+01 1.384350000000000023e+02 1.414150000000000091e+03
1.140000000000000041e-01 5.668785000000000629e-01 2.326724999999999710e+01 1.380349999999999966e+02 1.414025000000000091e+03
1.150000000000000050e-01 5.667870000000000408e-01 2.261670000000000158e+01 1.376394999999999982e+02 1.413900000000000091e+03
1.160000000000000059e-01 5.666944999999999899e-01 2.198434999999999917e+01 1.372484999999999786e+02 1.413775000000000091e+03
1.170000000000000068e-01 5.666010000000000213e-01 2.136824999999999974e+01 1.368595000000000255e+02 1.413655000000000200e+03
1.180000000000000077e-01 5.665059999999999540e-01 2.076610000000000156e+01 1.364699999999999989e+02 1.413525000000000091e+03
1.190000000000000085e-01 5.664080000000000226e-01 2.017504999999999882e+01 1.360769999999999982e+02 1.413394999999999982e+03
1.200000000000000094e-01 5.663070000000000048e-01 1.959230000000000160e+01 1.356764999999999759e+02 1.413269999999999982e+03
1.209999999999999964e-01 5.662009999999999543e-01 1.901464999999999961e+01 1.352644999999999982e+02 1.413134999999999991e+03
1.219999999999999973e-01 5.660899999999999821e-01 1.843909999999999982e+01 1.348369999999999891e+02 1.413000000000000000e+03
1.229999999999999982e-01 5.659724999999999895e-01 1.786285000000000167e+01 1.343899999999999864e+02 1.412855000000000018e+03
1.239999999999999991e-01 5.658484999999999765e-01 1.728330000000000055e+01 1.339214999999999804e+02 1.412710000000000036e+03
1.250000000000000000e-01 5.657164999999999555e-01 1.669829999999999970e+01 1.334275000000000091e+02 1.412549999999999955e+03
1.260000000000000009e-01 5.655775000000000663e-01 1.610614999999999952e+01 1.329074999999999989e+02 1.412385000000000218e+03
1.270000000000000018e-01 5.654304999999999470e-01 1.550564999999999927e+01 1.323589999999999804e+02 1.412215000000000146e+03
1.280000000000000027e-01 5.652760000000000007e-01 1.489630000000000010e+01 1.317839999999999918e+02 1.412039999999999964e+03
1.290000000000000036e-01 5.651144999999999641e-01 1.427811499999999967e+01 1.311814999999999998e+02 1.411849999999999909e+03
1.300000000000000044e-01 5.649465000000000181e-01 1.365165999999999968e+01 1.305554999999999950e+02 1.411659999999999854e+03
1.310000000000000053e-01 5.647729999999999695e-01 1.301827500000000093e+01 1.299074999999999989e+02 1.411460000000000036e+03
1.320000000000000062e-01 5.645955000000000279e-01 1.237971999999999895e+01 1.292425000000000068e+02 1.411255000000000109e+03
1.330000000000000071e-01 5.644150000000000000e-01 1.173832999999999949e+01 1.285639999999999930e+02 1.411045000000000073e+03
1.340000000000000080e-01 5.642329999999999846e-01 1.109688500000000033e+01 1.278780000000000143e+02 1.410829999999999927e+03
1.350000000000000089e-01 5.640509999999999691e-01 1.045858999999999916e+01 1.271905000000000001e+02 1.410615000000000009e+03
1.360000000000000098e-01 5.638710000000000111e-01 9.826940000000000452e+00 1.265079999999999956e+02 1.410400000000000091e+03
1.370000000000000107e-01 5.636944999999999872e-01 9.205629999999999313e+00 1.258365000000000009e+02 1.410184999999999945e+03
1.380000000000000115e-01 5.635235000000000660e-01 8.598465000000000913e+00 1.251830000000000069e+02 1.409980000000000018e+03
1.390000000000000124e-01 5.633589999999999431e-01 8.009235000000000326e+00 1.245540000000000020e+02 1.409780000000000200e+03
1.400000000000000133e-01 5.632034999999999680e-01 7.441604999999999137e+00 1.239550000000000125e+02 1.409585000000000036e+03
1.410000000000000142e-01 5.630579999999999474e-01 6.899049999999999905e+00 1.233930000000000007e+02 1.409404999999999973e+03
1.420000000000000151e-01 5.629239999999999799e-01 6.384689999999999976e+00 1.228719999999999999e+02 1.409230000000000018e+03
1.430000000000000160e-01 5.628020000000000245e-01 5.901299999999999990e+00 1.223969999999999914e+02 1.409070000000000164e+03
1.440000000000000169e-01 5.626929999999999987e-01 5.451109999999999900e+00 1.219714999999999918e+02 1.408924999999999955e+03
1.450000000000000178e-01 5.625979999999999315e-01 5.035840000000000316e+00 1.215970000000000084e+02 1.408789999999999964e+03
1.459999999999999909e-01 5.625164999999999749e-01 4.656615000000000393e+00 1.212760000000000105e+02 1.408670000000000073e+03
1.469999999999999918e-01 5.624489999999999768e-01 4.313969999999999416e+00 1.210084999999999980e+02 1.408574999999999818e+03
1.479999999999999927e-01 5.623955000000000481e-01 4.007819999999999716e+00 1.207940000000000111e+02 1.408490000000000009e+03
1.489999999999999936e-01 5.623544999999999794e-01 3.737519999999999953e+00 1.206299999999999955e+02 1.408420000000000073e+03
1.499999999999999944e-01 5.623264999999999514e-01 3.501879999999999882e+00 1.205149999999999864e+02 1.408365000000000009e+03
1.509999999999999953e-01 5.623089999999999478e-01 3.299220000000000041e+00 1.204455000000000098e+02 1.408325000000000045e+03
1.519999999999999962e-01 5.623020000000000795e-01 3.127460000000000129e+00 1.204164999999999992e+02 1.408299999999999955e+03
1.529999999999999971e-01 5.623044999999999849e-01 2.984194999999999709e+00 1.204244999999999948e+02 1.408279999999999973e+03
1.539999999999999980e-01 5.623139999999999805e-01 2.866760000000000197e+00 1.204645000000000010e+02 1.408279999999999973e+03
1.549999999999999989e-01 5.623304999999999554e-01 2.772339999999999804e+00 1.205300000000000011e+02 1.408284999999999854e+03
1.559999999999999998e-01 5.623515000000000041e-01 2.698050000000000281e+00 1.206175000000000068e+02 1.408295000000000073e+03
1.570000000000000007e-01 5.623770000000000158e-01 2.641020000000000145e+00 1.207199999999999989e+02 1.408320000000000164e+03
1.580000000000000016e-01 5.624050000000000438e-01 2.598444999999999894e+00 1.208350000000000080e+02 1.408345000000000027e+03
1.590000000000000024e-01 5.624345000000000594e-01 2.567670000000000119e+00 1.209559999999999889e+02 1.408369999999999891e+03
