# t [s], A [cm^2], U [cm/s], P [cPa], c [cm/s]
1.000000000000000021e-03 7.530090000000000394e-01 4.774999999999994527e-03 9.391714999999999236e+01 1.600259999999999991e+03
2.000000000000000042e-03 7.529974999999999863e-01 3.752399999999997751e-04 9.388694999999999879e+01 1.600255000000000109e+03
3.000000000000000062e-03 7.530784999999999840e-01 1.256028000000000144e-01 9.401585000000000036e+01 1.600280000000000200e+03
4.000000000000000083e-03 7.531285000000000895e-01 2.202745499999999856e-01 9.412220000000000653e+01 1.600309999999999945e+03
5.000000000000000104e-03 7.530660000000000132e-01 1.577669999999999906e-01 9.399199999999999022e+01 1.600284999999999854e+03
6.000000000000000125e-03 7.529654999999999543e-01 3.028900000000001036e-02 9.369030000000000769e+01 1.600220000000000027e+03
7.000000000000000146e-03 7.528690000000000104e-01 -1.042100000000000248e-01 9.330719999999999459e+01 1.600144999999999982e+03
8.000000000000000167e-03 7.526990000000000069e-01 -3.646550000000000624e-01 9.270974999999999966e+01 1.600014999999999873e+03
9.000000000000001055e-03 7.524370000000000225e-01 -7.833600000000000563e-01 9.181524999999999181e+01 1.599829999999999927e+03
1.000000000000000194e-02 7.520850000000000035e-01 -1.345724999999999838e+00 9.059559999999999036e+01 1.599579999999999927e+03
1.099999999999999936e-02 7.516134999999999344e-01 -2.077569999999999695e+00 8.897655000000000314e+01 1.599230000000000018e+03
1.200000000000000025e-02 7.510149999999999881e-01 -2.967785000000000117e+00 8.691990000000001260e+01 1.598785000000000082e+03
1.300000000000000114e-02 7.503545000000000353e-01 -3.886439999999999451e+00 8.454959999999999809e+01 1.598259999999999991e+03
1.400000000000000203e-02 7.497449999999999948e-01 -4.624900999999999485e+00 8.214105000000000700e+01 1.597704999999999927e+03
1.499999999999999944e-02 7.492750000000000243e-01 -5.007799000000000333e+00 7.998560000000000514e+01 1.597179999999999836e+03
1.600000000000000033e-02 7.489664999999999795e-01 -4.970579999999999998e+00 7.825915000000000532e+01 1.596730000000000018e+03
1.700000000000000122e-02 7.487785000000000135e-01 -4.567389999999999617e+00 7.696944999999999482e+01 1.596355000000000018e+03
1.800000000000000211e-02 7.486319999999999641e-01 -3.931284999999999918e+00 7.597939999999999827e+01 1.596045000000000073e+03
1.900000000000000300e-02 7.484459999999999447e-01 -3.215945000000000054e+00 7.507789999999999964e+01 1.595755000000000109e+03
2.000000000000000042e-02 7.481659999999999977e-01 -2.539584500000000133e+00 7.406550000000000011e+01 1.595454999999999927e+03
2.100000000000000130e-02 7.477829999999999755e-01 -1.949295000000000222e+00 7.282650000000001000e+01 1.595110000000000127e+03
2.200000000000000219e-02 7.473259999999999348e-01 -1.420140000000000180e+00 7.135759999999999081e+01 1.594730000000000018e+03
2.299999999999999961e-02 7.468449999999999811e-01 -8.873400000000000176e-01 6.974344999999999573e+01 1.594309999999999945e+03
2.400000000000000050e-02 7.463824999999999488e-01 -2.919350000000000556e-01 6.809789999999999566e+01 1.593880000000000109e+03
2.500000000000000139e-02 7.459554999999999936e-01 3.829350000000002474e-01 6.650334999999999752e+01 1.593454999999999927e+03
2.600000000000000228e-02 7.455499999999999350e-01 1.097215000000000273e+00 6.497050000000000125e+01 1.593039999999999964e+03
2.700000000000000316e-02 7.451254999999999962e-01 1.760530000000000150e+00 6.342920000000000869e+01 1.592625000000000000e+03
2.800000000000000058e-02 7.446274999999999977e-01 2.254229999999999734e+00 6.174524999999999864e+01 1.592180000000000064e+03
2.900000000000000147e-02 7.440050000000000274e-01 2.461614999999999664e+00 5.975864999999999583e+01 1.591674999999999955e+03
3.000000000000000236e-02 7.432239999999999958e-01 2.298930000000000362e+00 5.733079999999999643e+01 1.591089999999999918e+03
3.099999999999999978e-02 7.422805000000000097e-01 1.739094999999999835e+00 5.438930000000000575e+01 1.590394999999999982e+03
3.200000000000000067e-02 7.412024999999999864e-01 8.205549999999997013e-01 5.095669999999999789e+01 1.589599999999999909e+03
3.300000000000000155e-02 7.400459999999999816e-01 -3.612500000000000711e-01 4.715380000000000393e+01 1.588715000000000146e+03
3.400000000000000244e-02 7.388820000000000388e-01 -1.675964999999999705e+00 4.317815000000000225e+01 1.587779999999999973e+03
3.500000000000000333e-02 7.377834999999999255e-01 -2.984745000000000203e+00 3.926765000000000327e+01 1.586845000000000027e+03
3.600000000000000422e-02 7.368135000000000101e-01 -4.163349999999999440e+00 3.566120000000000090e+01 1.585960000000000036e+03
3.700000000000000511e-02 7.360174999999999912e-01 -5.116319999999999979e+00 3.256584999999999752e+01 1.585179999999999836e+03
3.799999999999999906e-02 7.354249999999999954e-01 -5.782537999999999734e+00 3.013615000000000066e+01 1.584529999999999973e+03
3.899999999999999994e-02 7.350459999999999772e-01 -6.132864999999999789e+00 2.846545000000000414e+01 1.584045000000000073e+03
4.000000000000000083e-02 7.348790000000000600e-01 -6.163235000000000241e+00 2.758899999999999864e+01 1.583740000000000009e+03
4.100000000000000172e-02 7.349120000000000097e-01 -5.885120000000000573e+00 2.749465000000000003e+01 1.583619999999999891e+03
4.200000000000000261e-02 7.351305000000000200e-01 -5.316659999999999719e+00 2.813839999999999719e+01 1.583670000000000073e+03
4.300000000000000350e-02 7.355180000000000051e-01 -4.476340500000000056e+00 2.945909999999999940e+01 1.583894999999999982e+03
4.400000000000000439e-02 7.360590000000000188e-01 -3.380280000000000395e+00 3.139020000000000010e+01 1.584275000000000091e+03
4.499999999999999833e-02 7.367399999999999505e-01 -2.043299999999999894e+00 3.386525000000000318e+01 1.584789999999999964e+03
4.599999999999999922e-02 7.375454999999999650e-01 -4.823899999999996524e-01 3.681884999999999764e+01 1.585434999999999945e+03
4.700000000000000011e-02 7.384589999999999765e-01 1.279224999999999390e+00 4.018359999999999843e+01 1.586184999999999945e+03
4.800000000000000100e-02 7.394600000000000062e-01 3.209169999999999856e+00 4.388615000000000066e+01 1.587025000000000091e+03
4.900000000000000189e-02 7.405249999999999888e-01 5.265040000000000830e+00 4.784520000000000550e+01 1.587945000000000164e+03
5.000000000000000278e-02 7.416279999999999539e-01 7.396334999999999660e+00 5.197114999999999441e+01 1.588914999999999964e+03
5.100000000000000366e-02 7.427409999999999846e-01 9.547769499999999354e+00 5.616970000000000596e+01 1.589920000000000073e+03
5.200000000000000455e-02 7.438385000000000691e-01 1.166385999999999967e+01 6.034669999999999845e+01 1.590934999999999945e+03
5.300000000000000544e-02 7.448970000000000313e-01 1.369350000000000023e+01 6.441450000000000387e+01 1.591934999999999945e+03
5.399999999999999939e-02 7.458985000000000198e-01 1.559374000000000038e+01 6.829834999999999923e+01 1.592905000000000200e+03
5.500000000000000028e-02 7.468314999999999815e-01 1.733234999999999815e+01 7.194084999999999752e+01 1.593835000000000036e+03
5.600000000000000117e-02 7.476880000000000193e-01 1.888855000000000217e+01 7.530469999999999686e+01 1.594704999999999927e+03
5.700000000000000205e-02 7.484684999999999810e-01 2.025319999999999965e+01 7.837345000000000539e+01 1.595509999999999991e+03
5.800000000000000294e-02 7.491760000000000641e-01 2.142674999999999841e+01 8.115030000000000143e+01 1.596255000000000109e+03
5.900000000000000383e-02 7.498184999999999434e-01 2.241819999999999879e+01 8.365465000000000373e+01 1.596934999999999945e+03
6.000000000000000472e-02 7.504055000000000586e-01 2.324265000000000114e+01 8.591910000000000025e+01 1.597559999999999945e+03
6.099999999999999867e-02 7.509489999999999776e-01 2.392004999999999981e+01 8.798564999999999259e+01 1.598134999999999991e+03
6.199999999999999956e-02 7.514615000000000045e-01 2.447340000000000160e+01 8.990205000000000268e+01 1.598670000000000073e+03
6.300000000000000044e-02 7.519569999999999865e-01 2.492779999999999774e+01 9.171880000000000166e+01 1.599175000000000182e+03
6.400000000000000133e-02 7.524470000000000880e-01 2.530935000000000201e+01 9.348619999999999663e+01 1.599664999999999964e+03
6.500000000000000222e-02 7.529449999999999754e-01 2.564345000000000141e+01 9.525145000000000550e+01 1.600150000000000091e+03
6.600000000000000311e-02 7.534594999999999487e-01 2.595394999999999897e+01 9.705635000000000900e+01 1.600634999999999991e+03
6.700000000000000400e-02 7.539990000000000858e-01 2.626115000000000066e+01 9.893424999999999159e+01 1.601130000000000109e+03
6.800000000000000488e-02 7.545679999999999055e-01 2.658040000000000092e+01 1.009075500000000005e+02 1.601644999999999982e+03
6.900000000000000577e-02 7.551674999999999915e-01 2.692125000000000057e+01 1.029865000000000066e+02 1.602180000000000064e+03
7.000000000000000666e-02 7.557945000000000357e-01 2.728624999999999901e+01 1.051664999999999992e+02 1.602744999999999891e+03
7.100000000000000755e-02 7.564420000000000588e-01 2.767135000000000034e+01 1.074309999999999974e+02 1.603320000000000164e+03
7.200000000000000844e-02 7.571010000000000240e-01 2.806620000000000203e+01 1.097485000000000070e+02 1.603910000000000082e+03
7.300000000000000933e-02 7.577579999999999316e-01 2.845544999999999902e+01 1.120790000000000077e+02 1.604505000000000109e+03
7.399999999999999634e-02 7.583999999999999631e-01 2.882030000000000314e+01 1.143739999999999952e+02 1.605094999999999800e+03
7.499999999999999722e-02 7.590124999999999789e-01 2.914010000000000034e+01 1.165824999999999960e+02 1.605670000000000073e+03
7.599999999999999811e-02 7.595814999999999095e-01 2.939424999999999955e+01 1.186514999999999986e+02 1.606210000000000036e+03
7.699999999999999900e-02 7.600949999999999651e-01 2.956340000000000146e+01 1.205335000000000036e+02 1.606715000000000146e+03
7.799999999999999989e-02 7.605420000000000513e-01 2.963085000000000235e+01 1.221864999999999952e+02 1.607160000000000082e+03
7.900000000000000078e-02 7.609155000000000779e-01 2.958370000000000033e+01 1.235755000000000052e+02 1.607549999999999955e+03
8.000000000000000167e-02 7.612090000000000245e-01 2.941335000000000122e+01 1.246769999999999925e+02 1.607869999999999891e+03
8.100000000000000255e-02 7.614210000000000145e-01 2.911574999999999847e+01 1.254800000000000040e+02 1.608119999999999891e+03
8.200000000000000344e-02 7.615524999999999656e-01 2.869164999999999921e+01 1.259814999999999969e+02 1.608295000000000073e+03
8.300000000000000433e-02 7.616064999999999641e-01 2.814645000000000152e+01 1.261914999999999907e+02 1.608394999999999982e+03
8.400000000000000522e-02 7.615890000000000715e-01 2.748979999999999890e+01 1.261294999999999931e+02 1.608430000000000064e+03
8.500000000000000611e-02 7.615084999999999216e-01 2.673509999999999920e+01 1.258230000000000075e+02 1.608400000000000091e+03
8.600000000000000699e-02 7.613749999999999130e-01 2.589885000000000304e+01 1.253059999999999974e+02 1.608315000000000055e+03
8.700000000000000788e-02 7.611985000000000001e-01 2.500000000000000000e+01 1.246204999999999927e+02 1.608184999999999945e+03
8.800000000000000877e-02 7.609909999999999730e-01 2.405879999999999797e+01 1.238079999999999927e+02 1.608014999999999873e+03
8.899999999999999578e-02 7.607645000000000657e-01 2.309619999999999962e+01 1.229130000000000109e+02 1.607819999999999936e+03
8.999999999999999667e-02 7.605304999999999982e-01 2.213269999999999982e+01 1.219799999999999898e+02 1.607605000000000018e+03
9.099999999999999756e-02 7.602984999999999882e-01 2.118750000000000000e+01 1.210480000000000018e+02 1.607384999999999991e+03
9.199999999999999845e-02 7.600784999999999902e-01 2.027774999999999750e+01 1.201554999999999893e+02 1.607170000000000073e+03
9.299999999999999933e-02 7.598784999999999012e-01 1.941779999999999973e+01 1.193325000000000102e+02 1.606965000000000146e+03
9.400000000000000022e-02 7.597039999999999349e-01 1.861860000000000070e+01 1.186030000000000086e+02 1.606775000000000091e+03
9.500000000000000111e-02 7.595579999999999554e-01 1.788745000000000118e+01 1.179844999999999970e+02 1.606605000000000018e+03
9.600000000000000200e-02 7.594429999999999792e-01 1.722785000000000011e+01 1.174849999999999994e+02 1.606469999999999800e+03
9.700000000000000289e-02 7.593579999999999774e-01 1.663940000000000197e+01 1.171069999999999993e+02 1.606355000000000018e+03
9.800000000000000377e-02 7.593024999999999913e-01 1.611840000000000117e+01 1.168445000000000107e+02 1.606269999999999982e+03
9.900000000000000466e-02 7.592700000000000005e-01 1.565780000000000172e+01 1.166860000000000070e+02 1.606210000000000036e+03
1.000000000000000056e-01 7.592579999999999885e-01 1.524779999999999980e+01 1.166125000000000114e+02 1.606170000000000073e+03
1.010000000000000064e-01 7.592590000000000172e-01 1.487669999999999959e+01 1.166039999999999992e+02 1.606150000000000091e+03
1.020000000000000073e-01 7.592674999999999841e-01 1.453109999999999857e+01 1.166349999999999909e+02 1.606139999999999873e+03
1.030000000000000082e-01 7.592754999999999921e-01 1.419715000000000060e+01 1.166804999999999950e+02 1.606139999999999873e+03
1.040000000000000091e-01 7.592765000000000208e-01 1.386069999999999958e+01 1.167139999999999986e+02 1.606134999999999991e+03
1.050000000000000100e-01 7.592650000000000787e-01 1.350850000000000151e+01 1.167104999999999961e+02 1.606130000000000109e+03
1.059999999999999970e-01 7.592345000000000343e-01 1.312865000000000038e+01 1.166475000000000080e+02 1.606110000000000127e+03
1.069999999999999979e-01 7.591814999999999536e-01 1.271105000000000018e+01 1.165074999999999932e+02 1.606079999999999927e+03
1.079999999999999988e-01 7.591025000000000134e-01 1.224852999999999881e+01 1.162764999999999986e+02 1.606029999999999973e+03
1.089999999999999997e-01 7.589964999999999629e-01 1.173637000000000086e+01 1.159459999999999980e+02 1.605954999999999927e+03
1.100000000000000006e-01 7.588629999999999542e-01 1.117330000000000112e+01 1.155144999999999982e+02 1.605849999999999909e+03
1.110000000000000014e-01 7.587045000000000039e-01 1.056113000000000035e+01 1.149849999999999994e+02 1.605735000000000127e+03
1.120000000000000023e-01 7.585239999999999760e-01 9.904740000000000322e+00 1.143669999999999902e+02 1.605590000000000146e+03
1.130000000000000032e-01 7.583260000000000556e-01 9.211895000000000167e+00 1.136765000000000043e+02 1.605430000000000064e+03
1.140000000000000041e-01 7.581160000000000121e-01 8.492885000000001128e+00 1.129314999999999998e+02 1.605250000000000000e+03
1.150000000000000050e-01 7.579020000000000756e-01 7.759755000000000180e+00 1.121560000000000059e+02 1.605070000000000164e+03
1.160000000000000059e-01 7.576890000000000569e-01 7.026029999999999553e+00 1.113745000000000118e+02 1.604880000000000109e+03
1.170000000000000068e-01 7.574859999999999927e-01 6.305719999999999992e+00 1.106144999999999925e+02 1.604690000000000055e+03
1.180000000000000077e-01 7.572984999999999856e-01 5.612854999999999706e+00 1.099010000000000105e+02 1.604514999999999873e+03
1.190000000000000085e-01 7.571335000000000148e-01 4.960704999999999920e+00 1.092590000000000003e+02 1.604349999999999909e+03
1.200000000000000094e-01 7.569964999999999611e-01 4.361130000000000173e+00 1.087100000000000080e+02 1.604204999999999927e+03
1.209999999999999964e-01 7.568909999999999805e-01 3.824065000000000047e+00 1.082709999999999866e+02 1.604085000000000036e+03
1.219999999999999973e-01 7.568200000000000482e-01 3.357054999999999900e+00 1.079549999999999983e+02 1.603990000000000009e+03
1.229999999999999982e-01 7.567850000000000410e-01 2.964974999999999916e+00 1.077694999999999936e+02 1.603929999999999836e+03
1.239999999999999991e-01 7.567859999999999587e-01 2.649885000000000268e+00 1.077169999999999987e+02 1.603894999999999982e+03
1.250000000000000000e-01 7.568215000000000359e-01 2.411045000000000105e+00 1.077934999999999945e+02 1.603890000000000100e+03
1.260000000000000009e-01 7.568880000000000052e-01 2.245049999999999990e+00 1.079909999999999997e+02 1.603924999999999955e+03
1.270000000000000018e-01 7.569820000000000437e-01 2.146114999999999995e+00 1.082955000000000041e+02 1.603980000000000018e+03
1.280000000000000027e-01 7.570980000000000487e-01 2.106430000000000025e+00 1.086899999999999977e+02 1.604059999999999945e+03
1.290000000000000036e-01 7.572309999999999874e-01 2.116609999999999658e+00 1.091560000000000059e+02 1.604159999999999854e+03
1.300000000000000044e-01 7.573750000000000204e-01 2.166160000000000085e+00 1.096709999999999923e+02 1.604269999999999982e+03
1.310000000000000053e-01 7.575235000000000163e-01 2.243939999999999824e+00 1.102129999999999939e+02 1.604394999999999982e+03
1.320000000000000062e-01 7.576720000000000121e-01 2.338674999999999837e+00 1.107609999999999957e+02 1.604519999999999982e+03
1.330000000000000071e-01 7.578134999999999177e-01 2.439350000000000129e+00 1.112925000000000040e+02 1.604644999999999982e+03
1.340000000000000080e-01 7.579439999999999511e-01 2.535625000000000018e+00 1.117895000000000039e+02 1.604769999999999982e+03
1.350000000000000089e-01 7.580590000000000384e-01 2.618160000000000043e+00 1.122355000000000018e+02 1.604880000000000109e+03
1.360000000000000098e-01 7.581554999999999822e-01 2.678869999999999862e+00 1.126154999999999973e+02 1.604980000000000018e+03
1.370000000000000107e-01 7.582305000000000295e-01 2.711154999999999760e+00 1.129199999999999875e+02 1.605059999999999945e+03
1.380000000000000115e-01 7.582830000000000403e-01 2.710010000000000030e+00 1.131405000000000030e+02 1.605125000000000000e+03
1.390000000000000124e-01 7.583120000000000971e-01 2.672094999999999665e+00 1.132740000000000009e+02 1.605170000000000073e+03
1.400000000000000133e-01 7.583174999999999777e-01 2.595730000000000093e+00 1.133190000000000026e+02 1.605190000000000055e+03
1.410000000000000142e-01 7.582999999999999741e-01 2.480875000000000163e+00 1.132780000000000058e+02 1.605190000000000055e+03
1.420000000000000151e-01 7.582619999999999916e-01 2.328965000000000174e+00 1.131555000000000035e+02 1.605175000000000182e+03
1.430000000000000160e-01 7.582050000000000178e-01 2.142819999999999947e+00 1.129579999999999984e+02 1.605134999999999991e+03
1.440000000000000169e-01 7.581314999999999582e-01 1.926425000000000054e+00 1.126945000000000050e+02 1.605085000000000036e+03
1.450000000000000178e-01 7.580439999999999401e-01 1.684704000000000201e+00 1.123750000000000000e+02 1.605019999999999982e+03
1.459999999999999909e-01 7.579465000000000785e-01 1.423294999999999977e+00 1.120114999999999981e+02 1.604940000000000055e+03
1.469999999999999918e-01 7.578409999999999869e-01 1.148279500000000120e+00 1.116140000000000043e+02 1.604845000000000027e+03
1.479999999999999927e-01 7.577304999999999735e-01 8.659135000000000026e-01 1.111945000000000050e+02 1.604750000000000000e+03
1.489999999999999936e-01 7.576184999999999725e-01 5.823475000000000179e-01 1.107634999999999934e+02 1.604650000000000091e+03
1.499999999999999944e-01 7.575069999999999304e-01 3.034165000000000334e-01 1.103309999999999889e+02 1.604545000000000073e+03
1.509999999999999953e-01 7.573985000000000856e-01 3.437000000000001165e-02 1.099060000000000059e+02 1.604440000000000055e+03
1.519999999999999962e-01 7.572944999999999816e-01 -2.202999999999999403e-01 1.094944999999999879e+02 1.604340000000000146e+03
1.529999999999999971e-01 7.571954999999999103e-01 -4.570020000000000748e-01 1.091025000000000063e+02 1.604240000000000009e+03
1.539999999999999980e-01 7.571029999999999704e-01 -6.731354999999999977e-01 1.087314999999999969e+02 1.604144999999999982e+03
1.549999999999999989e-01 7.570159999999999112e-01 -8.671320000000000139e-01 1.083855000000000075e+02 1.604055000000000064e+03
1.559999999999999998e-01 7.569354999999999833e-01 -1.038434000000000079e+00 1.080614999999999952e+02 1.603964999999999918e+03
1.570000000000000007e-01 7.568599999999999772e-01 -1.187413499999999900e+00 1.077584999999999980e+02 1.603889999999999873e+03
1.580000000000000016e-01 7.567880000000000162e-01 -1.315271499999999927e+00 1.074729999999999990e+02 1.603815000000000055e+03
1.590000000000000024e-01 7.567184999999999606e-01 -1.423874000000000084e+00 1.072005000000000052e+02 1.603735000000000127e+03
