# t [s], A [cm^2], U [cm/s], P [cPa], c [cm/s]
1.000000000000000021e-03 1.991290000000000004e-01 2.482310000000000072e-01 9.724854999999999450e+01 2.184340000000000146e+03
2.000000000000000042e-03 1.990800000000000070e-01 1.667702999999999935e+00 9.405705000000000382e+01 2.183925000000000182e+03
3.000000000000000062e-03 1.989449999999999830e-01 3.456470999999999627e+00 8.952514999999999645e+01 2.182829999999999927e+03
4.000000000000000083e-03 1.987609999999999932e-01 5.486397000000000190e+00 8.451300000000000523e+01 2.181364999999999782e+03
5.000000000000000104e-03 1.985635000000000039e-01 7.682875000000000121e+00 7.997724999999999795e+01 2.179815000000000055e+03
6.000000000000000125e-03 1.983754999999999824e-01 9.860934999999999562e+00 7.625720000000001164e+01 2.178345000000000255e+03
7.000000000000000146e-03 1.981999999999999873e-01 1.178817999999999877e+01 7.309120000000000061e+01 2.177000000000000000e+03
8.000000000000000167e-03 1.980395000000000072e-01 1.338038999999999845e+01 7.024859999999999616e+01 2.175805000000000291e+03
9.000000000000001055e-03 1.979009999999999936e-01 1.468049999999999855e+01 6.780949999999999989e+01 2.174779999999999745e+03
1.000000000000000194e-02 1.977860000000000174e-01 1.572575000000000145e+01 6.586039999999999850e+01 2.173944999999999709e+03
1.099999999999999936e-02 1.976944999999999952e-01 1.653569999999999851e+01 6.437924999999999898e+01 2.173280000000000200e+03
1.200000000000000025e-02 1.976240000000000219e-01 1.712415000000000020e+01 6.329100000000000392e+01 2.172784999999999854e+03
1.300000000000000114e-02 1.975699999999999956e-01 1.748939999999999984e+01 6.245655000000000001e+01 2.172414999999999964e+03
1.400000000000000203e-02 1.975260000000000071e-01 1.764714999999999989e+01 6.173615000000000208e+01 2.172114999999999782e+03
1.499999999999999944e-02 1.974925000000000153e-01 1.768755000000000166e+01 6.117319999999999425e+01 2.171895000000000437e+03
1.600000000000000033e-02 1.974754999999999983e-01 1.777430000000000021e+01 6.107994999999999663e+01 2.171789999999999964e+03
1.700000000000000122e-02 1.974870000000000236e-01 1.806674999999999898e+01 6.187534999999999741e+01 2.171890000000000327e+03
1.800000000000000211e-02 1.975349999999999884e-01 1.862859999999999872e+01 6.379155000000000086e+01 2.172234999999999673e+03
1.900000000000000300e-02 1.976175000000000015e-01 1.938844999999999885e+01 6.667284999999999684e+01 2.172845000000000255e+03
2.000000000000000042e-02 1.977225000000000232e-01 2.017244999999999777e+01 6.999254999999999427e+01 2.173619999999999891e+03
2.100000000000000130e-02 1.978305000000000202e-01 2.078119999999999834e+01 7.305519999999999925e+01 2.174430000000000291e+03
2.200000000000000219e-02 1.979235000000000022e-01 2.106779999999999831e+01 7.526050000000000750e+01 2.175140000000000327e+03
2.299999999999999961e-02 1.979865000000000097e-01 2.098440000000000083e+01 7.630465000000000941e+01 2.175640000000000327e+03
2.400000000000000050e-02 1.980159999999999976e-01 2.058409999999999940e+01 7.624474999999999625e+01 2.175889999999999873e+03
2.500000000000000139e-02 1.980169999999999986e-01 1.998445000000000249e+01 7.542040000000000077e+01 2.175920000000000073e+03
2.600000000000000228e-02 1.980000000000000093e-01 1.931299999999999883e+01 7.428364999999999441e+01 2.175809999999999945e+03
2.700000000000000316e-02 1.979759999999999853e-01 1.865950000000000131e+01 7.321739999999999782e+01 2.175635000000000218e+03
2.800000000000000058e-02 1.979525000000000035e-01 1.805114999999999981e+01 7.241255000000001019e+01 2.175465000000000146e+03
2.900000000000000147e-02 1.979330000000000256e-01 1.745635000000000048e+01 7.183950000000000102e+01 2.175309999999999945e+03
3.000000000000000236e-02 1.979134999999999922e-01 1.681030000000000157e+01 7.130644999999999811e+01 2.175164999999999964e+03
3.099999999999999978e-02 1.978890000000000093e-01 1.605055000000000121e+01 7.057130000000000791e+01 2.174989999999999782e+03
3.200000000000000067e-02 1.978544999999999887e-01 1.514979999999999905e+01 6.946184999999999832e+01 2.174739999999999782e+03
3.300000000000000155e-02 1.978070000000000106e-01 1.413514999999999944e+01 6.796424999999999272e+01 2.174399999999999636e+03
3.400000000000000244e-02 1.977514999999999967e-01 1.308755000000000024e+01 6.624979999999999336e+01 2.173994999999999891e+03
3.500000000000000333e-02 1.976940000000000086e-01 1.212235000000000085e+01 6.463374999999999204e+01 2.173570000000000164e+03
3.600000000000000422e-02 1.976455000000000017e-01 1.135682500000000061e+01 6.348189999999999600e+01 2.173204999999999927e+03
3.700000000000000511e-02 1.976175000000000015e-01 1.087779000000000096e+01 6.309875000000000256e+01 2.172979999999999563e+03
3.799999999999999906e-02 1.976154999999999995e-01 1.071804999999999986e+01 6.363589999999999947e+01 2.172949999999999818e+03
3.899999999999999994e-02 1.976434999999999997e-01 1.084900000000000020e+01 6.504869999999999663e+01 2.173130000000000109e+03
4.000000000000000083e-02 1.976964999999999972e-01 1.118939999999999912e+01 6.710734999999999673e+01 2.173500000000000000e+03
4.100000000000000172e-02 1.977654999999999830e-01 1.162464999999999904e+01 6.945420000000000016e+01 2.174005000000000109e+03
4.200000000000000261e-02 1.978400000000000158e-01 1.203125000000000000e+01 7.168385000000000673e+01 2.174550000000000182e+03
4.300000000000000350e-02 1.979075000000000140e-01 1.229875000000000007e+01 7.342379999999999995e+01 2.175050000000000182e+03
4.400000000000000439e-02 1.979569999999999941e-01 1.234549999999999947e+01 7.439695000000000391e+01 2.175430000000000291e+03
4.499999999999999833e-02 1.979805000000000037e-01 1.212610000000000099e+01 7.445445000000000846e+01 2.175614999999999782e+03
4.599999999999999922e-02 1.979744999999999977e-01 1.163019999999999854e+01 7.357784999999999798e+01 2.175585000000000036e+03
4.700000000000000011e-02 1.979385000000000172e-01 1.087592499999999873e+01 7.185569999999999879e+01 2.175335000000000036e+03
4.800000000000000100e-02 1.978750000000000231e-01 9.899530000000000385e+00 6.944554999999999723e+01 2.174880000000000109e+03
4.900000000000000189e-02 1.977889999999999926e-01 8.745639999999999858e+00 6.653334999999999866e+01 2.174250000000000000e+03
5.000000000000000278e-02 1.976855000000000140e-01 7.459950000000000081e+00 6.329999999999999716e+01 2.173489999999999782e+03
5.100000000000000366e-02 1.975709999999999966e-01 6.085160000000000124e+00 5.990135000000000076e+01 2.172644999999999982e+03
5.200000000000000455e-02 1.974489999999999856e-01 4.660235000000000127e+00 5.646184999999999832e+01 2.171735000000000127e+03
5.300000000000000544e-02 1.973239999999999994e-01 3.222073500000000035e+00 5.307994999999999663e+01 2.170815000000000055e+03
5.399999999999999939e-02 1.971999999999999864e-01 1.807960000000000012e+00 4.983854999999999791e+01 2.169889999999999873e+03
5.500000000000000028e-02 1.970810000000000062e-01 4.576749999999998320e-01 4.681759999999999877e+01 2.169000000000000000e+03
5.600000000000000117e-02 1.969690000000000052e-01 -7.856450000000000378e-01 4.410249999999999915e+01 2.168164999999999964e+03
5.700000000000000205e-02 1.968690000000000162e-01 -1.876236500000000085e+00 4.178699999999999903e+01 2.167414999999999964e+03
5.800000000000000294e-02 1.967840000000000145e-01 -2.768048999999999982e+00 3.997064999999999912e+01 2.166765000000000327e+03
5.900000000000000383e-02 1.967180000000000040e-01 -3.418045000000000222e+00 3.875050000000000239e+01 2.166260000000000218e+03
6.000000000000000472e-02 1.966735000000000011e-01 -3.789915000000000145e+00 3.821099999999999852e+01 2.165914999999999964e+03
6.099999999999999867e-02 1.966549999999999965e-01 -3.857434999999999725e+00 3.841370000000000573e+01 2.165755000000000109e+03
6.199999999999999956e-02 1.966634999999999911e-01 -3.606914999999999871e+00 3.938850000000000051e+01 2.165795000000000073e+03
6.300000000000000044e-02 1.966994999999999993e-01 -3.038420000000000343e+00 4.112950000000000017e+01 2.166034999999999854e+03
6.400000000000000133e-02 1.967630000000000212e-01 -2.165741500000000208e+00 4.359430000000000405e+01 2.166485000000000127e+03
6.500000000000000222e-02 1.968524999999999858e-01 -1.015174999999999939e+00 4.670735000000000525e+01 2.167119999999999891e+03
6.600000000000000311e-02 1.969650000000000012e-01 3.765600000000000058e-01 5.036630000000000251e+01 2.167939999999999600e+03
6.700000000000000400e-02 1.970969999999999944e-01 1.965030000000000054e+00 5.445040000000000191e+01 2.168904999999999745e+03
6.800000000000000488e-02 1.972450000000000037e-01 3.701061485000000317e+00 5.882980000000000587e+01 2.169989999999999782e+03
6.900000000000000577e-02 1.974044999999999828e-01 5.533875000000000099e+00 6.337460000000000093e+01 2.171164999999999964e+03
7.000000000000000666e-02 1.975700000000000234e-01 7.414049999999999585e+00 6.796354999999999791e+01 2.172390000000000327e+03
7.100000000000000755e-02 1.977379999999999971e-01 9.296389999999998821e+00 7.249139999999999873e+01 2.173644999999999982e+03
7.200000000000000844e-02 1.979049999999999976e-01 1.114190500000000128e+01 7.687489999999999668e+01 2.174890000000000327e+03
7.300000000000000933e-02 1.980679999999999941e-01 1.291972499999999968e+01 8.105604999999999905e+01 2.176114999999999782e+03
7.399999999999999634e-02 1.982244999999999979e-01 1.460774999999999935e+01 8.500350000000000250e+01 2.177300000000000182e+03
7.499999999999999722e-02 1.983745000000000092e-01 1.619284999999999997e+01 8.871119999999999095e+01 2.178430000000000291e+03
7.599999999999999811e-02 1.985169999999999990e-01 1.767000000000000171e+01 9.219505000000000905e+01 2.179510000000000218e+03
7.699999999999999900e-02 1.986519999999999953e-01 1.904095000000000226e+01 9.548709999999999809e+01 2.180539999999999964e+03
7.799999999999999989e-02 1.987820000000000142e-01 2.031260000000000332e+01 9.863034999999999286e+01 2.181525000000000091e+03
7.900000000000000078e-02 1.989064999999999861e-01 2.149495000000000289e+01 1.016704000000000008e+02 2.182474999999999909e+03
8.000000000000000167e-02 1.990279999999999827e-01 2.259919999999999973e+01 1.046504500000000064e+02 2.183400000000000091e+03
8.100000000000000255e-02 1.991474999999999773e-01 2.363625000000000043e+01 1.076075000000000017e+02 2.184314999999999600e+03
8.200000000000000344e-02 1.992659999999999987e-01 2.461534999999999940e+01 1.105670000000000073e+02 2.185219999999999800e+03
8.300000000000000433e-02 1.993845000000000200e-01 2.554314999999999714e+01 1.135430000000000064e+02 2.186119999999999891e+03
8.400000000000000522e-02 1.995035000000000003e-01 2.642360000000000042e+01 1.165365000000000038e+02 2.187034999999999854e+03
8.500000000000000611e-02 1.996220000000000216e-01 2.725730000000000075e+01 1.195365000000000038e+02 2.187934999999999945e+03
8.600000000000000699e-02 1.997410000000000019e-01 2.804200000000000159e+01 1.225240000000000009e+02 2.188840000000000146e+03
8.700000000000000788e-02 1.998584999999999945e-01 2.877284999999999826e+01 1.254704999999999870e+02 2.189744999999999891e+03
8.800000000000000877e-02 1.999744999999999995e-01 2.944290000000000163e+01 1.283429999999999893e+02 2.190630000000000109e+03
8.899999999999999578e-02 2.000870000000000148e-01 3.004335000000000022e+01 1.311049999999999898e+02 2.191489999999999782e+03
8.999999999999999667e-02 2.001954999999999985e-01 3.056445000000000078e+01 1.337194999999999823e+02 2.192319999999999709e+03
9.099999999999999756e-02 2.002975000000000172e-01 3.099589999999999890e+01 1.361490000000000009e+02 2.193105000000000018e+03
9.199999999999999845e-02 2.003929999999999878e-01 3.132754999999999868e+01 1.383590000000000089e+02 2.193835000000000036e+03
9.299999999999999933e-02 2.004795000000000049e-01 3.154990000000000094e+01 1.403185000000000002e+02 2.194505000000000109e+03
9.400000000000000022e-02 2.005570000000000130e-01 3.165494999999999948e+01 1.420010000000000048e+02 2.195110000000000127e+03
9.500000000000000111e-02 2.006240000000000245e-01 3.163640000000000185e+01 1.433865000000000123e+02 2.195630000000000109e+03
9.600000000000000200e-02 2.006799999999999973e-01 3.149074999999999847e+01 1.444635000000000105e+02 2.196065000000000055e+03
9.700000000000000289e-02 2.007245000000000001e-01 3.121734999999999971e+01 1.452275000000000205e+02 2.196414999999999964e+03
9.800000000000000377e-02 2.007569999999999910e-01 3.081885000000000119e+01 1.456839999999999975e+02 2.196675000000000182e+03
9.900000000000000466e-02 2.007784999999999986e-01 3.030114999999999981e+01 1.458470000000000084e+02 2.196849999999999909e+03
1.000000000000000056e-01 2.007885000000000086e-01 2.967365000000000208e+01 1.457379999999999995e+02 2.196940000000000055e+03
1.010000000000000064e-01 2.007889999999999953e-01 2.894835000000000136e+01 1.453880000000000052e+02 2.196954999999999927e+03
1.020000000000000073e-01 2.007805000000000006e-01 2.813984999999999914e+01 1.448310000000000173e+02 2.196899999999999636e+03
1.030000000000000082e-01 2.007639999999999980e-01 2.726445000000000007e+01 1.441074999999999875e+02 2.196779999999999745e+03
1.040000000000000091e-01 2.007410000000000028e-01 2.633955000000000268e+01 1.432590000000000146e+02 2.196614999999999782e+03
1.050000000000000100e-01 2.007134999999999891e-01 2.538275000000000148e+01 1.423255000000000052e+02 2.196409999999999854e+03
1.059999999999999970e-01 2.006819999999999993e-01 2.441114999999999924e+01 1.413460000000000036e+02 2.196175000000000182e+03
1.069999999999999979e-01 2.006485000000000074e-01 2.344095000000000084e+01 1.403564999999999827e+02 2.195925000000000182e+03
1.079999999999999988e-01 2.006145000000000012e-01 2.248644999999999783e+01 1.393870000000000005e+02 2.195664999999999964e+03
1.089999999999999997e-01 2.005810000000000093e-01 2.155979999999999919e+01 1.384610000000000127e+02 2.195404999999999745e+03
1.100000000000000006e-01 2.005474999999999897e-01 2.067054999999999865e+01 1.375960000000000036e+02 2.195154999999999745e+03
1.110000000000000014e-01 2.005170000000000008e-01 1.982525000000000048e+01 1.368025000000000091e+02 2.194914999999999964e+03
1.120000000000000023e-01 2.004874999999999852e-01 1.902785000000000082e+01 1.360824999999999818e+02 2.194690000000000055e+03
1.130000000000000032e-01 2.004604999999999859e-01 1.827890000000000015e+01 1.354325000000000045e+02 2.194484999999999673e+03
1.140000000000000041e-01 2.004360000000000031e-01 1.757634999999999792e+01 1.348410000000000082e+02 2.194289999999999964e+03
1.150000000000000050e-01 2.004130000000000078e-01 1.691554999999999964e+01 1.342925000000000182e+02 2.194110000000000127e+03
1.160000000000000059e-01 2.003904999999999992e-01 1.628989999999999938e+01 1.337655000000000030e+02 2.193940000000000055e+03
1.170000000000000068e-01 2.003694999999999782e-01 1.569080000000000119e+01 1.332370000000000232e+02 2.193769999999999982e+03
1.180000000000000077e-01 2.003479999999999983e-01 1.510890000000000022e+01 1.326814999999999998e+02 2.193600000000000364e+03
1.190000000000000085e-01 2.003245000000000164e-01 1.453430000000000000e+01 1.320740000000000123e+02 2.193425000000000182e+03
1.200000000000000094e-01 2.002999999999999781e-01 1.395739999999999981e+01 1.313915000000000077e+02 2.193230000000000018e+03
1.209999999999999964e-01 2.002714999999999912e-01 1.336939999999999884e+01 1.306129999999999995e+02 2.193015000000000327e+03
1.219999999999999973e-01 2.002400000000000013e-01 1.276299999999999990e+01 1.297239999999999895e+02 2.192775000000000091e+03
1.229999999999999982e-01 2.002050000000000218e-01 1.213274999999999970e+01 1.287139999999999986e+02 2.192505000000000109e+03
1.239999999999999991e-01 2.001649999999999818e-01 1.147562500000000085e+01 1.275805000000000007e+02 2.192204999999999927e+03
1.250000000000000000e-01 2.001204999999999790e-01 1.079102500000000120e+01 1.263264999999999958e+02 2.191864999999999782e+03
1.260000000000000009e-01 2.000719999999999998e-01 1.008113999999999955e+01 1.249625000000000057e+02 2.191500000000000000e+03
1.270000000000000018e-01 2.000199999999999756e-01 9.350709999999999411e+00 1.235065000000000026e+02 2.191100000000000364e+03
1.280000000000000027e-01 1.999640000000000029e-01 8.606780000000000541e+00 1.219819999999999993e+02 2.190684999999999945e+03
1.290000000000000036e-01 1.999064999999999870e-01 7.858560000000000656e+00 1.204149999999999920e+02 2.190244999999999891e+03
1.300000000000000044e-01 1.998464999999999825e-01 7.116590000000000416e+00 1.188379999999999939e+02 2.189795000000000073e+03
1.310000000000000053e-01 1.997875000000000068e-01 6.392424999999999358e+00 1.172824999999999989e+02 2.189345000000000255e+03
1.320000000000000062e-01 1.997289999999999899e-01 5.697874999999999801e+00 1.157810000000000059e+02 2.188900000000000091e+03
1.330000000000000071e-01 1.996720000000000161e-01 5.044420000000000570e+00 1.143640000000000043e+02 2.188465000000000146e+03
1.340000000000000080e-01 1.996180000000000176e-01 4.442594999999999850e+00 1.130575000000000045e+02 2.188054999999999836e+03
1.350000000000000089e-01 1.995679999999999954e-01 3.901485000000000092e+00 1.118840000000000003e+02 2.187675000000000182e+03
1.360000000000000098e-01 1.995235000000000203e-01 3.428329999999999878e+00 1.108605000000000018e+02 2.187329999999999927e+03
1.370000000000000107e-01 1.994839999999999947e-01 3.028224999999999945e+00 1.099985000000000070e+02 2.187025000000000091e+03
1.380000000000000115e-01 1.994500000000000162e-01 2.703999999999999737e+00 1.093004999999999995e+02 2.186760000000000218e+03
1.390000000000000124e-01 1.994225000000000025e-01 2.456179999999999808e+00 1.087665000000000077e+02 2.186545000000000073e+03
1.400000000000000133e-01 1.994004999999999805e-01 2.283095000000000319e+00 1.083900000000000006e+02 2.186375000000000000e+03
1.410000000000000142e-01 1.993840000000000057e-01 2.181070000000000064e+00 1.081589999999999918e+02 2.186244999999999891e+03
1.420000000000000151e-01 1.993734999999999813e-01 2.144699999999999829e+00 1.080589999999999975e+02 2.186149999999999636e+03
1.430000000000000160e-01 1.993675000000000030e-01 2.167139999999999844e+00 1.080720000000000027e+02 2.186095000000000255e+03
1.440000000000000169e-01 1.993655000000000010e-01 2.240499999999999936e+00 1.081779999999999973e+02 2.186074999999999818e+03
1.450000000000000178e-01 1.993669999999999887e-01 2.356129999999999836e+00 1.083569999999999993e+02 2.186085000000000036e+03
1.459999999999999909e-01 1.993715000000000070e-01 2.505020000000000024e+00 1.085875000000000057e+02 2.186114999999999782e+03
1.469999999999999918e-01 1.993775000000000130e-01 2.678110000000000213e+00 1.088509999999999991e+02 2.186159999999999854e+03
1.479999999999999927e-01 1.993850000000000067e-01 2.866589999999999971e+00 1.091285000000000025e+02 2.186215000000000146e+03
1.489999999999999936e-01 1.993940000000000157e-01 3.062179999999999680e+00 1.094025000000000034e+02 2.186275000000000091e+03
1.499999999999999944e-01 1.994024999999999825e-01 3.257355000000000000e+00 1.096595000000000084e+02 2.186340000000000146e+03
1.509999999999999953e-01 1.994110000000000049e-01 3.445549999999999891e+00 1.098870000000000005e+02 2.186400000000000091e+03
1.519999999999999962e-01 1.994179999999999842e-01 3.621310000000000251e+00 1.100775000000000006e+02 2.186454999999999927e+03
1.529999999999999971e-01 1.994239999999999902e-01 3.780375000000000263e+00 1.102229999999999990e+02 2.186500000000000000e+03
1.539999999999999980e-01 1.994289999999999952e-01 3.919719999999999871e+00 1.103209999999999980e+02 2.186534999999999854e+03
1.549999999999999989e-01 1.994319999999999982e-01 4.037580000000000169e+00 1.103710000000000093e+02 2.186559999999999945e+03
1.559999999999999998e-01 1.994334999999999858e-01 4.133364999999999512e+00 1.103750000000000000e+02 2.186574999999999818e+03
1.570000000000000007e-01 1.994334999999999858e-01 4.207535000000000025e+00 1.103365000000000009e+02 2.186574999999999818e+03
1.580000000000000016e-01 1.994325000000000125e-01 4.261479999999999713e+00 1.102615000000000123e+02 2.186569999999999709e+03
1.590000000000000024e-01 1.994299999999999962e-01 4.297270000000000145e+00 1.101574999999999989e+02 2.186550000000000182e+03
