# t [s], A [cm^2], U [cm/s], P [cPa], c [cm/s]
1.000000000000000021e-03 2.039984999999999993e-01 2.782105000000000272e-01 9.542185000000000628e+01 2.065715000000000146e+03
2.000000000000000042e-03 2.039520000000000222e-01 1.723570999999999964e+00 9.231340000000000146e+01 2.065369999999999891e+03
3.000000000000000062e-03 2.038154999999999828e-01 3.518596999999999753e+00 8.801834999999999809e+01 2.064404999999999745e+03
4.000000000000000083e-03 2.036235000000000128e-01 5.539287999999999990e+00 8.328004999999998859e+01 2.063069999999999709e+03
5.000000000000000104e-03 2.034140000000000115e-01 7.721320000000000405e+00 7.895900000000000318e+01 2.061625000000000000e+03
6.000000000000000125e-03 2.032090000000000007e-01 9.906575000000000131e+00 7.538435000000001196e+01 2.060234999999999673e+03
7.000000000000000146e-03 2.030164999999999886e-01 1.188842499999999980e+01 7.235514999999999475e+01 2.058934999999999945e+03
8.000000000000000167e-03 2.028379999999999905e-01 1.357057999999999964e+01 6.962954999999999472e+01 2.057764999999999873e+03
9.000000000000001055e-03 2.026795000000000124e-01 1.497994999999999877e+01 6.723230000000000928e+01 2.056735000000000127e+03
1.000000000000000194e-02 2.025434999999999874e-01 1.615315000000000012e+01 6.524765000000000725e+01 2.055864999999999782e+03
1.099999999999999936e-02 2.024314999999999864e-01 1.710555000000000092e+01 6.366774999999999807e+01 2.055150000000000091e+03
1.200000000000000025e-02 2.023409999999999931e-01 1.784834999999999994e+01 6.243349999999999511e+01 2.054585000000000036e+03
1.300000000000000114e-02 2.022685000000000177e-01 1.838490000000000180e+01 6.144989999999999952e+01 2.054140000000000327e+03
1.400000000000000203e-02 2.022085000000000132e-01 1.872169999999999845e+01 6.060204999999999842e+01 2.053775000000000091e+03
1.499999999999999944e-02 2.021590000000000054e-01 1.890874999999999773e+01 5.986180000000000234e+01 2.053480000000000018e+03
1.600000000000000033e-02 2.021224999999999827e-01 1.905969999999999942e+01 5.939305000000000234e+01 2.053269999999999982e+03
1.700000000000000122e-02 2.021074999999999955e-01 1.931640000000000157e+01 5.951104999999999734e+01 2.053184999999999945e+03
1.800000000000000211e-02 2.021239999999999981e-01 1.977884999999999849e+01 6.049849999999999994e+01 2.053300000000000182e+03
1.900000000000000300e-02 2.021759999999999946e-01 2.045234999999999914e+01 6.241094999999999970e+01 2.053634999999999764e+03
2.000000000000000042e-02 2.022585000000000077e-01 2.124219999999999686e+01 6.499915000000000020e+01 2.054164999999999964e+03
2.100000000000000130e-02 2.023584999999999967e-01 2.199380000000000024e+01 6.778180000000000405e+01 2.054819999999999709e+03
2.200000000000000219e-02 2.024590000000000001e-01 2.255239999999999867e+01 7.021510000000000673e+01 2.055475000000000364e+03
2.299999999999999961e-02 2.025434999999999874e-01 2.281504999999999939e+01 7.187425000000000352e+01 2.056039999999999964e+03
2.400000000000000050e-02 2.026004999999999889e-01 2.275769999999999982e+01 7.257429999999999382e+01 2.056435000000000400e+03
2.500000000000000139e-02 2.026270000000000016e-01 2.243005000000000138e+01 7.239315000000000566e+01 2.056630000000000109e+03
2.600000000000000228e-02 2.026280000000000026e-01 2.192654999999999887e+01 7.160300000000000864e+01 2.056654999999999745e+03
2.700000000000000316e-02 2.026104999999999989e-01 2.134700000000000131e+01 7.054675000000000296e+01 2.056559999999999945e+03
2.800000000000000058e-02 2.025845000000000007e-01 2.076289999999999836e+01 6.951309999999999434e+01 2.056400000000000091e+03
2.900000000000000147e-02 2.025575000000000014e-01 2.020035000000000025e+01 6.865415000000000134e+01 2.056220000000000255e+03
3.000000000000000236e-02 2.025315000000000032e-01 1.964274999999999949e+01 6.796614999999999895e+01 2.056055000000000291e+03
3.099999999999999978e-02 2.025064999999999782e-01 1.904829999999999757e+01 6.732880000000000109e+01 2.055889999999999873e+03
3.200000000000000067e-02 2.024775000000000047e-01 1.837454999999999927e+01 6.657959999999999923e+01 2.055710000000000036e+03
3.300000000000000155e-02 2.024414999999999965e-01 1.760110000000000241e+01 6.559484999999999388e+01 2.055480000000000018e+03
3.400000000000000244e-02 2.023960000000000203e-01 1.674435000000000073e+01 6.435115000000000407e+01 2.055195000000000164e+03
3.500000000000000333e-02 2.023440000000000238e-01 1.585885000000000034e+01 6.294929999999999382e+01 2.054860000000000127e+03
3.600000000000000422e-02 2.022884999999999822e-01 1.502645000000000053e+01 6.159499999999999886e+01 2.054505000000000109e+03
3.700000000000000511e-02 2.022400000000000031e-01 1.433610000000000184e+01 6.054415000000000191e+01 2.054190000000000055e+03
3.799999999999999906e-02 2.022054999999999825e-01 1.386100000000000065e+01 6.003114999999999668e+01 2.053960000000000036e+03
3.899999999999999994e-02 2.021924999999999972e-01 1.364024999999999999e+01 6.020289999999999964e+01 2.053859999999999673e+03
4.000000000000000083e-02 2.022045000000000092e-01 1.366915000000000013e+01 6.107750000000000057e+01 2.053920000000000073e+03
4.100000000000000172e-02 2.022404999999999897e-01 1.390050000000000097e+01 6.253730000000000189e+01 2.054139999999999873e+03
4.200000000000000261e-02 2.022955000000000170e-01 1.425510000000000055e+01 6.435410000000000252e+01 2.054480000000000018e+03
4.300000000000000350e-02 2.023614999999999997e-01 1.463724999999999987e+01 6.623650000000000659e+01 2.054894999999999982e+03
4.400000000000000439e-02 2.024274999999999824e-01 1.495120000000000005e+01 6.788515000000001010e+01 2.055319999999999709e+03
4.499999999999999833e-02 2.024834999999999829e-01 1.511570000000000036e+01 6.904264999999999475e+01 2.055684999999999945e+03
4.599999999999999922e-02 2.025215000000000209e-01 1.507270000000000110e+01 6.952889999999999304e+01 2.055940000000000055e+03
4.700000000000000011e-02 2.025349999999999928e-01 1.479145000000000110e+01 6.925634999999999764e+01 2.056029999999999745e+03
4.800000000000000100e-02 2.025200000000000056e-01 1.426684999999999981e+01 6.822700000000000387e+01 2.055949999999999818e+03
4.900000000000000189e-02 2.024779999999999913e-01 1.351440000000000019e+01 6.651505000000000223e+01 2.055684999999999945e+03
5.000000000000000278e-02 2.024100000000000066e-01 1.256343999999999994e+01 6.424119999999999209e+01 2.055255000000000109e+03
5.100000000000000366e-02 2.023199999999999998e-01 1.145101999999999975e+01 6.154730000000000700e+01 2.054690000000000055e+03
5.200000000000000455e-02 2.022134999999999905e-01 1.021660499999999949e+01 5.857509999999999906e+01 2.054000000000000000e+03
5.300000000000000544e-02 2.020945000000000102e-01 8.899164999999999992e+00 5.545315000000000083e+01 2.053235000000000127e+03
5.399999999999999939e-02 2.019674999999999943e-01 7.536429999999999296e+00 5.229160000000000252e+01 2.052420000000000073e+03
5.500000000000000028e-02 2.018380000000000174e-01 6.164954999999999963e+00 4.918444999999999823e+01 2.051579999999999927e+03
5.600000000000000117e-02 2.017085000000000128e-01 4.821514999999999773e+00 4.621434999999999604e+01 2.050740000000000236e+03
5.700000000000000205e-02 2.015834999999999988e-01 3.543798999999999921e+00 4.345949999999999847e+01 2.049929999999999836e+03
5.800000000000000294e-02 2.014670000000000072e-01 2.370811500000000294e+00 4.099819999999999709e+01 2.049170000000000073e+03
5.900000000000000383e-02 2.013614999999999988e-01 1.342239999999999878e+00 3.891044999999999732e+01 2.048485000000000127e+03
6.000000000000000472e-02 2.012714999999999921e-01 4.969499999999998918e-01 3.727679999999999438e+01 2.047889999999999873e+03
6.099999999999999867e-02 2.011999999999999900e-01 -1.292000000000000925e-01 3.617354999999999876e+01 2.047414999999999964e+03
6.199999999999999956e-02 2.011509999999999965e-01 -5.057935000000000070e-01 3.566640000000000299e+01 2.047079999999999927e+03
6.300000000000000044e-02 2.011259999999999992e-01 -6.102235000000000298e-01 3.580414999999999992e+01 2.046900000000000091e+03
6.400000000000000133e-02 2.011270000000000002e-01 -4.295139000000000040e-01 3.661270000000000380e+01 2.046890000000000100e+03
6.500000000000000222e-02 2.011560000000000015e-01 3.860649999999993254e-02 3.809194999999999709e+01 2.047065000000000055e+03
6.600000000000000311e-02 2.012130000000000030e-01 7.854819999999999025e-01 4.021430000000000149e+01 2.047409999999999854e+03
6.700000000000000400e-02 2.012964999999999893e-01 1.792166999999999843e+00 4.292640000000000100e+01 2.047924999999999955e+03
6.800000000000000488e-02 2.014044999999999863e-01 3.030722000000000360e+00 4.615290000000000248e+01 2.048610000000000127e+03
6.900000000000000577e-02 2.015335000000000043e-01 4.466124999999999901e+00 4.980169999999999675e+01 2.049434999999999945e+03
7.000000000000000666e-02 2.016809999999999992e-01 6.058410000000000295e+00 5.377034999999999343e+01 2.050375000000000000e+03
7.100000000000000755e-02 2.018435000000000090e-01 7.765019999999999811e+00 5.795275000000000176e+01 2.051414999999999964e+03
7.200000000000000844e-02 2.020155000000000145e-01 9.543129999999999669e+00 6.224549999999999983e+01 2.052525000000000091e+03
7.300000000000000933e-02 2.021934999999999982e-01 1.135194500000000062e+01 6.655389999999999873e+01 2.053674999999999727e+03
7.399999999999999634e-02 2.023735000000000117e-01 1.315449000000000090e+01 7.079670000000000130e+01 2.054845000000000255e+03
7.499999999999999722e-02 2.025529999999999831e-01 1.491924999999999812e+01 7.490969999999998663e+01 2.056015000000000327e+03
7.599999999999999811e-02 2.027295000000000069e-01 1.662134999999999962e+01 7.884829999999999472e+01 2.057164999999999964e+03
7.699999999999999900e-02 2.028995000000000104e-01 1.824309999999999832e+01 8.258795000000000641e+01 2.058284999999999854e+03
7.799999999999999989e-02 2.030635000000000079e-01 1.977384999999999948e+01 8.612305000000000632e+01 2.059360000000000127e+03
7.900000000000000078e-02 2.032200000000000117e-01 2.120980000000000132e+01 8.946475000000000932e+01 2.060394999999999982e+03
8.000000000000000167e-02 2.033699999999999952e-01 2.255264999999999986e+01 9.263749999999998863e+01 2.061385000000000218e+03
8.100000000000000255e-02 2.035140000000000005e-01 2.380865000000000009e+01 9.567414999999999736e+01 2.062340000000000146e+03
8.200000000000000344e-02 2.036530000000000007e-01 2.498689999999999856e+01 9.861244999999999550e+01 2.063264999999999873e+03
8.300000000000000433e-02 2.037879999999999969e-01 2.609805000000000064e+01 1.014894000000000034e+02 2.064159999999999854e+03
8.400000000000000522e-02 2.039205000000000045e-01 2.715289999999999893e+01 1.043378999999999905e+02 2.065045000000000073e+03
8.500000000000000611e-02 2.040524999999999978e-01 2.816100000000000136e+01 1.071839999999999975e+02 2.065914999999999964e+03
8.600000000000000699e-02 2.041834999999999900e-01 2.913015000000000043e+01 1.100444999999999993e+02 2.066784999999999854e+03
8.700000000000000788e-02 2.043150000000000244e-01 3.006559999999999988e+01 1.129270000000000067e+02 2.067659999999999854e+03
8.800000000000000877e-02 2.044465000000000032e-01 3.096965000000000146e+01 1.158290000000000077e+02 2.068529999999999745e+03
8.899999999999999578e-02 2.045784999999999965e-01 3.184174999999999756e+01 1.187394999999999925e+02 2.069409999999999854e+03
8.999999999999999667e-02 2.047104999999999897e-01 3.267875000000000085e+01 1.216374999999999886e+02 2.070289999999999964e+03
9.099999999999999756e-02 2.048415000000000097e-01 3.347480000000000189e+01 1.244989999999999952e+02 2.071159999999999854e+03
9.199999999999999845e-02 2.049704999999999999e-01 3.422240000000000038e+01 1.272925000000000040e+02 2.072015000000000327e+03
9.299999999999999933e-02 2.050965000000000149e-01 3.491225000000000023e+01 1.299859999999999900e+02 2.072855000000000018e+03
9.400000000000000022e-02 2.052180000000000115e-01 3.553425000000000011e+01 1.325465000000000089e+02 2.073664999999999964e+03
9.500000000000000111e-02 2.053335000000000021e-01 3.607815000000000083e+01 1.349399999999999977e+02 2.074435000000000400e+03
9.600000000000000200e-02 2.054425000000000001e-01 3.653350000000000364e+01 1.371365000000000123e+02 2.075164999999999964e+03
9.700000000000000289e-02 2.055425000000000169e-01 3.689099999999999824e+01 1.391080000000000041e+02 2.075840000000000146e+03
9.800000000000000377e-02 2.056334999999999968e-01 3.714244999999999663e+01 1.408315000000000055e+02 2.076449999999999818e+03
9.900000000000000466e-02 2.057134999999999936e-01 3.728150000000000119e+01 1.422889999999999873e+02 2.076989999999999782e+03
1.000000000000000056e-01 2.057824999999999793e-01 3.730400000000000205e+01 1.434704999999999870e+02 2.077454999999999927e+03
1.010000000000000064e-01 2.058400000000000230e-01 3.720850000000000080e+01 1.443714999999999975e+02 2.077845000000000255e+03
1.020000000000000073e-01 2.058854999999999991e-01 3.699604999999999677e+01 1.449935000000000116e+02 2.078159999999999854e+03
1.030000000000000082e-01 2.059195000000000053e-01 3.667085000000000150e+01 1.453480000000000132e+02 2.078394999999999982e+03
1.040000000000000091e-01 2.059414999999999996e-01 3.623960000000000292e+01 1.454515000000000100e+02 2.078550000000000182e+03
1.050000000000000100e-01 2.059529999999999972e-01 3.571165000000000589e+01 1.453260000000000218e+02 2.078635000000000218e+03
1.059999999999999970e-01 2.059545000000000126e-01 3.509855000000000302e+01 1.450000000000000000e+02 2.078654999999999745e+03
1.069999999999999979e-01 2.059469999999999912e-01 3.441339999999999577e+01 1.445054999999999836e+02 2.078614999999999782e+03
1.079999999999999988e-01 2.059324999999999906e-01 3.367065000000000197e+01 1.438739999999999952e+02 2.078525000000000091e+03
1.089999999999999997e-01 2.059110000000000107e-01 3.288510000000000133e+01 1.431415000000000077e+02 2.078390000000000327e+03
1.100000000000000006e-01 2.058849999999999847e-01 3.207150000000000034e+01 1.423410000000000082e+02 2.078225000000000364e+03
1.110000000000000014e-01 2.058560000000000112e-01 3.124409999999999954e+01 1.415024999999999977e+02 2.078034999999999854e+03
1.120000000000000023e-01 2.058240000000000069e-01 3.041580000000000084e+01 1.406539999999999964e+02 2.077824999999999818e+03
1.130000000000000032e-01 2.057915000000000161e-01 2.959815000000000040e+01 1.398195000000000050e+02 2.077605000000000018e+03
1.140000000000000041e-01 2.057579999999999965e-01 2.880055000000000121e+01 1.390149999999999864e+02 2.077389999999999873e+03
1.150000000000000050e-01 2.057255000000000056e-01 2.803034999999999854e+01 1.382554999999999836e+02 2.077175000000000182e+03
1.160000000000000059e-01 2.056939999999999880e-01 2.729250000000000043e+01 1.375464999999999804e+02 2.076960000000000036e+03
1.170000000000000068e-01 2.056645000000000001e-01 2.658960000000000079e+01 1.368899999999999864e+02 2.076764999999999873e+03
1.180000000000000077e-01 2.056359999999999855e-01 2.592184999999999917e+01 1.362814999999999941e+02 2.076570000000000164e+03
1.190000000000000085e-01 2.056095000000000006e-01 2.528725000000000023e+01 1.357129999999999939e+02 2.076394999999999982e+03
1.200000000000000094e-01 2.055835000000000024e-01 2.468195000000000050e+01 1.351720000000000255e+02 2.076215000000000146e+03
1.209999999999999964e-01 2.055589999999999917e-01 2.410040000000000049e+01 1.346415000000000077e+02 2.076050000000000182e+03
1.219999999999999973e-01 2.055345000000000089e-01 2.353575000000000017e+01 1.341039999999999850e+02 2.075885000000000218e+03
1.229999999999999982e-01 2.055095000000000116e-01 2.298039999999999949e+01 1.335400000000000205e+02 2.075715000000000146e+03
1.239999999999999991e-01 2.054834999999999856e-01 2.242634999999999934e+01 1.329300000000000068e+02 2.075539999999999964e+03
1.250000000000000000e-01 2.054549999999999987e-01 2.186580000000000013e+01 1.322560000000000002e+02 2.075349999999999909e+03
1.260000000000000009e-01 2.054239999999999955e-01 2.129129999999999967e+01 1.315014999999999930e+02 2.075144999999999982e+03
1.270000000000000018e-01 2.053900000000000170e-01 2.069675000000000153e+01 1.306529999999999916e+02 2.074920000000000073e+03
1.280000000000000027e-01 2.053515000000000201e-01 2.007704999999999984e+01 1.297009999999999934e+02 2.074664999999999964e+03
1.290000000000000036e-01 2.053089999999999915e-01 1.942909999999999826e+01 1.286415000000000077e+02 2.074380000000000109e+03
1.300000000000000044e-01 2.052625000000000144e-01 1.875155000000000172e+01 1.274750000000000085e+02 2.074074999999999818e+03
1.310000000000000053e-01 2.052114999999999911e-01 1.804514999999999958e+01 1.262055000000000007e+02 2.073739999999999782e+03
1.320000000000000062e-01 2.051560000000000050e-01 1.731279999999999930e+01 1.248454999999999870e+02 2.073369999999999891e+03
1.330000000000000071e-01 2.050970000000000015e-01 1.655930000000000035e+01 1.234080000000000013e+02 2.072980000000000018e+03
1.340000000000000080e-01 2.050350000000000228e-01 1.579129999999999967e+01 1.219145000000000039e+02 2.072574999999999818e+03
1.350000000000000089e-01 2.049699999999999855e-01 1.501679999999999993e+01 1.203864999999999981e+02 2.072149999999999636e+03
1.360000000000000098e-01 2.049044999999999894e-01 1.424525000000000041e+01 1.188485000000000014e+02 2.071710000000000036e+03
1.370000000000000107e-01 2.048375000000000057e-01 1.348639999999999972e+01 1.173280000000000030e+02 2.071269999999999982e+03
1.380000000000000115e-01 2.047720000000000096e-01 1.275055000000000049e+01 1.158495000000000061e+02 2.070835000000000036e+03
1.390000000000000124e-01 2.047074999999999867e-01 1.204767999999999972e+01 1.144375000000000000e+02 2.070404999999999745e+03
1.400000000000000133e-01 2.046455000000000080e-01 1.138705999999999996e+01 1.131159999999999997e+02 2.070000000000000000e+03
1.410000000000000142e-01 2.045875000000000055e-01 1.077691000000000088e+01 1.119029999999999916e+02 2.069605000000000018e+03
1.420000000000000151e-01 2.045329999999999926e-01 1.022408000000000072e+01 1.108144999999999953e+02 2.069250000000000000e+03
1.430000000000000160e-01 2.044845000000000135e-01 9.733789999999999054e+00 1.098610000000000042e+02 2.068925000000000182e+03
1.440000000000000169e-01 2.044409999999999838e-01 9.309490000000000265e+00 1.090485000000000042e+02 2.068625000000000000e+03
1.450000000000000178e-01 2.044030000000000014e-01 8.952790000000000248e+00 1.083795000000000073e+02 2.068375000000000000e+03
1.459999999999999909e-01 2.043714999999999837e-01 8.663429999999999964e+00 1.078515000000000015e+02 2.068159999999999854e+03
1.469999999999999918e-01 2.043449999999999989e-01 8.439485000000001236e+00 1.074575000000000102e+02 2.067985000000000127e+03
1.479999999999999927e-01 2.043249999999999789e-01 8.277480000000000615e+00 1.071880000000000024e+02 2.067840000000000146e+03
1.489999999999999936e-01 2.043095000000000050e-01 8.172599999999999199e+00 1.070294999999999987e+02 2.067730000000000018e+03
1.499999999999999944e-01 2.042990000000000084e-01 8.118990000000000151e+00 1.069685000000000059e+02 2.067659999999999854e+03
1.509999999999999953e-01 2.042924999999999880e-01 8.109994999999999621e+00 1.069890000000000043e+02 2.067614999999999782e+03
1.519999999999999962e-01 2.042904999999999860e-01 8.138439999999999230e+00 1.070739999999999981e+02 2.067590000000000146e+03
1.529999999999999971e-01 2.042904999999999860e-01 8.196930000000000049e+00 1.072075000000000102e+02 2.067590000000000146e+03
1.539999999999999980e-01 2.042930000000000024e-01 8.278085000000000804e+00 1.073729999999999905e+02 2.067600000000000364e+03
1.549999999999999989e-01 2.042974999999999930e-01 8.374784999999999258e+00 1.075564999999999998e+02 2.067630000000000109e+03
1.559999999999999998e-01 2.043030000000000124e-01 8.480370000000000630e+00 1.077450000000000045e+02 2.067659999999999854e+03
1.570000000000000007e-01 2.043089999999999906e-01 8.588809999999998723e+00 1.079269999999999925e+02 2.067699999999999818e+03
1.580000000000000016e-01 2.043149999999999966e-01 8.694849999999998857e+00 1.080925000000000011e+02 2.067739999999999782e+03
1.590000000000000024e-01 2.043205000000000160e-01 8.794100000000000250e+00 1.082349999999999994e+02 2.067769999999999982e+03
