# t [s], A [cm^2], U [cm/s], P [cPa], c [cm/s]
1.000000000000000021e-03 1.383630000000000138e-01 1.674109999999999765e-01 8.721530000000001337e+01 1.967659999999999854e+03
2.000000000000000042e-03 1.383444999999999814e-01 1.337865000000000082e+00 8.479564999999999486e+01 1.967424999999999955e+03
3.000000000000000062e-03 1.382745000000000224e-01 2.822561499999999945e+00 8.151615000000001032e+01 1.966575000000000045e+03
4.000000000000000083e-03 1.381689999999999863e-01 4.495547000000000182e+00 7.771770000000000778e+01 1.965315000000000055e+03
5.000000000000000104e-03 1.380450000000000010e-01 6.315324999999999633e+00 7.401034999999998831e+01 1.963860000000000127e+03
6.000000000000000125e-03 1.379184999999999994e-01 8.203545000000000087e+00 7.077469999999999573e+01 1.962384999999999991e+03
7.000000000000000146e-03 1.377960000000000018e-01 1.002473999999999954e+01 6.803614999999999213e+01 1.960974999999999909e+03
8.000000000000000167e-03 1.376799999999999968e-01 1.165771000000000157e+01 6.561379999999999768e+01 1.959659999999999854e+03
9.000000000000001055e-03 1.375719999999999998e-01 1.306932999999999900e+01 6.340704999999999814e+01 1.958454999999999927e+03
1.000000000000000194e-02 1.374755000000000005e-01 1.428294499999999978e+01 6.145619999999999550e+01 1.957384999999999991e+03
1.099999999999999936e-02 1.373905000000000265e-01 1.531969999999999921e+01 5.980850000000000222e+01 1.956460000000000036e+03
1.200000000000000025e-02 1.373189999999999966e-01 1.618890000000000029e+01 5.845759999999999934e+01 1.955679999999999836e+03
1.300000000000000114e-02 1.372590000000000199e-01 1.689499999999999957e+01 5.736240000000000094e+01 1.955045000000000073e+03
1.400000000000000203e-02 1.372090000000000254e-01 1.743629999999999924e+01 5.645364999999999611e+01 1.954519999999999982e+03
1.499999999999999944e-02 1.371664999999999968e-01 1.781344999999999956e+01 5.564809999999999945e+01 1.954075000000000045e+03
1.600000000000000033e-02 1.371300000000000019e-01 1.805274999999999963e+01 5.490729999999999933e+01 1.953704999999999927e+03
1.700000000000000122e-02 1.370995000000000130e-01 1.822115000000000151e+01 5.430219999999999914e+01 1.953394999999999982e+03
1.800000000000000211e-02 1.370784999999999920e-01 1.841300000000000026e+01 5.401174999999999926e+01 1.953190000000000055e+03
1.900000000000000300e-02 1.370719999999999994e-01 1.871345000000000169e+01 5.424300000000000210e+01 1.953130000000000109e+03
2.000000000000000042e-02 1.370830000000000104e-01 1.916295000000000215e+01 5.512015000000000242e+01 1.953250000000000000e+03
2.100000000000000130e-02 1.371120000000000116e-01 1.974110000000000298e+01 5.660904999999999632e+01 1.953575000000000045e+03
2.200000000000000219e-02 1.371560000000000001e-01 2.037590000000000146e+01 5.851165000000000305e+01 1.954055000000000064e+03
2.299999999999999961e-02 1.372090000000000254e-01 2.097039999999999793e+01 6.052499999999999858e+01 1.954639999999999873e+03
2.400000000000000050e-02 1.372630000000000239e-01 2.143449999999999989e+01 6.233230000000000359e+01 1.955244999999999891e+03
2.500000000000000139e-02 1.373115000000000030e-01 2.170939999999999870e+01 6.368949999999999534e+01 1.955789999999999964e+03
2.600000000000000228e-02 1.373484999999999845e-01 2.177890000000000015e+01 6.447845000000000937e+01 1.956220000000000027e+03
2.700000000000000316e-02 1.373729999999999951e-01 2.166665000000000063e+01 6.471750000000000114e+01 1.956509999999999991e+03
2.800000000000000058e-02 1.373845000000000205e-01 2.142170000000000130e+01 6.453085000000000093e+01 1.956660000000000082e+03
2.900000000000000147e-02 1.373869999999999814e-01 2.110004999999999953e+01 6.409360000000000923e+01 1.956700000000000045e+03
3.000000000000000236e-02 1.373834999999999917e-01 2.074694999999999823e+01 6.357235000000000014e+01 1.956674999999999955e+03
3.099999999999999978e-02 1.373769999999999991e-01 2.038654999999999973e+01 6.307920000000000016e+01 1.956605000000000018e+03
3.200000000000000067e-02 1.373690000000000189e-01 2.001919999999999789e+01 6.265134999999999366e+01 1.956519999999999982e+03
3.300000000000000155e-02 1.373599999999999821e-01 1.962729999999999819e+01 6.225650000000000261e+01 1.956430000000000064e+03
3.400000000000000244e-02 1.373495000000000132e-01 1.918585000000000207e+01 6.181935000000000002e+01 1.956315000000000055e+03
3.500000000000000333e-02 1.373354999999999992e-01 1.867419999999999902e+01 6.125800000000000267e+01 1.956164999999999964e+03
3.600000000000000422e-02 1.373170000000000224e-01 1.808650000000000091e+01 6.051980000000000359e+01 1.955970000000000027e+03
3.700000000000000511e-02 1.372935000000000128e-01 1.743704999999999927e+01 5.960614999999999952e+01 1.955719999999999800e+03
3.799999999999999906e-02 1.372659999999999991e-01 1.676050000000000040e+01 5.858109999999999928e+01 1.955420000000000073e+03
3.899999999999999994e-02 1.372364999999999835e-01 1.610575000000000045e+01 5.756135000000000446e+01 1.955099999999999909e+03
4.000000000000000083e-02 1.372085000000000110e-01 1.552604999999999968e+01 5.669069999999999965e+01 1.954789999999999964e+03
4.100000000000000172e-02 1.371855000000000158e-01 1.506830000000000069e+01 5.610779999999999745e+01 1.954539999999999964e+03
4.200000000000000261e-02 1.371705000000000008e-01 1.476295000000000002e+01 5.591384999999999650e+01 1.954369999999999891e+03
4.300000000000000350e-02 1.371664999999999968e-01 1.461874999999999858e+01 5.615075000000000216e+01 1.954309999999999945e+03
4.400000000000000439e-02 1.371740000000000181e-01 1.462154999999999916e+01 5.679189999999999827e+01 1.954380000000000109e+03
4.499999999999999833e-02 1.371910000000000074e-01 1.473765000000000036e+01 5.774849999999999994e+01 1.954554999999999836e+03
4.599999999999999922e-02 1.372164999999999913e-01 1.492034999999999911e+01 5.888665000000000305e+01 1.954820000000000164e+03
4.700000000000000011e-02 1.372464999999999935e-01 1.511775000000000091e+01 6.005114999999999981e+01 1.955139999999999873e+03
4.800000000000000100e-02 1.372769999999999824e-01 1.528024999999999878e+01 6.108990000000000009e+01 1.955470000000000027e+03
4.900000000000000189e-02 1.373039999999999816e-01 1.536619999999999919e+01 6.187460000000000093e+01 1.955764999999999873e+03
5.000000000000000278e-02 1.373240000000000016e-01 1.534570000000000078e+01 6.231450000000000244e+01 1.955994999999999891e+03
5.100000000000000366e-02 1.373354999999999992e-01 1.520180000000000042e+01 6.236155000000000115e+01 1.956125000000000000e+03
5.200000000000000455e-02 1.373365000000000002e-01 1.492899999999999849e+01 6.200860000000000127e+01 1.956144999999999982e+03
5.300000000000000544e-02 1.373265000000000180e-01 1.453150000000000119e+01 6.128119999999999834e+01 1.956045000000000073e+03
5.399999999999999939e-02 1.373064999999999980e-01 1.401980000000000004e+01 6.022729999999999961e+01 1.955829999999999927e+03
5.500000000000000028e-02 1.372770000000000101e-01 1.340804999999999936e+01 5.890595000000000425e+01 1.955514999999999873e+03
5.600000000000000117e-02 1.372395000000000143e-01 1.271180000000000021e+01 5.737800000000000011e+01 1.955105000000000018e+03
5.700000000000000205e-02 1.371944999999999970e-01 1.194673000000000052e+01 5.570045000000000357e+01 1.954619999999999891e+03
5.800000000000000294e-02 1.371450000000000169e-01 1.112857499999999966e+01 5.392360000000000042e+01 1.954075000000000045e+03
5.900000000000000383e-02 1.370914999999999773e-01 1.027310999999999908e+01 5.209170000000000300e+01 1.953490000000000009e+03
6.000000000000000472e-02 1.370350000000000179e-01 9.397054999999999936e+00 5.024544999999999817e+01 1.952875000000000000e+03
6.099999999999999867e-02 1.369779999999999887e-01 8.518909999999999982e+00 4.842510000000000048e+01 1.952250000000000000e+03
6.199999999999999956e-02 1.369210000000000149e-01 7.659390000000000143e+00 4.667360000000000042e+01 1.951625000000000000e+03
6.300000000000000044e-02 1.368655000000000010e-01 6.841499999999999915e+00 4.503860000000000241e+01 1.951009999999999991e+03
6.400000000000000133e-02 1.368135000000000046e-01 6.090195000000000469e+00 4.357219999999999516e+01 1.950434999999999945e+03
6.500000000000000222e-02 1.367654999999999843e-01 5.431345000000000312e+00 4.233019999999999783e+01 1.949914999999999964e+03
6.600000000000000311e-02 1.367249999999999854e-01 4.890565000000000495e+00 4.136880000000000024e+01 1.949460000000000036e+03
6.700000000000000400e-02 1.366934999999999956e-01 4.491715000000000124e+00 4.074155000000000371e+01 1.949095000000000027e+03
6.800000000000000488e-02 1.366709999999999869e-01 4.255415000000000170e+00 4.049474999999999625e+01 1.948845000000000027e+03
6.900000000000000577e-02 1.366604999999999903e-01 4.197834999999999539e+00 4.066445000000000221e+01 1.948715000000000146e+03
7.000000000000000666e-02 1.366625000000000201e-01 4.329655000000000697e+00 4.127334999999999354e+01 1.948720000000000027e+03
7.100000000000000755e-02 1.366779999999999939e-01 4.655574999999999797e+00 4.232925000000000182e+01 1.948869999999999891e+03
7.200000000000000844e-02 1.367069999999999952e-01 5.174104999999999954e+00 4.382444999999999879e+01 1.949170000000000073e+03
7.300000000000000933e-02 1.367490000000000094e-01 5.877900000000000347e+00 4.573669999999999902e+01 1.949619999999999891e+03
7.399999999999999634e-02 1.368050000000000099e-01 6.754340000000000011e+00 4.803085000000000093e+01 1.950214999999999918e+03
7.499999999999999722e-02 1.368725000000000080e-01 7.786445000000000505e+00 5.066154999999999831e+01 1.950940000000000055e+03
7.599999999999999811e-02 1.369509999999999894e-01 8.954005000000000436e+00 5.357645000000000124e+01 1.951789999999999964e+03
7.699999999999999900e-02 1.370385000000000075e-01 1.023471499999999956e+01 5.671954999999999814e+01 1.952740000000000009e+03
7.799999999999999989e-02 1.371344999999999925e-01 1.160542999999999836e+01 6.003445000000000675e+01 1.953789999999999964e+03
7.900000000000000078e-02 1.372360000000000246e-01 1.304337499999999928e+01 6.346784999999999854e+01 1.954904999999999973e+03
8.000000000000000167e-02 1.373429999999999929e-01 1.452704999999999913e+01 6.697165000000001100e+01 1.956070000000000164e+03
8.100000000000000255e-02 1.374529999999999919e-01 1.603719999999999857e+01 7.050540000000000873e+01 1.957284999999999854e+03
8.200000000000000344e-02 1.375645000000000062e-01 1.755715000000000003e+01 7.403730000000000189e+01 1.958519999999999982e+03
8.300000000000000433e-02 1.376775000000000082e-01 1.907339999999999947e+01 7.754464999999999009e+01 1.959769999999999982e+03
8.400000000000000522e-02 1.377905000000000102e-01 2.057540000000000191e+01 8.101364999999999839e+01 1.961030000000000200e+03
8.500000000000000611e-02 1.379039999999999988e-01 2.205545000000000044e+01 8.443799999999998818e+01 1.962289999999999964e+03
8.600000000000000699e-02 1.380164999999999864e-01 2.350829999999999842e+01 8.781749999999999545e+01 1.963545000000000073e+03
8.700000000000000788e-02 1.381280000000000008e-01 2.493064999999999998e+01 9.115625000000000000e+01 1.964789999999999964e+03
8.800000000000000877e-02 1.382384999999999864e-01 2.632059999999999889e+01 9.446039999999999281e+01 1.966035000000000082e+03
8.899999999999999578e-02 1.383489999999999998e-01 2.767685000000000173e+01 9.773664999999999736e+01 1.967275000000000091e+03
8.999999999999999667e-02 1.384589999999999987e-01 2.899864999999999782e+01 1.009906000000000006e+02 1.968509999999999991e+03
9.099999999999999756e-02 1.385675000000000101e-01 3.028509999999999991e+01 1.042245499999999936e+02 1.969740000000000009e+03
9.199999999999999845e-02 1.386759999999999937e-01 3.153484999999999872e+01 1.074394999999999953e+02 1.970964999999999918e+03
9.299999999999999933e-02 1.387839999999999907e-01 3.274604999999999677e+01 1.106320000000000050e+02 1.972184999999999945e+03
9.400000000000000022e-02 1.388920000000000154e-01 3.391649999999999920e+01 1.137955000000000041e+02 1.973394999999999982e+03
9.500000000000000111e-02 1.389980000000000104e-01 3.504319999999999879e+01 1.169215000000000089e+02 1.974599999999999909e+03
9.600000000000000200e-02 1.391034999999999910e-01 3.612274999999999636e+01 1.199979999999999905e+02 1.975795000000000073e+03
9.700000000000000289e-02 1.392069999999999974e-01 3.715144999999999698e+01 1.230139999999999958e+02 1.976974999999999909e+03
9.800000000000000377e-02 1.393090000000000162e-01 3.812510000000000332e+01 1.259534999999999911e+02 1.978134999999999991e+03
9.900000000000000466e-02 1.394084999999999908e-01 3.903940000000000055e+01 1.288034999999999854e+02 1.979264999999999873e+03
1.000000000000000056e-01 1.395049999999999901e-01 3.988989999999999725e+01 1.315490000000000066e+02 1.980369999999999891e+03
1.010000000000000064e-01 1.395985000000000142e-01 4.067204999999999870e+01 1.341750000000000114e+02 1.981434999999999945e+03
1.020000000000000073e-01 1.396880000000000066e-01 4.138129999999999598e+01 1.366675000000000182e+02 1.982465000000000146e+03
1.030000000000000082e-01 1.397734999999999950e-01 4.201335000000000264e+01 1.390130000000000052e+02 1.983440000000000055e+03
1.040000000000000091e-01 1.398544999999999927e-01 4.256390000000000384e+01 1.411984999999999957e+02 1.984369999999999891e+03
1.050000000000000100e-01 1.399305000000000132e-01 4.302935000000000088e+01 1.432115000000000009e+02 1.985239999999999782e+03
1.059999999999999970e-01 1.400004999999999999e-01 4.340654999999999575e+01 1.450424999999999898e+02 1.986049999999999955e+03
1.069999999999999979e-01 1.400649999999999951e-01 4.369310000000000116e+01 1.466829999999999927e+02 1.986800000000000182e+03
1.079999999999999988e-01 1.401239999999999986e-01 4.388765000000000072e+01 1.481270000000000095e+02 1.987480000000000018e+03
1.089999999999999997e-01 1.401760000000000228e-01 4.398999999999999488e+01 1.493714999999999975e+02 1.988085000000000036e+03
1.100000000000000006e-01 1.402214999999999989e-01 4.400124999999999886e+01 1.504174999999999898e+02 1.988619999999999891e+03
1.110000000000000014e-01 1.402614999999999834e-01 4.392395000000000493e+01 1.512685000000000173e+02 1.989085000000000036e+03
1.120000000000000023e-01 1.402950000000000030e-01 4.376194999999999879e+01 1.519314999999999998e+02 1.989474999999999909e+03
1.130000000000000032e-01 1.403220000000000023e-01 4.352044999999999675e+01 1.524170000000000016e+02 1.989799999999999955e+03
1.140000000000000041e-01 1.403435000000000099e-01 4.320584999999999809e+01 1.527384999999999877e+02 1.990055000000000064e+03
1.150000000000000050e-01 1.403594999999999982e-01 4.282549999999999812e+01 1.529124999999999943e+02 1.990244999999999891e+03
1.160000000000000059e-01 1.403705000000000092e-01 4.238739999999999952e+01 1.529549999999999841e+02 1.990384999999999991e+03
1.170000000000000068e-01 1.403770000000000018e-01 4.190014999999999645e+01 1.528849999999999909e+02 1.990470000000000027e+03
1.180000000000000077e-01 1.403800000000000048e-01 4.137255000000000393e+01 1.527210000000000036e+02 1.990505000000000109e+03
1.190000000000000085e-01 1.403789999999999760e-01 4.081305000000000405e+01 1.524814999999999827e+02 1.990505000000000109e+03
1.200000000000000094e-01 1.403760000000000008e-01 4.023000000000000398e+01 1.521825000000000045e+02 1.990474999999999909e+03
1.209999999999999964e-01 1.403699999999999948e-01 3.963089999999999691e+01 1.518394999999999868e+02 1.990410000000000082e+03
1.219999999999999973e-01 1.403619999999999868e-01 3.902270000000000039e+01 1.514664999999999964e+02 1.990324999999999818e+03
1.229999999999999982e-01 1.403535000000000199e-01 3.841120000000000090e+01 1.510734999999999957e+02 1.990220000000000027e+03
1.239999999999999991e-01 1.403429999999999955e-01 3.780129999999999768e+01 1.506680000000000064e+02 1.990110000000000127e+03
1.250000000000000000e-01 1.403320000000000123e-01 3.719660000000000366e+01 1.502570000000000050e+02 1.989985000000000127e+03
1.260000000000000009e-01 1.403205000000000147e-01 3.659980000000000189e+01 1.498435000000000059e+02 1.989849999999999909e+03
1.270000000000000018e-01 1.403085000000000027e-01 3.601234999999999786e+01 1.494269999999999925e+02 1.989714999999999918e+03
1.280000000000000027e-01 1.402954999999999897e-01 3.543455000000000155e+01 1.490074999999999932e+02 1.989570000000000164e+03
1.290000000000000036e-01 1.402829999999999910e-01 3.486594999999999800e+01 1.485805000000000007e+02 1.989424999999999955e+03
1.300000000000000044e-01 1.402694999999999914e-01 3.430509999999999593e+01 1.481410000000000196e+02 1.989269999999999982e+03
1.310000000000000053e-01 1.402559999999999918e-01 3.374985000000000213e+01 1.476820000000000164e+02 1.989110000000000127e+03
1.320000000000000062e-01 1.402410000000000045e-01 3.319735000000000014e+01 1.471979999999999791e+02 1.988934999999999945e+03
1.330000000000000071e-01 1.402255000000000029e-01 3.264480000000000359e+01 1.466794999999999902e+02 1.988759999999999991e+03
1.340000000000000080e-01 1.402085000000000137e-01 3.208870000000000289e+01 1.461189999999999998e+02 1.988565000000000055e+03
1.350000000000000089e-01 1.401904999999999957e-01 3.152590000000000003e+01 1.455095000000000027e+02 1.988355000000000018e+03
1.360000000000000098e-01 1.401705000000000034e-01 3.095335000000000036e+01 1.448444999999999823e+02 1.988130000000000109e+03
1.370000000000000107e-01 1.401490000000000236e-01 3.036824999999999974e+01 1.441185000000000116e+02 1.987884999999999991e+03
1.380000000000000115e-01 1.401249999999999996e-01 2.976859999999999928e+01 1.433274999999999864e+02 1.987615000000000009e+03
1.390000000000000124e-01 1.400994999999999879e-01 2.915285000000000082e+01 1.424695000000000107e+02 1.987319999999999936e+03
1.400000000000000133e-01 1.400720000000000021e-01 2.852045000000000030e+01 1.415439999999999827e+02 1.987009999999999991e+03
1.410000000000000142e-01 1.400425000000000142e-01 2.787154999999999916e+01 1.405545000000000186e+02 1.986670000000000073e+03
1.420000000000000151e-01 1.400109999999999966e-01 2.720749999999999957e+01 1.395045000000000073e+02 1.986309999999999945e+03
1.430000000000000160e-01 1.399770000000000181e-01 2.653034999999999854e+01 1.384004999999999939e+02 1.985930000000000064e+03
1.440000000000000169e-01 1.399414999999999965e-01 2.584319999999999951e+01 1.372535000000000025e+02 1.985525000000000091e+03
1.450000000000000178e-01 1.399044999999999872e-01 2.514999999999999858e+01 1.360715000000000146e+02 1.985105000000000018e+03
1.459999999999999909e-01 1.398670000000000191e-01 2.445534999999999926e+01 1.348695000000000164e+02 1.984675000000000182e+03
1.469999999999999918e-01 1.398284999999999945e-01 2.376435000000000031e+01 1.336589999999999918e+02 1.984240000000000009e+03
1.479999999999999927e-01 1.397889999999999966e-01 2.308259999999999934e+01 1.324544999999999959e+02 1.983789999999999964e+03
1.489999999999999936e-01 1.397499999999999853e-01 2.241564999999999941e+01 1.312704999999999984e+02 1.983349999999999909e+03
1.499999999999999944e-01 1.397114999999999885e-01 2.176919999999999789e+01 1.301204999999999927e+02 1.982910000000000082e+03
1.509999999999999953e-01 1.396739999999999926e-01 2.114855000000000018e+01 1.290180000000000007e+02 1.982480000000000018e+03
1.519999999999999962e-01 1.396375000000000255e-01 2.055859999999999843e+01 1.279735000000000014e+02 1.982059999999999945e+03
1.529999999999999971e-01 1.396030000000000049e-01 2.000365000000000038e+01 1.269969999999999999e+02 1.981670000000000073e+03
1.539999999999999980e-01 1.395699999999999996e-01 1.948720000000000141e+01 1.260970000000000084e+02 1.981289999999999964e+03
1.549999999999999989e-01 1.395394999999999830e-01 1.901200000000000045e+01 1.252775000000000034e+02 1.980940000000000055e+03
1.559999999999999998e-01 1.395115000000000105e-01 1.857985000000000042e+01 1.245434999999999945e+02 1.980619999999999891e+03
1.570000000000000007e-01 1.394859999999999989e-01 1.819170000000000087e+01 1.238954999999999984e+02 1.980324999999999818e+03
1.580000000000000016e-01 1.394630000000000036e-01 1.784759999999999991e+01 1.233340000000000032e+02 1.980059999999999945e+03
1.590000000000000024e-01 1.394424999999999970e-01 1.754684999999999917e+01 1.228549999999999898e+02 1.979825000000000045e+03
