# t [s], A [cm^2], U [cm/s], P [cPa], c [cm/s]
1.000000000000000021e-03 2.176954999999999862e-01 3.673215000000000230e-01 9.776724999999999000e+01 2.038474999999999909e+03
2.000000000000000042e-03 2.176345000000000085e-01 1.975159000000000109e+00 9.433124999999999716e+01 2.038105000000000018e+03
3.000000000000000062e-03 2.174685000000000090e-01 3.928057999999999605e+00 8.966444999999998799e+01 2.037150000000000091e+03
4.000000000000000083e-03 2.172429999999999917e-01 6.106453500000000645e+00 8.470525000000000659e+01 2.035860000000000127e+03
5.000000000000000104e-03 2.170020000000000004e-01 8.428399999999999892e+00 8.037420000000000186e+01 2.034500000000000000e+03
6.000000000000000125e-03 2.167715000000000058e-01 1.069500999999999991e+01 7.690199999999998681e+01 2.033210000000000036e+03
7.000000000000000146e-03 2.165569999999999995e-01 1.268704500000000124e+01 7.397974999999999568e+01 2.032025000000000091e+03
8.000000000000000167e-03 2.163619999999999988e-01 1.433844000000000207e+01 7.138335000000000719e+01 2.030974999999999909e+03
9.000000000000001055e-03 2.161919999999999953e-01 1.569650000000000034e+01 6.918200000000000216e+01 2.030075000000000045e+03
1.000000000000000194e-02 2.160515000000000074e-01 1.679585000000000150e+01 6.743870000000001141e+01 2.029335000000000036e+03
1.099999999999999936e-02 2.159380000000000188e-01 1.765174999999999983e+01 6.611020000000000607e+01 2.028744999999999891e+03
1.200000000000000025e-02 2.158494999999999997e-01 1.827984999999999971e+01 6.512175000000000580e+01 2.028289999999999964e+03
1.300000000000000114e-02 2.157804999999999862e-01 1.868890000000000029e+01 6.437014999999999532e+01 2.027945000000000164e+03
1.400000000000000203e-02 2.157264999999999877e-01 1.889914999999999878e+01 6.375309999999999633e+01 2.027684999999999945e+03
1.499999999999999944e-02 2.156855000000000022e-01 1.898709999999999809e+01 6.329860000000000042e+01 2.027494999999999891e+03
1.600000000000000033e-02 2.156629999999999936e-01 1.909259999999999735e+01 6.324779999999999802e+01 2.027390000000000100e+03
1.700000000000000122e-02 2.156700000000000006e-01 1.936260000000000048e+01 6.395250000000000057e+01 2.027444999999999936e+03
1.800000000000000211e-02 2.157155000000000045e-01 1.987205000000000155e+01 6.564390000000000214e+01 2.027690000000000055e+03
1.900000000000000300e-02 2.158019999999999938e-01 2.057979999999999876e+01 6.824549999999999272e+01 2.028150000000000091e+03
2.000000000000000042e-02 2.159185000000000132e-01 2.134290000000000020e+01 7.134844999999999970e+01 2.028769999999999982e+03
2.100000000000000130e-02 2.160464999999999747e-01 2.197545000000000215e+01 7.434954999999999359e+01 2.029454999999999927e+03
2.200000000000000219e-02 2.161635000000000084e-01 2.231864999999999810e+01 7.666759999999999309e+01 2.030095000000000027e+03
2.299999999999999961e-02 2.162519999999999998e-01 2.229240000000000066e+01 7.793574999999999875e+01 2.030585000000000036e+03
2.400000000000000050e-02 2.163025000000000087e-01 2.191205000000000069e+01 7.809829999999999472e+01 2.030875000000000000e+03
2.500000000000000139e-02 2.163154999999999939e-01 2.126859999999999928e+01 7.738530000000000086e+01 2.030969999999999800e+03
2.600000000000000228e-02 2.162999999999999923e-01 2.048509999999999920e+01 7.619089999999999918e+01 2.030904999999999973e+03
2.700000000000000316e-02 2.162685000000000024e-01 1.966985000000000028e+01 7.491284999999999172e+01 2.030750000000000000e+03
2.800000000000000058e-02 2.162335000000000229e-01 1.888409999999999656e+01 7.382185000000001196e+01 2.030559999999999945e+03
2.900000000000000147e-02 2.162000000000000033e-01 1.813360000000000127e+01 7.299985000000000923e+01 2.030384999999999991e+03
3.000000000000000236e-02 2.161704999999999877e-01 1.738210000000000122e+01 7.235920000000000130e+01 2.030230000000000018e+03
3.099999999999999978e-02 2.161414999999999864e-01 1.657864999999999966e+01 7.171840000000000259e+01 2.030075000000000045e+03
3.200000000000000067e-02 2.161069999999999935e-01 1.568649999999999878e+01 7.090094999999999459e+01 2.029889999999999873e+03
3.300000000000000155e-02 2.160640000000000061e-01 1.470524999999999949e+01 6.982130000000000791e+01 2.029670000000000073e+03
3.400000000000000244e-02 2.160124999999999962e-01 1.367919999999999980e+01 6.853209999999999980e+01 2.029400000000000091e+03
3.500000000000000333e-02 2.159564999999999957e-01 1.269035000000000046e+01 6.722100000000000364e+01 2.029105000000000018e+03
3.600000000000000422e-02 2.159039999999999848e-01 1.183779999999999966e+01 6.615930000000000177e+01 2.028824999999999818e+03
3.700000000000000511e-02 2.158664999999999889e-01 1.121135999999999910e+01 6.562170000000000414e+01 2.028619999999999891e+03
3.799999999999999906e-02 2.158525000000000027e-01 1.086710000000000065e+01 6.580344999999999800e+01 2.028534999999999854e+03
3.899999999999999994e-02 2.158670000000000033e-01 1.081194999999999951e+01 6.676075000000000159e+01 2.028595000000000027e+03
4.000000000000000083e-02 2.159115000000000062e-01 1.100159999999999982e+01 6.838970000000000482e+01 2.028820000000000164e+03
4.100000000000000172e-02 2.159800000000000053e-01 1.134909999999999997e+01 7.044669999999999277e+01 2.029164999999999964e+03
4.200000000000000261e-02 2.160624999999999907e-01 1.174305000000000021e+01 7.259960000000000946e+01 2.029599999999999909e+03
4.300000000000000350e-02 2.161464999999999914e-01 1.206729999999999947e+01 7.449325000000000330e+01 2.030039999999999964e+03
4.400000000000000439e-02 2.162179999999999935e-01 1.221964999999999968e+01 7.581255000000000166e+01 2.030420000000000073e+03
4.499999999999999833e-02 2.162654999999999994e-01 1.212415000000000020e+01 7.632959999999999923e+01 2.030679999999999836e+03
4.599999999999999922e-02 2.162804999999999866e-01 1.173794999999999966e+01 7.592715000000001169e+01 2.030769999999999982e+03
4.700000000000000011e-02 2.162590000000000068e-01 1.105076000000000036e+01 7.459954999999999359e+01 2.030670000000000073e+03
4.800000000000000100e-02 2.162004999999999899e-01 1.007995999999999981e+01 7.243420000000000414e+01 2.030365000000000009e+03
4.900000000000000189e-02 2.161064999999999792e-01 8.862619999999999720e+00 6.958180000000000121e+01 2.029880000000000109e+03
5.000000000000000278e-02 2.159844999999999959e-01 7.447890000000000121e+00 6.622505000000001019e+01 2.029235000000000127e+03
5.100000000000000366e-02 2.158394999999999897e-01 5.890404999999999447e+00 6.255160000000000053e+01 2.028469999999999800e+03
5.200000000000000455e-02 2.156790000000000096e-01 4.245720500000000008e+00 5.873590000000000089e+01 2.027619999999999891e+03
5.300000000000000544e-02 2.155104999999999937e-01 2.568554999999999922e+00 5.493155000000000143e+01 2.026719999999999800e+03
5.399999999999999939e-02 2.153400000000000036e-01 9.123099999999999543e-01 5.127065000000000339e+01 2.025809999999999945e+03
5.500000000000000028e-02 2.151740000000000042e-01 -6.703649999999998776e-01 4.786934999999999718e+01 2.024925000000000182e+03
5.600000000000000117e-02 2.150179999999999869e-01 -2.127145000000000064e+00 4.483339999999999748e+01 2.024085000000000036e+03
5.700000000000000205e-02 2.148769999999999847e-01 -3.406156999999999879e+00 4.226335000000000264e+01 2.023329999999999927e+03
5.800000000000000294e-02 2.147564999999999891e-01 -4.457135000000000069e+00 4.025570000000000448e+01 2.022674999999999955e+03
5.900000000000000383e-02 2.146599999999999897e-01 -5.233414999999999928e+00 3.890064999999999884e+01 2.022154999999999973e+03
6.000000000000000472e-02 2.145934999999999926e-01 -5.694659999999999833e+00 3.827715000000000600e+01 2.021785000000000082e+03
6.099999999999999867e-02 2.145595000000000141e-01 -5.809609999999999275e+00 3.844554999999999723e+01 2.021579999999999927e+03
6.199999999999999956e-02 2.145610000000000017e-01 -5.558634999999999771e+00 3.944115000000000038e+01 2.021570000000000164e+03
6.300000000000000044e-02 2.146000000000000130e-01 -4.935455000000000148e+00 4.126890000000000214e+01 2.021755000000000109e+03
6.400000000000000133e-02 2.146764999999999923e-01 -3.947850000000000303e+00 4.390070000000000050e+01 2.022144999999999982e+03
6.500000000000000222e-02 2.147884999999999933e-01 -2.617284499999999792e+00 4.727644999999999698e+01 2.022720000000000027e+03
6.600000000000000311e-02 2.149349999999999872e-01 -9.775549999999999518e-01 5.130724999999999625e+01 2.023485000000000127e+03
6.700000000000000400e-02 2.151119999999999977e-01 9.273449999999998639e-01 5.588179999999999836e+01 2.024404999999999973e+03
6.800000000000000488e-02 2.153140000000000054e-01 3.045865000000000045e+00 6.087334999999999496e+01 2.025469999999999800e+03
6.900000000000000577e-02 2.155360000000000054e-01 5.321754499999999943e+00 6.614809999999999945e+01 2.026644999999999982e+03
7.000000000000000666e-02 2.157729999999999926e-01 7.696889999999999787e+00 7.157274999999999920e+01 2.027904999999999973e+03
7.100000000000000755e-02 2.160190000000000166e-01 1.011428000000000083e+01 7.702174999999999727e+01 2.029215000000000146e+03
7.200000000000000844e-02 2.162675000000000014e-01 1.252029499999999906e+01 8.238329999999999131e+01 2.030545000000000073e+03
7.300000000000000933e-02 2.165150000000000130e-01 1.486720000000000041e+01 8.756454999999999700e+01 2.031875000000000000e+03
7.399999999999999634e-02 2.167564999999999908e-01 1.711484999999999701e+01 9.249465000000000714e+01 2.033174999999999955e+03
7.499999999999999722e-02 2.169889999999999874e-01 1.923230000000000217e+01 9.712800000000000011e+01 2.034434999999999945e+03
7.599999999999999811e-02 2.172100000000000142e-01 2.119810000000000016e+01 1.014435000000000002e+02 2.035634999999999991e+03
7.699999999999999900e-02 2.174190000000000011e-01 2.300079999999999814e+01 1.054437499999999943e+02 2.036775000000000091e+03
7.799999999999999989e-02 2.176155000000000173e-01 2.463795000000000002e+01 1.091529999999999916e+02 2.037845000000000027e+03
7.900000000000000078e-02 2.177999999999999936e-01 2.611524999999999963e+01 1.126105000000000018e+02 2.038855000000000018e+03
8.000000000000000167e-02 2.179745000000000155e-01 2.744490000000000052e+01 1.158679999999999950e+02 2.039809999999999945e+03
8.100000000000000255e-02 2.181400000000000006e-01 2.864314999999999856e+01 1.189819999999999993e+02 2.040719999999999800e+03
8.200000000000000344e-02 2.182995000000000074e-01 2.972895000000000110e+01 1.220084999999999980e+02 2.041594999999999800e+03
8.300000000000000433e-02 2.184550000000000103e-01 3.072125000000000128e+01 1.249989999999999952e+02 2.042450000000000045e+03
8.400000000000000522e-02 2.186079999999999968e-01 3.163785000000000025e+01 1.279934999999999974e+02 2.043295000000000073e+03
8.500000000000000611e-02 2.187609999999999832e-01 3.249360000000000070e+01 1.310200000000000102e+02 2.044135000000000218e+03
8.600000000000000699e-02 2.189154999999999851e-01 3.329955000000000354e+01 1.340939999999999941e+02 2.044974999999999909e+03
8.700000000000000788e-02 2.190699999999999870e-01 3.406234999999999502e+01 1.372139999999999986e+02 2.045829999999999927e+03
8.800000000000000877e-02 2.192264999999999908e-01 3.478399999999999892e+01 1.403670000000000186e+02 2.046690000000000055e+03
8.899999999999999578e-02 2.193835000000000091e-01 3.546209999999999951e+01 1.435269999999999868e+02 2.047555000000000064e+03
8.999999999999999667e-02 2.195404999999999995e-01 3.609049999999999869e+01 1.466589999999999918e+02 2.048409999999999854e+03
9.099999999999999756e-02 2.196954999999999880e-01 3.665959999999999752e+01 1.497214999999999918e+02 2.049260000000000218e+03
9.199999999999999845e-02 2.198470000000000146e-01 3.715755000000000052e+01 1.526689999999999827e+02 2.050094999999999800e+03
9.299999999999999933e-02 2.199929999999999941e-01 3.757120000000000459e+01 1.554549999999999841e+02 2.050889999999999873e+03
9.400000000000000022e-02 2.201310000000000211e-01 3.788669999999999760e+01 1.580355000000000132e+02 2.051655000000000200e+03
9.500000000000000111e-02 2.202594999999999970e-01 3.809085000000000321e+01 1.603684999999999832e+02 2.052364999999999782e+03
9.600000000000000200e-02 2.203769999999999896e-01 3.817179999999999751e+01 1.624190000000000111e+02 2.053010000000000218e+03
9.700000000000000289e-02 2.204814999999999969e-01 3.811965000000000003e+01 1.641595000000000084e+02 2.053595000000000255e+03
9.800000000000000377e-02 2.205719999999999903e-01 3.792745000000000033e+01 1.655704999999999814e+02 2.054090000000000146e+03
9.900000000000000466e-02 2.206464999999999954e-01 3.759145000000000181e+01 1.666419999999999959e+02 2.054509999999999764e+03
1.000000000000000056e-01 2.207060000000000133e-01 3.711144999999999783e+01 1.673725000000000023e+02 2.054844999999999800e+03
1.010000000000000064e-01 2.207494999999999874e-01 3.649119999999999919e+01 1.677710000000000150e+02 2.055095000000000255e+03
1.020000000000000073e-01 2.207780000000000020e-01 3.573805000000000121e+01 1.678550000000000182e+02 2.055265000000000327e+03
1.030000000000000082e-01 2.207915000000000016e-01 3.486294999999999789e+01 1.676504999999999939e+02 2.055345000000000255e+03
1.040000000000000091e-01 2.207915000000000016e-01 3.388009999999999877e+01 1.671910000000000025e+02 2.055349999999999909e+03
1.050000000000000100e-01 2.207790000000000030e-01 3.280610000000000070e+01 1.665140000000000100e+02 2.055295000000000073e+03
1.059999999999999970e-01 2.207565000000000222e-01 3.165980000000000061e+01 1.656610000000000014e+02 2.055180000000000291e+03
1.069999999999999979e-01 2.207244999999999902e-01 3.046095000000000041e+01 1.646764999999999759e+02 2.055010000000000218e+03
1.079999999999999988e-01 2.206854999999999789e-01 2.922984999999999900e+01 1.636030000000000086e+02 2.054804999999999836e+03
1.089999999999999997e-01 2.206424999999999914e-01 2.798629999999999995e+01 1.624814999999999827e+02 2.054569999999999709e+03
1.100000000000000006e-01 2.205954999999999999e-01 2.674915000000000020e+01 1.613509999999999991e+02 2.054319999999999709e+03
1.110000000000000014e-01 2.205475000000000074e-01 2.553539999999999921e+01 1.602434999999999832e+02 2.054054999999999836e+03
1.120000000000000023e-01 2.204995000000000149e-01 2.435954999999999870e+01 1.591870000000000118e+02 2.053795000000000073e+03
1.130000000000000032e-01 2.204524999999999957e-01 2.323355000000000103e+01 1.582009999999999934e+02 2.053539999999999964e+03
1.140000000000000041e-01 2.204079999999999928e-01 2.216600000000000037e+01 1.572984999999999900e+02 2.053295000000000073e+03
1.150000000000000050e-01 2.203665000000000207e-01 2.116244999999999976e+01 1.564855000000000018e+02 2.053059999999999945e+03
1.160000000000000059e-01 2.203279999999999961e-01 2.022484999999999999e+01 1.557595000000000027e+02 2.052849999999999909e+03
1.170000000000000068e-01 2.202930000000000166e-01 1.935210000000000008e+01 1.551115000000000066e+02 2.052654999999999745e+03
1.180000000000000077e-01 2.202614999999999990e-01 1.854019999999999868e+01 1.545289999999999964e+02 2.052469999999999800e+03
1.190000000000000085e-01 2.202320000000000111e-01 1.778249999999999886e+01 1.539904999999999973e+02 2.052305000000000291e+03
1.200000000000000094e-01 2.202040000000000108e-01 1.707025000000000148e+01 1.534744999999999777e+02 2.052150000000000091e+03
1.209999999999999964e-01 2.201770000000000116e-01 1.639314999999999856e+01 1.529544999999999959e+02 2.052000000000000000e+03
1.219999999999999973e-01 2.201494999999999980e-01 1.574009999999999998e+01 1.524050000000000011e+02 2.051844999999999800e+03
1.229999999999999982e-01 2.201204999999999967e-01 1.509945000000000093e+01 1.517989999999999782e+02 2.051684999999999945e+03
1.239999999999999991e-01 2.200889999999999791e-01 1.446030000000000015e+01 1.511134999999999877e+02 2.051505000000000109e+03
1.250000000000000000e-01 2.200544999999999862e-01 1.381220000000000070e+01 1.503284999999999911e+02 2.051315000000000055e+03
1.260000000000000009e-01 2.200150000000000161e-01 1.314669999999999916e+01 1.494275000000000091e+02 2.051099999999999909e+03
1.270000000000000018e-01 2.199709999999999999e-01 1.245710000000000051e+01 1.484010000000000105e+02 2.050855000000000018e+03
1.280000000000000027e-01 2.199205000000000187e-01 1.173910000000000053e+01 1.472429999999999950e+02 2.050585000000000036e+03
1.290000000000000036e-01 2.198645000000000183e-01 1.099103999999999992e+01 1.459559999999999889e+02 2.050275000000000091e+03
1.300000000000000044e-01 2.198034999999999850e-01 1.021391999999999989e+01 1.445495000000000232e+02 2.049945000000000164e+03
1.310000000000000053e-01 2.197365000000000013e-01 9.411525000000001029e+00 1.430369999999999777e+02 2.049585000000000036e+03
1.320000000000000062e-01 2.196649999999999991e-01 8.590150000000001285e+00 1.414399999999999977e+02 2.049190000000000055e+03
1.330000000000000071e-01 2.195894999999999930e-01 7.758269999999999555e+00 1.397835000000000036e+02 2.048779999999999745e+03
1.340000000000000080e-01 2.195114999999999983e-01 6.926180000000000447e+00 1.380955000000000155e+02 2.048355000000000018e+03
1.350000000000000089e-01 2.194315000000000015e-01 6.105430000000000135e+00 1.364069999999999823e+02 2.047925000000000182e+03
1.360000000000000098e-01 2.193519999999999914e-01 5.308244999999999436e+00 1.347495000000000118e+02 2.047490000000000009e+03
1.370000000000000107e-01 2.192729999999999957e-01 4.546945000000000014e+00 1.331529999999999916e+02 2.047054999999999836e+03
1.380000000000000115e-01 2.191974999999999896e-01 3.833300000000000374e+00 1.316460000000000150e+02 2.046640000000000100e+03
1.390000000000000124e-01 2.191250000000000142e-01 3.178010000000000002e+00 1.302535000000000025e+02 2.046244999999999891e+03
1.400000000000000133e-01 2.190570000000000017e-01 2.590169500000000014e+00 1.289945000000000164e+02 2.045869999999999891e+03
1.410000000000000142e-01 2.189955000000000096e-01 2.076912000000000091e+00 1.278855000000000075e+02 2.045534999999999854e+03
1.420000000000000151e-01 2.189404999999999824e-01 1.643104000000000120e+00 1.269344999999999857e+02 2.045230000000000018e+03
1.430000000000000160e-01 2.188924999999999899e-01 1.291185499999999875e+00 1.261444999999999936e+02 2.044960000000000036e+03
1.440000000000000169e-01 2.188510000000000177e-01 1.021158500000000080e+00 1.255124999999999886e+02 2.044735000000000127e+03
1.450000000000000178e-01 2.188169999999999837e-01 8.306209500000000245e-01 1.250319999999999965e+02 2.044539999999999964e+03
1.459999999999999909e-01 2.187899999999999845e-01 7.150009999999999977e-01 1.246889999999999930e+02 2.044389999999999873e+03
1.469999999999999918e-01 2.187689999999999912e-01 6.678094999999999448e-01 1.244664999999999964e+02 2.044269999999999982e+03
1.479999999999999927e-01 2.187540000000000040e-01 6.809730000000000505e-01 1.243455000000000013e+02 2.044179999999999836e+03
1.489999999999999936e-01 2.187439999999999940e-01 7.452429999999999888e-01 1.243059999999999974e+02 2.044120000000000118e+03
1.499999999999999944e-01 2.187370000000000148e-01 8.505894999999999984e-01 1.243234999999999957e+02 2.044079999999999927e+03
1.509999999999999953e-01 2.187339999999999840e-01 9.866219999999998880e-01 1.243769999999999953e+02 2.044054999999999836e+03
1.519999999999999962e-01 2.187319999999999820e-01 1.142970000000000041e+00 1.244449999999999932e+02 2.044045000000000073e+03
1.529999999999999971e-01 2.187314999999999954e-01 1.309649999999999981e+00 1.245080000000000098e+02 2.044039999999999964e+03
1.539999999999999980e-01 2.187315000000000231e-01 1.477395000000000014e+00 1.245490000000000066e+02 2.044034999999999854e+03
1.549999999999999989e-01 2.187300000000000078e-01 1.637890000000000068e+00 1.245525000000000091e+02 2.044029999999999973e+03
1.559999999999999998e-01 2.187280000000000058e-01 1.784005000000000063e+00 1.245080000000000098e+02 2.044014999999999873e+03
1.570000000000000007e-01 2.187240000000000018e-01 1.909915000000000029e+00 1.244060000000000059e+02 2.043994999999999891e+03
1.580000000000000016e-01 2.187179999999999958e-01 2.011200000000000099e+00 1.242420000000000044e+02 2.043960000000000036e+03
1.590000000000000024e-01 2.187089999999999868e-01 2.084859999999999935e+00 1.240130000000000052e+02 2.043910000000000082e+03
