# t [s], A [cm^2], U [cm/s], P [cPa], c [cm/s]
1.000000000000000021e-03 8.195615000000000538e-01 4.536949999999997929e-03 1.026140000000000043e+02 1.619220000000000027e+03
2.000000000000000042e-03 8.195510000000000295e-01 2.084105000000000159e-03 1.025895000000000010e+02 1.619215000000000146e+03
3.000000000000000062e-03 8.196324999999999861e-01 1.141823000000000005e-01 1.027109999999999985e+02 1.619244999999999891e+03
4.000000000000000083e-03 8.196875000000000133e-01 2.019337999999999966e-01 1.028199999999999932e+02 1.619264999999999873e+03
5.000000000000000104e-03 8.196380000000000887e-01 1.555191499999999949e-01 1.027264999999999873e+02 1.619250000000000000e+03
6.000000000000000125e-03 8.195500000000000007e-01 4.973149999999998405e-02 1.024759999999999991e+02 1.619204999999999927e+03
7.000000000000000146e-03 8.194645000000000401e-01 -6.192999999999998506e-02 1.021479999999999961e+02 1.619140000000000100e+03
8.000000000000000167e-03 8.193175000000000319e-01 -2.715299999999999381e-01 1.016400000000000006e+02 1.619045000000000073e+03
9.000000000000001055e-03 8.190805000000001002e-01 -6.234100000000000197e-01 1.008633499999999970e+02 1.618894999999999982e+03
1.000000000000000194e-02 8.187459999999999738e-01 -1.118955000000000144e+00 9.977020000000000266e+01 1.618679999999999836e+03
1.099999999999999936e-02 8.182890000000000441e-01 -1.777205000000000368e+00 9.829179999999999495e+01 1.618384999999999991e+03
1.200000000000000025e-02 8.177069999999999617e-01 -2.580960000000000143e+00 9.639915000000000589e+01 1.618000000000000000e+03
1.300000000000000114e-02 8.170574999999999921e-01 -3.421064999999999579e+00 9.419395000000000095e+01 1.617545000000000073e+03
1.400000000000000203e-02 8.164354999999999807e-01 -4.128972499999999712e+00 9.189519999999998845e+01 1.617049999999999955e+03
1.499999999999999944e-02 8.159175000000000733e-01 -4.559631000000000434e+00 8.974049999999999727e+01 1.616569999999999936e+03
1.600000000000000033e-02 8.155295000000000183e-01 -4.649945500000000287e+00 8.788585000000000491e+01 1.616125000000000000e+03
1.700000000000000122e-02 8.152429999999999399e-01 -4.426580000000000403e+00 8.636345000000000027e+01 1.615735000000000127e+03
1.800000000000000211e-02 8.150029999999999220e-01 -3.977764999999999773e+00 8.509575000000000955e+01 1.615385000000000218e+03
1.900000000000000300e-02 8.147469999999999990e-01 -3.411363000000000145e+00 8.394415000000000759e+01 1.615059999999999945e+03
2.000000000000000042e-02 8.144320000000000448e-01 -2.815497999999999834e+00 8.276874999999999716e+01 1.614735000000000127e+03
2.100000000000000130e-02 8.140450000000000186e-01 -2.233607000000000120e+00 8.147849999999999682e+01 1.614389999999999873e+03
2.200000000000000219e-02 8.136025000000000063e-01 -1.661740000000000217e+00 8.005384999999999707e+01 1.614019999999999982e+03
2.299999999999999961e-02 8.131369999999999987e-01 -1.067260000000000097e+00 7.853534999999999400e+01 1.613639999999999873e+03
2.400000000000000050e-02 8.126769999999999827e-01 -4.179399999999997561e-01 7.698849999999998772e+01 1.613244999999999891e+03
2.500000000000000139e-02 8.122354999999999992e-01 2.927349999999999675e-01 7.546309999999999718e+01 1.612849999999999909e+03
2.600000000000000228e-02 8.118024999999999824e-01 1.033344999999999958e+00 7.396385000000000787e+01 1.612465000000000146e+03
2.700000000000000316e-02 8.113494999999999457e-01 1.737194999999999823e+00 7.244124999999999659e+01 1.612075000000000045e+03
2.800000000000000058e-02 8.108349999999999724e-01 2.316640000000000477e+00 7.080129999999999768e+01 1.611654999999999973e+03
2.900000000000000147e-02 8.102194999999999814e-01 2.683885000000000076e+00 6.893049999999999500e+01 1.611194999999999936e+03
3.000000000000000236e-02 8.094764999999999322e-01 2.772715000000000263e+00 6.672870000000000346e+01 1.610679999999999836e+03
3.099999999999999978e-02 8.086014999999999731e-01 2.555579999999999519e+00 6.413994999999999891e+01 1.610085000000000036e+03
3.200000000000000067e-02 8.076125000000000664e-01 2.050860000000000571e+00 6.117419999999999902e+01 1.609420000000000073e+03
3.300000000000000155e-02 8.065525000000000055e-01 1.319370000000000154e+00 5.791230000000000189e+01 1.608690000000000055e+03
3.400000000000000244e-02 8.054755000000000109e-01 4.504300000000007742e-01 5.449430000000000263e+01 1.607925000000000182e+03
3.500000000000000333e-02 8.044409999999999616e-01 -4.554150000000003473e-01 5.109584999999999866e+01 1.607150000000000091e+03
3.600000000000000422e-02 8.035019999999999385e-01 -1.303419999999999579e+00 4.790090000000000003e+01 1.606404999999999973e+03
3.700000000000000511e-02 8.027009999999999978e-01 -2.016180000000000305e+00 4.507679999999999865e+01 1.605730000000000018e+03
3.799999999999999906e-02 8.020670000000000854e-01 -2.539109999999999978e+00 4.275719999999999743e+01 1.605154999999999973e+03
3.899999999999999994e-02 8.016149999999999665e-01 -2.840244999999999909e+00 4.103350000000000364e+01 1.604694999999999936e+03
4.000000000000000083e-02 8.013490000000000890e-01 -2.906085500000000099e+00 3.995479999999999876e+01 1.604380000000000109e+03
4.100000000000000172e-02 8.012669999999999515e-01 -2.735489999999999977e+00 3.953379999999999939e+01 1.604200000000000045e+03
4.200000000000000261e-02 8.013609999999999900e-01 -2.333509999999999973e+00 3.975679999999999836e+01 1.604164999999999964e+03
4.300000000000000350e-02 8.016220000000000567e-01 -1.706850000000000200e+00 4.059335000000000093e+01 1.604280000000000200e+03
4.400000000000000439e-02 8.020395000000000163e-01 -8.616799999999997794e-01 4.200464999999999804e+01 1.604519999999999982e+03
4.499999999999999833e-02 8.026044999999999430e-01 1.959949999999999193e-01 4.394834999999999781e+01 1.604894999999999982e+03
4.599999999999999922e-02 8.033065000000000344e-01 1.458190000000000097e+00 4.637940000000000396e+01 1.605380000000000109e+03
4.700000000000000011e-02 8.041325000000000278e-01 2.912150000000000016e+00 4.924940000000000140e+01 1.605980000000000018e+03
4.800000000000000100e-02 8.050669999999999771e-01 4.537950000000000372e+00 5.250369999999999493e+01 1.606675000000000182e+03
4.900000000000000189e-02 8.060905000000000431e-01 6.307724999999999582e+00 5.608010000000000161e+01 1.607449999999999818e+03
5.000000000000000278e-02 8.071814999999999962e-01 8.185974999999999113e+00 5.990820000000000078e+01 1.608289999999999964e+03
5.100000000000000366e-02 8.083160000000000345e-01 1.013174099999999989e+01 6.391150000000000375e+01 1.609184999999999945e+03
5.200000000000000455e-02 8.094700000000000228e-01 1.210143500000000039e+01 6.801019999999999754e+01 1.610115000000000009e+03
5.300000000000000544e-02 8.106214999999999948e-01 1.405230999999999852e+01 7.212604999999999222e+01 1.611055000000000064e+03
5.399999999999999939e-02 8.117505000000000415e-01 1.594528000000000034e+01 7.618689999999999429e+01 1.612005000000000109e+03
5.500000000000000028e-02 8.128409999999999247e-01 1.774724000000000146e+01 8.013089999999999691e+01 1.612934999999999945e+03
5.600000000000000117e-02 8.138819999999999943e-01 1.943299999999999983e+01 8.390959999999999752e+01 1.613839999999999918e+03
5.700000000000000205e-02 8.148664999999999381e-01 2.098515000000000086e+01 8.748990000000000578e+01 1.614710000000000036e+03
5.800000000000000294e-02 8.157925000000000315e-01 2.239450000000000074e+01 9.085405000000000086e+01 1.615545000000000073e+03
5.900000000000000383e-02 8.166605000000000114e-01 2.365895000000000081e+01 9.399969999999999004e+01 1.616325000000000045e+03
6.000000000000000472e-02 8.174759999999999804e-01 2.478224999999999767e+01 9.693665000000000020e+01 1.617069999999999936e+03
6.099999999999999867e-02 8.182460000000000289e-01 2.577300000000000324e+01 9.968449999999999989e+01 1.617769999999999982e+03
6.199999999999999956e-02 8.189779999999999838e-01 2.664334999999999809e+01 1.022704999999999984e+02 1.618429999999999836e+03
6.300000000000000044e-02 8.196809999999999929e-01 2.740755000000000052e+01 1.047273500000000013e+02 1.619065000000000055e+03
6.400000000000000133e-02 8.203650000000000109e-01 2.808089999999999975e+01 1.070879999999999939e+02 1.619670000000000073e+03
6.500000000000000222e-02 8.210385000000000044e-01 2.867879999999999896e+01 1.093855000000000075e+02 1.620259999999999991e+03
6.600000000000000311e-02 8.217069999999999652e-01 2.921549999999999869e+01 1.116479999999999961e+02 1.620839999999999918e+03
6.700000000000000400e-02 8.223780000000000534e-01 2.970309999999999917e+01 1.138985000000000127e+02 1.621409999999999854e+03
6.800000000000000488e-02 8.230524999999999647e-01 3.015080000000000027e+01 1.161525000000000034e+02 1.621980000000000018e+03
6.900000000000000577e-02 8.237324999999999786e-01 3.056434999999999746e+01 1.184174999999999898e+02 1.622549999999999955e+03
7.000000000000000666e-02 8.244149999999998979e-01 3.094565000000000055e+01 1.206899999999999977e+02 1.623119999999999891e+03
7.100000000000000755e-02 8.250960000000000516e-01 3.129309999999999903e+01 1.229590000000000032e+02 1.623684999999999945e+03
7.200000000000000844e-02 8.257685000000000164e-01 3.160170000000000101e+01 1.252060000000000031e+02 1.624250000000000000e+03
7.300000000000000933e-02 8.264245000000000063e-01 3.186404999999999887e+01 1.274039999999999964e+02 1.624799999999999955e+03
7.399999999999999634e-02 8.270549999999999846e-01 3.207094999999999629e+01 1.295240000000000009e+02 1.625329999999999927e+03
7.499999999999999722e-02 8.276505000000000667e-01 3.221259999999999479e+01 1.315335000000000036e+02 1.625840000000000146e+03
7.599999999999999811e-02 8.282019999999999937e-01 3.227930000000000632e+01 1.334004999999999939e+02 1.626319999999999936e+03
7.699999999999999900e-02 8.287014999999999798e-01 3.226225000000000165e+01 1.350964999999999918e+02 1.626759999999999991e+03
7.799999999999999989e-02 8.291425000000000045e-01 3.215435000000000088e+01 1.365944999999999823e+02 1.627159999999999854e+03
7.900000000000000078e-02 8.295190000000000063e-01 3.195065000000000310e+01 1.378750000000000000e+02 1.627505000000000109e+03
8.000000000000000167e-02 8.298289999999999278e-01 3.164849999999999852e+01 1.389230000000000018e+02 1.627799999999999955e+03
8.100000000000000255e-02 8.300695000000000157e-01 3.124799999999999756e+01 1.397325000000000159e+02 1.628034999999999854e+03
8.200000000000000344e-02 8.302424999999999944e-01 3.075195000000000078e+01 1.403025000000000091e+02 1.628220000000000027e+03
8.300000000000000433e-02 8.303490000000000038e-01 3.016559999999999775e+01 1.406394999999999982e+02 1.628349999999999909e+03
8.400000000000000522e-02 8.303940000000000765e-01 2.949695000000000178e+01 1.407560000000000002e+02 1.628425000000000182e+03
8.500000000000000611e-02 8.303825000000000234e-01 2.875580000000000069e+01 1.406709999999999923e+02 1.628445000000000164e+03
8.600000000000000699e-02 8.303214999999999346e-01 2.795420000000000016e+01 1.404069999999999823e+02 1.628424999999999955e+03
8.700000000000000788e-02 8.302190000000000403e-01 2.710529999999999973e+01 1.399904999999999973e+02 1.628360000000000127e+03
8.800000000000000877e-02 8.300819999999999865e-01 2.622334999999999994e+01 1.394515000000000100e+02 1.628264999999999873e+03
8.899999999999999578e-02 8.299210000000000198e-01 2.532284999999999897e+01 1.388199999999999932e+02 1.628139999999999873e+03
8.999999999999999667e-02 8.297430000000000083e-01 2.441825000000000045e+01 1.381270000000000095e+02 1.627994999999999891e+03
9.099999999999999756e-02 8.295569999999999888e-01 2.352305000000000135e+01 1.374014999999999986e+02 1.627840000000000146e+03
9.199999999999999845e-02 8.293699999999999406e-01 2.264954999999999785e+01 1.366720000000000255e+02 1.627680000000000064e+03
9.299999999999999933e-02 8.291884999999999950e-01 2.180814999999999770e+01 1.359615000000000009e+02 1.627509999999999991e+03
9.400000000000000022e-02 8.290180000000000327e-01 2.100694999999999979e+01 1.352905000000000086e+02 1.627355000000000018e+03
9.500000000000000111e-02 8.288610000000000699e-01 2.025164999999999793e+01 1.346740000000000066e+02 1.627204999999999927e+03
9.600000000000000200e-02 8.287214999999999998e-01 1.954520000000000124e+01 1.341225000000000023e+02 1.627065000000000055e+03
9.700000000000000289e-02 8.285989999999999744e-01 1.888775000000000048e+01 1.336394999999999982e+02 1.626940000000000055e+03
9.800000000000000377e-02 8.284934999999999938e-01 1.827705000000000268e+01 1.332245000000000061e+02 1.626829999999999927e+03
9.900000000000000466e-02 8.284025000000000416e-01 1.770844999999999914e+01 1.328725000000000023e+02 1.626730000000000018e+03
1.000000000000000056e-01 8.283234999999999904e-01 1.717539999999999978e+01 1.325745000000000005e+02 1.626644999999999982e+03
1.010000000000000064e-01 8.282530000000000170e-01 1.666975000000000051e+01 1.323165000000000191e+02 1.626570000000000164e+03
1.020000000000000073e-01 8.281860000000000888e-01 1.618240000000000123e+01 1.320849999999999795e+02 1.626505000000000109e+03
1.030000000000000082e-01 8.281180000000000208e-01 1.570370000000000132e+01 1.318620000000000232e+02 1.626440000000000055e+03
1.040000000000000091e-01 8.280450000000000310e-01 1.522405000000000008e+01 1.316314999999999884e+02 1.626375000000000000e+03
1.050000000000000100e-01 8.279619999999999758e-01 1.473434999999999917e+01 1.313779999999999859e+02 1.626309999999999945e+03
1.059999999999999970e-01 8.278665000000000607e-01 1.422644999999999982e+01 1.310860000000000127e+02 1.626235000000000127e+03
1.069999999999999979e-01 8.277540000000001008e-01 1.369345000000000034e+01 1.307434999999999832e+02 1.626154999999999973e+03
1.079999999999999988e-01 8.276240000000000263e-01 1.313038500000000042e+01 1.303419999999999845e+02 1.626059999999999945e+03
1.089999999999999997e-01 8.274749999999999606e-01 1.253399999999999892e+01 1.298764999999999930e+02 1.625954999999999927e+03
1.100000000000000006e-01 8.273070000000000146e-01 1.190337500000000048e+01 1.293445000000000107e+02 1.625829999999999927e+03
1.110000000000000014e-01 8.271219999999999128e-01 1.123972999999999978e+01 1.287495000000000118e+02 1.625694999999999936e+03
1.120000000000000023e-01 8.269215000000000870e-01 1.054624500000000076e+01 1.280969999999999800e+02 1.625545000000000073e+03
1.130000000000000032e-01 8.267100000000000559e-01 9.828374999999999417e+00 1.273984999999999843e+02 1.625384999999999991e+03
1.140000000000000041e-01 8.264909999999999757e-01 9.093085000000000306e+00 1.266664999999999992e+02 1.625220000000000027e+03
1.150000000000000050e-01 8.262694999999999901e-01 8.348905000000000243e+00 1.259164999999999992e+02 1.625045000000000073e+03
1.160000000000000059e-01 8.260505000000000209e-01 7.605439999999999756e+00 1.251674999999999898e+02 1.624869999999999891e+03
1.170000000000000068e-01 8.258399999999999075e-01 6.872844999999999871e+00 1.244380000000000024e+02 1.624694999999999936e+03
1.180000000000000077e-01 8.256434999999999746e-01 6.161360000000000170e+00 1.237454999999999927e+02 1.624530000000000200e+03
1.190000000000000085e-01 8.254654999999999632e-01 5.481014999999999304e+00 1.231105000000000018e+02 1.624380000000000109e+03
1.200000000000000094e-01 8.253105000000000580e-01 4.840984999999999872e+00 1.225469999999999970e+02 1.624235000000000127e+03
1.209999999999999964e-01 8.251829999999999998e-01 4.249259999999999593e+00 1.220705000000000098e+02 1.624115000000000009e+03
1.219999999999999973e-01 8.250839999999999286e-01 3.712289999999999868e+00 1.216910000000000025e+02 1.624009999999999991e+03
1.229999999999999982e-01 8.250165000000000415e-01 3.234704999999999941e+00 1.214159999999999968e+02 1.623934999999999945e+03
1.239999999999999991e-01 8.249800000000000466e-01 2.819164999999999921e+00 1.212485000000000070e+02 1.623875000000000000e+03
1.250000000000000000e-01 8.249744999999999440e-01 2.466305000000000192e+00 1.211879999999999882e+02 1.623845000000000027e+03
1.260000000000000009e-01 8.249975000000000502e-01 2.174739999999999895e+00 1.212289999999999992e+02 1.623840000000000146e+03
1.270000000000000018e-01 8.250459999999999461e-01 1.941245000000000109e+00 1.213640000000000043e+02 1.623855000000000018e+03
1.280000000000000027e-01 8.251169999999999893e-01 1.760970000000000146e+00 1.215805000000000007e+02 1.623884999999999991e+03
1.290000000000000036e-01 8.252059999999999951e-01 1.627709999999999990e+00 1.218659999999999997e+02 1.623940000000000055e+03
1.300000000000000044e-01 8.253074999999999717e-01 1.534261499999999945e+00 1.222030000000000030e+02 1.624005000000000109e+03
1.310000000000000053e-01 8.254185000000000549e-01 1.472750000000000004e+00 1.225755000000000052e+02 1.624085000000000036e+03
1.320000000000000062e-01 8.255325000000000024e-01 1.435024000000000077e+00 1.229675000000000011e+02 1.624164999999999964e+03
1.330000000000000071e-01 8.256455000000000322e-01 1.412949000000000011e+00 1.233599999999999994e+02 1.624250000000000000e+03
1.340000000000000080e-01 8.257529999999999593e-01 1.398754499999999901e+00 1.237394999999999925e+02 1.624335000000000036e+03
1.350000000000000089e-01 8.258514999999999606e-01 1.385269499999999931e+00 1.240914999999999964e+02 1.624414999999999964e+03
1.360000000000000098e-01 8.259380000000000610e-01 1.366138499999999922e+00 1.244039999999999964e+02 1.624490000000000009e+03
1.370000000000000107e-01 8.260100000000000220e-01 1.336000999999999994e+00 1.246664999999999992e+02 1.624554999999999836e+03
1.380000000000000115e-01 8.260650000000000492e-01 1.290559999999999929e+00 1.248735000000000070e+02 1.624605000000000018e+03
1.390000000000000124e-01 8.261024999999999618e-01 1.226659999999999862e+00 1.250190000000000055e+02 1.624644999999999982e+03
1.400000000000000133e-01 8.261224999999999818e-01 1.142275000000000151e+00 1.251015000000000015e+02 1.624670000000000073e+03
1.410000000000000142e-01 8.261249999999999982e-01 1.036483500000000113e+00 1.251210000000000093e+02 1.624684999999999945e+03
1.420000000000000151e-01 8.261104999999999698e-01 9.093679999999999541e-01 1.250784999999999911e+02 1.624679999999999836e+03
1.430000000000000160e-01 8.260804999999999954e-01 7.619375000000000453e-01 1.249784999999999968e+02 1.624670000000000073e+03
1.440000000000000169e-01 8.260354999999999226e-01 5.959689999999999710e-01 1.248255000000000052e+02 1.624639999999999873e+03
1.450000000000000178e-01 8.259790000000000187e-01 4.138800000000000257e-01 1.246260000000000048e+02 1.624599999999999909e+03
1.459999999999999909e-01 8.259115000000000206e-01 2.185720000000000440e-01 1.243859999999999957e+02 1.624550000000000182e+03
1.469999999999999918e-01 8.258349999999999858e-01 1.325499999999996126e-02 1.241124999999999972e+02 1.624494999999999891e+03
1.479999999999999927e-01 8.257520000000000415e-01 -1.986955000000000249e-01 1.238125000000000000e+02 1.624429999999999836e+03
1.489999999999999936e-01 8.256645000000000234e-01 -4.138865000000000460e-01 1.234920000000000044e+02 1.624360000000000127e+03
1.499999999999999944e-01 8.255730000000000013e-01 -6.290624999999999689e-01 1.231580000000000013e+02 1.624284999999999854e+03
1.509999999999999953e-01 8.254794999999999217e-01 -8.412084499999999965e-01 1.228155000000000001e+02 1.624210000000000036e+03
1.519999999999999962e-01 8.253859999999999530e-01 -1.047641499999999892e+00 1.224679999999999893e+02 1.624130000000000109e+03
1.529999999999999971e-01 8.252914999999999557e-01 -1.246109000000000133e+00 1.221195000000000022e+02 1.624050000000000182e+03
1.539999999999999980e-01 8.251979999999999871e-01 -1.434792500000000137e+00 1.217729999999999961e+02 1.623964999999999918e+03
1.549999999999999989e-01 8.251044999999999074e-01 -1.612363999999999908e+00 1.214284999999999997e+02 1.623884999999999991e+03
1.559999999999999998e-01 8.250119999999999676e-01 -1.777954999999999952e+00 1.210875000000000057e+02 1.623799999999999955e+03
1.570000000000000007e-01 8.249195000000000277e-01 -1.931135000000000046e+00 1.207500000000000000e+02 1.623715000000000146e+03
1.580000000000000016e-01 8.248280000000000056e-01 -2.071829999999999838e+00 1.204145000000000039e+02 1.623634999999999991e+03
1.590000000000000024e-01 8.247355000000000658e-01 -2.200309999999999988e+00 1.200790000000000077e+02 1.623554999999999836e+03
