# t [s], A [cm^2], U [cm/s], P [cPa], c [cm/s]
1.000000000000000021e-03 7.991470000000000518e-01 4.846949999999995706e-03 9.790960000000001173e+01 1.576255000000000109e+03
2.000000000000000042e-03 7.991340000000000110e-01 -3.456184999999999639e-03 9.788620000000000232e+01 1.576250000000000000e+03
3.000000000000000062e-03 7.991779999999999440e-01 5.423664999999999042e-02 9.794540000000000646e+01 1.576264999999999873e+03
4.000000000000000083e-03 7.992460000000000120e-01 1.485196999999999767e-01 9.806315000000000737e+01 1.576289999999999964e+03
5.000000000000000104e-03 7.992494999999999461e-01 1.683244999999999880e-01 9.808095000000000141e+01 1.576295000000000073e+03
6.000000000000000125e-03 7.991855000000001041e-01 1.005494999999999861e-01 9.794829999999998904e+01 1.576269999999999982e+03
7.000000000000000146e-03 7.991230000000000278e-01 2.959149999999999281e-02 9.775544999999999618e+01 1.576230000000000018e+03
8.000000000000000167e-03 7.990599999999999925e-01 -4.835850000000002646e-02 9.751724999999999000e+01 1.576179999999999836e+03
9.000000000000001055e-03 7.989504999999998969e-01 -2.015445000000000153e-01 9.715569999999999595e+01 1.576105000000000018e+03
1.000000000000000194e-02 7.987790000000000168e-01 -4.532549999999999635e-01 9.662084999999999013e+01 1.576000000000000000e+03
1.099999999999999936e-02 7.985375000000000112e-01 -8.120199999999999640e-01 9.587449999999999761e+01 1.575849999999999909e+03
1.200000000000000025e-02 7.982055000000000122e-01 -1.296075000000000088e+00 9.486284999999999457e+01 1.575644999999999982e+03
1.300000000000000114e-02 7.977815000000000323e-01 -1.894060000000000077e+00 9.356274999999999409e+01 1.575375000000000000e+03
1.400000000000000203e-02 7.973049999999999304e-01 -2.534100000000000019e+00 9.203204999999999814e+01 1.575045000000000073e+03
1.499999999999999944e-02 7.968370000000000175e-01 -3.105420000000000069e+00 9.039904999999998836e+01 1.574684999999999945e+03
1.600000000000000033e-02 7.964290000000000536e-01 -3.508143500000000081e+00 8.880525000000000091e+01 1.574324999999999818e+03
1.700000000000000122e-02 7.961019999999999763e-01 -3.689545249999999665e+00 8.734959999999999525e+01 1.573974999999999909e+03
1.800000000000000211e-02 7.958414999999999795e-01 -3.651344500000000437e+00 8.606354999999999222e+01 1.573654999999999973e+03
1.900000000000000300e-02 7.956155000000000310e-01 -3.435437500000000366e+00 8.491640000000001010e+01 1.573355000000000018e+03
2.000000000000000042e-02 7.953835000000000210e-01 -3.101054500000000047e+00 8.383990000000000009e+01 1.573059999999999945e+03
2.100000000000000130e-02 7.951170000000000737e-01 -2.703008999999999773e+00 8.275775000000000148e+01 1.572764999999999873e+03
2.200000000000000219e-02 7.947994999999999921e-01 -2.276326999999999767e+00 8.161199999999999477e+01 1.572454999999999927e+03
2.299999999999999961e-02 7.944360000000000310e-01 -1.830325000000000202e+00 8.037899999999999068e+01 1.572130000000000109e+03
2.400000000000000050e-02 7.940424999999999844e-01 -1.352789999999999715e+00 7.907095000000001050e+01 1.571789999999999964e+03
2.500000000000000139e-02 7.936410000000000409e-01 -8.220500000000001695e-01 7.772469999999999857e+01 1.571434999999999945e+03
2.600000000000000228e-02 7.932489999999999819e-01 -2.216749999999998444e-01 7.638235000000000241e+01 1.571075000000000045e+03
2.700000000000000316e-02 7.928724999999999801e-01 4.478100000000000414e-01 7.507239999999998759e+01 1.570730000000000018e+03
2.800000000000000058e-02 7.925050000000000150e-01 1.163584999999999869e+00 7.379650000000000887e+01 1.570384999999999991e+03
2.900000000000000147e-02 7.921274999999999844e-01 1.882315000000000182e+00 7.252604999999999791e+01 1.570045000000000073e+03
3.000000000000000236e-02 7.917155000000000165e-01 2.547625000000000028e+00 7.120744999999999436e+01 1.569690000000000055e+03
3.099999999999999978e-02 7.912425000000000708e-01 3.101055000000000117e+00 6.977455000000000496e+01 1.569319999999999936e+03
3.200000000000000067e-02 7.906904999999999628e-01 3.493839999999999613e+00 6.816505000000000791e+01 1.568910000000000082e+03
3.300000000000000155e-02 7.900525000000000464e-01 3.696945000000000370e+00 6.633684999999999832e+01 1.568464999999999918e+03
3.400000000000000244e-02 7.893350000000000088e-01 3.706729999999999858e+00 6.428029999999999688e+01 1.567969999999999800e+03
3.500000000000000333e-02 7.885584999999999400e-01 3.544935000000000169e+00 6.202360000000000184e+01 1.567434999999999945e+03
3.600000000000000422e-02 7.877540000000000653e-01 3.253170000000000339e+00 5.962905000000000655e+01 1.566869999999999891e+03
3.700000000000000511e-02 7.869550000000000711e-01 2.883910000000000196e+00 5.718345000000000056e+01 1.566284999999999854e+03
3.799999999999999906e-02 7.861949999999999772e-01 2.491040000000000365e+00 5.478425000000000011e+01 1.565710000000000036e+03
3.899999999999999994e-02 7.855014999999999636e-01 2.121960000000000068e+00 5.252644999999999698e+01 1.565159999999999854e+03
4.000000000000000083e-02 7.848950000000000093e-01 1.813184999999999825e+00 5.049199999999999733e+01 1.564659999999999854e+03
4.100000000000000172e-02 7.843875000000000153e-01 1.588880000000000070e+00 4.874389999999999645e+01 1.564210000000000036e+03
4.200000000000000261e-02 7.839849999999999319e-01 1.462240000000000206e+00 4.732394999999999641e+01 1.563835000000000036e+03
4.300000000000000350e-02 7.836879999999999402e-01 1.438564999999999872e+00 4.625475000000000136e+01 1.563534999999999854e+03
4.400000000000000439e-02 7.834944999999999826e-01 1.518920000000000048e+00 4.554395000000000238e+01 1.563315000000000055e+03
4.499999999999999833e-02 7.834025000000000016e-01 1.703546499999999853e+00 4.518914999999999793e+01 1.563190000000000055e+03
4.599999999999999922e-02 7.834094999999999809e-01 1.994209999999999816e+00 4.518294999999999817e+01 1.563134999999999991e+03
4.700000000000000011e-02 7.835140000000000438e-01 2.395170000000000243e+00 4.551680000000000348e+01 1.563170000000000073e+03
4.800000000000000100e-02 7.837159999999999682e-01 2.912690000000000001e+00 4.618255000000000621e+01 1.563284999999999854e+03
4.900000000000000189e-02 7.840150000000000174e-01 3.553435999999999595e+00 4.717249999999999943e+01 1.563474999999999909e+03
5.000000000000000278e-02 7.844094999999999818e-01 4.322297499999999459e+00 4.847785000000000366e+01 1.563744999999999891e+03
5.100000000000000366e-02 7.848960000000000381e-01 5.220335000000000392e+00 5.008644999999999925e+01 1.564090000000000146e+03
5.200000000000000455e-02 7.854685000000000139e-01 6.243318999999999619e+00 5.198069999999999879e+01 1.564500000000000000e+03
5.300000000000000544e-02 7.861175000000000246e-01 7.380995000000000417e+00 5.413615000000000066e+01 1.564985000000000127e+03
5.399999999999999939e-02 7.868330000000000046e-01 8.617544999999999789e+00 5.652125000000000199e+01 1.565525000000000091e+03
5.500000000000000028e-02 7.876004999999999256e-01 9.932674999999999699e+00 5.909789999999999566e+01 1.566110000000000127e+03
5.600000000000000117e-02 7.884065000000000101e-01 1.130307499999999976e+01 6.182359999999999900e+01 1.566740000000000009e+03
5.700000000000000205e-02 7.892364999999998965e-01 1.270439000000000007e+01 6.465360000000001151e+01 1.567400000000000091e+03
5.800000000000000294e-02 7.900774999999999881e-01 1.411308000000000007e+01 6.754375000000000284e+01 1.568085000000000036e+03
5.900000000000000383e-02 7.909185000000000798e-01 1.550765999999999956e+01 7.045300000000000296e+01 1.568785000000000082e+03
6.000000000000000472e-02 7.917494999999999949e-01 1.687024999999999864e+01 7.334574999999999534e+01 1.569485000000000127e+03
6.099999999999999867e-02 7.925640000000000462e-01 1.818649999999999878e+01 7.619315000000000282e+01 1.570184999999999945e+03
6.199999999999999956e-02 7.933574999999999378e-01 1.944650000000000034e+01 7.897409999999999286e+01 1.570875000000000000e+03
6.300000000000000044e-02 7.941289999999999738e-01 2.064375000000000071e+01 8.167500000000001137e+01 1.571549999999999955e+03
6.400000000000000133e-02 7.948770000000000557e-01 2.177524999999999977e+01 8.428960000000000719e+01 1.572204999999999927e+03
6.500000000000000222e-02 7.956035000000000190e-01 2.284049999999999869e+01 8.681759999999999877e+01 1.572845000000000027e+03
6.600000000000000311e-02 7.963095000000000034e-01 2.384100000000000108e+01 8.926355000000000928e+01 1.573469999999999800e+03
6.700000000000000400e-02 7.969990000000000130e-01 2.477945000000000064e+01 9.163540000000000418e+01 1.574079999999999927e+03
6.800000000000000488e-02 7.976745000000000640e-01 2.565925000000000011e+01 9.394290000000000873e+01 1.574664999999999964e+03
6.900000000000000577e-02 7.983385000000000620e-01 2.648389999999999844e+01 9.619700000000000273e+01 1.575250000000000000e+03
7.000000000000000666e-02 7.989935000000000231e-01 2.725645000000000095e+01 9.840654999999999575e+01 1.575820000000000164e+03
7.100000000000000755e-02 7.996415000000000051e-01 2.797929999999999851e+01 1.005799999999999983e+02 1.576380000000000109e+03
7.200000000000000844e-02 8.002829999999999666e-01 2.865384999999999849e+01 1.027221000000000117e+02 1.576929999999999836e+03
7.300000000000000933e-02 8.009169999999999900e-01 2.928025000000000233e+01 1.048345999999999947e+02 1.577474999999999909e+03
7.399999999999999634e-02 8.015434999999999643e-01 2.985750000000000171e+01 1.069159999999999968e+02 1.578009999999999991e+03
7.499999999999999722e-02 8.021584999999999965e-01 3.038349999999999795e+01 1.089610000000000127e+02 1.578539999999999964e+03
7.599999999999999811e-02 8.027599999999999181e-01 3.085539999999999949e+01 1.109620000000000033e+02 1.579054999999999836e+03
7.699999999999999900e-02 8.033449999999999758e-01 3.126954999999999885e+01 1.129080000000000013e+02 1.579565000000000055e+03
7.799999999999999989e-02 8.039084999999999148e-01 3.162230000000000274e+01 1.147874999999999943e+02 1.580054999999999836e+03
7.900000000000000078e-02 8.044470000000000232e-01 3.191009999999999991e+01 1.165875000000000057e+02 1.580530000000000200e+03
8.000000000000000167e-02 8.049574999999999925e-01 3.212964999999999804e+01 1.182949999999999875e+02 1.580980000000000018e+03
8.100000000000000255e-02 8.054354999999999709e-01 3.227839999999999776e+01 1.198979999999999961e+02 1.581400000000000091e+03
8.200000000000000344e-02 8.058794999999999709e-01 3.235459999999999781e+01 1.213859999999999957e+02 1.581800000000000182e+03
8.300000000000000433e-02 8.062860000000000582e-01 3.235725000000000051e+01 1.227500000000000000e+02 1.582170000000000073e+03
8.400000000000000522e-02 8.066545000000000520e-01 3.228624999999999545e+01 1.239825000000000017e+02 1.582509999999999991e+03
8.500000000000000611e-02 8.069830000000000059e-01 3.214244999999999663e+01 1.250799999999999983e+02 1.582815000000000055e+03
8.600000000000000699e-02 8.072705000000000020e-01 3.192735000000000056e+01 1.260390000000000015e+02 1.583085000000000036e+03
8.700000000000000788e-02 8.075179999999999580e-01 3.164354999999999762e+01 1.268584999999999923e+02 1.583324999999999818e+03
8.800000000000000877e-02 8.077259999999999440e-01 3.129420000000000357e+01 1.275415000000000134e+02 1.583525000000000091e+03
8.899999999999999578e-02 8.078954999999999886e-01 3.088339999999999819e+01 1.280905000000000200e+02 1.583695000000000164e+03
8.999999999999999667e-02 8.080279999999999685e-01 3.041615000000000180e+01 1.285120000000000005e+02 1.583835000000000036e+03
9.099999999999999756e-02 8.081260000000000110e-01 2.989820000000000277e+01 1.288125000000000000e+02 1.583944999999999936e+03
9.199999999999999845e-02 8.081924999999999804e-01 2.933599999999999852e+01 1.290020000000000095e+02 1.584014999999999873e+03
9.299999999999999933e-02 8.082305000000000739e-01 2.873675000000000068e+01 1.290914999999999964e+02 1.584069999999999936e+03
9.400000000000000022e-02 8.082435000000000036e-01 2.810810000000000031e+01 1.290925000000000011e+02 1.584095000000000027e+03
9.500000000000000111e-02 8.082365000000000244e-01 2.745799999999999841e+01 1.290169999999999959e+02 1.584095000000000027e+03
9.600000000000000200e-02 8.082114999999999716e-01 2.679449999999999932e+01 1.288804999999999836e+02 1.584085000000000036e+03
9.700000000000000289e-02 8.081734999999999891e-01 2.612530000000000285e+01 1.286945000000000050e+02 1.584054999999999836e+03
9.800000000000000377e-02 8.081260000000000110e-01 2.545759999999999934e+01 1.284724999999999966e+02 1.584014999999999873e+03
9.900000000000000466e-02 8.080720000000000125e-01 2.479780000000000229e+01 1.282264999999999873e+02 1.583970000000000027e+03
1.000000000000000056e-01 8.080145000000000799e-01 2.415120000000000289e+01 1.279664999999999964e+02 1.583914999999999964e+03
1.010000000000000064e-01 8.079549999999999788e-01 2.352205000000000013e+01 1.277014999999999958e+02 1.583849999999999909e+03
1.020000000000000073e-01 8.078954999999999886e-01 2.291300000000000026e+01 1.274375000000000000e+02 1.583789999999999964e+03
1.030000000000000082e-01 8.078359999999999985e-01 2.232550000000000168e+01 1.271779999999999973e+02 1.583730000000000018e+03
1.040000000000000091e-01 8.077780000000001071e-01 2.175959999999999894e+01 1.269260000000000019e+02 1.583670000000000073e+03
1.050000000000000100e-01 8.077194999999999236e-01 2.121424999999999983e+01 1.266804999999999950e+02 1.583605000000000018e+03
1.059999999999999970e-01 8.076605000000000034e-01 2.068719999999999715e+01 1.264385000000000048e+02 1.583545000000000073e+03
1.069999999999999979e-01 8.075984999999999969e-01 2.017549999999999955e+01 1.261965000000000146e+02 1.583480000000000018e+03
1.079999999999999988e-01 8.075324999999999864e-01 1.967545000000000144e+01 1.259495000000000005e+02 1.583414999999999964e+03
1.089999999999999997e-01 8.074615000000000542e-01 1.918315000000000126e+01 1.256920000000000073e+02 1.583349999999999909e+03
1.100000000000000006e-01 8.073825000000000029e-01 1.869435000000000002e+01 1.254170000000000016e+02 1.583279999999999973e+03
1.110000000000000014e-01 8.072945000000000260e-01 1.820500000000000185e+01 1.251184999999999974e+02 1.583204999999999927e+03
1.120000000000000023e-01 8.071964999999999835e-01 1.771119999999999806e+01 1.247909999999999968e+02 1.583125000000000000e+03
1.130000000000000032e-01 8.070855000000000112e-01 1.720955000000000013e+01 1.244294999999999902e+02 1.583034999999999854e+03
1.140000000000000041e-01 8.069625000000000270e-01 1.669729999999999848e+01 1.240294999999999987e+02 1.582934999999999945e+03
1.150000000000000050e-01 8.068260000000000431e-01 1.617224999999999824e+01 1.235895000000000010e+02 1.582825000000000045e+03
1.160000000000000059e-01 8.066759999999999486e-01 1.563319999999999865e+01 1.231074999999999875e+02 1.582710000000000036e+03
1.170000000000000068e-01 8.065139999999999532e-01 1.507985000000000042e+01 1.225850000000000080e+02 1.582585000000000036e+03
1.180000000000000077e-01 8.063404999999999045e-01 1.451275000000000048e+01 1.220234999999999985e+02 1.582450000000000045e+03
1.190000000000000085e-01 8.061570000000000125e-01 1.393350999999999829e+01 1.214279999999999973e+02 1.582304999999999836e+03
1.200000000000000094e-01 8.059655000000000014e-01 1.334461999999999904e+01 1.208029999999999973e+02 1.582154999999999973e+03
1.209999999999999964e-01 8.057689999999999575e-01 1.274942500000000045e+01 1.201564999999999941e+02 1.581994999999999891e+03
1.219999999999999973e-01 8.055689999999999795e-01 1.215193999999999974e+01 1.194964999999999975e+02 1.581835000000000036e+03
1.229999999999999982e-01 8.053695000000000714e-01 1.155688499999999941e+01 1.188319999999999936e+02 1.581674999999999955e+03
1.239999999999999991e-01 8.051729999999999166e-01 1.096938499999999905e+01 1.181734999999999900e+02 1.581510000000000218e+03
1.250000000000000000e-01 8.049834999999999630e-01 1.039469500000000046e+01 1.175314999999999941e+02 1.581349999999999909e+03
1.260000000000000009e-01 8.048024999999999762e-01 9.838245000000000573e+00 1.169155000000000086e+02 1.581194999999999936e+03
1.270000000000000018e-01 8.046345000000000303e-01 9.305225000000000080e+00 1.163359999999999985e+02 1.581045000000000073e+03
1.280000000000000027e-01 8.044810000000000016e-01 8.800494999999999735e+00 1.158015000000000043e+02 1.580910000000000082e+03
1.290000000000000036e-01 8.043445000000000178e-01 8.328400000000000247e+00 1.153205000000000098e+02 1.580784999999999854e+03
1.300000000000000044e-01 8.042275000000000951e-01 7.892454999999999998e+00 1.149000000000000057e+02 1.580670000000000073e+03
1.310000000000000053e-01 8.041294999999999416e-01 7.495499999999999829e+00 1.145434999999999945e+02 1.580574999999999818e+03
1.320000000000000062e-01 8.040525000000000588e-01 7.139375000000000249e+00 1.142549999999999955e+02 1.580490000000000009e+03
1.330000000000000071e-01 8.039959999999999329e-01 6.824964999999999726e+00 1.140360000000000014e+02 1.580420000000000073e+03
1.340000000000000080e-01 8.039600000000000080e-01 6.552184999999999704e+00 1.138859999999999957e+02 1.580375000000000000e+03
1.350000000000000089e-01 8.039429999999999632e-01 6.320030000000000037e+00 1.138019999999999925e+02 1.580345000000000027e+03
1.360000000000000098e-01 8.039435000000000331e-01 6.126630000000000464e+00 1.137800000000000011e+02 1.580319999999999936e+03
1.370000000000000107e-01 8.039600000000000080e-01 5.969395000000000451e+00 1.138155000000000001e+02 1.580315000000000055e+03
1.380000000000000115e-01 8.039899999999999824e-01 5.845105000000000217e+00 1.139000000000000057e+02 1.580329999999999927e+03
1.390000000000000124e-01 8.040320000000000800e-01 5.750110000000000277e+00 1.140275000000000034e+02 1.580344999999999800e+03
1.400000000000000133e-01 8.040825000000000333e-01 5.680460000000000065e+00 1.141905000000000001e+02 1.580380000000000109e+03
1.410000000000000142e-01 8.041399999999999659e-01 5.632049999999999557e+00 1.143795000000000073e+02 1.580414999999999964e+03
1.420000000000000151e-01 8.042020000000000834e-01 5.600799999999999557e+00 1.145875000000000057e+02 1.580454999999999927e+03
1.430000000000000160e-01 8.042664999999999953e-01 5.582720000000000127e+00 1.148069999999999879e+02 1.580505000000000109e+03
1.440000000000000169e-01 8.043305000000000593e-01 5.574085000000000178e+00 1.150305000000000035e+02 1.580549999999999955e+03
1.450000000000000178e-01 8.043940000000000534e-01 5.571450000000000458e+00 1.152520000000000095e+02 1.580599999999999909e+03
1.459999999999999909e-01 8.044544999999999613e-01 5.571749999999999758e+00 1.154654999999999916e+02 1.580650000000000091e+03
1.469999999999999918e-01 8.045115000000000460e-01 5.572330000000000005e+00 1.156674999999999898e+02 1.580695000000000164e+03
1.479999999999999927e-01 8.045640000000000569e-01 5.570949999999999847e+00 1.158545000000000016e+02 1.580744999999999891e+03
1.489999999999999936e-01 8.046105000000000063e-01 5.565820000000000434e+00 1.160240000000000009e+02 1.580784999999999854e+03
1.499999999999999944e-01 8.046519999999999229e-01 5.555564999999999642e+00 1.161740000000000066e+02 1.580825000000000045e+03
1.509999999999999953e-01 8.046875000000000000e-01 5.539244999999999308e+00 1.163040000000000020e+02 1.580855000000000018e+03
1.519999999999999962e-01 8.047174999999999745e-01 5.516300000000000203e+00 1.164145000000000039e+02 1.580889999999999873e+03
1.529999999999999971e-01 8.047420000000000684e-01 5.486530000000000129e+00 1.165045000000000073e+02 1.580914999999999964e+03
1.539999999999999980e-01 8.047619999999999774e-01 5.450070000000000192e+00 1.165769999999999982e+02 1.580934999999999945e+03
1.549999999999999989e-01 8.047770000000000756e-01 5.407339999999999591e+00 1.166324999999999932e+02 1.580950000000000045e+03
1.559999999999999998e-01 8.047885000000000177e-01 5.358985000000000554e+00 1.166730000000000018e+02 1.580965000000000146e+03
1.570000000000000007e-01 8.047965000000000257e-01 5.305849999999999511e+00 1.167009999999999934e+02 1.580974999999999909e+03
1.580000000000000016e-01 8.048020000000000174e-01 5.248905000000000598e+00 1.167180000000000035e+02 1.580980000000000018e+03
1.590000000000000024e-01 8.048060000000000214e-01 5.189204999999999401e+00 1.167265000000000015e+02 1.580990000000000009e+03
