# t [s], A [cm^2], U [cm/s], P [cPa], c [cm/s]
1.000000000000000021e-03 4.762959999999999972e-01 3.089700000000000779e-03 9.304410000000000025e+01 1.562170000000000073e+03
2.000000000000000042e-03 4.762899999999999912e-01 1.333529999999999438e-03 9.302334999999999354e+01 1.562170000000000073e+03
3.000000000000000062e-03 4.763309999999999489e-01 9.534729999999999595e-02 9.311799999999999500e+01 1.562195000000000164e+03
4.000000000000000083e-03 4.763674999999999438e-01 1.834737499999999910e-01 9.322729999999999961e+01 1.562224999999999909e+03
5.000000000000000104e-03 4.763519999999999976e-01 1.608773000000000009e-01 9.318510000000000559e+01 1.562215000000000146e+03
6.000000000000000125e-03 4.763079999999999536e-01 7.014449999999997076e-02 9.299774999999999636e+01 1.562174999999999955e+03
7.000000000000000146e-03 4.762660000000000227e-01 -2.484399999999997721e-02 9.273924999999999841e+01 1.562115000000000009e+03
8.000000000000000167e-03 4.762020000000000142e-01 -1.789715000000000611e-01 9.235769999999999413e+01 1.562019999999999982e+03
9.000000000000001055e-03 4.760940000000000172e-01 -4.458000000000000851e-01 9.176939999999999031e+01 1.561880000000000109e+03
1.000000000000000194e-02 4.759369999999999989e-01 -8.317449999999999566e-01 9.093035000000000423e+01 1.561680000000000064e+03
1.099999999999999936e-02 4.757210000000000050e-01 -1.350265000000000049e+00 8.978940000000000055e+01 1.561394999999999982e+03
1.200000000000000025e-02 4.754369999999999985e-01 -2.006639999999999979e+00 8.830180000000000007e+01 1.561025000000000091e+03
1.300000000000000114e-02 4.751009999999999955e-01 -2.746024999999999938e+00 8.649854999999999450e+01 1.560554999999999836e+03
1.400000000000000203e-02 4.747514999999999930e-01 -3.449189999999999756e+00 8.451335000000000264e+01 1.560029999999999973e+03
1.499999999999999944e-02 4.744340000000000224e-01 -3.983134999999999870e+00 8.253495000000000914e+01 1.559480000000000018e+03
1.600000000000000033e-02 4.741744999999999988e-01 -4.257550999999999419e+00 8.072929999999999495e+01 1.558954999999999927e+03
1.700000000000000122e-02 4.739775000000000515e-01 -4.250971500000000347e+00 7.918479999999999563e+01 1.558474999999999909e+03
1.800000000000000211e-02 4.738239999999999674e-01 -4.004110500000000350e+00 7.789849999999999852e+01 1.558050000000000182e+03
1.900000000000000300e-02 4.736854999999999816e-01 -3.594053000000000164e+00 7.679569999999999652e+01 1.557654999999999973e+03
2.000000000000000042e-02 4.735344999999999693e-01 -3.103356999999999921e+00 7.576740000000000919e+01 1.557284999999999854e+03
2.100000000000000130e-02 4.733545000000000114e-01 -2.594022499999999898e+00 7.471139999999999759e+01 1.556914999999999964e+03
2.200000000000000219e-02 4.731405000000000194e-01 -2.093374999999999986e+00 7.356344999999998890e+01 1.556525000000000091e+03
2.299999999999999961e-02 4.729004999999999459e-01 -1.595264999999999933e+00 7.230940000000001078e+01 1.556110000000000127e+03
2.400000000000000050e-02 4.726480000000000126e-01 -1.074354999999999949e+00 7.097620000000000573e+01 1.555674999999999955e+03
2.500000000000000139e-02 4.723950000000000093e-01 -5.061100000000000598e-01 6.960875000000000057e+01 1.555235000000000127e+03
2.600000000000000228e-02 4.721490000000000409e-01 1.161550000000000082e-01 6.824285000000000423e+01 1.554785000000000082e+03
2.700000000000000316e-02 4.719050000000000189e-01 7.726600000000001245e-01 6.688625000000000398e+01 1.554340000000000146e+03
2.800000000000000058e-02 4.716524999999999745e-01 1.418155000000000054e+00 6.551054999999999495e+01 1.553890000000000100e+03
2.900000000000000147e-02 4.713740000000000152e-01 1.990820000000000034e+00 6.405610000000000070e+01 1.553414999999999964e+03
3.000000000000000236e-02 4.710529999999999995e-01 2.425749999999999851e+00 6.244644999999999868e+01 1.552904999999999973e+03
3.099999999999999978e-02 4.706759999999999833e-01 2.669639999999999791e+00 6.060854999999999393e+01 1.552340000000000146e+03
3.200000000000000067e-02 4.702365000000000572e-01 2.693125000000000213e+00 5.849370000000000402e+01 1.551710000000000036e+03
3.300000000000000155e-02 4.697415000000000340e-01 2.497704999999999842e+00 5.609345000000000425e+01 1.551015000000000100e+03
3.400000000000000244e-02 4.692040000000000100e-01 2.115784999999999805e+00 5.344689999999999941e+01 1.550250000000000000e+03
3.500000000000000333e-02 4.686460000000000070e-01 1.604055000000000231e+00 5.063765000000000072e+01 1.549440000000000055e+03
3.600000000000000422e-02 4.680945000000000245e-01 1.032894999999999897e+00 4.778159999999999741e+01 1.548610000000000127e+03
3.700000000000000511e-02 4.675740000000000451e-01 4.745999999999996888e-01 4.501030000000000086e+01 1.547795000000000073e+03
3.799999999999999906e-02 4.671070000000000499e-01 -6.254999999999455440e-03 4.245420000000000016e+01 1.547025000000000091e+03
3.899999999999999994e-02 4.667120000000000157e-01 -3.587600000000001899e-01 4.022785000000000366e+01 1.546324999999999818e+03
4.000000000000000083e-02 4.663990000000000080e-01 -5.480550000000001809e-01 3.842099999999999937e+01 1.545734999999999900e+03
4.100000000000000172e-02 4.661764999999999937e-01 -5.542300000000002225e-01 3.709459999999999980e+01 1.545269999999999982e+03
4.200000000000000261e-02 4.660444999999999727e-01 -3.691749999999998089e-01 3.628159999999999741e+01 1.544949999999999818e+03
4.300000000000000350e-02 4.660035000000000149e-01 7.499999999999951150e-03 3.599125000000000085e+01 1.544764999999999873e+03
4.400000000000000439e-02 4.660509999999999931e-01 5.724183499999999647e-01 3.621519999999999584e+01 1.544730000000000018e+03
4.499999999999999833e-02 4.661819999999999853e-01 1.321136499999999936e+00 3.693394999999999584e+01 1.544840000000000146e+03
4.599999999999999922e-02 4.663944999999999896e-01 2.249430000000000263e+00 3.812160000000000082e+01 1.545090000000000146e+03
4.700000000000000011e-02 4.666829999999999590e-01 3.352984999999999882e+00 3.974909999999999854e+01 1.545474999999999909e+03
4.800000000000000100e-02 4.670440000000000147e-01 4.626000000000000334e+00 4.178525000000000489e+01 1.545985000000000127e+03
4.900000000000000189e-02 4.674705000000000110e-01 6.059581999999999802e+00 4.419594999999999629e+01 1.546614999999999782e+03
5.000000000000000278e-02 4.679569999999999563e-01 7.639852499999999935e+00 4.694304999999999950e+01 1.547345000000000027e+03
5.100000000000000366e-02 4.684954999999999536e-01 9.347719999999998919e+00 4.998329999999999984e+01 1.548175000000000182e+03
5.200000000000000455e-02 4.690750000000000197e-01 1.115863500000000030e+01 5.326805000000000234e+01 1.549085000000000036e+03
5.300000000000000544e-02 4.696875000000000355e-01 1.304394999999999882e+01 5.674410000000000309e+01 1.550065000000000055e+03
5.399999999999999939e-02 4.703215000000000034e-01 1.497267499999999885e+01 6.035550000000000637e+01 1.551095000000000027e+03
5.500000000000000028e-02 4.709665000000000656e-01 1.691348500000000143e+01 6.404640000000000555e+01 1.552164999999999964e+03
5.600000000000000117e-02 4.716139999999999777e-01 1.883689999999999998e+01 6.776370000000000005e+01 1.553250000000000000e+03
5.700000000000000205e-02 4.722549999999999804e-01 2.071689999999999898e+01 7.146045000000000869e+01 1.554349999999999909e+03
5.800000000000000294e-02 4.728849999999999998e-01 2.253224999999999767e+01 7.509765000000000157e+01 1.555444999999999936e+03
5.900000000000000383e-02 4.734990000000000032e-01 2.426709999999999923e+01 7.864619999999999322e+01 1.556525000000000091e+03
6.000000000000000472e-02 4.740950000000000442e-01 2.591130000000000422e+01 8.208760000000000900e+01 1.557585000000000036e+03
6.099999999999999867e-02 4.746730000000000116e-01 2.745969999999999800e+01 8.541344999999999743e+01 1.558619999999999891e+03
6.199999999999999956e-02 4.752330000000000165e-01 2.891175000000000139e+01 8.862500000000000000e+01 1.559634999999999991e+03
6.300000000000000044e-02 4.757784999999999931e-01 3.027055000000000007e+01 9.173054999999999382e+01 1.560615000000000009e+03
6.400000000000000133e-02 4.763110000000000399e-01 3.154189999999999827e+01 9.474529999999998608e+01 1.561574999999999818e+03
6.500000000000000222e-02 4.768350000000000088e-01 3.273335000000000150e+01 9.768815000000000737e+01 1.562514999999999873e+03
6.600000000000000311e-02 4.773539999999999450e-01 3.385354999999999848e+01 1.005797499999999900e+02 1.563440000000000055e+03
6.700000000000000400e-02 4.778704999999999758e-01 3.491120000000000090e+01 1.034406999999999925e+02 1.564355000000000018e+03
6.800000000000000488e-02 4.783880000000000354e-01 3.591429999999999723e+01 1.062888999999999982e+02 1.565264999999999873e+03
6.900000000000000577e-02 4.789090000000000291e-01 3.686950000000000216e+01 1.091400000000000006e+02 1.566174999999999955e+03
7.000000000000000666e-02 4.794335000000000124e-01 3.778180000000000405e+01 1.120035000000000025e+02 1.567090000000000146e+03
7.100000000000000755e-02 4.799624999999999586e-01 3.865375000000000227e+01 1.148845000000000027e+02 1.568005000000000109e+03
7.200000000000000844e-02 4.804950000000000054e-01 3.948570000000000135e+01 1.177800000000000011e+02 1.568925000000000182e+03
7.300000000000000933e-02 4.810284999999999700e-01 4.027519999999999811e+01 1.206829999999999927e+02 1.569845000000000027e+03
7.399999999999999634e-02 4.815605000000000024e-01 4.101789999999999736e+01 1.235784999999999911e+02 1.570764999999999873e+03
7.499999999999999722e-02 4.820869999999999878e-01 4.170720000000000027e+01 1.264470000000000027e+02 1.571679999999999836e+03
7.599999999999999811e-02 4.826030000000000042e-01 4.233525000000000205e+01 1.292655000000000030e+02 1.572585000000000036e+03
7.699999999999999900e-02 4.831050000000000066e-01 4.289365000000000094e+01 1.320095000000000027e+02 1.573464999999999918e+03
7.799999999999999989e-02 4.835875000000000590e-01 4.337330000000000041e+01 1.346510000000000105e+02 1.574315000000000055e+03
7.900000000000000078e-02 4.840455000000000174e-01 4.376599999999999824e+01 1.371645000000000039e+02 1.575139999999999873e+03
8.000000000000000167e-02 4.844765000000000321e-01 4.406414999999999793e+01 1.395260000000000105e+02 1.575920000000000073e+03
8.100000000000000255e-02 4.848755000000000148e-01 4.426174999999999926e+01 1.417139999999999986e+02 1.576644999999999982e+03
8.200000000000000344e-02 4.852400000000000047e-01 4.435429999999999495e+01 1.437110000000000127e+02 1.577325000000000045e+03
8.300000000000000433e-02 4.855684999999999585e-01 4.433950000000000102e+01 1.455045000000000073e+02 1.577940000000000055e+03
8.400000000000000522e-02 4.858589999999999853e-01 4.421699999999999875e+01 1.470869999999999891e+02 1.578500000000000000e+03
8.500000000000000611e-02 4.861125000000000029e-01 4.398875000000000313e+01 1.484554999999999723e+02 1.578990000000000009e+03
8.600000000000000699e-02 4.863290000000000113e-01 4.365854999999999819e+01 1.496125000000000114e+02 1.579410000000000082e+03
8.700000000000000788e-02 4.865099999999999980e-01 4.323264999999999958e+01 1.505649999999999977e+02 1.579779999999999973e+03
8.800000000000000877e-02 4.866580000000000350e-01 4.271885000000000332e+01 1.513245000000000005e+02 1.580079999999999927e+03
8.899999999999999578e-02 4.867744999999999989e-01 4.212669999999999959e+01 1.519064999999999941e+02 1.580325000000000045e+03
8.999999999999999667e-02 4.868640000000000190e-01 4.146710000000000207e+01 1.523290000000000077e+02 1.580519999999999982e+03
9.099999999999999756e-02 4.869300000000000295e-01 4.075195000000000078e+01 1.526129999999999995e+02 1.580664999999999964e+03
9.199999999999999845e-02 4.869755000000000056e-01 3.999370000000000402e+01 1.527800000000000011e+02 1.580769999999999982e+03
9.299999999999999933e-02 4.870054999999999801e-01 3.920499999999999829e+01 1.528524999999999920e+02 1.580845000000000027e+03
9.400000000000000022e-02 4.870229999999999837e-01 3.839825000000000443e+01 1.528539999999999850e+02 1.580884999999999991e+03
9.500000000000000111e-02 4.870315000000000061e-01 3.758509999999999707e+01 1.528045000000000186e+02 1.580905000000000200e+03
9.600000000000000200e-02 4.870355000000000101e-01 3.677620000000000289e+01 1.527249999999999943e+02 1.580914999999999964e+03
9.700000000000000289e-02 4.870364999999999833e-01 3.598049999999999926e+01 1.526310000000000002e+02 1.580910000000000082e+03
9.800000000000000377e-02 4.870369999999999977e-01 3.520534999999999570e+01 1.525364999999999895e+02 1.580894999999999982e+03
9.900000000000000466e-02 4.870389999999999997e-01 3.445615000000000094e+01 1.524519999999999982e+02 1.580880000000000109e+03
1.000000000000000056e-01 4.870424999999999338e-01 3.373600000000000421e+01 1.523824999999999932e+02 1.580869999999999891e+03
1.010000000000000064e-01 4.870474999999999666e-01 3.304605000000000103e+01 1.523309999999999889e+02 1.580860000000000127e+03
1.020000000000000073e-01 4.870545000000000568e-01 3.238555000000000206e+01 1.522969999999999970e+02 1.580845000000000027e+03
1.030000000000000082e-01 4.870619999999999949e-01 3.175175000000000125e+01 1.522740000000000009e+02 1.580845000000000027e+03
1.040000000000000091e-01 4.870689999999999742e-01 3.114079999999999870e+01 1.522554999999999836e+02 1.580835000000000036e+03
1.050000000000000100e-01 4.870720000000000049e-01 3.054724999999999824e+01 1.522314999999999827e+02 1.580824999999999818e+03
1.059999999999999970e-01 4.870714999999999906e-01 2.996515000000000128e+01 1.521904999999999859e+02 1.580809999999999945e+03
1.069999999999999979e-01 4.870634999999999826e-01 2.938819999999999766e+01 1.521204999999999927e+02 1.580784999999999854e+03
1.079999999999999988e-01 4.870465000000000488e-01 2.880985000000000085e+01 1.520104999999999791e+02 1.580755000000000109e+03
1.089999999999999997e-01 4.870194999999999941e-01 2.822409999999999997e+01 1.518489999999999895e+02 1.580710000000000036e+03
1.100000000000000006e-01 4.869795000000000096e-01 2.762550000000000239e+01 1.516254999999999882e+02 1.580644999999999982e+03
1.110000000000000014e-01 4.869269999999999987e-01 2.700960000000000250e+01 1.513330000000000268e+02 1.580559999999999945e+03
1.120000000000000023e-01 4.868599999999999595e-01 2.637300000000000111e+01 1.509660000000000082e+02 1.580460000000000036e+03
1.130000000000000032e-01 4.867789999999999617e-01 2.571375000000000099e+01 1.505215000000000032e+02 1.580329999999999927e+03
1.140000000000000041e-01 4.866834999999999911e-01 2.503125000000000000e+01 1.499985000000000070e+02 1.580184999999999945e+03
1.150000000000000050e-01 4.865745000000000209e-01 2.432639999999999958e+01 1.494014999999999986e+02 1.580014999999999873e+03
1.160000000000000059e-01 4.864545000000000119e-01 2.360150000000000148e+01 1.487355000000000018e+02 1.579824999999999818e+03
1.170000000000000068e-01 4.863230000000000053e-01 2.286029999999999873e+01 1.480085000000000264e+02 1.579610000000000127e+03
1.180000000000000077e-01 4.861834999999999907e-01 2.210770000000000124e+01 1.472309999999999945e+02 1.579384999999999991e+03
1.190000000000000085e-01 4.860379999999999701e-01 2.134969999999999857e+01 1.464155000000000086e+02 1.579144999999999982e+03
1.200000000000000094e-01 4.858890000000000153e-01 2.059294999999999831e+01 1.455754999999999768e+02 1.578894999999999982e+03
1.209999999999999964e-01 4.857384999999999620e-01 1.984464999999999790e+01 1.447264999999999873e+02 1.578634999999999991e+03
1.219999999999999973e-01 4.855899999999999661e-01 1.911244999999999905e+01 1.438820000000000050e+02 1.578380000000000109e+03
1.229999999999999982e-01 4.854460000000000441e-01 1.840360000000000085e+01 1.430575000000000045e+02 1.578125000000000000e+03
1.239999999999999991e-01 4.853084999999999760e-01 1.772530000000000072e+01 1.422669999999999959e+02 1.577880000000000109e+03
1.250000000000000000e-01 4.851800000000000002e-01 1.708395000000000152e+01 1.415225000000000080e+02 1.577644999999999982e+03
1.260000000000000009e-01 4.850619999999999932e-01 1.648519999999999897e+01 1.408354999999999961e+02 1.577420000000000073e+03
1.270000000000000018e-01 4.849559999999999982e-01 1.593365000000000009e+01 1.402135000000000105e+02 1.577220000000000027e+03
1.280000000000000027e-01 4.848624999999999741e-01 1.543250000000000099e+01 1.396639999999999873e+02 1.577030000000000200e+03
1.290000000000000036e-01 4.847830000000000195e-01 1.498395000000000010e+01 1.391904999999999859e+02 1.576865000000000009e+03
1.300000000000000044e-01 4.847164999999999946e-01 1.458875000000000099e+01 1.387934999999999945e+02 1.576724999999999909e+03
1.310000000000000053e-01 4.846635000000000248e-01 1.424624999999999986e+01 1.384724999999999966e+02 1.576605000000000018e+03
1.320000000000000062e-01 4.846219999999999972e-01 1.395469999999999899e+01 1.382244999999999777e+02 1.576509999999999991e+03
1.330000000000000071e-01 4.845929999999999960e-01 1.371134999999999948e+01 1.380424999999999898e+02 1.576429999999999836e+03
1.340000000000000080e-01 4.845724999999999616e-01 1.351235000000000142e+01 1.379200000000000159e+02 1.576369999999999891e+03
1.350000000000000089e-01 4.845610000000000195e-01 1.335324999999999918e+01 1.378485000000000014e+02 1.576325000000000045e+03
1.360000000000000098e-01 4.845564999999999456e-01 1.322909999999999897e+01 1.378195000000000050e+02 1.576295000000000073e+03
1.370000000000000107e-01 4.845564999999999456e-01 1.313465000000000060e+01 1.378229999999999791e+02 1.576279999999999973e+03
1.380000000000000115e-01 4.845599999999999907e-01 1.306455000000000055e+01 1.378494999999999777e+02 1.576264999999999873e+03
1.390000000000000124e-01 4.845654999999999824e-01 1.301360000000000028e+01 1.378899999999999864e+02 1.576264999999999873e+03
1.400000000000000133e-01 4.845715000000000439e-01 1.297680000000000078e+01 1.379354999999999905e+02 1.576264999999999873e+03
1.410000000000000142e-01 4.845765000000000211e-01 1.294975000000000165e+01 1.379809999999999945e+02 1.576275000000000091e+03
1.420000000000000151e-01 4.845804999999999696e-01 1.292835000000000001e+01 1.380185000000000173e+02 1.576275000000000091e+03
1.430000000000000160e-01 4.845819999999999572e-01 1.290920000000000023e+01 1.380444999999999993e+02 1.576275000000000091e+03
1.440000000000000169e-01 4.845804999999999696e-01 1.288945000000000007e+01 1.380550000000000068e+02 1.576275000000000091e+03
1.450000000000000178e-01 4.845760000000000067e-01 1.286700000000000088e+01 1.380484999999999900e+02 1.576269999999999982e+03
1.459999999999999909e-01 4.845684999999999576e-01 1.284040000000000070e+01 1.380244999999999891e+02 1.576259999999999991e+03
1.469999999999999918e-01 4.845585000000000031e-01 1.280855000000000032e+01 1.379834999999999923e+02 1.576250000000000000e+03
1.479999999999999927e-01 4.845455000000000179e-01 1.277120000000000033e+01 1.379254999999999995e+02 1.576230000000000018e+03
1.489999999999999936e-01 4.845304999999999751e-01 1.272834999999999894e+01 1.378539999999999850e+02 1.576210000000000036e+03
1.499999999999999944e-01 4.845140000000000002e-01 1.268060000000000009e+01 1.377719999999999914e+02 1.576184999999999945e+03
1.509999999999999953e-01 4.844964999999999966e-01 1.262870000000000026e+01 1.376820000000000164e+02 1.576159999999999854e+03
1.519999999999999962e-01 4.844780000000000197e-01 1.257394999999999996e+01 1.375874999999999773e+02 1.576130000000000109e+03
1.529999999999999971e-01 4.844600000000000017e-01 1.251745000000000019e+01 1.374920000000000186e+02 1.576105000000000018e+03
1.539999999999999980e-01 4.844430000000000125e-01 1.246065000000000111e+01 1.373990000000000009e+02 1.576075000000000045e+03
1.549999999999999989e-01 4.844270000000000520e-01 1.240479999999999983e+01 1.373115000000000236e+02 1.576050000000000182e+03
1.559999999999999998e-01 4.844129999999999825e-01 1.235130000000000017e+01 1.372319999999999993e+02 1.576025000000000091e+03
1.570000000000000007e-01 4.844005000000000116e-01 1.230114999999999981e+01 1.371630000000000109e+02 1.576005000000000109e+03
1.580000000000000016e-01 4.843905000000000571e-01 1.225525000000000020e+01 1.371059999999999945e+02 1.575984999999999900e+03
1.590000000000000024e-01 4.843830000000000080e-01 1.221424999999999983e+01 1.370609999999999786e+02 1.575969999999999800e+03
