# t [s], A [cm^2], U [cm/s], P [cPa], c [cm/s]
1.000000000000000021e-03 1.265149999999999886e-01 3.504605000000000081e-01 8.830124999999999602e+01 1.966744999999999891e+03
2.000000000000000042e-03 1.264875000000000027e-01 1.790496499999999935e+00 8.522299999999999898e+01 1.966394999999999982e+03
3.000000000000000062e-03 1.264069999999999916e-01 3.527280999999999889e+00 8.117529999999999291e+01 1.965384999999999991e+03
4.000000000000000083e-03 1.262929999999999886e-01 5.457265500000000102e+00 7.687104999999999677e+01 1.963985000000000127e+03
5.000000000000000104e-03 1.261670000000000014e-01 7.523220000000000240e+00 7.305359999999998877e+01 1.962454999999999927e+03
6.000000000000000125e-03 1.260435000000000028e-01 9.581350000000000477e+00 6.995255000000000223e+01 1.960960000000000036e+03
7.000000000000000146e-03 1.259254999999999958e-01 1.145372000000000057e+01 6.734130000000000393e+01 1.959559999999999945e+03
8.000000000000000167e-03 1.258154999999999968e-01 1.306268999999999991e+01 6.498470000000000368e+01 1.958279999999999973e+03
9.000000000000001055e-03 1.257159999999999944e-01 1.443580000000000041e+01 6.289405000000000001e+01 1.957134999999999991e+03
1.000000000000000194e-02 1.256289999999999907e-01 1.560550000000000104e+01 6.113845000000000596e+01 1.956144999999999982e+03
1.099999999999999936e-02 1.255554999999999866e-01 1.658145000000000024e+01 5.970120000000000005e+01 1.955309999999999945e+03
1.200000000000000025e-02 1.254935000000000078e-01 1.737015000000000242e+01 5.852439999999999998e+01 1.954619999999999891e+03
1.300000000000000114e-02 1.254419999999999980e-01 1.797565000000000168e+01 5.753614999999999924e+01 1.954054999999999836e+03
1.400000000000000203e-02 1.253984999999999961e-01 1.840324999999999989e+01 5.665179999999999438e+01 1.953579999999999927e+03
1.499999999999999944e-02 1.253599999999999992e-01 1.868844999999999956e+01 5.584244999999999948e+01 1.953170000000000073e+03
1.600000000000000033e-02 1.253289999999999960e-01 1.891939999999999955e+01 5.522560000000000002e+01 1.952845000000000027e+03
1.700000000000000122e-02 1.253090000000000037e-01 1.921705000000000041e+01 5.505870000000000175e+01 1.952639999999999873e+03
1.800000000000000211e-02 1.253055000000000141e-01 1.968055000000000021e+01 5.560764999999999958e+01 1.952610000000000127e+03
1.900000000000000300e-02 1.253229999999999900e-01 2.033695000000000164e+01 5.697955000000000325e+01 1.952809999999999945e+03
2.000000000000000042e-02 1.253599999999999992e-01 2.112519999999999953e+01 5.902955000000000041e+01 1.953230000000000018e+03
2.100000000000000130e-02 1.254109999999999947e-01 2.191980000000000217e+01 6.138840000000000430e+01 1.953815000000000055e+03
2.200000000000000219e-02 1.254669999999999952e-01 2.257744999999999891e+01 6.358554999999999779e+01 1.954460000000000036e+03
2.299999999999999961e-02 1.255189999999999917e-01 2.298519999999999897e+01 6.520265000000000555e+01 1.955065000000000055e+03
2.400000000000000050e-02 1.255580000000000029e-01 2.309159999999999968e+01 6.599575000000000102e+01 1.955525000000000091e+03
2.500000000000000139e-02 1.255795000000000106e-01 2.291380000000000194e+01 6.594550000000000978e+01 1.955795000000000073e+03
2.600000000000000228e-02 1.255834999999999868e-01 2.252120000000000033e+01 6.522905000000000086e+01 1.955869999999999891e+03
2.700000000000000316e-02 1.255745000000000056e-01 2.200534999999999997e+01 6.413394999999999868e+01 1.955785000000000082e+03
2.800000000000000058e-02 1.255565000000000153e-01 2.144850000000000279e+01 6.295114999999999839e+01 1.955595000000000027e+03
2.900000000000000147e-02 1.255354999999999943e-01 2.090144999999999698e+01 6.188774999999999693e+01 1.955365000000000009e+03
3.000000000000000236e-02 1.255149999999999877e-01 2.037650000000000006e+01 6.102344999999999686e+01 1.955130000000000109e+03
3.099999999999999978e-02 1.254955000000000098e-01 1.985459999999999781e+01 6.031745000000000090e+01 1.954914999999999964e+03
3.200000000000000067e-02 1.254764999999999908e-01 1.930180000000000007e+01 5.965330000000000155e+01 1.954694999999999936e+03
3.300000000000000155e-02 1.254564999999999986e-01 1.868844999999999956e+01 5.890139999999999532e+01 1.954470000000000027e+03
3.400000000000000244e-02 1.254330000000000167e-01 1.800544999999999973e+01 5.797814999999999941e+01 1.954204999999999927e+03
3.500000000000000333e-02 1.254059999999999897e-01 1.727240000000000109e+01 5.688450000000000273e+01 1.953900000000000091e+03
3.600000000000000422e-02 1.253750000000000142e-01 1.653699999999999903e+01 5.571474999999999511e+01 1.953554999999999836e+03
3.700000000000000511e-02 1.253440000000000110e-01 1.586495000000000033e+01 5.463550000000000040e+01 1.953204999999999927e+03
3.799999999999999906e-02 1.253170000000000117e-01 1.532434999999999903e+01 5.384099999999999397e+01 1.952894999999999982e+03
3.899999999999999994e-02 1.252969999999999917e-01 1.496904999999999930e+01 5.350079999999999814e+01 1.952664999999999964e+03
4.000000000000000083e-02 1.252890000000000115e-01 1.482545000000000002e+01 5.371285000000000309e+01 1.952559999999999945e+03
4.100000000000000172e-02 1.252940000000000165e-01 1.488584999999999958e+01 5.447625000000000028e+01 1.952605000000000018e+03
4.200000000000000261e-02 1.253124999999999933e-01 1.510944999999999894e+01 5.568809999999999860e+01 1.952795000000000073e+03
4.300000000000000350e-02 1.253404999999999936e-01 1.543029999999999902e+01 5.716264999999999930e+01 1.953105000000000018e+03
4.400000000000000439e-02 1.253744999999999998e-01 1.576880000000000059e+01 5.866680000000000206e+01 1.953485000000000127e+03
4.499999999999999833e-02 1.254095000000000071e-01 1.604449999999999932e+01 5.996094999999999686e+01 1.953875000000000000e+03
4.599999999999999922e-02 1.254394999999999816e-01 1.618744999999999834e+01 6.083669999999999334e+01 1.954220000000000027e+03
4.700000000000000011e-02 1.254599999999999882e-01 1.614574999999999960e+01 6.114385000000000048e+01 1.954450000000000045e+03
4.800000000000000100e-02 1.254669999999999952e-01 1.588954999999999984e+01 6.080429999999999779e+01 1.954539999999999964e+03
4.900000000000000189e-02 1.254585000000000006e-01 1.541049999999999898e+01 5.981140000000000612e+01 1.954454999999999927e+03
5.000000000000000278e-02 1.254339999999999899e-01 1.471915000000000084e+01 5.821925000000000239e+01 1.954184999999999945e+03
5.100000000000000366e-02 1.253940000000000055e-01 1.384009999999999962e+01 5.612475000000000591e+01 1.953744999999999891e+03
5.200000000000000455e-02 1.253409999999999802e-01 1.280668499999999987e+01 5.364849999999999852e+01 1.953144999999999982e+03
5.300000000000000544e-02 1.252769999999999995e-01 1.165705999999999953e+01 5.091785000000000139e+01 1.952424999999999955e+03
5.399999999999999939e-02 1.252050000000000107e-01 1.043096000000000068e+01 4.805499999999999972e+01 1.951609999999999900e+03
5.500000000000000028e-02 1.251279999999999892e-01 9.167944999999999567e+00 4.517074999999999818e+01 1.950735000000000127e+03
5.600000000000000117e-02 1.250485000000000069e-01 7.907015000000000349e+00 4.236319999999999908e+01 1.949835000000000036e+03
5.700000000000000205e-02 1.249695000000000111e-01 6.686689999999999579e+00 3.972019999999999840e+01 1.948934999999999945e+03
5.800000000000000294e-02 1.248940000000000050e-01 5.545209999999999972e+00 3.732229999999999848e+01 1.948075000000000045e+03
5.900000000000000383e-02 1.248240000000000044e-01 4.520794999999999675e+00 3.524629999999999797e+01 1.947269999999999982e+03
6.000000000000000472e-02 1.247610000000000108e-01 3.651024999999999743e+00 3.356680000000000064e+01 1.946559999999999945e+03
6.099999999999999867e-02 1.247095000000000009e-01 2.971875999999999962e+00 3.235519999999999641e+01 1.945954999999999927e+03
6.199999999999999956e-02 1.246695000000000025e-01 2.516224999999999934e+00 3.167759999999999820e+01 1.945494999999999891e+03
6.300000000000000044e-02 1.246444999999999914e-01 2.312030000000000030e+00 3.159035000000000082e+01 1.945195000000000164e+03
6.400000000000000133e-02 1.246354999999999963e-01 2.380570000000000075e+00 3.213589999999999947e+01 1.945074999999999818e+03
6.500000000000000222e-02 1.246434999999999904e-01 2.734949999999999992e+00 3.333809999999999718e+01 1.945150000000000091e+03
6.600000000000000311e-02 1.246700000000000030e-01 3.379055000000000142e+00 3.519960000000000377e+01 1.945430000000000064e+03
6.700000000000000400e-02 1.247145000000000059e-01 4.307220000000000049e+00 3.770049999999999812e+01 1.945920000000000073e+03
6.800000000000000488e-02 1.247780000000000000e-01 5.504540000000000433e+00 4.079879999999999995e+01 1.946619999999999891e+03
6.900000000000000577e-02 1.248579999999999968e-01 6.947740000000000471e+00 4.443319999999999936e+01 1.947514999999999873e+03
7.000000000000000666e-02 1.249544999999999961e-01 8.606594999999998663e+00 4.852649999999999864e+01 1.948590000000000146e+03
7.100000000000000755e-02 1.250640000000000085e-01 1.044578000000000095e+01 5.299075000000000557e+01 1.949829999999999927e+03
7.200000000000000844e-02 1.251865000000000061e-01 1.242643999999999949e+01 5.773245000000000005e+01 1.951204999999999927e+03
7.300000000000000933e-02 1.253170000000000117e-01 1.450865000000000116e+01 6.265765000000000384e+01 1.952690000000000055e+03
7.399999999999999634e-02 1.254549999999999832e-01 1.665289999999999893e+01 6.767695000000000505e+01 1.954259999999999991e+03
7.499999999999999722e-02 1.255970000000000142e-01 1.882215000000000060e+01 7.270974999999999966e+01 1.955889999999999873e+03
7.599999999999999811e-02 1.257419999999999927e-01 2.098315000000000197e+01 7.768780000000000996e+01 1.957545000000000073e+03
7.699999999999999900e-02 1.258865000000000123e-01 2.310764999999999958e+01 8.255764999999999532e+01 1.959204999999999927e+03
7.799999999999999989e-02 1.260300000000000031e-01 2.517334999999999923e+01 8.728204999999999814e+01 1.960865000000000009e+03
7.900000000000000078e-02 1.261710000000000054e-01 2.716434999999999889e+01 9.184004999999999086e+01 1.962494999999999891e+03
8.000000000000000167e-02 1.263084999999999902e-01 2.907099999999999795e+01 9.622745000000000459e+01 1.964095000000000027e+03
8.100000000000000255e-02 1.264425000000000132e-01 3.088949999999999818e+01 1.004516500000000008e+02 1.965650000000000091e+03
8.200000000000000344e-02 1.265725000000000044e-01 3.262120000000000175e+01 1.045337999999999994e+02 1.967170000000000073e+03
8.300000000000000433e-02 1.266990000000000061e-01 3.427150000000000318e+01 1.085005000000000024e+02 1.968654999999999973e+03
8.400000000000000522e-02 1.268235000000000057e-01 3.584855000000000302e+01 1.123834999999999980e+02 1.970105000000000018e+03
8.500000000000000611e-02 1.269450000000000023e-01 3.736209999999999809e+01 1.162139999999999986e+02 1.971534999999999854e+03
8.600000000000000699e-02 1.270654999999999979e-01 3.882195000000000107e+01 1.200215000000000032e+02 1.972950000000000045e+03
8.700000000000000788e-02 1.271849999999999925e-01 4.023729999999999762e+01 1.238284999999999911e+02 1.974349999999999909e+03
8.800000000000000877e-02 1.273040000000000005e-01 4.161509999999999820e+01 1.276504999999999939e+02 1.975759999999999991e+03
8.899999999999999578e-02 1.274230000000000085e-01 4.296030000000000371e+01 1.314939999999999998e+02 1.977160000000000082e+03
8.999999999999999667e-02 1.275425000000000031e-01 4.427454999999999785e+01 1.353550000000000182e+02 1.978570000000000164e+03
9.099999999999999756e-02 1.276625000000000121e-01 4.555660000000000309e+01 1.392219999999999800e+02 1.979985000000000127e+03
9.199999999999999845e-02 1.277814999999999923e-01 4.680219999999999914e+01 1.430755000000000052e+02 1.981394999999999982e+03
9.299999999999999933e-02 1.279005000000000003e-01 4.800430000000000064e+01 1.468860000000000241e+02 1.982799999999999955e+03
9.400000000000000022e-02 1.280179999999999929e-01 4.915380000000000393e+01 1.506239999999999952e+02 1.984190000000000055e+03
9.500000000000000111e-02 1.281329999999999969e-01 5.023964999999999748e+01 1.542520000000000095e+02 1.985559999999999945e+03
9.600000000000000200e-02 1.282455000000000123e-01 5.124985000000000213e+01 1.577339999999999804e+02 1.986894999999999982e+03
9.700000000000000289e-02 1.283539999999999959e-01 5.217210000000000036e+01 1.610324999999999989e+02 1.988179999999999836e+03
9.800000000000000377e-02 1.284569999999999879e-01 5.299415000000000475e+01 1.641140000000000043e+02 1.989410000000000082e+03
9.900000000000000466e-02 1.285540000000000016e-01 5.370454999999999757e+01 1.669465000000000146e+02 1.990565000000000055e+03
1.000000000000000056e-01 1.286440000000000083e-01 5.429354999999999620e+01 1.695035000000000025e+02 1.991644999999999982e+03
1.010000000000000064e-01 1.287264999999999937e-01 5.475300000000000011e+01 1.717644999999999982e+02 1.992639999999999873e+03
1.020000000000000073e-01 1.288009999999999988e-01 5.507735000000000269e+01 1.737160000000000082e+02 1.993529999999999973e+03
1.030000000000000082e-01 1.288660000000000083e-01 5.526350000000000051e+01 1.753489999999999895e+02 1.994320000000000164e+03
1.040000000000000091e-01 1.289224999999999954e-01 5.531134999999999735e+01 1.766639999999999873e+02 1.995005000000000109e+03
1.050000000000000100e-01 1.289700000000000013e-01 5.522369999999999379e+01 1.776684999999999945e+02 1.995585000000000036e+03
1.059999999999999970e-01 1.290084999999999982e-01 5.500634999999999764e+01 1.783759999999999764e+02 1.996050000000000182e+03
1.069999999999999979e-01 1.290379999999999860e-01 5.466785000000000139e+01 1.788064999999999998e+02 1.996414999999999964e+03
1.079999999999999988e-01 1.290594999999999937e-01 5.421909999999999741e+01 1.789869999999999948e+02 1.996680000000000064e+03
1.089999999999999997e-01 1.290729999999999933e-01 5.367305000000000348e+01 1.789459999999999980e+02 1.996860000000000127e+03
1.100000000000000006e-01 1.290804999999999869e-01 5.304435000000000144e+01 1.787169999999999845e+02 1.996954999999999927e+03
1.110000000000000014e-01 1.290810000000000013e-01 5.234834999999999638e+01 1.783350000000000080e+02 1.996980000000000018e+03
1.120000000000000023e-01 1.290775000000000117e-01 5.160094999999999743e+01 1.778349999999999795e+02 1.996940000000000055e+03
1.130000000000000032e-01 1.290689999999999893e-01 5.081765000000000043e+01 1.772500000000000000e+02 1.996849999999999909e+03
1.140000000000000041e-01 1.290580000000000060e-01 5.001345000000000596e+01 1.766109999999999900e+02 1.996714999999999918e+03
1.150000000000000050e-01 1.290439999999999920e-01 4.920165000000000077e+01 1.759464999999999861e+02 1.996559999999999945e+03
1.160000000000000059e-01 1.290284999999999904e-01 4.839419999999999789e+01 1.752789999999999964e+02 1.996385000000000218e+03
1.170000000000000068e-01 1.290125000000000022e-01 4.760065000000000168e+01 1.746265000000000214e+02 1.996190000000000055e+03
1.180000000000000077e-01 1.289959999999999996e-01 4.682860000000000156e+01 1.740020000000000095e+02 1.995994999999999891e+03
1.190000000000000085e-01 1.289794999999999969e-01 4.608294999999999675e+01 1.734120000000000061e+02 1.995799999999999955e+03
1.200000000000000094e-01 1.289635000000000087e-01 4.536639999999999873e+01 1.728584999999999923e+02 1.995605000000000018e+03
1.209999999999999964e-01 1.289480000000000071e-01 4.467929999999999779e+01 1.723385000000000105e+02 1.995420000000000073e+03
1.219999999999999973e-01 1.289325000000000054e-01 4.401980000000000359e+01 1.718439999999999941e+02 1.995235000000000127e+03
1.229999999999999982e-01 1.289180000000000048e-01 4.338425000000000153e+01 1.713634999999999877e+02 1.995055000000000064e+03
1.239999999999999991e-01 1.289035000000000042e-01 4.276749999999999829e+01 1.708834999999999980e+02 1.994880000000000109e+03
1.250000000000000000e-01 1.288890000000000036e-01 4.216320000000000334e+01 1.703870000000000005e+02 1.994704999999999927e+03
1.260000000000000009e-01 1.288735000000000019e-01 4.156425000000000125e+01 1.698575000000000159e+02 1.994519999999999982e+03
1.270000000000000018e-01 1.288575000000000137e-01 4.096334999999999837e+01 1.692775000000000034e+02 1.994319999999999936e+03
1.280000000000000027e-01 1.288390000000000091e-01 4.035314999999999941e+01 1.686315000000000168e+02 1.994109999999999900e+03
1.290000000000000036e-01 1.288199999999999901e-01 3.972695000000000221e+01 1.679060000000000059e+02 1.993875000000000000e+03
1.300000000000000044e-01 1.287984999999999824e-01 3.907895000000000607e+01 1.670885000000000105e+02 1.993615000000000009e+03
1.310000000000000053e-01 1.287739999999999996e-01 3.840435000000000088e+01 1.661709999999999923e+02 1.993329999999999927e+03
1.320000000000000062e-01 1.287470000000000003e-01 3.769989999999999952e+01 1.651490000000000009e+02 1.993009999999999991e+03
1.330000000000000071e-01 1.287174999999999847e-01 3.696399999999999864e+01 1.640225000000000080e+02 1.992655000000000200e+03
1.340000000000000080e-01 1.286845000000000072e-01 3.619669999999999987e+01 1.627944999999999993e+02 1.992269999999999982e+03
1.350000000000000089e-01 1.286490000000000133e-01 3.539979999999999905e+01 1.614724999999999966e+02 1.991849999999999909e+03
1.360000000000000098e-01 1.286105000000000165e-01 3.457689999999999486e+01 1.600685000000000002e+02 1.991394999999999982e+03
1.370000000000000107e-01 1.285705000000000042e-01 3.373304999999999865e+01 1.585974999999999966e+02 1.990914999999999964e+03
1.380000000000000115e-01 1.285274999999999890e-01 3.287474999999999881e+01 1.570765000000000100e+02 1.990414999999999964e+03
1.390000000000000124e-01 1.284835000000000005e-01 3.200960000000000605e+01 1.555260000000000105e+02 1.989889999999999873e+03
1.400000000000000133e-01 1.284379999999999966e-01 3.114584999999999937e+01 1.539675000000000011e+02 1.989355000000000018e+03
1.410000000000000142e-01 1.283929999999999794e-01 3.029245000000000232e+01 1.524225000000000136e+02 1.988815000000000055e+03
1.420000000000000151e-01 1.283475000000000033e-01 2.945820000000000149e+01 1.509125000000000227e+02 1.988280000000000200e+03
1.430000000000000160e-01 1.283019999999999994e-01 2.865180000000000149e+01 1.494574999999999818e+02 1.987744999999999891e+03
1.440000000000000169e-01 1.282584999999999975e-01 2.788129999999999953e+01 1.480760000000000218e+02 1.987224999999999909e+03
1.450000000000000178e-01 1.282169999999999976e-01 2.715374999999999872e+01 1.467844999999999800e+02 1.986730000000000018e+03
1.459999999999999909e-01 1.281774999999999998e-01 2.647514999999999930e+01 1.455949999999999989e+02 1.986259999999999991e+03
1.469999999999999918e-01 1.281404999999999905e-01 2.585020000000000095e+01 1.445169999999999959e+02 1.985819999999999936e+03
1.479999999999999927e-01 1.281065000000000120e-01 2.528200000000000003e+01 1.435570000000000164e+02 1.985414999999999964e+03
1.489999999999999936e-01 1.280755000000000088e-01 2.477219999999999800e+01 1.427164999999999964e+02 1.985045000000000073e+03
1.499999999999999944e-01 1.280479999999999952e-01 2.432110000000000127e+01 1.419945000000000164e+02 1.984715000000000146e+03
1.509999999999999953e-01 1.280239999999999989e-01 2.392735000000000056e+01 1.413855000000000075e+02 1.984425000000000182e+03
1.519999999999999962e-01 1.280024999999999913e-01 2.358854999999999791e+01 1.408845000000000027e+02 1.984164999999999964e+03
1.529999999999999971e-01 1.279845000000000010e-01 2.330109999999999815e+01 1.404814999999999827e+02 1.983944999999999936e+03
1.539999999999999980e-01 1.279689999999999994e-01 2.306054999999999922e+01 1.401655000000000086e+02 1.983764999999999873e+03
1.549999999999999989e-01 1.279565000000000008e-01 2.286180000000000234e+01 1.399244999999999948e+02 1.983610000000000127e+03
1.559999999999999998e-01 1.279465000000000185e-01 2.269924999999999926e+01 1.397460000000000093e+02 1.983484999999999900e+03
1.570000000000000007e-01 1.279385000000000105e-01 2.256714999999999804e+01 1.396179999999999950e+02 1.983380000000000109e+03
1.580000000000000016e-01 1.279315000000000035e-01 2.245964999999999989e+01 1.395275000000000034e+02 1.983299999999999955e+03
1.590000000000000024e-01 1.279264999999999985e-01 2.237109999999999843e+01 1.394635000000000105e+02 1.983235000000000127e+03
