# t [s], A [cm^2], U [cm/s], P [cPa], c [cm/s]
1.000000000000000021e-03 5.480469999999999509e-01 3.937950000000002559e-03 1.006599999999999966e+02 1.458865000000000009e+03
2.000000000000000042e-03 5.480384999999999840e-01 -1.563345500000000009e-03 1.006415000000000077e+02 1.458860000000000127e+03
3.000000000000000062e-03 5.480709999999999749e-01 5.528995000000000437e-02 1.006940000000000026e+02 1.458880000000000109e+03
4.000000000000000083e-03 5.481215000000000392e-01 1.464998999999999885e-01 1.008001500000000021e+02 1.458909999999999854e+03
5.000000000000000104e-03 5.481270000000000309e-01 1.664984999999999937e-01 1.008216500000000053e+02 1.458920000000000073e+03
6.000000000000000125e-03 5.480855000000000032e-01 1.031405000000000100e-01 1.007100000000000080e+02 1.458894999999999982e+03
7.000000000000000146e-03 5.480390000000000539e-01 2.501300000000000745e-02 1.005275000000000034e+02 1.458845000000000027e+03
8.000000000000000167e-03 5.479910000000000059e-01 -6.122199999999999864e-02 1.002930000000000064e+02 1.458785000000000082e+03
9.000000000000001055e-03 5.479104999999999670e-01 -2.147565000000000168e-01 9.994379999999999598e+01 1.458684999999999945e+03
1.000000000000000194e-02 5.477855000000000363e-01 -4.600750000000000117e-01 9.943260000000000787e+01 1.458545000000000073e+03
1.099999999999999936e-02 5.476130000000000164e-01 -7.981300000000000061e-01 9.873120000000000118e+01 1.458355000000000018e+03
1.200000000000000025e-02 5.473805000000000476e-01 -1.241845000000000088e+00 9.779765000000000441e+01 1.458095000000000027e+03
1.300000000000000114e-02 5.470779999999999532e-01 -1.795094999999999885e+00 9.659675000000000011e+01 1.457750000000000000e+03
1.400000000000000203e-02 5.467199999999999838e-01 -2.415169999999999817e+00 9.514645000000000152e+01 1.457325000000000045e+03
1.499999999999999944e-02 5.463434999999999819e-01 -3.009999999999999787e+00 9.353645000000000209e+01 1.456845000000000027e+03
1.600000000000000033e-02 5.459914999999999630e-01 -3.473100000000000076e+00 9.189754999999999541e+01 1.456335000000000036e+03
1.700000000000000122e-02 5.456944999999999713e-01 -3.724858000000000224e+00 9.035229999999999961e+01 1.455829999999999927e+03
1.800000000000000211e-02 5.454579999999999984e-01 -3.735095000000000276e+00 8.897534999999999172e+01 1.455355000000000018e+03
1.900000000000000300e-02 5.452684999999999338e-01 -3.522878149999999930e+00 8.777985000000001037e+01 1.454920000000000073e+03
2.000000000000000042e-02 5.450999999999999179e-01 -3.141312300000000057e+00 8.672505000000001019e+01 1.454509999999999991e+03
2.100000000000000130e-02 5.449230000000000462e-01 -2.656486500000000195e+00 8.573845000000000027e+01 1.454125000000000000e+03
2.200000000000000219e-02 5.447159999999999780e-01 -2.127361500000000127e+00 8.474164999999999281e+01 1.453730000000000018e+03
2.299999999999999961e-02 5.444685000000000219e-01 -1.591415000000000024e+00 8.367419999999999902e+01 1.453319999999999936e+03
2.400000000000000050e-02 5.441810000000000258e-01 -1.059165000000000134e+00 8.250865000000000293e+01 1.452889999999999873e+03
2.500000000000000139e-02 5.438674999999999482e-01 -5.185299999999999354e-01 8.125265000000000271e+01 1.452425000000000182e+03
2.600000000000000228e-02 5.435425000000000395e-01 5.360999999999993548e-02 7.993959999999999866e+01 1.451940000000000055e+03
2.700000000000000316e-02 5.432209999999999539e-01 6.774299999999997546e-01 7.861175000000000068e+01 1.451460000000000036e+03
2.800000000000000058e-02 5.429105000000000736e-01 1.358850000000000113e+00 7.730339999999999634e+01 1.450974999999999909e+03
2.900000000000000147e-02 5.426100000000000367e-01 2.083674999999999944e+00 7.602799999999999159e+01 1.450494999999999891e+03
3.000000000000000236e-02 5.423085000000000822e-01 2.817910000000000359e+00 7.477309999999999945e+01 1.450019999999999982e+03
3.099999999999999978e-02 5.419920000000000293e-01 3.513180000000000192e+00 7.350215000000000032e+01 1.449539999999999964e+03
3.200000000000000067e-02 5.416425000000000267e-01 4.115545000000000009e+00 7.216259999999999764e+01 1.449050000000000182e+03
3.300000000000000155e-02 5.412455000000000460e-01 4.575575000000000614e+00 7.069819999999999993e+01 1.448519999999999982e+03
3.400000000000000244e-02 5.407919999999999394e-01 4.858189999999999564e+00 6.906280000000000996e+01 1.447950000000000045e+03
3.500000000000000333e-02 5.402805000000000524e-01 4.949309999999999654e+00 6.723269999999999413e+01 1.447329999999999927e+03
3.600000000000000422e-02 5.397210000000000063e-01 4.858845000000000525e+00 6.521455000000000268e+01 1.446660000000000082e+03
3.700000000000000511e-02 5.391310000000000269e-01 4.618500000000000938e+00 6.304740000000000322e+01 1.445944999999999936e+03
3.799999999999999906e-02 5.385324999999999696e-01 4.276109999999999189e+00 6.079824999999999591e+01 1.445204999999999927e+03
3.899999999999999994e-02 5.379504999999999981e-01 3.887389999999999457e+00 5.855320000000000391e+01 1.444454999999999927e+03
4.000000000000000083e-02 5.374100000000000543e-01 3.508080000000000087e+00 5.640639999999999787e+01 1.443735000000000127e+03
4.100000000000000172e-02 5.369319999999999649e-01 3.187659999999999716e+00 5.444924999999999926e+01 1.443065000000000055e+03
4.200000000000000261e-02 5.365309999999999802e-01 2.965159999999999574e+00 5.276194999999999879e+01 1.442469999999999800e+03
4.300000000000000350e-02 5.362200000000000299e-01 2.868010000000000392e+00 5.140784999999999627e+01 1.441965000000000146e+03
4.400000000000000439e-02 5.360030000000000072e-01 2.912570000000000103e+00 5.043099999999999739e+01 1.441575000000000045e+03
4.499999999999999833e-02 5.358825000000000394e-01 3.106299499999999991e+00 4.985665000000000191e+01 1.441309999999999945e+03
4.599999999999999922e-02 5.358579999999999455e-01 3.450644999999999740e+00 4.969369999999999976e+01 1.441170000000000073e+03
4.700000000000000011e-02 5.359270000000000422e-01 3.943859999999999921e+00 4.993854999999999933e+01 1.441164999999999964e+03
4.800000000000000100e-02 5.360860000000000625e-01 4.583334999999999937e+00 5.057954999999999757e+01 1.441295000000000073e+03
4.900000000000000189e-02 5.363310000000000022e-01 5.366849999999999454e+00 5.160000000000000142e+01 1.441550000000000182e+03
5.000000000000000278e-02 5.366595000000000670e-01 6.292825000000000557e+00 5.298114999999999952e+01 1.441929999999999836e+03
5.100000000000000366e-02 5.370669999999999611e-01 7.359445000000000014e+00 5.470314999999999372e+01 1.442425000000000182e+03
5.200000000000000455e-02 5.375499999999999723e-01 8.563679999999999737e+00 5.674455000000000382e+01 1.443034999999999854e+03
5.300000000000000544e-02 5.381029999999999980e-01 9.899345000000000283e+00 5.908189999999999742e+01 1.443750000000000000e+03
5.399999999999999939e-02 5.387195000000000178e-01 1.135643499999999939e+01 6.168834999999999980e+01 1.444559999999999945e+03
5.500000000000000028e-02 5.393915000000000237e-01 1.292040500000000058e+01 6.453264999999998963e+01 1.445454999999999927e+03
5.600000000000000117e-02 5.401095000000000201e-01 1.457221000000000011e+01 6.757909999999999684e+01 1.446429999999999836e+03
5.700000000000000205e-02 5.408634999999999415e-01 1.628930000000000078e+01 7.078804999999999836e+01 1.447465000000000146e+03
5.800000000000000294e-02 5.416429999999999856e-01 1.804673999999999978e+01 7.411699999999999022e+01 1.448554999999999836e+03
5.900000000000000383e-02 5.424364999999999881e-01 1.981875000000000142e+01 7.752219999999999800e+01 1.449680000000000064e+03
6.000000000000000472e-02 5.432339999999999947e-01 2.158040000000000092e+01 8.096099999999999852e+01 1.450829999999999927e+03
6.099999999999999867e-02 5.440270000000000383e-01 2.330850000000000222e+01 8.439369999999999550e+01 1.451990000000000009e+03
6.199999999999999956e-02 5.448085000000000289e-01 2.498329999999999984e+01 8.778560000000000230e+01 1.453150000000000091e+03
6.300000000000000044e-02 5.455714999999999870e-01 2.658865000000000123e+01 9.110765000000000668e+01 1.454295000000000073e+03
6.400000000000000133e-02 5.463130000000000486e-01 2.811270000000000024e+01 9.433795000000000641e+01 1.455424999999999955e+03
6.500000000000000222e-02 5.470304999999999751e-01 2.954729999999999990e+01 9.746279999999998722e+01 1.456529999999999973e+03
6.600000000000000311e-02 5.477235000000000298e-01 3.088820000000000121e+01 1.004740999999999929e+02 1.457595000000000027e+03
6.700000000000000400e-02 5.483924999999999494e-01 3.213429999999999609e+01 1.033705999999999960e+02 1.458639999999999873e+03
6.800000000000000488e-02 5.490384999999999849e-01 3.328705000000000069e+01 1.061557499999999976e+02 1.459644999999999982e+03
6.900000000000000577e-02 5.496645000000000003e-01 3.434994999999999976e+01 1.088384999999999962e+02 1.460619999999999891e+03
7.000000000000000666e-02 5.502730000000000121e-01 3.532779999999999632e+01 1.114300000000000068e+02 1.461565000000000055e+03
7.100000000000000755e-02 5.508665000000000367e-01 3.622615000000000407e+01 1.139414999999999907e+02 1.462490000000000009e+03
7.200000000000000844e-02 5.514485000000000081e-01 3.705105000000000359e+01 1.163864999999999981e+02 1.463389999999999873e+03
7.300000000000000933e-02 5.520205000000000251e-01 3.780814999999999770e+01 1.187775000000000034e+02 1.464269999999999982e+03
7.399999999999999634e-02 5.525854999999999517e-01 3.850274999999999892e+01 1.211250000000000000e+02 1.465130000000000109e+03
7.499999999999999722e-02 5.531439999999999690e-01 3.913885000000000502e+01 1.234354999999999905e+02 1.465985000000000127e+03
7.599999999999999811e-02 5.536959999999999660e-01 3.971949999999999648e+01 1.257144999999999868e+02 1.466820000000000164e+03
7.699999999999999900e-02 5.542420000000000124e-01 4.024620000000000175e+01 1.279634999999999962e+02 1.467644999999999982e+03
7.799999999999999989e-02 5.547809999999999686e-01 4.071890000000000498e+01 1.301784999999999854e+02 1.468460000000000036e+03
7.900000000000000078e-02 5.553099999999999703e-01 4.113615000000000066e+01 1.323530000000000086e+02 1.469259999999999991e+03
8.000000000000000167e-02 5.558265000000000011e-01 4.149519999999999698e+01 1.344774999999999920e+02 1.470045000000000073e+03
8.100000000000000255e-02 5.563275000000000858e-01 4.179240000000000066e+01 1.365389999999999873e+02 1.470805000000000064e+03
8.200000000000000344e-02 5.568089999999999984e-01 4.202335000000000065e+01 1.385235000000000127e+02 1.471545000000000073e+03
8.300000000000000433e-02 5.572675000000000267e-01 4.218345000000000056e+01 1.404144999999999754e+02 1.472250000000000000e+03
8.400000000000000522e-02 5.576984999999999859e-01 4.226829999999999643e+01 1.421970000000000027e+02 1.472920000000000073e+03
8.500000000000000611e-02 5.581000000000000405e-01 4.227405000000000257e+01 1.438555000000000064e+02 1.473554999999999836e+03
8.600000000000000699e-02 5.584679999999999644e-01 4.219745000000000346e+01 1.453760000000000048e+02 1.474139999999999873e+03
8.700000000000000788e-02 5.587999999999999634e-01 4.203659999999999997e+01 1.467475000000000023e+02 1.474675000000000182e+03
8.800000000000000877e-02 5.590950000000000086e-01 4.179070000000000107e+01 1.479619999999999891e+02 1.475160000000000082e+03
8.899999999999999578e-02 5.593515000000000015e-01 4.146025000000000205e+01 1.490130000000000052e+02 1.475589999999999918e+03
8.999999999999999667e-02 5.595689999999999831e-01 4.104739999999999611e+01 1.498980000000000246e+02 1.475960000000000036e+03
9.099999999999999756e-02 5.597480000000000233e-01 4.055535000000000423e+01 1.506179999999999950e+02 1.476275000000000091e+03
9.199999999999999845e-02 5.598899999999999988e-01 3.998879999999999768e+01 1.511765000000000043e+02 1.476529999999999973e+03
9.299999999999999933e-02 5.599965000000000082e-01 3.935365000000000180e+01 1.515810000000000173e+02 1.476735000000000127e+03
9.400000000000000022e-02 5.600694999999999979e-01 3.865675000000000239e+01 1.518405000000000200e+02 1.476884999999999991e+03
9.500000000000000111e-02 5.601125000000000131e-01 3.790599999999999881e+01 1.519660000000000082e+02 1.476980000000000018e+03
9.600000000000000200e-02 5.601279999999999593e-01 3.710979999999999990e+01 1.519714999999999918e+02 1.477034999999999854e+03
9.700000000000000289e-02 5.601194999999999924e-01 3.627729999999999677e+01 1.518720000000000141e+02 1.477049999999999955e+03
9.800000000000000377e-02 5.600905000000000467e-01 3.541769999999999641e+01 1.516820000000000164e+02 1.477025000000000091e+03
9.900000000000000466e-02 5.600445000000000562e-01 3.454030000000000200e+01 1.514180000000000064e+02 1.476969999999999800e+03
1.000000000000000056e-01 5.599855000000000249e-01 3.365435000000000088e+01 1.510964999999999918e+02 1.476894999999999982e+03
1.010000000000000064e-01 5.599174999999999569e-01 3.276845000000000141e+01 1.507325000000000159e+02 1.476795000000000073e+03
1.020000000000000073e-01 5.598425000000000207e-01 3.189059999999999917e+01 1.503405000000000200e+02 1.476679999999999836e+03
1.030000000000000082e-01 5.597644999999999982e-01 3.102785000000000082e+01 1.499339999999999975e+02 1.476555000000000064e+03
1.040000000000000091e-01 5.596849999999999881e-01 3.018619999999999948e+01 1.495244999999999891e+02 1.476425000000000182e+03
1.050000000000000100e-01 5.596065000000000067e-01 2.937030000000000030e+01 1.491214999999999975e+02 1.476289999999999964e+03
1.059999999999999970e-01 5.595310000000000006e-01 2.858344999999999914e+01 1.487315000000000111e+02 1.476159999999999854e+03
1.069999999999999979e-01 5.594574999999999410e-01 2.782744999999999891e+01 1.483605000000000018e+02 1.476025000000000091e+03
1.079999999999999988e-01 5.593885000000000662e-01 2.710279999999999845e+01 1.480099999999999909e+02 1.475900000000000091e+03
1.089999999999999997e-01 5.593230000000000146e-01 2.640850000000000009e+01 1.476809999999999832e+02 1.475779999999999973e+03
1.100000000000000006e-01 5.592599999999999794e-01 2.574210000000000065e+01 1.473704999999999927e+02 1.475664999999999964e+03
1.110000000000000014e-01 5.591979999999999729e-01 2.510045000000000215e+01 1.470745000000000005e+02 1.475554999999999836e+03
1.120000000000000023e-01 5.591365000000000363e-01 2.447925000000000040e+01 1.467884999999999991e+02 1.475440000000000055e+03
1.130000000000000032e-01 5.590740000000000709e-01 2.387349999999999994e+01 1.465040000000000191e+02 1.475335000000000036e+03
1.140000000000000041e-01 5.590079999999999494e-01 2.327795000000000059e+01 1.462144999999999868e+02 1.475224999999999909e+03
1.150000000000000050e-01 5.589370000000000172e-01 2.268704999999999927e+01 1.459110000000000014e+02 1.475115000000000009e+03
1.160000000000000059e-01 5.588589999999999947e-01 2.209525000000000006e+01 1.455865000000000009e+02 1.474994999999999891e+03
1.170000000000000068e-01 5.587729999999999642e-01 2.149745000000000061e+01 1.452325000000000159e+02 1.474869999999999891e+03
1.180000000000000077e-01 5.586765000000000203e-01 2.088899999999999935e+01 1.448414999999999964e+02 1.474730000000000018e+03
1.190000000000000085e-01 5.585689999999999822e-01 2.026590000000000202e+01 1.444094999999999800e+02 1.474579999999999927e+03
1.200000000000000094e-01 5.584500000000000020e-01 1.962505000000000166e+01 1.439300000000000068e+02 1.474414999999999964e+03
1.209999999999999964e-01 5.583185000000000509e-01 1.896424999999999983e+01 1.434014999999999986e+02 1.474235000000000127e+03
1.219999999999999973e-01 5.581749999999999767e-01 1.828244999999999720e+01 1.428220000000000027e+02 1.474045000000000073e+03
1.229999999999999982e-01 5.580195000000000016e-01 1.757969999999999899e+01 1.421935000000000002e+02 1.473829999999999927e+03
1.239999999999999991e-01 5.578535000000000021e-01 1.685715000000000074e+01 1.415185000000000173e+02 1.473605000000000018e+03
1.250000000000000000e-01 5.576780000000000070e-01 1.611710000000000065e+01 1.408004999999999995e+02 1.473360000000000127e+03
1.260000000000000009e-01 5.574954999999999217e-01 1.536289999999999978e+01 1.400455000000000041e+02 1.473105000000000018e+03
1.270000000000000018e-01 5.573060000000000791e-01 1.459880000000000067e+01 1.392629999999999768e+02 1.472835000000000036e+03
1.280000000000000027e-01 5.571135000000000392e-01 1.382989500000000049e+01 1.384604999999999961e+02 1.472565000000000055e+03
1.290000000000000036e-01 5.569195000000000118e-01 1.306186499999999917e+01 1.376480000000000246e+02 1.472289999999999964e+03
1.300000000000000044e-01 5.567275000000000418e-01 1.230086000000000013e+01 1.368365000000000009e+02 1.472005000000000109e+03
1.310000000000000053e-01 5.565390000000000059e-01 1.155329000000000050e+01 1.360370000000000061e+02 1.471724999999999909e+03
1.320000000000000062e-01 5.563574999999999493e-01 1.082548000000000066e+01 1.352595000000000027e+02 1.471454999999999927e+03
1.330000000000000071e-01 5.561844999999999706e-01 1.012359999999999971e+01 1.345149999999999864e+02 1.471190000000000055e+03
1.340000000000000080e-01 5.560230000000000450e-01 9.453414999999999679e+00 1.338125000000000000e+02 1.470934999999999945e+03
1.350000000000000089e-01 5.558739999999999792e-01 8.819964999999999833e+00 1.331605000000000132e+02 1.470700000000000045e+03
1.360000000000000098e-01 5.557389999999999830e-01 8.227594999999999104e+00 1.325660000000000025e+02 1.470484999999999900e+03
1.370000000000000107e-01 5.556194999999999329e-01 7.679624999999999702e+00 1.320339999999999918e+02 1.470279999999999973e+03
1.380000000000000115e-01 5.555160000000000098e-01 7.178404999999999703e+00 1.315674999999999955e+02 1.470099999999999909e+03
1.390000000000000124e-01 5.554280000000000328e-01 6.725234999999999630e+00 1.311684999999999945e+02 1.469945000000000164e+03
1.400000000000000133e-01 5.553555000000000019e-01 6.320265000000000022e+00 1.308369999999999891e+02 1.469804999999999836e+03
1.410000000000000142e-01 5.552985000000000282e-01 5.962635000000000574e+00 1.305685000000000002e+02 1.469690000000000055e+03
1.420000000000000151e-01 5.552544999999999842e-01 5.650529999999999831e+00 1.303614999999999782e+02 1.469594999999999800e+03
1.430000000000000160e-01 5.552230000000000221e-01 5.381260000000000154e+00 1.302094999999999914e+02 1.469519999999999982e+03
1.440000000000000169e-01 5.552025000000000432e-01 5.151455000000000339e+00 1.301064999999999827e+02 1.469465000000000146e+03
1.450000000000000178e-01 5.551900000000000723e-01 4.957174999999999443e+00 1.300434999999999945e+02 1.469420000000000073e+03
1.459999999999999909e-01 5.551844999999999697e-01 4.794120000000000381e+00 1.300140000000000100e+02 1.469389999999999873e+03
1.469999999999999918e-01 5.551840000000000108e-01 4.657759999999999678e+00 1.300095000000000027e+02 1.469369999999999891e+03
1.479999999999999927e-01 5.551869999999999861e-01 4.543524999999999814e+00 1.300210000000000150e+02 1.469360000000000127e+03
1.489999999999999936e-01 5.551909999999999901e-01 4.446905000000000108e+00 1.300420000000000016e+02 1.469355000000000018e+03
1.499999999999999944e-01 5.551945000000000352e-01 4.363629999999999676e+00 1.300645000000000095e+02 1.469349999999999909e+03
1.509999999999999953e-01 5.551964999999999817e-01 4.289724999999999788e+00 1.300819999999999936e+02 1.469349999999999909e+03
1.519999999999999962e-01 5.551954999999999529e-01 4.221600000000000463e+00 1.300889999999999986e+02 1.469345000000000027e+03
1.529999999999999971e-01 5.551909999999999901e-01 4.156105000000000160e+00 1.300819999999999936e+02 1.469335000000000036e+03
1.539999999999999980e-01 5.551814999999999944e-01 4.090570000000000483e+00 1.300560000000000116e+02 1.469320000000000164e+03
1.549999999999999989e-01 5.551675000000000360e-01 4.022790000000000532e+00 1.300090000000000146e+02 1.469305000000000064e+03
1.559999999999999998e-01 5.551479999999999748e-01 3.951055000000000206e+00 1.299399999999999977e+02 1.469279999999999973e+03
1.570000000000000007e-01 5.551230000000000331e-01 3.874105000000000132e+00 1.298474999999999966e+02 1.469244999999999891e+03
1.580000000000000016e-01 5.550935000000000175e-01 3.791139999999999954e+00 1.297325000000000159e+02 1.469210000000000036e+03
1.590000000000000024e-01 5.550585000000000102e-01 3.701755000000000351e+00 1.295949999999999989e+02 1.469164999999999964e+03
